PE IR       SUBTECH     SPECTRUM    ASCII       PEDS        4.00        
   -1
P12-Vert031_1.ASC
23/06/09
10:58:23.00
23/06/09
11:23:17.00
uco
Sample 031 By uco Date Friday, June 09 2023
450.000000
#HDR
-1
-1
#GR
cm-1
A
1.0
0.0
4000.000000
-1.000000
3551
8
0.007824
0.000173
#DATA
4000.000000	0.001012
3999.000000	0.001017
3998.000000	0.001025
3997.000000	0.001029
3996.000000	0.001024
3995.000000	0.001008
3994.000000	0.000987
3993.000000	0.000974
3992.000000	0.000978
3991.000000	0.001000
3990.000000	0.001028
3989.000000	0.001045
3988.000000	0.001048
3987.000000	0.001048
3986.000000	0.001059
3985.000000	0.001088
3984.000000	0.001125
3983.000000	0.001154
3982.000000	0.001165
3981.000000	0.001158
3980.000000	0.001137
3979.000000	0.001111
3978.000000	0.001083
3977.000000	0.001055
3976.000000	0.001026
3975.000000	0.001002
3974.000000	0.000990
3973.000000	0.000998
3972.000000	0.001021
3971.000000	0.001051
3970.000000	0.001076
3969.000000	0.001091
3968.000000	0.001098
3967.000000	0.001101
3966.000000	0.001105
3965.000000	0.001111
3964.000000	0.001118
3963.000000	0.001120
3962.000000	0.001110
3961.000000	0.001088
3960.000000	0.001065
3959.000000	0.001057
3958.000000	0.001071
3957.000000	0.001099
3956.000000	0.001121
3955.000000	0.001128
3954.000000	0.001121
3953.000000	0.001109
3952.000000	0.001095
3951.000000	0.001076
3950.000000	0.001054
3949.000000	0.001035
3948.000000	0.001025
3947.000000	0.001024
3946.000000	0.001025
3945.000000	0.001020
3944.000000	0.001015
3943.000000	0.001016
3942.000000	0.001028
3941.000000	0.001049
3940.000000	0.001072
3939.000000	0.001094
3938.000000	0.001111
3937.000000	0.001114
3936.000000	0.001103
3935.000000	0.001081
3934.000000	0.001061
3933.000000	0.001058
3932.000000	0.001075
3931.000000	0.001103
3930.000000	0.001125
3929.000000	0.001128
3928.000000	0.001115
3927.000000	0.001101
3926.000000	0.001101
3925.000000	0.001118
3924.000000	0.001138
3923.000000	0.001144
3922.000000	0.001131
3921.000000	0.001107
3920.000000	0.001085
3919.000000	0.001074
3918.000000	0.001074
3917.000000	0.001078
3916.000000	0.001082
3915.000000	0.001090
3914.000000	0.001103
3913.000000	0.001119
3912.000000	0.001136
3911.000000	0.001150
3910.000000	0.001159
3909.000000	0.001157
3908.000000	0.001144
3907.000000	0.001124
3906.000000	0.001102
3905.000000	0.001080
3904.000000	0.001055
3903.000000	0.001031
3902.000000	0.001021
3901.000000	0.001033
3900.000000	0.001062
3899.000000	0.001086
3898.000000	0.001090
3897.000000	0.001077
3896.000000	0.001059
3895.000000	0.001047
3894.000000	0.001045
3893.000000	0.001053
3892.000000	0.001067
3891.000000	0.001074
3890.000000	0.001068
3889.000000	0.001053
3888.000000	0.001041
3887.000000	0.001038
3886.000000	0.001040
3885.000000	0.001036
3884.000000	0.001022
3883.000000	0.001011
3882.000000	0.001019
3881.000000	0.001047
3880.000000	0.001075
3879.000000	0.001085
3878.000000	0.001078
3877.000000	0.001075
3876.000000	0.001085
3875.000000	0.001099
3874.000000	0.001104
3873.000000	0.001093
3872.000000	0.001077
3871.000000	0.001071
3870.000000	0.001073
3869.000000	0.001065
3868.000000	0.001047
3867.000000	0.001033
3866.000000	0.001036
3865.000000	0.001050
3864.000000	0.001059
3863.000000	0.001059
3862.000000	0.001058
3861.000000	0.001071
3860.000000	0.001100
3859.000000	0.001135
3858.000000	0.001161
3857.000000	0.001168
3856.000000	0.001149
3855.000000	0.001103
3854.000000	0.001058
3853.000000	0.001044
3852.000000	0.001057
3851.000000	0.001083
3850.000000	0.001112
3849.000000	0.001135
3848.000000	0.001140
3847.000000	0.001129
3846.000000	0.001109
3845.000000	0.001092
3844.000000	0.001084
3843.000000	0.001080
3842.000000	0.001072
3841.000000	0.001052
3840.000000	0.001025
3839.000000	0.001004
3838.000000	0.000996
3837.000000	0.001001
3836.000000	0.001013
3835.000000	0.001033
3834.000000	0.001061
3833.000000	0.001092
3832.000000	0.001118
3831.000000	0.001131
3830.000000	0.001134
3829.000000	0.001137
3828.000000	0.001145
3827.000000	0.001153
3826.000000	0.001151
3825.000000	0.001138
3824.000000	0.001123
3823.000000	0.001119
3822.000000	0.001130
3821.000000	0.001143
3820.000000	0.001140
3819.000000	0.001126
3818.000000	0.001126
3817.000000	0.001147
3816.000000	0.001173
3815.000000	0.001182
3814.000000	0.001171
3813.000000	0.001152
3812.000000	0.001137
3811.000000	0.001134
3810.000000	0.001146
3809.000000	0.001170
3808.000000	0.001193
3807.000000	0.001193
3806.000000	0.001161
3805.000000	0.001115
3804.000000	0.001085
3803.000000	0.001086
3802.000000	0.001110
3801.000000	0.001121
3800.000000	0.001103
3799.000000	0.001078
3798.000000	0.001073
3797.000000	0.001092
3796.000000	0.001120
3795.000000	0.001144
3794.000000	0.001158
3793.000000	0.001167
3792.000000	0.001174
3791.000000	0.001182
3790.000000	0.001189
3789.000000	0.001191
3788.000000	0.001191
3787.000000	0.001193
3786.000000	0.001198
3785.000000	0.001197
3784.000000	0.001183
3783.000000	0.001160
3782.000000	0.001142
3781.000000	0.001137
3780.000000	0.001143
3779.000000	0.001153
3778.000000	0.001161
3777.000000	0.001165
3776.000000	0.001168
3775.000000	0.001168
3774.000000	0.001161
3773.000000	0.001148
3772.000000	0.001139
3771.000000	0.001146
3770.000000	0.001166
3769.000000	0.001182
3768.000000	0.001185
3767.000000	0.001181
3766.000000	0.001178
3765.000000	0.001174
3764.000000	0.001165
3763.000000	0.001158
3762.000000	0.001157
3761.000000	0.001160
3760.000000	0.001162
3759.000000	0.001165
3758.000000	0.001167
3757.000000	0.001165
3756.000000	0.001160
3755.000000	0.001154
3754.000000	0.001143
3753.000000	0.001131
3752.000000	0.001133
3751.000000	0.001168
3750.000000	0.001216
3749.000000	0.001233
3748.000000	0.001217
3747.000000	0.001199
3746.000000	0.001203
3745.000000	0.001214
3744.000000	0.001193
3743.000000	0.001135
3742.000000	0.001079
3741.000000	0.001051
3740.000000	0.001050
3739.000000	0.001064
3738.000000	0.001074
3737.000000	0.001068
3736.000000	0.001050
3735.000000	0.001036
3734.000000	0.001043
3733.000000	0.001061
3732.000000	0.001071
3731.000000	0.001064
3730.000000	0.001051
3729.000000	0.001046
3728.000000	0.001055
3727.000000	0.001070
3726.000000	0.001080
3725.000000	0.001073
3724.000000	0.001055
3723.000000	0.001039
3722.000000	0.001033
3721.000000	0.001038
3720.000000	0.001051
3719.000000	0.001071
3718.000000	0.001090
3717.000000	0.001099
3716.000000	0.001097
3715.000000	0.001093
3714.000000	0.001101
3713.000000	0.001129
3712.000000	0.001172
3711.000000	0.001215
3710.000000	0.001242
3709.000000	0.001241
3708.000000	0.001216
3707.000000	0.001177
3706.000000	0.001136
3705.000000	0.001100
3704.000000	0.001070
3703.000000	0.001045
3702.000000	0.001028
3701.000000	0.001021
3700.000000	0.001026
3699.000000	0.001044
3698.000000	0.001071
3697.000000	0.001091
3696.000000	0.001100
3695.000000	0.001102
3694.000000	0.001107
3693.000000	0.001116
3692.000000	0.001119
3691.000000	0.001114
3690.000000	0.001104
3689.000000	0.001096
3688.000000	0.001090
3687.000000	0.001088
3686.000000	0.001087
3685.000000	0.001078
3684.000000	0.001061
3683.000000	0.001044
3682.000000	0.001037
3681.000000	0.001038
3680.000000	0.001038
3679.000000	0.001034
3678.000000	0.001026
3677.000000	0.001016
3676.000000	0.001010
3675.000000	0.001004
3674.000000	0.000989
3673.000000	0.000973
3672.000000	0.000973
3671.000000	0.001002
3670.000000	0.001057
3669.000000	0.001108
3668.000000	0.001134
3667.000000	0.001145
3666.000000	0.001153
3665.000000	0.001165
3664.000000	0.001182
3663.000000	0.001202
3662.000000	0.001220
3661.000000	0.001229
3660.000000	0.001228
3659.000000	0.001222
3658.000000	0.001211
3657.000000	0.001188
3656.000000	0.001149
3655.000000	0.001111
3654.000000	0.001091
3653.000000	0.001087
3652.000000	0.001085
3651.000000	0.001074
3650.000000	0.001057
3649.000000	0.001047
3648.000000	0.001046
3647.000000	0.001051
3646.000000	0.001059
3645.000000	0.001066
3644.000000	0.001077
3643.000000	0.001097
3642.000000	0.001121
3641.000000	0.001136
3640.000000	0.001136
3639.000000	0.001126
3638.000000	0.001112
3637.000000	0.001099
3636.000000	0.001088
3635.000000	0.001086
3634.000000	0.001095
3633.000000	0.001111
3632.000000	0.001129
3631.000000	0.001148
3630.000000	0.001163
3629.000000	0.001164
3628.000000	0.001141
3627.000000	0.001107
3626.000000	0.001081
3625.000000	0.001063
3624.000000	0.001044
3623.000000	0.001021
3622.000000	0.000997
3621.000000	0.000982
3620.000000	0.000988
3619.000000	0.001019
3618.000000	0.001059
3617.000000	0.001088
3616.000000	0.001106
3615.000000	0.001129
3614.000000	0.001166
3613.000000	0.001207
3612.000000	0.001238
3611.000000	0.001261
3610.000000	0.001286
3609.000000	0.001311
3608.000000	0.001326
3607.000000	0.001325
3606.000000	0.001311
3605.000000	0.001288
3604.000000	0.001263
3603.000000	0.001241
3602.000000	0.001229
3601.000000	0.001228
3600.000000	0.001236
3599.000000	0.001249
3598.000000	0.001259
3597.000000	0.001256
3596.000000	0.001243
3595.000000	0.001234
3594.000000	0.001241
3593.000000	0.001256
3592.000000	0.001260
3591.000000	0.001240
3590.000000	0.001192
3589.000000	0.001133
3588.000000	0.001098
3587.000000	0.001115
3586.000000	0.001178
3585.000000	0.001254
3584.000000	0.001322
3583.000000	0.001375
3582.000000	0.001411
3581.000000	0.001426
3580.000000	0.001423
3579.000000	0.001414
3578.000000	0.001412
3577.000000	0.001421
3576.000000	0.001435
3575.000000	0.001451
3574.000000	0.001470
3573.000000	0.001492
3572.000000	0.001509
3571.000000	0.001509
3570.000000	0.001484
3569.000000	0.001432
3568.000000	0.001377
3567.000000	0.001353
3566.000000	0.001372
3565.000000	0.001416
3564.000000	0.001466
3563.000000	0.001506
3562.000000	0.001528
3561.000000	0.001527
3560.000000	0.001511
3559.000000	0.001499
3558.000000	0.001501
3557.000000	0.001511
3556.000000	0.001517
3555.000000	0.001514
3554.000000	0.001512
3553.000000	0.001523
3552.000000	0.001551
3551.000000	0.001585
3550.000000	0.001611
3549.000000	0.001619
3548.000000	0.001610
3547.000000	0.001597
3546.000000	0.001590
3545.000000	0.001594
3544.000000	0.001612
3543.000000	0.001644
3542.000000	0.001682
3541.000000	0.001713
3540.000000	0.001727
3539.000000	0.001730
3538.000000	0.001731
3537.000000	0.001739
3536.000000	0.001756
3535.000000	0.001782
3534.000000	0.001808
3533.000000	0.001826
3532.000000	0.001828
3531.000000	0.001815
3530.000000	0.001794
3529.000000	0.001770
3528.000000	0.001753
3527.000000	0.001749
3526.000000	0.001757
3525.000000	0.001772
3524.000000	0.001789
3523.000000	0.001810
3522.000000	0.001837
3521.000000	0.001868
3520.000000	0.001904
3519.000000	0.001946
3518.000000	0.001984
3517.000000	0.002005
3516.000000	0.002000
3515.000000	0.001981
3514.000000	0.001960
3513.000000	0.001942
3512.000000	0.001929
3511.000000	0.001923
3510.000000	0.001927
3509.000000	0.001938
3508.000000	0.001954
3507.000000	0.001977
3506.000000	0.002007
3505.000000	0.002033
3504.000000	0.002046
3503.000000	0.002046
3502.000000	0.002040
3501.000000	0.002032
3500.000000	0.002026
3499.000000	0.002026
3498.000000	0.002036
3497.000000	0.002051
3496.000000	0.002061
3495.000000	0.002062
3494.000000	0.002053
3493.000000	0.002046
3492.000000	0.002051
3491.000000	0.002075
3490.000000	0.002107
3489.000000	0.002126
3488.000000	0.002119
3487.000000	0.002100
3486.000000	0.002086
3485.000000	0.002083
3484.000000	0.002084
3483.000000	0.002086
3482.000000	0.002090
3481.000000	0.002092
3480.000000	0.002094
3479.000000	0.002100
3478.000000	0.002119
3477.000000	0.002148
3476.000000	0.002180
3475.000000	0.002204
3474.000000	0.002214
3473.000000	0.002205
3472.000000	0.002185
3471.000000	0.002169
3470.000000	0.002173
3469.000000	0.002195
3468.000000	0.002226
3467.000000	0.002254
3466.000000	0.002273
3465.000000	0.002281
3464.000000	0.002282
3463.000000	0.002282
3462.000000	0.002287
3461.000000	0.002294
3460.000000	0.002295
3459.000000	0.002287
3458.000000	0.002273
3457.000000	0.002258
3456.000000	0.002250
3455.000000	0.002253
3454.000000	0.002262
3453.000000	0.002264
3452.000000	0.002255
3451.000000	0.002245
3450.000000	0.002244
3449.000000	0.002250
3448.000000	0.002259
3447.000000	0.002265
3446.000000	0.002272
3445.000000	0.002284
3444.000000	0.002305
3443.000000	0.002340
3442.000000	0.002383
3441.000000	0.002419
3440.000000	0.002434
3439.000000	0.002429
3438.000000	0.002417
3437.000000	0.002412
3436.000000	0.002421
3435.000000	0.002439
3434.000000	0.002456
3433.000000	0.002465
3432.000000	0.002464
3431.000000	0.002466
3430.000000	0.002479
3429.000000	0.002507
3428.000000	0.002543
3427.000000	0.002580
3426.000000	0.002612
3425.000000	0.002634
3424.000000	0.002646
3423.000000	0.002649
3422.000000	0.002648
3421.000000	0.002649
3420.000000	0.002654
3419.000000	0.002665
3418.000000	0.002678
3417.000000	0.002688
3416.000000	0.002697
3415.000000	0.002715
3414.000000	0.002746
3413.000000	0.002787
3412.000000	0.002826
3411.000000	0.002857
3410.000000	0.002878
3409.000000	0.002894
3408.000000	0.002921
3407.000000	0.002966
3406.000000	0.003018
3405.000000	0.003056
3404.000000	0.003072
3403.000000	0.003071
3402.000000	0.003064
3401.000000	0.003051
3400.000000	0.003034
3399.000000	0.003018
3398.000000	0.003005
3397.000000	0.002993
3396.000000	0.002983
3395.000000	0.002989
3394.000000	0.003022
3393.000000	0.003072
3392.000000	0.003113
3391.000000	0.003128
3390.000000	0.003117
3389.000000	0.003097
3388.000000	0.003085
3387.000000	0.003090
3386.000000	0.003104
3385.000000	0.003113
3384.000000	0.003105
3383.000000	0.003080
3382.000000	0.003047
3381.000000	0.003019
3380.000000	0.003010
3379.000000	0.003026
3378.000000	0.003062
3377.000000	0.003102
3376.000000	0.003137
3375.000000	0.003168
3374.000000	0.003196
3373.000000	0.003215
3372.000000	0.003214
3371.000000	0.003191
3370.000000	0.003162
3369.000000	0.003144
3368.000000	0.003144
3367.000000	0.003157
3366.000000	0.003168
3365.000000	0.003165
3364.000000	0.003150
3363.000000	0.003139
3362.000000	0.003140
3361.000000	0.003151
3360.000000	0.003162
3359.000000	0.003164
3358.000000	0.003160
3357.000000	0.003152
3356.000000	0.003146
3355.000000	0.003144
3354.000000	0.003146
3353.000000	0.003151
3352.000000	0.003163
3351.000000	0.003181
3350.000000	0.003201
3349.000000	0.003215
3348.000000	0.003221
3347.000000	0.003230
3346.000000	0.003248
3345.000000	0.003274
3344.000000	0.003301
3343.000000	0.003323
3342.000000	0.003334
3341.000000	0.003335
3340.000000	0.003336
3339.000000	0.003355
3338.000000	0.003392
3337.000000	0.003431
3336.000000	0.003449
3335.000000	0.003437
3334.000000	0.003402
3333.000000	0.003360
3332.000000	0.003327
3331.000000	0.003317
3330.000000	0.003331
3329.000000	0.003364
3328.000000	0.003409
3327.000000	0.003458
3326.000000	0.003504
3325.000000	0.003534
3324.000000	0.003548
3323.000000	0.003551
3322.000000	0.003550
3321.000000	0.003546
3320.000000	0.003544
3319.000000	0.003554
3318.000000	0.003579
3317.000000	0.003607
3316.000000	0.003621
3315.000000	0.003616
3314.000000	0.003599
3313.000000	0.003578
3312.000000	0.003557
3311.000000	0.003540
3310.000000	0.003533
3309.000000	0.003538
3308.000000	0.003554
3307.000000	0.003574
3306.000000	0.003587
3305.000000	0.003586
3304.000000	0.003577
3303.000000	0.003574
3302.000000	0.003583
3301.000000	0.003595
3300.000000	0.003599
3299.000000	0.003597
3298.000000	0.003591
3297.000000	0.003580
3296.000000	0.003560
3295.000000	0.003541
3294.000000	0.003535
3293.000000	0.003546
3292.000000	0.003563
3291.000000	0.003573
3290.000000	0.003569
3289.000000	0.003556
3288.000000	0.003545
3287.000000	0.003549
3286.000000	0.003567
3285.000000	0.003585
3284.000000	0.003591
3283.000000	0.003588
3282.000000	0.003588
3281.000000	0.003595
3280.000000	0.003600
3279.000000	0.003591
3278.000000	0.003565
3277.000000	0.003531
3276.000000	0.003505
3275.000000	0.003501
3274.000000	0.003514
3273.000000	0.003526
3272.000000	0.003520
3271.000000	0.003498
3270.000000	0.003478
3269.000000	0.003475
3268.000000	0.003487
3267.000000	0.003500
3266.000000	0.003505
3265.000000	0.003499
3264.000000	0.003490
3263.000000	0.003485
3262.000000	0.003487
3261.000000	0.003490
3260.000000	0.003490
3259.000000	0.003486
3258.000000	0.003482
3257.000000	0.003480
3256.000000	0.003479
3255.000000	0.003478
3254.000000	0.003480
3253.000000	0.003491
3252.000000	0.003513
3251.000000	0.003536
3250.000000	0.003539
3249.000000	0.003510
3248.000000	0.003460
3247.000000	0.003413
3246.000000	0.003390
3245.000000	0.003386
3244.000000	0.003388
3243.000000	0.003385
3242.000000	0.003375
3241.000000	0.003364
3240.000000	0.003356
3239.000000	0.003360
3238.000000	0.003379
3237.000000	0.003411
3236.000000	0.003446
3235.000000	0.003471
3234.000000	0.003472
3233.000000	0.003446
3232.000000	0.003405
3231.000000	0.003370
3230.000000	0.003359
3229.000000	0.003371
3228.000000	0.003395
3227.000000	0.003419
3226.000000	0.003432
3225.000000	0.003429
3224.000000	0.003416
3223.000000	0.003401
3222.000000	0.003397
3221.000000	0.003408
3220.000000	0.003431
3219.000000	0.003453
3218.000000	0.003458
3217.000000	0.003436
3216.000000	0.003396
3215.000000	0.003358
3214.000000	0.003340
3213.000000	0.003340
3212.000000	0.003348
3211.000000	0.003356
3210.000000	0.003361
3209.000000	0.003366
3208.000000	0.003372
3207.000000	0.003380
3206.000000	0.003385
3205.000000	0.003379
3204.000000	0.003366
3203.000000	0.003348
3202.000000	0.003327
3201.000000	0.003302
3200.000000	0.003280
3199.000000	0.003274
3198.000000	0.003289
3197.000000	0.003313
3196.000000	0.003329
3195.000000	0.003331
3194.000000	0.003323
3193.000000	0.003307
3192.000000	0.003289
3191.000000	0.003274
3190.000000	0.003273
3189.000000	0.003287
3188.000000	0.003306
3187.000000	0.003316
3186.000000	0.003305
3185.000000	0.003275
3184.000000	0.003241
3183.000000	0.003223
3182.000000	0.003229
3181.000000	0.003253
3180.000000	0.003280
3179.000000	0.003303
3178.000000	0.003320
3177.000000	0.003329
3176.000000	0.003328
3175.000000	0.003322
3174.000000	0.003313
3173.000000	0.003301
3172.000000	0.003289
3171.000000	0.003280
3170.000000	0.003278
3169.000000	0.003285
3168.000000	0.003299
3167.000000	0.003311
3166.000000	0.003310
3165.000000	0.003285
3164.000000	0.003246
3163.000000	0.003215
3162.000000	0.003207
3161.000000	0.003217
3160.000000	0.003234
3159.000000	0.003254
3158.000000	0.003278
3157.000000	0.003305
3156.000000	0.003327
3155.000000	0.003336
3154.000000	0.003331
3153.000000	0.003315
3152.000000	0.003289
3151.000000	0.003261
3150.000000	0.003238
3149.000000	0.003226
3148.000000	0.003222
3147.000000	0.003223
3146.000000	0.003223
3145.000000	0.003215
3144.000000	0.003199
3143.000000	0.003180
3142.000000	0.003165
3141.000000	0.003156
3140.000000	0.003150
3139.000000	0.003141
3138.000000	0.003125
3137.000000	0.003101
3136.000000	0.003073
3135.000000	0.003049
3134.000000	0.003043
3133.000000	0.003060
3132.000000	0.003095
3131.000000	0.003133
3130.000000	0.003158
3129.000000	0.003161
3128.000000	0.003145
3127.000000	0.003122
3126.000000	0.003102
3125.000000	0.003089
3124.000000	0.003087
3123.000000	0.003096
3122.000000	0.003116
3121.000000	0.003137
3120.000000	0.003153
3119.000000	0.003160
3118.000000	0.003159
3117.000000	0.003151
3116.000000	0.003135
3115.000000	0.003117
3114.000000	0.003104
3113.000000	0.003097
3112.000000	0.003092
3111.000000	0.003085
3110.000000	0.003073
3109.000000	0.003061
3108.000000	0.003054
3107.000000	0.003054
3106.000000	0.003058
3105.000000	0.003062
3104.000000	0.003064
3103.000000	0.003057
3102.000000	0.003039
3101.000000	0.003011
3100.000000	0.002987
3099.000000	0.002982
3098.000000	0.002994
3097.000000	0.003010
3096.000000	0.003018
3095.000000	0.003023
3094.000000	0.003035
3093.000000	0.003050
3092.000000	0.003057
3091.000000	0.003047
3090.000000	0.003025
3089.000000	0.003000
3088.000000	0.002979
3087.000000	0.002967
3086.000000	0.002965
3085.000000	0.002971
3084.000000	0.002985
3083.000000	0.003005
3082.000000	0.003021
3081.000000	0.003020
3080.000000	0.002998
3079.000000	0.002968
3078.000000	0.002947
3077.000000	0.002944
3076.000000	0.002957
3075.000000	0.002980
3074.000000	0.003008
3073.000000	0.003027
3072.000000	0.003029
3071.000000	0.003014
3070.000000	0.002996
3069.000000	0.002982
3068.000000	0.002973
3067.000000	0.002965
3066.000000	0.002960
3065.000000	0.002961
3064.000000	0.002973
3063.000000	0.002988
3062.000000	0.002999
3061.000000	0.003000
3060.000000	0.002992
3059.000000	0.002978
3058.000000	0.002965
3057.000000	0.002955
3056.000000	0.002951
3055.000000	0.002950
3054.000000	0.002951
3053.000000	0.002950
3052.000000	0.002945
3051.000000	0.002939
3050.000000	0.002937
3049.000000	0.002941
3048.000000	0.002947
3047.000000	0.002945
3046.000000	0.002926
3045.000000	0.002893
3044.000000	0.002858
3043.000000	0.002838
3042.000000	0.002840
3041.000000	0.002852
3040.000000	0.002863
3039.000000	0.002869
3038.000000	0.002873
3037.000000	0.002876
3036.000000	0.002873
3035.000000	0.002862
3034.000000	0.002849
3033.000000	0.002846
3032.000000	0.002859
3031.000000	0.002882
3030.000000	0.002911
3029.000000	0.002940
3028.000000	0.002965
3027.000000	0.002980
3026.000000	0.002981
3025.000000	0.002968
3024.000000	0.002946
3023.000000	0.002920
3022.000000	0.002894
3021.000000	0.002873
3020.000000	0.002866
3019.000000	0.002875
3018.000000	0.002894
3017.000000	0.002911
3016.000000	0.002917
3015.000000	0.002911
3014.000000	0.002903
3013.000000	0.002902
3012.000000	0.002907
3011.000000	0.002909
3010.000000	0.002896
3009.000000	0.002868
3008.000000	0.002843
3007.000000	0.002837
3006.000000	0.002849
3005.000000	0.002868
3004.000000	0.002882
3003.000000	0.002891
3002.000000	0.002897
3001.000000	0.002897
3000.000000	0.002895
2999.000000	0.002895
2998.000000	0.002905
2997.000000	0.002923
2996.000000	0.002946
2995.000000	0.002968
2994.000000	0.002983
2993.000000	0.002988
2992.000000	0.002982
2991.000000	0.002965
2990.000000	0.002939
2989.000000	0.002910
2988.000000	0.002891
2987.000000	0.002887
2986.000000	0.002894
2985.000000	0.002896
2984.000000	0.002887
2983.000000	0.002876
2982.000000	0.002875
2981.000000	0.002883
2980.000000	0.002892
2979.000000	0.002897
2978.000000	0.002904
2977.000000	0.002920
2976.000000	0.002941
2975.000000	0.002962
2974.000000	0.002974
2973.000000	0.002978
2972.000000	0.002973
2971.000000	0.002958
2970.000000	0.002937
2969.000000	0.002920
2968.000000	0.002919
2967.000000	0.002938
2966.000000	0.002964
2965.000000	0.002978
2964.000000	0.002970
2963.000000	0.002950
2962.000000	0.002934
2961.000000	0.002931
2960.000000	0.002939
2959.000000	0.002952
2958.000000	0.002962
2957.000000	0.002965
2956.000000	0.002964
2955.000000	0.002960
2954.000000	0.002951
2953.000000	0.002929
2952.000000	0.002899
2951.000000	0.002872
2950.000000	0.002866
2949.000000	0.002880
2948.000000	0.002903
2947.000000	0.002918
2946.000000	0.002919
2945.000000	0.002916
2944.000000	0.002923
2943.000000	0.002945
2942.000000	0.002972
2941.000000	0.002992
2940.000000	0.002998
2939.000000	0.002998
2938.000000	0.002994
2937.000000	0.002981
2936.000000	0.002955
2935.000000	0.002921
2934.000000	0.002894
2933.000000	0.002883
2932.000000	0.002885
2931.000000	0.002889
2930.000000	0.002889
2929.000000	0.002887
2928.000000	0.002890
2927.000000	0.002894
2926.000000	0.002895
2925.000000	0.002888
2924.000000	0.002881
2923.000000	0.002883
2922.000000	0.002897
2921.000000	0.002922
2920.000000	0.002954
2919.000000	0.002989
2918.000000	0.003021
2917.000000	0.003043
2916.000000	0.003056
2915.000000	0.003062
2914.000000	0.003065
2913.000000	0.003063
2912.000000	0.003059
2911.000000	0.003061
2910.000000	0.003075
2909.000000	0.003097
2908.000000	0.003111
2907.000000	0.003107
2906.000000	0.003087
2905.000000	0.003058
2904.000000	0.003029
2903.000000	0.003005
2902.000000	0.002989
2901.000000	0.002981
2900.000000	0.002983
2899.000000	0.002991
2898.000000	0.002999
2897.000000	0.003001
2896.000000	0.003000
2895.000000	0.003004
2894.000000	0.003014
2893.000000	0.003029
2892.000000	0.003041
2891.000000	0.003049
2890.000000	0.003054
2889.000000	0.003053
2888.000000	0.003039
2887.000000	0.003014
2886.000000	0.002992
2885.000000	0.002980
2884.000000	0.002977
2883.000000	0.002974
2882.000000	0.002972
2881.000000	0.002979
2880.000000	0.002997
2879.000000	0.003016
2878.000000	0.003021
2877.000000	0.003013
2876.000000	0.003003
2875.000000	0.003000
2874.000000	0.002997
2873.000000	0.002982
2872.000000	0.002960
2871.000000	0.002943
2870.000000	0.002943
2869.000000	0.002953
2868.000000	0.002961
2867.000000	0.002958
2866.000000	0.002945
2865.000000	0.002923
2864.000000	0.002899
2863.000000	0.002881
2862.000000	0.002875
2861.000000	0.002879
2860.000000	0.002887
2859.000000	0.002893
2858.000000	0.002899
2857.000000	0.002907
2856.000000	0.002918
2855.000000	0.002929
2854.000000	0.002935
2853.000000	0.002933
2852.000000	0.002926
2851.000000	0.002915
2850.000000	0.002901
2849.000000	0.002888
2848.000000	0.002885
2847.000000	0.002896
2846.000000	0.002916
2845.000000	0.002934
2844.000000	0.002942
2843.000000	0.002944
2842.000000	0.002944
2841.000000	0.002941
2840.000000	0.002933
2839.000000	0.002924
2838.000000	0.002925
2837.000000	0.002936
2836.000000	0.002946
2835.000000	0.002941
2834.000000	0.002922
2833.000000	0.002897
2832.000000	0.002875
2831.000000	0.002860
2830.000000	0.002850
2829.000000	0.002846
2828.000000	0.002848
2827.000000	0.002852
2826.000000	0.002853
2825.000000	0.002848
2824.000000	0.002840
2823.000000	0.002836
2822.000000	0.002843
2821.000000	0.002855
2820.000000	0.002860
2819.000000	0.002853
2818.000000	0.002835
2817.000000	0.002816
2816.000000	0.002802
2815.000000	0.002794
2814.000000	0.002793
2813.000000	0.002799
2812.000000	0.002805
2811.000000	0.002806
2810.000000	0.002798
2809.000000	0.002788
2808.000000	0.002784
2807.000000	0.002782
2806.000000	0.002778
2805.000000	0.002771
2804.000000	0.002769
2803.000000	0.002779
2802.000000	0.002798
2801.000000	0.002816
2800.000000	0.002827
2799.000000	0.002829
2798.000000	0.002827
2797.000000	0.002827
2796.000000	0.002830
2795.000000	0.002830
2794.000000	0.002820
2793.000000	0.002799
2792.000000	0.002778
2791.000000	0.002770
2790.000000	0.002777
2789.000000	0.002792
2788.000000	0.002808
2787.000000	0.002817
2786.000000	0.002816
2785.000000	0.002808
2784.000000	0.002800
2783.000000	0.002800
2782.000000	0.002807
2781.000000	0.002816
2780.000000	0.002819
2779.000000	0.002817
2778.000000	0.002815
2777.000000	0.002819
2776.000000	0.002830
2775.000000	0.002837
2774.000000	0.002829
2773.000000	0.002803
2772.000000	0.002770
2771.000000	0.002748
2770.000000	0.002744
2769.000000	0.002750
2768.000000	0.002754
2767.000000	0.002751
2766.000000	0.002748
2765.000000	0.002748
2764.000000	0.002747
2763.000000	0.002746
2762.000000	0.002747
2761.000000	0.002758
2760.000000	0.002773
2759.000000	0.002782
2758.000000	0.002779
2757.000000	0.002770
2756.000000	0.002767
2755.000000	0.002772
2754.000000	0.002775
2753.000000	0.002773
2752.000000	0.002768
2751.000000	0.002766
2750.000000	0.002770
2749.000000	0.002772
2748.000000	0.002764
2747.000000	0.002747
2746.000000	0.002732
2745.000000	0.002726
2744.000000	0.002728
2743.000000	0.002727
2742.000000	0.002719
2741.000000	0.002707
2740.000000	0.002705
2739.000000	0.002717
2738.000000	0.002738
2737.000000	0.002756
2736.000000	0.002762
2735.000000	0.002752
2734.000000	0.002730
2733.000000	0.002705
2732.000000	0.002689
2731.000000	0.002685
2730.000000	0.002691
2729.000000	0.002702
2728.000000	0.002717
2727.000000	0.002734
2726.000000	0.002750
2725.000000	0.002762
2724.000000	0.002767
2723.000000	0.002768
2722.000000	0.002764
2721.000000	0.002759
2720.000000	0.002757
2719.000000	0.002757
2718.000000	0.002757
2717.000000	0.002751
2716.000000	0.002738
2715.000000	0.002721
2714.000000	0.002708
2713.000000	0.002705
2712.000000	0.002719
2711.000000	0.002748
2710.000000	0.002778
2709.000000	0.002792
2708.000000	0.002780
2707.000000	0.002753
2706.000000	0.002727
2705.000000	0.002718
2704.000000	0.002732
2703.000000	0.002757
2702.000000	0.002778
2701.000000	0.002782
2700.000000	0.002765
2699.000000	0.002736
2698.000000	0.002706
2697.000000	0.002681
2696.000000	0.002666
2695.000000	0.002662
2694.000000	0.002668
2693.000000	0.002676
2692.000000	0.002684
2691.000000	0.002690
2690.000000	0.002699
2689.000000	0.002712
2688.000000	0.002722
2687.000000	0.002728
2686.000000	0.002729
2685.000000	0.002730
2684.000000	0.002729
2683.000000	0.002720
2682.000000	0.002702
2681.000000	0.002679
2680.000000	0.002660
2679.000000	0.002657
2678.000000	0.002672
2677.000000	0.002697
2676.000000	0.002718
2675.000000	0.002728
2674.000000	0.002731
2673.000000	0.002731
2672.000000	0.002731
2671.000000	0.002733
2670.000000	0.002738
2669.000000	0.002746
2668.000000	0.002748
2667.000000	0.002738
2666.000000	0.002719
2665.000000	0.002705
2664.000000	0.002705
2663.000000	0.002720
2662.000000	0.002750
2661.000000	0.002791
2660.000000	0.002831
2659.000000	0.002850
2658.000000	0.002837
2657.000000	0.002796
2656.000000	0.002749
2655.000000	0.002713
2654.000000	0.002695
2653.000000	0.002697
2652.000000	0.002715
2651.000000	0.002738
2650.000000	0.002755
2649.000000	0.002761
2648.000000	0.002759
2647.000000	0.002757
2646.000000	0.002755
2645.000000	0.002754
2644.000000	0.002754
2643.000000	0.002754
2642.000000	0.002753
2641.000000	0.002749
2640.000000	0.002742
2639.000000	0.002738
2638.000000	0.002742
2637.000000	0.002750
2636.000000	0.002756
2635.000000	0.002753
2634.000000	0.002745
2633.000000	0.002741
2632.000000	0.002747
2631.000000	0.002758
2630.000000	0.002765
2629.000000	0.002755
2628.000000	0.002726
2627.000000	0.002688
2626.000000	0.002657
2625.000000	0.002640
2624.000000	0.002632
2623.000000	0.002624
2622.000000	0.002616
2621.000000	0.002615
2620.000000	0.002614
2619.000000	0.002601
2618.000000	0.002575
2617.000000	0.002555
2616.000000	0.002557
2615.000000	0.002577
2614.000000	0.002597
2613.000000	0.002608
2612.000000	0.002612
2611.000000	0.002616
2610.000000	0.002619
2609.000000	0.002619
2608.000000	0.002615
2607.000000	0.002608
2606.000000	0.002607
2605.000000	0.002617
2604.000000	0.002633
2603.000000	0.002635
2602.000000	0.002606
2601.000000	0.002555
2600.000000	0.002509
2599.000000	0.002488
2598.000000	0.002487
2597.000000	0.002488
2596.000000	0.002489
2595.000000	0.002497
2594.000000	0.002519
2593.000000	0.002546
2592.000000	0.002560
2591.000000	0.002557
2590.000000	0.002542
2589.000000	0.002528
2588.000000	0.002515
2587.000000	0.002501
2586.000000	0.002483
2585.000000	0.002468
2584.000000	0.002458
2583.000000	0.002447
2582.000000	0.002434
2581.000000	0.002428
2580.000000	0.002437
2579.000000	0.002453
2578.000000	0.002455
2577.000000	0.002433
2576.000000	0.002401
2575.000000	0.002381
2574.000000	0.002386
2573.000000	0.002416
2572.000000	0.002456
2571.000000	0.002490
2570.000000	0.002505
2569.000000	0.002507
2568.000000	0.002512
2567.000000	0.002529
2566.000000	0.002549
2565.000000	0.002555
2564.000000	0.002536
2563.000000	0.002507
2562.000000	0.002487
2561.000000	0.002484
2560.000000	0.002488
2559.000000	0.002476
2558.000000	0.002447
2557.000000	0.002416
2556.000000	0.002401
2555.000000	0.002404
2554.000000	0.002407
2553.000000	0.002399
2552.000000	0.002383
2551.000000	0.002372
2550.000000	0.002366
2549.000000	0.002358
2548.000000	0.002342
2547.000000	0.002323
2546.000000	0.002312
2545.000000	0.002317
2544.000000	0.002331
2543.000000	0.002349
2542.000000	0.002366
2541.000000	0.002384
2540.000000	0.002404
2539.000000	0.002423
2538.000000	0.002442
2537.000000	0.002462
2536.000000	0.002476
2535.000000	0.002470
2534.000000	0.002435
2533.000000	0.002394
2532.000000	0.002378
2531.000000	0.002405
2530.000000	0.002454
2529.000000	0.002487
2528.000000	0.002483
2527.000000	0.002452
2526.000000	0.002421
2525.000000	0.002404
2524.000000	0.002399
2523.000000	0.002395
2522.000000	0.002387
2521.000000	0.002380
2520.000000	0.002377
2519.000000	0.002374
2518.000000	0.002366
2517.000000	0.002347
2516.000000	0.002322
2515.000000	0.002301
2514.000000	0.002294
2513.000000	0.002302
2512.000000	0.002312
2511.000000	0.002304
2510.000000	0.002277
2509.000000	0.002252
2508.000000	0.002257
2507.000000	0.002301
2506.000000	0.002359
2505.000000	0.002397
2504.000000	0.002396
2503.000000	0.002364
2502.000000	0.002328
2501.000000	0.002307
2500.000000	0.002300
2499.000000	0.002298
2498.000000	0.002290
2497.000000	0.002277
2496.000000	0.002261
2495.000000	0.002244
2494.000000	0.002228
2493.000000	0.002222
2492.000000	0.002233
2491.000000	0.002269
2490.000000	0.002324
2489.000000	0.002379
2488.000000	0.002411
2487.000000	0.002406
2486.000000	0.002372
2485.000000	0.002326
2484.000000	0.002287
2483.000000	0.002268
2482.000000	0.002270
2481.000000	0.002285
2480.000000	0.002301
2479.000000	0.002313
2478.000000	0.002324
2477.000000	0.002338
2476.000000	0.002344
2475.000000	0.002331
2474.000000	0.002304
2473.000000	0.002279
2472.000000	0.002268
2471.000000	0.002266
2470.000000	0.002263
2469.000000	0.002253
2468.000000	0.002239
2467.000000	0.002228
2466.000000	0.002231
2465.000000	0.002257
2464.000000	0.002302
2463.000000	0.002353
2462.000000	0.002397
2461.000000	0.002426
2460.000000	0.002440
2459.000000	0.002439
2458.000000	0.002431
2457.000000	0.002433
2456.000000	0.002457
2455.000000	0.002498
2454.000000	0.002536
2453.000000	0.002552
2452.000000	0.002541
2451.000000	0.002515
2450.000000	0.002483
2449.000000	0.002450
2448.000000	0.002416
2447.000000	0.002388
2446.000000	0.002376
2445.000000	0.002379
2444.000000	0.002382
2443.000000	0.002370
2442.000000	0.002345
2441.000000	0.002319
2440.000000	0.002308
2439.000000	0.002318
2438.000000	0.002348
2437.000000	0.002388
2436.000000	0.002420
2435.000000	0.002426
2434.000000	0.002402
2433.000000	0.002358
2432.000000	0.002316
2431.000000	0.002298
2430.000000	0.002313
2429.000000	0.002347
2428.000000	0.002363
2427.000000	0.002334
2426.000000	0.002272
2425.000000	0.002217
2424.000000	0.002198
2423.000000	0.002216
2422.000000	0.002255
2421.000000	0.002301
2420.000000	0.002345
2419.000000	0.002377
2418.000000	0.002390
2417.000000	0.002378
2416.000000	0.002346
2415.000000	0.002307
2414.000000	0.002277
2413.000000	0.002260
2412.000000	0.002245
2411.000000	0.002228
2410.000000	0.002223
2409.000000	0.002247
2408.000000	0.002286
2407.000000	0.002315
2406.000000	0.002316
2405.000000	0.002293
2404.000000	0.002257
2403.000000	0.002217
2402.000000	0.002193
2401.000000	0.002203
2400.000000	0.002244
2399.000000	0.002287
2398.000000	0.002307
2397.000000	0.002301
2396.000000	0.002279
2395.000000	0.002252
2394.000000	0.002233
2393.000000	0.002235
2392.000000	0.002256
2391.000000	0.002277
2390.000000	0.002281
2389.000000	0.002272
2388.000000	0.002268
2387.000000	0.002276
2386.000000	0.002294
2385.000000	0.002310
2384.000000	0.002311
2383.000000	0.002283
2382.000000	0.002236
2381.000000	0.002195
2380.000000	0.002190
2379.000000	0.002226
2378.000000	0.002285
2377.000000	0.002341
2376.000000	0.002374
2375.000000	0.002382
2374.000000	0.002372
2373.000000	0.002355
2372.000000	0.002341
2371.000000	0.002337
2370.000000	0.002347
2369.000000	0.002367
2368.000000	0.002383
2367.000000	0.002381
2366.000000	0.002371
2365.000000	0.002378
2364.000000	0.002419
2363.000000	0.002481
2362.000000	0.002537
2361.000000	0.002564
2360.000000	0.002556
2359.000000	0.002526
2358.000000	0.002491
2357.000000	0.002462
2356.000000	0.002455
2355.000000	0.002477
2354.000000	0.002503
2353.000000	0.002502
2352.000000	0.002478
2351.000000	0.002461
2350.000000	0.002468
2349.000000	0.002495
2348.000000	0.002524
2347.000000	0.002531
2346.000000	0.002515
2345.000000	0.002506
2344.000000	0.002528
2343.000000	0.002562
2342.000000	0.002596
2341.000000	0.002635
2340.000000	0.002678
2339.000000	0.002710
2338.000000	0.002713
2337.000000	0.002677
2336.000000	0.002609
2335.000000	0.002524
2334.000000	0.002444
2333.000000	0.002389
2332.000000	0.002376
2331.000000	0.002400
2330.000000	0.002433
2329.000000	0.002461
2328.000000	0.002505
2327.000000	0.002597
2326.000000	0.002738
2325.000000	0.002883
2324.000000	0.002979
2323.000000	0.002998
2322.000000	0.002967
2321.000000	0.002931
2320.000000	0.002915
2319.000000	0.002907
2318.000000	0.002887
2317.000000	0.002852
2316.000000	0.002811
2315.000000	0.002775
2314.000000	0.002753
2313.000000	0.002743
2312.000000	0.002728
2311.000000	0.002691
2310.000000	0.002634
2309.000000	0.002575
2308.000000	0.002531
2307.000000	0.002507
2306.000000	0.002507
2305.000000	0.002529
2304.000000	0.002559
2303.000000	0.002572
2302.000000	0.002563
2301.000000	0.002542
2300.000000	0.002514
2299.000000	0.002481
2298.000000	0.002454
2297.000000	0.002454
2296.000000	0.002482
2295.000000	0.002514
2294.000000	0.002537
2293.000000	0.002553
2292.000000	0.002570
2291.000000	0.002582
2290.000000	0.002585
2289.000000	0.002588
2288.000000	0.002593
2287.000000	0.002594
2286.000000	0.002585
2285.000000	0.002572
2284.000000	0.002558
2283.000000	0.002544
2282.000000	0.002541
2281.000000	0.002556
2280.000000	0.002564
2279.000000	0.002524
2278.000000	0.002445
2277.000000	0.002394
2276.000000	0.002422
2275.000000	0.002495
2274.000000	0.002538
2273.000000	0.002508
2272.000000	0.002420
2271.000000	0.002310
2270.000000	0.002217
2269.000000	0.002175
2268.000000	0.002189
2267.000000	0.002224
2266.000000	0.002246
2265.000000	0.002248
2264.000000	0.002247
2263.000000	0.002254
2262.000000	0.002279
2261.000000	0.002336
2260.000000	0.002415
2259.000000	0.002477
2258.000000	0.002479
2257.000000	0.002408
2256.000000	0.002289
2255.000000	0.002166
2254.000000	0.002096
2253.000000	0.002116
2252.000000	0.002206
2251.000000	0.002305
2250.000000	0.002370
2249.000000	0.002390
2248.000000	0.002369
2247.000000	0.002308
2246.000000	0.002239
2245.000000	0.002205
2244.000000	0.002212
2243.000000	0.002224
2242.000000	0.002225
2241.000000	0.002243
2240.000000	0.002303
2239.000000	0.002403
2238.000000	0.002534
2237.000000	0.002675
2236.000000	0.002759
2235.000000	0.002713
2234.000000	0.002560
2233.000000	0.002423
2232.000000	0.002380
2231.000000	0.002386
2230.000000	0.002367
2229.000000	0.002326
2228.000000	0.002304
2227.000000	0.002285
2226.000000	0.002230
2225.000000	0.002160
2224.000000	0.002147
2223.000000	0.002225
2222.000000	0.002370
2221.000000	0.002525
2220.000000	0.002623
2219.000000	0.002609
2218.000000	0.002490
2217.000000	0.002339
2216.000000	0.002206
2215.000000	0.002070
2214.000000	0.001918
2213.000000	0.001815
2212.000000	0.001834
2211.000000	0.001949
2210.000000	0.002058
2209.000000	0.002109
2208.000000	0.002114
2207.000000	0.002094
2206.000000	0.002051
2205.000000	0.001999
2204.000000	0.001963
2203.000000	0.001949
2202.000000	0.001948
2201.000000	0.001944
2200.000000	0.001917
2199.000000	0.001851
2198.000000	0.001777
2197.000000	0.001766
2196.000000	0.001839
2195.000000	0.001929
2194.000000	0.001972
2193.000000	0.001987
2192.000000	0.002012
2191.000000	0.002033
2190.000000	0.002023
2189.000000	0.002016
2188.000000	0.002065
2187.000000	0.002155
2186.000000	0.002228
2185.000000	0.002266
2184.000000	0.002286
2183.000000	0.002276
2182.000000	0.002199
2181.000000	0.002067
2180.000000	0.001941
2179.000000	0.001877
2178.000000	0.001888
2177.000000	0.001929
2176.000000	0.001915
2175.000000	0.001782
2174.000000	0.001582
2173.000000	0.001466
2172.000000	0.001528
2171.000000	0.001728
2170.000000	0.001970
2169.000000	0.002197
2168.000000	0.002374
2167.000000	0.002487
2166.000000	0.002577
2165.000000	0.002717
2164.000000	0.002882
2163.000000	0.002922
2162.000000	0.002732
2161.000000	0.002371
2160.000000	0.001955
2159.000000	0.001515
2158.000000	0.001092
2157.000000	0.000835
2156.000000	0.000835
2155.000000	0.000991
2154.000000	0.001145
2153.000000	0.001245
2152.000000	0.001314
2151.000000	0.001352
2150.000000	0.001335
2149.000000	0.001281
2148.000000	0.001242
2147.000000	0.001243
2146.000000	0.001284
2145.000000	0.001346
2144.000000	0.001401
2143.000000	0.001431
2142.000000	0.001465
2141.000000	0.001537
2140.000000	0.001625
2139.000000	0.001665
2138.000000	0.001657
2137.000000	0.001664
2136.000000	0.001697
2135.000000	0.001676
2134.000000	0.001549
2133.000000	0.001376
2132.000000	0.001250
2131.000000	0.001200
2130.000000	0.001212
2129.000000	0.001281
2128.000000	0.001398
2127.000000	0.001506
2126.000000	0.001546
2125.000000	0.001522
2124.000000	0.001498
2123.000000	0.001546
2122.000000	0.001684
2121.000000	0.001869
2120.000000	0.002015
2119.000000	0.002047
2118.000000	0.001973
2117.000000	0.001875
2116.000000	0.001831
2115.000000	0.001864
2114.000000	0.001959
2113.000000	0.002086
2112.000000	0.002185
2111.000000	0.002187
2110.000000	0.002086
2109.000000	0.001966
2108.000000	0.001916
2107.000000	0.001940
2106.000000	0.001987
2105.000000	0.002022
2104.000000	0.002050
2103.000000	0.002075
2102.000000	0.002080
2101.000000	0.002051
2100.000000	0.001985
2099.000000	0.001882
2098.000000	0.001764
2097.000000	0.001665
2096.000000	0.001601
2095.000000	0.001563
2094.000000	0.001563
2093.000000	0.001641
2092.000000	0.001814
2091.000000	0.002022
2090.000000	0.002171
2089.000000	0.002209
2088.000000	0.002156
2087.000000	0.002082
2086.000000	0.002053
2085.000000	0.002083
2084.000000	0.002120
2083.000000	0.002106
2082.000000	0.002043
2081.000000	0.001988
2080.000000	0.001988
2079.000000	0.002039
2078.000000	0.002121
2077.000000	0.002206
2076.000000	0.002239
2075.000000	0.002159
2074.000000	0.001978
2073.000000	0.001789
2072.000000	0.001669
2071.000000	0.001615
2070.000000	0.001611
2069.000000	0.001666
2068.000000	0.001771
2067.000000	0.001866
2066.000000	0.001908
2065.000000	0.001917
2064.000000	0.001911
2063.000000	0.001866
2062.000000	0.001776
2061.000000	0.001710
2060.000000	0.001730
2059.000000	0.001802
2058.000000	0.001835
2057.000000	0.001787
2056.000000	0.001686
2055.000000	0.001591
2054.000000	0.001574
2053.000000	0.001698
2052.000000	0.001943
2051.000000	0.002200
2050.000000	0.002365
2049.000000	0.002397
2048.000000	0.002285
2047.000000	0.002037
2046.000000	0.001744
2045.000000	0.001581
2044.000000	0.001621
2043.000000	0.001727
2042.000000	0.001719
2041.000000	0.001587
2040.000000	0.001457
2039.000000	0.001402
2038.000000	0.001398
2037.000000	0.001416
2036.000000	0.001453
2035.000000	0.001475
2034.000000	0.001429
2033.000000	0.001301
2032.000000	0.001111
2031.000000	0.000920
2030.000000	0.000859
2029.000000	0.001054
2028.000000	0.001436
2027.000000	0.001737
2026.000000	0.001735
2025.000000	0.001455
2024.000000	0.001098
2023.000000	0.000870
2022.000000	0.000891
2021.000000	0.001137
2020.000000	0.001388
2019.000000	0.001385
2018.000000	0.001115
2017.000000	0.000843
2016.000000	0.000776
2015.000000	0.000848
2014.000000	0.000917
2013.000000	0.000990
2012.000000	0.001130
2011.000000	0.001287
2010.000000	0.001356
2009.000000	0.001328
2008.000000	0.001273
2007.000000	0.001241
2006.000000	0.001263
2005.000000	0.001365
2004.000000	0.001494
2003.000000	0.001541
2002.000000	0.001488
2001.000000	0.001443
2000.000000	0.001465
1999.000000	0.001478
1998.000000	0.001400
1997.000000	0.001279
1996.000000	0.001208
1995.000000	0.001196
1994.000000	0.001204
1993.000000	0.001229
1992.000000	0.001267
1991.000000	0.001275
1990.000000	0.001255
1989.000000	0.001295
1988.000000	0.001446
1987.000000	0.001628
1986.000000	0.001750
1985.000000	0.001826
1984.000000	0.001912
1983.000000	0.001999
1982.000000	0.002055
1981.000000	0.002108
1980.000000	0.002175
1979.000000	0.002184
1978.000000	0.002076
1977.000000	0.001927
1976.000000	0.001844
1975.000000	0.001793
1974.000000	0.001675
1973.000000	0.001488
1972.000000	0.001300
1971.000000	0.001134
1970.000000	0.000992
1969.000000	0.000917
1968.000000	0.000967
1967.000000	0.001143
1966.000000	0.001409
1965.000000	0.001702
1964.000000	0.001917
1963.000000	0.001948
1962.000000	0.001799
1961.000000	0.001589
1960.000000	0.001401
1959.000000	0.001223
1958.000000	0.001051
1957.000000	0.000957
1956.000000	0.000973
1955.000000	0.001038
1954.000000	0.001090
1953.000000	0.001148
1952.000000	0.001245
1951.000000	0.001354
1950.000000	0.001439
1949.000000	0.001496
1948.000000	0.001507
1947.000000	0.001430
1946.000000	0.001280
1945.000000	0.001159
1944.000000	0.001132
1943.000000	0.001148
1942.000000	0.001127
1941.000000	0.001086
1940.000000	0.001087
1939.000000	0.001131
1938.000000	0.001183
1937.000000	0.001234
1936.000000	0.001293
1935.000000	0.001346
1934.000000	0.001375
1933.000000	0.001378
1932.000000	0.001346
1931.000000	0.001259
1930.000000	0.001149
1929.000000	0.001107
1928.000000	0.001192
1927.000000	0.001351
1926.000000	0.001487
1925.000000	0.001549
1924.000000	0.001547
1923.000000	0.001501
1922.000000	0.001430
1921.000000	0.001363
1920.000000	0.001315
1919.000000	0.001281
1918.000000	0.001256
1917.000000	0.001253
1916.000000	0.001272
1915.000000	0.001295
1914.000000	0.001314
1913.000000	0.001342
1912.000000	0.001375
1911.000000	0.001384
1910.000000	0.001360
1909.000000	0.001324
1908.000000	0.001294
1907.000000	0.001264
1906.000000	0.001240
1905.000000	0.001251
1904.000000	0.001292
1903.000000	0.001320
1902.000000	0.001308
1901.000000	0.001285
1900.000000	0.001290
1899.000000	0.001321
1898.000000	0.001357
1897.000000	0.001385
1896.000000	0.001387
1895.000000	0.001342
1894.000000	0.001271
1893.000000	0.001230
1892.000000	0.001244
1891.000000	0.001276
1890.000000	0.001290
1889.000000	0.001295
1888.000000	0.001328
1887.000000	0.001389
1886.000000	0.001460
1885.000000	0.001522
1884.000000	0.001548
1883.000000	0.001519
1882.000000	0.001454
1881.000000	0.001407
1880.000000	0.001400
1879.000000	0.001402
1878.000000	0.001380
1877.000000	0.001338
1876.000000	0.001294
1875.000000	0.001253
1874.000000	0.001228
1873.000000	0.001244
1872.000000	0.001292
1871.000000	0.001320
1870.000000	0.001298
1869.000000	0.001268
1868.000000	0.001285
1867.000000	0.001333
1866.000000	0.001369
1865.000000	0.001392
1864.000000	0.001408
1863.000000	0.001402
1862.000000	0.001366
1861.000000	0.001324
1860.000000	0.001297
1859.000000	0.001270
1858.000000	0.001231
1857.000000	0.001207
1856.000000	0.001230
1855.000000	0.001285
1854.000000	0.001333
1853.000000	0.001355
1852.000000	0.001361
1851.000000	0.001357
1850.000000	0.001350
1849.000000	0.001352
1848.000000	0.001355
1847.000000	0.001330
1846.000000	0.001266
1845.000000	0.001198
1844.000000	0.001176
1843.000000	0.001198
1842.000000	0.001226
1841.000000	0.001245
1840.000000	0.001257
1839.000000	0.001262
1838.000000	0.001263
1837.000000	0.001279
1836.000000	0.001313
1835.000000	0.001337
1834.000000	0.001330
1833.000000	0.001293
1832.000000	0.001238
1831.000000	0.001166
1830.000000	0.001100
1829.000000	0.001081
1828.000000	0.001115
1827.000000	0.001165
1826.000000	0.001203
1825.000000	0.001228
1824.000000	0.001241
1823.000000	0.001234
1822.000000	0.001217
1821.000000	0.001211
1820.000000	0.001218
1819.000000	0.001212
1818.000000	0.001183
1817.000000	0.001153
1816.000000	0.001136
1815.000000	0.001117
1814.000000	0.001084
1813.000000	0.001058
1812.000000	0.001067
1811.000000	0.001108
1810.000000	0.001163
1809.000000	0.001221
1808.000000	0.001270
1807.000000	0.001286
1806.000000	0.001259
1805.000000	0.001213
1804.000000	0.001181
1803.000000	0.001168
1802.000000	0.001160
1801.000000	0.001153
1800.000000	0.001151
1799.000000	0.001156
1798.000000	0.001163
1797.000000	0.001171
1796.000000	0.001173
1795.000000	0.001166
1794.000000	0.001159
1793.000000	0.001179
1792.000000	0.001223
1791.000000	0.001251
1790.000000	0.001243
1789.000000	0.001221
1788.000000	0.001206
1787.000000	0.001196
1786.000000	0.001195
1785.000000	0.001203
1784.000000	0.001200
1783.000000	0.001151
1782.000000	0.001065
1781.000000	0.001006
1780.000000	0.001018
1779.000000	0.001070
1778.000000	0.001097
1777.000000	0.001084
1776.000000	0.001052
1775.000000	0.001018
1774.000000	0.000995
1773.000000	0.000999
1772.000000	0.001027
1771.000000	0.001039
1770.000000	0.001019
1769.000000	0.001002
1768.000000	0.001018
1767.000000	0.001058
1766.000000	0.001093
1765.000000	0.001115
1764.000000	0.001135
1763.000000	0.001151
1762.000000	0.001155
1761.000000	0.001150
1760.000000	0.001140
1759.000000	0.001126
1758.000000	0.001114
1757.000000	0.001120
1756.000000	0.001134
1755.000000	0.001131
1754.000000	0.001107
1753.000000	0.001093
1752.000000	0.001115
1751.000000	0.001162
1750.000000	0.001218
1749.000000	0.001282
1748.000000	0.001346
1747.000000	0.001379
1746.000000	0.001375
1745.000000	0.001370
1744.000000	0.001391
1743.000000	0.001419
1742.000000	0.001423
1741.000000	0.001404
1740.000000	0.001375
1739.000000	0.001337
1738.000000	0.001286
1737.000000	0.001234
1736.000000	0.001196
1735.000000	0.001180
1734.000000	0.001188
1733.000000	0.001207
1732.000000	0.001212
1731.000000	0.001182
1730.000000	0.001133
1729.000000	0.001101
1728.000000	0.001099
1727.000000	0.001103
1726.000000	0.001090
1725.000000	0.001071
1724.000000	0.001058
1723.000000	0.001044
1722.000000	0.001020
1721.000000	0.000993
1720.000000	0.000978
1719.000000	0.000974
1718.000000	0.000977
1717.000000	0.000995
1716.000000	0.001025
1715.000000	0.001042
1714.000000	0.001033
1713.000000	0.001020
1712.000000	0.001019
1711.000000	0.001018
1710.000000	0.001003
1709.000000	0.000983
1708.000000	0.000977
1707.000000	0.000994
1706.000000	0.001028
1705.000000	0.001061
1704.000000	0.001071
1703.000000	0.001046
1702.000000	0.001008
1701.000000	0.001006
1700.000000	0.001055
1699.000000	0.001095
1698.000000	0.001089
1697.000000	0.001089
1696.000000	0.001132
1695.000000	0.001183
1694.000000	0.001201
1693.000000	0.001203
1692.000000	0.001211
1691.000000	0.001222
1690.000000	0.001224
1689.000000	0.001217
1688.000000	0.001207
1687.000000	0.001195
1686.000000	0.001196
1685.000000	0.001246
1684.000000	0.001334
1683.000000	0.001370
1682.000000	0.001333
1681.000000	0.001289
1680.000000	0.001271
1679.000000	0.001268
1678.000000	0.001264
1677.000000	0.001271
1676.000000	0.001305
1675.000000	0.001346
1674.000000	0.001359
1673.000000	0.001355
1672.000000	0.001361
1671.000000	0.001387
1670.000000	0.001425
1669.000000	0.001465
1668.000000	0.001491
1667.000000	0.001496
1666.000000	0.001490
1665.000000	0.001497
1664.000000	0.001516
1663.000000	0.001522
1662.000000	0.001506
1661.000000	0.001500
1660.000000	0.001519
1659.000000	0.001541
1658.000000	0.001547
1657.000000	0.001546
1656.000000	0.001558
1655.000000	0.001583
1654.000000	0.001592
1653.000000	0.001567
1652.000000	0.001540
1651.000000	0.001532
1650.000000	0.001529
1649.000000	0.001532
1648.000000	0.001560
1647.000000	0.001611
1646.000000	0.001651
1645.000000	0.001668
1644.000000	0.001675
1643.000000	0.001672
1642.000000	0.001657
1641.000000	0.001640
1640.000000	0.001633
1639.000000	0.001626
1638.000000	0.001608
1637.000000	0.001584
1636.000000	0.001564
1635.000000	0.001539
1634.000000	0.001514
1633.000000	0.001508
1632.000000	0.001525
1631.000000	0.001546
1630.000000	0.001555
1629.000000	0.001557
1628.000000	0.001564
1627.000000	0.001570
1626.000000	0.001560
1625.000000	0.001540
1624.000000	0.001517
1623.000000	0.001492
1622.000000	0.001470
1621.000000	0.001470
1620.000000	0.001489
1619.000000	0.001505
1618.000000	0.001501
1617.000000	0.001486
1616.000000	0.001476
1615.000000	0.001465
1614.000000	0.001442
1613.000000	0.001421
1612.000000	0.001417
1611.000000	0.001422
1610.000000	0.001421
1609.000000	0.001409
1608.000000	0.001393
1607.000000	0.001377
1606.000000	0.001366
1605.000000	0.001364
1604.000000	0.001362
1603.000000	0.001342
1602.000000	0.001308
1601.000000	0.001282
1600.000000	0.001271
1599.000000	0.001255
1598.000000	0.001229
1597.000000	0.001212
1596.000000	0.001217
1595.000000	0.001234
1594.000000	0.001244
1593.000000	0.001252
1592.000000	0.001256
1591.000000	0.001245
1590.000000	0.001216
1589.000000	0.001188
1588.000000	0.001178
1587.000000	0.001174
1586.000000	0.001170
1585.000000	0.001172
1584.000000	0.001183
1583.000000	0.001187
1582.000000	0.001177
1581.000000	0.001170
1580.000000	0.001175
1579.000000	0.001182
1578.000000	0.001181
1577.000000	0.001172
1576.000000	0.001144
1575.000000	0.001083
1574.000000	0.001021
1573.000000	0.000994
1572.000000	0.000999
1571.000000	0.001010
1570.000000	0.001007
1569.000000	0.001012
1568.000000	0.001034
1567.000000	0.001054
1566.000000	0.001061
1565.000000	0.001073
1564.000000	0.001098
1563.000000	0.001121
1562.000000	0.001129
1561.000000	0.001134
1560.000000	0.001116
1559.000000	0.001039
1558.000000	0.000972
1557.000000	0.000997
1556.000000	0.001082
1555.000000	0.001165
1554.000000	0.001226
1553.000000	0.001274
1552.000000	0.001324
1551.000000	0.001369
1550.000000	0.001410
1549.000000	0.001464
1548.000000	0.001541
1547.000000	0.001619
1546.000000	0.001675
1545.000000	0.001710
1544.000000	0.001738
1543.000000	0.001763
1542.000000	0.001787
1541.000000	0.001839
1540.000000	0.001927
1539.000000	0.002003
1538.000000	0.002052
1537.000000	0.002109
1536.000000	0.002187
1535.000000	0.002270
1534.000000	0.002354
1533.000000	0.002448
1532.000000	0.002553
1531.000000	0.002652
1530.000000	0.002744
1529.000000	0.002840
1528.000000	0.002939
1527.000000	0.003019
1526.000000	0.003066
1525.000000	0.003102
1524.000000	0.003149
1523.000000	0.003206
1522.000000	0.003258
1521.000000	0.003308
1520.000000	0.003358
1519.000000	0.003401
1518.000000	0.003442
1517.000000	0.003505
1516.000000	0.003594
1515.000000	0.003683
1514.000000	0.003758
1513.000000	0.003832
1512.000000	0.003907
1511.000000	0.003962
1510.000000	0.003986
1509.000000	0.003990
1508.000000	0.003989
1507.000000	0.003987
1506.000000	0.004005
1505.000000	0.004067
1504.000000	0.004157
1503.000000	0.004235
1502.000000	0.004284
1501.000000	0.004314
1500.000000	0.004348
1499.000000	0.004391
1498.000000	0.004443
1497.000000	0.004497
1496.000000	0.004539
1495.000000	0.004558
1494.000000	0.004571
1493.000000	0.004606
1492.000000	0.004661
1491.000000	0.004697
1490.000000	0.004676
1489.000000	0.004625
1488.000000	0.004594
1487.000000	0.004584
1486.000000	0.004573
1485.000000	0.004564
1484.000000	0.004563
1483.000000	0.004551
1482.000000	0.004511
1481.000000	0.004454
1480.000000	0.004410
1479.000000	0.004383
1478.000000	0.004353
1477.000000	0.004301
1476.000000	0.004224
1475.000000	0.004121
1474.000000	0.003994
1473.000000	0.003871
1472.000000	0.003792
1471.000000	0.003752
1470.000000	0.003727
1469.000000	0.003705
1468.000000	0.003676
1467.000000	0.003617
1466.000000	0.003515
1465.000000	0.003408
1464.000000	0.003348
1463.000000	0.003332
1462.000000	0.003324
1461.000000	0.003311
1460.000000	0.003289
1459.000000	0.003239
1458.000000	0.003135
1457.000000	0.003018
1456.000000	0.002972
1455.000000	0.002988
1454.000000	0.003008
1453.000000	0.003011
1452.000000	0.002989
1451.000000	0.002939
1450.000000	0.002864
1449.000000	0.002793
1448.000000	0.002757
1447.000000	0.002759
1446.000000	0.002787
1445.000000	0.002836
1444.000000	0.002898
1443.000000	0.002946
1442.000000	0.002968
1441.000000	0.002985
1440.000000	0.003020
1439.000000	0.003067
1438.000000	0.003104
1437.000000	0.003131
1436.000000	0.003173
1435.000000	0.003237
1434.000000	0.003320
1433.000000	0.003427
1432.000000	0.003549
1431.000000	0.003654
1430.000000	0.003718
1429.000000	0.003766
1428.000000	0.003824
1427.000000	0.003892
1426.000000	0.003958
1425.000000	0.004024
1424.000000	0.004086
1423.000000	0.004126
1422.000000	0.004147
1421.000000	0.004168
1420.000000	0.004199
1419.000000	0.004230
1418.000000	0.004272
1417.000000	0.004349
1416.000000	0.004448
1415.000000	0.004535
1414.000000	0.004600
1413.000000	0.004661
1412.000000	0.004727
1411.000000	0.004790
1410.000000	0.004848
1409.000000	0.004921
1408.000000	0.005010
1407.000000	0.005087
1406.000000	0.005143
1405.000000	0.005201
1404.000000	0.005277
1403.000000	0.005349
1402.000000	0.005408
1401.000000	0.005477
1400.000000	0.005571
1399.000000	0.005665
1398.000000	0.005750
1397.000000	0.005845
1396.000000	0.005958
1395.000000	0.006045
1394.000000	0.006087
1393.000000	0.006126
1392.000000	0.006196
1391.000000	0.006285
1390.000000	0.006369
1389.000000	0.006444
1388.000000	0.006502
1387.000000	0.006525
1386.000000	0.006533
1385.000000	0.006572
1384.000000	0.006650
1383.000000	0.006728
1382.000000	0.006781
1381.000000	0.006816
1380.000000	0.006838
1379.000000	0.006835
1378.000000	0.006813
1377.000000	0.006809
1376.000000	0.006827
1375.000000	0.006825
1374.000000	0.006785
1373.000000	0.006751
1372.000000	0.006757
1371.000000	0.006778
1370.000000	0.006782
1369.000000	0.006772
1368.000000	0.006756
1367.000000	0.006733
1366.000000	0.006710
1365.000000	0.006705
1364.000000	0.006703
1363.000000	0.006655
1362.000000	0.006557
1361.000000	0.006468
1360.000000	0.006423
1359.000000	0.006393
1358.000000	0.006354
1357.000000	0.006320
1356.000000	0.006295
1355.000000	0.006253
1354.000000	0.006176
1353.000000	0.006099
1352.000000	0.006048
1351.000000	0.006010
1350.000000	0.005964
1349.000000	0.005917
1348.000000	0.005877
1347.000000	0.005831
1346.000000	0.005776
1345.000000	0.005742
1344.000000	0.005735
1343.000000	0.005724
1342.000000	0.005681
1341.000000	0.005622
1340.000000	0.005570
1339.000000	0.005514
1338.000000	0.005445
1337.000000	0.005386
1336.000000	0.005354
1335.000000	0.005329
1334.000000	0.005296
1333.000000	0.005268
1332.000000	0.005252
1331.000000	0.005230
1330.000000	0.005195
1329.000000	0.005159
1328.000000	0.005127
1327.000000	0.005081
1326.000000	0.005016
1325.000000	0.004960
1324.000000	0.004925
1323.000000	0.004890
1322.000000	0.004838
1321.000000	0.004786
1320.000000	0.004742
1319.000000	0.004693
1318.000000	0.004636
1317.000000	0.004595
1316.000000	0.004571
1315.000000	0.004537
1314.000000	0.004485
1313.000000	0.004445
1312.000000	0.004427
1311.000000	0.004397
1310.000000	0.004334
1309.000000	0.004267
1308.000000	0.004224
1307.000000	0.004187
1306.000000	0.004136
1305.000000	0.004083
1304.000000	0.004037
1303.000000	0.003979
1302.000000	0.003904
1301.000000	0.003838
1300.000000	0.003802
1299.000000	0.003772
1298.000000	0.003731
1297.000000	0.003692
1296.000000	0.003665
1295.000000	0.003627
1294.000000	0.003566
1293.000000	0.003510
1292.000000	0.003476
1291.000000	0.003444
1290.000000	0.003402
1289.000000	0.003371
1288.000000	0.003362
1287.000000	0.003345
1286.000000	0.003301
1285.000000	0.003256
1284.000000	0.003229
1283.000000	0.003190
1282.000000	0.003112
1281.000000	0.003021
1280.000000	0.002956
1279.000000	0.002919
1278.000000	0.002892
1277.000000	0.002874
1276.000000	0.002859
1275.000000	0.002823
1274.000000	0.002763
1273.000000	0.002712
1272.000000	0.002694
1271.000000	0.002687
1270.000000	0.002664
1269.000000	0.002637
1268.000000	0.002615
1267.000000	0.002576
1266.000000	0.002512
1265.000000	0.002453
1264.000000	0.002426
1263.000000	0.002410
1262.000000	0.002378
1261.000000	0.002345
1260.000000	0.002328
1259.000000	0.002315
1258.000000	0.002288
1257.000000	0.002260
1256.000000	0.002235
1255.000000	0.002193
1254.000000	0.002131
1253.000000	0.002081
1252.000000	0.002065
1251.000000	0.002061
1250.000000	0.002043
1249.000000	0.002019
1248.000000	0.002000
1247.000000	0.001977
1246.000000	0.001943
1245.000000	0.001913
1244.000000	0.001892
1243.000000	0.001857
1242.000000	0.001811
1241.000000	0.001789
1240.000000	0.001803
1239.000000	0.001818
1238.000000	0.001800
1237.000000	0.001763
1236.000000	0.001724
1235.000000	0.001673
1234.000000	0.001609
1233.000000	0.001558
1232.000000	0.001538
1231.000000	0.001522
1230.000000	0.001495
1229.000000	0.001476
1228.000000	0.001478
1227.000000	0.001476
1226.000000	0.001452
1225.000000	0.001426
1224.000000	0.001406
1223.000000	0.001368
1222.000000	0.001296
1221.000000	0.001227
1220.000000	0.001190
1219.000000	0.001177
1218.000000	0.001168
1217.000000	0.001171
1216.000000	0.001184
1215.000000	0.001178
1214.000000	0.001146
1213.000000	0.001121
1212.000000	0.001117
1211.000000	0.001105
1210.000000	0.001067
1209.000000	0.001038
1208.000000	0.001042
1207.000000	0.001055
1206.000000	0.001047
1205.000000	0.001030
1204.000000	0.001018
1203.000000	0.000999
1202.000000	0.000974
1201.000000	0.000973
1200.000000	0.001005
1199.000000	0.001031
1198.000000	0.001027
1197.000000	0.001023
1196.000000	0.001045
1195.000000	0.001067
1194.000000	0.001066
1193.000000	0.001066
1192.000000	0.001087
1191.000000	0.001100
1190.000000	0.001080
1189.000000	0.001049
1188.000000	0.001032
1187.000000	0.001019
1186.000000	0.000997
1185.000000	0.000984
1184.000000	0.000990
1183.000000	0.000987
1182.000000	0.000967
1181.000000	0.000969
1180.000000	0.001011
1179.000000	0.001060
1178.000000	0.001089
1177.000000	0.001128
1176.000000	0.001200
1175.000000	0.001269
1174.000000	0.001299
1173.000000	0.001316
1172.000000	0.001360
1171.000000	0.001416
1170.000000	0.001455
1169.000000	0.001489
1168.000000	0.001535
1167.000000	0.001577
1166.000000	0.001603
1165.000000	0.001632
1164.000000	0.001669
1163.000000	0.001676
1162.000000	0.001632
1161.000000	0.001582
1160.000000	0.001570
1159.000000	0.001574
1158.000000	0.001566
1157.000000	0.001563
1156.000000	0.001590
1155.000000	0.001628
1154.000000	0.001663
1153.000000	0.001719
1152.000000	0.001809
1151.000000	0.001892
1150.000000	0.001926
1149.000000	0.001926
1148.000000	0.001920
1147.000000	0.001907
1146.000000	0.001892
1145.000000	0.001914
1144.000000	0.001987
1143.000000	0.002063
1142.000000	0.002094
1141.000000	0.002096
1140.000000	0.002098
1139.000000	0.002093
1138.000000	0.002073
1137.000000	0.002067
1136.000000	0.002083
1135.000000	0.002084
1134.000000	0.002056
1133.000000	0.002046
1132.000000	0.002085
1131.000000	0.002134
1130.000000	0.002153
1129.000000	0.002170
1128.000000	0.002215
1127.000000	0.002267
1126.000000	0.002298
1125.000000	0.002323
1124.000000	0.002356
1123.000000	0.002366
1122.000000	0.002345
1121.000000	0.002344
1120.000000	0.002395
1119.000000	0.002458
1118.000000	0.002492
1117.000000	0.002517
1116.000000	0.002557
1115.000000	0.002586
1114.000000	0.002586
1113.000000	0.002590
1112.000000	0.002623
1111.000000	0.002656
1110.000000	0.002678
1109.000000	0.002735
1108.000000	0.002847
1107.000000	0.002963
1106.000000	0.003038
1105.000000	0.003104
1104.000000	0.003199
1103.000000	0.003299
1102.000000	0.003387
1101.000000	0.003503
1100.000000	0.003667
1099.000000	0.003826
1098.000000	0.003924
1097.000000	0.003976
1096.000000	0.004002
1095.000000	0.003976
1094.000000	0.003885
1093.000000	0.003774
1092.000000	0.003675
1091.000000	0.003562
1090.000000	0.003421
1089.000000	0.003296
1088.000000	0.003217
1087.000000	0.003145
1086.000000	0.003051
1085.000000	0.002961
1084.000000	0.002892
1083.000000	0.002814
1082.000000	0.002732
1081.000000	0.002711
1080.000000	0.002766
1079.000000	0.002821
1078.000000	0.002823
1077.000000	0.002811
1076.000000	0.002825
1075.000000	0.002831
1074.000000	0.002814
1073.000000	0.002832
1072.000000	0.002913
1071.000000	0.002994
1070.000000	0.003027
1069.000000	0.003067
1068.000000	0.003166
1067.000000	0.003286
1066.000000	0.003390
1065.000000	0.003525
1064.000000	0.003741
1063.000000	0.003983
1062.000000	0.004179
1061.000000	0.004344
1060.000000	0.004518
1059.000000	0.004688
1058.000000	0.004835
1057.000000	0.005003
1056.000000	0.005230
1055.000000	0.005475
1054.000000	0.005687
1053.000000	0.005879
1052.000000	0.006080
1051.000000	0.006264
1050.000000	0.006408
1049.000000	0.006552
1048.000000	0.006719
1047.000000	0.006869
1046.000000	0.006982
1045.000000	0.007099
1044.000000	0.007244
1043.000000	0.007370
1042.000000	0.007454
1041.000000	0.007548
1040.000000	0.007680
1039.000000	0.007789
1038.000000	0.007824
1037.000000	0.007818
1036.000000	0.007808
1035.000000	0.007777
1034.000000	0.007717
1033.000000	0.007680
1032.000000	0.007679
1031.000000	0.007652
1030.000000	0.007572
1029.000000	0.007508
1028.000000	0.007511
1027.000000	0.007530
1026.000000	0.007511
1025.000000	0.007488
1024.000000	0.007493
1023.000000	0.007480
1022.000000	0.007411
1021.000000	0.007328
1020.000000	0.007269
1019.000000	0.007197
1018.000000	0.007087
1017.000000	0.006999
1016.000000	0.006971
1015.000000	0.006955
1014.000000	0.006896
1013.000000	0.006818
1012.000000	0.006751
1011.000000	0.006671
1010.000000	0.006572
1009.000000	0.006505
1008.000000	0.006490
1007.000000	0.006460
1006.000000	0.006369
1005.000000	0.006266
1004.000000	0.006195
1003.000000	0.006123
1002.000000	0.006025
1001.000000	0.005950
1000.000000	0.005938
999.000000	0.005935
998.000000	0.005888
997.000000	0.005821
996.000000	0.005760
995.000000	0.005673
994.000000	0.005543
993.000000	0.005427
992.000000	0.005364
991.000000	0.005317
990.000000	0.005243
989.000000	0.005169
988.000000	0.005120
987.000000	0.005059
986.000000	0.004968
985.000000	0.004894
984.000000	0.004859
983.000000	0.004812
982.000000	0.004722
981.000000	0.004641
980.000000	0.004596
979.000000	0.004538
978.000000	0.004444
977.000000	0.004370
976.000000	0.004348
975.000000	0.004319
974.000000	0.004243
973.000000	0.004169
972.000000	0.004137
971.000000	0.004089
970.000000	0.003978
969.000000	0.003851
968.000000	0.003765
967.000000	0.003687
966.000000	0.003585
965.000000	0.003498
964.000000	0.003455
963.000000	0.003404
962.000000	0.003306
961.000000	0.003220
960.000000	0.003198
959.000000	0.003189
958.000000	0.003129
957.000000	0.003035
956.000000	0.002954
955.000000	0.002878
954.000000	0.002794
953.000000	0.002740
952.000000	0.002725
951.000000	0.002684
950.000000	0.002579
949.000000	0.002470
948.000000	0.002416
947.000000	0.002383
946.000000	0.002325
945.000000	0.002267
944.000000	0.002234
943.000000	0.002179
942.000000	0.002072
941.000000	0.001973
940.000000	0.001941
939.000000	0.001952
938.000000	0.001966
937.000000	0.001998
936.000000	0.002048
935.000000	0.002055
934.000000	0.001988
933.000000	0.001905
932.000000	0.001857
931.000000	0.001820
930.000000	0.001780
929.000000	0.001798
928.000000	0.001901
927.000000	0.002003
926.000000	0.002033
925.000000	0.002032
924.000000	0.002057
923.000000	0.002070
922.000000	0.002032
921.000000	0.001989
920.000000	0.002004
919.000000	0.002054
918.000000	0.002092
917.000000	0.002125
916.000000	0.002164
915.000000	0.002171
914.000000	0.002142
913.000000	0.002147
912.000000	0.002223
911.000000	0.002305
910.000000	0.002337
909.000000	0.002364
908.000000	0.002430
907.000000	0.002492
906.000000	0.002515
905.000000	0.002544
904.000000	0.002609
903.000000	0.002650
902.000000	0.002625
901.000000	0.002591
900.000000	0.002596
899.000000	0.002591
898.000000	0.002546
897.000000	0.002530
896.000000	0.002593
895.000000	0.002669
894.000000	0.002688
893.000000	0.002696
892.000000	0.002757
891.000000	0.002849
890.000000	0.002925
889.000000	0.003011
888.000000	0.003129
887.000000	0.003233
886.000000	0.003292
885.000000	0.003360
884.000000	0.003474
883.000000	0.003581
882.000000	0.003660
881.000000	0.003788
880.000000	0.003999
879.000000	0.004194
878.000000	0.004289
877.000000	0.004337
876.000000	0.004417
875.000000	0.004496
874.000000	0.004531
873.000000	0.004569
872.000000	0.004651
871.000000	0.004719
870.000000	0.004714
869.000000	0.004671
868.000000	0.004628
867.000000	0.004546
866.000000	0.004413
865.000000	0.004306
864.000000	0.004263
863.000000	0.004207
862.000000	0.004089
861.000000	0.003970
860.000000	0.003887
859.000000	0.003767
858.000000	0.003573
857.000000	0.003398
856.000000	0.003304
855.000000	0.003214
854.000000	0.003050
853.000000	0.002876
852.000000	0.002774
851.000000	0.002710
850.000000	0.002628
849.000000	0.002558
848.000000	0.002511
847.000000	0.002411
846.000000	0.002226
845.000000	0.002055
844.000000	0.001976
843.000000	0.001924
842.000000	0.001833
841.000000	0.001757
840.000000	0.001745
839.000000	0.001728
838.000000	0.001646
837.000000	0.001562
836.000000	0.001535
835.000000	0.001505
834.000000	0.001424
833.000000	0.001376
832.000000	0.001425
831.000000	0.001489
830.000000	0.001474
829.000000	0.001438
828.000000	0.001479
827.000000	0.001567
826.000000	0.001644
825.000000	0.001762
824.000000	0.001988
823.000000	0.002288
822.000000	0.002633
821.000000	0.003100
820.000000	0.003735
819.000000	0.004428
818.000000	0.005050
817.000000	0.005572
816.000000	0.005963
815.000000	0.006122
814.000000	0.006017
813.000000	0.005773
812.000000	0.005499
811.000000	0.005164
810.000000	0.004758
809.000000	0.004404
808.000000	0.004193
807.000000	0.004047
806.000000	0.003878
805.000000	0.003731
804.000000	0.003659
803.000000	0.003586
802.000000	0.003455
801.000000	0.003351
800.000000	0.003346
799.000000	0.003354
798.000000	0.003276
797.000000	0.003160
796.000000	0.003090
795.000000	0.003040
794.000000	0.002974
793.000000	0.002951
792.000000	0.003008
791.000000	0.003057
790.000000	0.003027
789.000000	0.002975
788.000000	0.002952
787.000000	0.002896
786.000000	0.002771
785.000000	0.002678
784.000000	0.002698
783.000000	0.002761
782.000000	0.002781
781.000000	0.002793
780.000000	0.002848
779.000000	0.002908
778.000000	0.002962
777.000000	0.003086
776.000000	0.003285
775.000000	0.003402
774.000000	0.003334
773.000000	0.003192
772.000000	0.003126
771.000000	0.003123
770.000000	0.003107
769.000000	0.003100
768.000000	0.003133
767.000000	0.003133
766.000000	0.003042
765.000000	0.002944
764.000000	0.002932
763.000000	0.002974
762.000000	0.003018
761.000000	0.003106
760.000000	0.003264
759.000000	0.003403
758.000000	0.003463
757.000000	0.003533
756.000000	0.003703
755.000000	0.003920
754.000000	0.004122
753.000000	0.004358
752.000000	0.004662
751.000000	0.004927
750.000000	0.005055
749.000000	0.005102
748.000000	0.005154
747.000000	0.005170
746.000000	0.005100
745.000000	0.005014
744.000000	0.004979
743.000000	0.004931
742.000000	0.004802
741.000000	0.004662
740.000000	0.004596
739.000000	0.004551
738.000000	0.004444
737.000000	0.004314
736.000000	0.004237
735.000000	0.004181
734.000000	0.004104
733.000000	0.004049
732.000000	0.004050
731.000000	0.004033
730.000000	0.003943
729.000000	0.003853
728.000000	0.003825
727.000000	0.003792
726.000000	0.003698
725.000000	0.003620
724.000000	0.003617
723.000000	0.003593
722.000000	0.003458
721.000000	0.003296
720.000000	0.003234
719.000000	0.003255
718.000000	0.003281
717.000000	0.003323
716.000000	0.003415
715.000000	0.003514
714.000000	0.003591
713.000000	0.003695
712.000000	0.003830
711.000000	0.003881
710.000000	0.003787
709.000000	0.003658
708.000000	0.003594
707.000000	0.003542
706.000000	0.003442
705.000000	0.003357
704.000000	0.003347
703.000000	0.003347
702.000000	0.003311
701.000000	0.003317
700.000000	0.003405
699.000000	0.003479
698.000000	0.003478
697.000000	0.003509
696.000000	0.003643
695.000000	0.003760
694.000000	0.003741
693.000000	0.003644
692.000000	0.003566
691.000000	0.003455
690.000000	0.003259
689.000000	0.003080
688.000000	0.003021
687.000000	0.003018
686.000000	0.002976
685.000000	0.002944
684.000000	0.002987
683.000000	0.003031
682.000000	0.002995
681.000000	0.002934
680.000000	0.002912
679.000000	0.002865
678.000000	0.002743
677.000000	0.002651
676.000000	0.002672
675.000000	0.002708
674.000000	0.002649
673.000000	0.002557
672.000000	0.002538
671.000000	0.002562
670.000000	0.002548
669.000000	0.002523
668.000000	0.002572
667.000000	0.002523
666.000000	0.002270
665.000000	0.002126
664.000000	0.002207
663.000000	0.002330
662.000000	0.002336
661.000000	0.002285
660.000000	0.002273
659.000000	0.002227
658.000000	0.002088
657.000000	0.001975
656.000000	0.001974
655.000000	0.001964
654.000000	0.001856
653.000000	0.001779
652.000000	0.001824
651.000000	0.001852
650.000000	0.001753
649.000000	0.001663
648.000000	0.001710
647.000000	0.001784
646.000000	0.001766
645.000000	0.001741
644.000000	0.001788
643.000000	0.001800
642.000000	0.001692
641.000000	0.001588
640.000000	0.001592
639.000000	0.001576
638.000000	0.001424
637.000000	0.001253
636.000000	0.001200
635.000000	0.001191
634.000000	0.001130
633.000000	0.001095
632.000000	0.001155
631.000000	0.001193
630.000000	0.001123
629.000000	0.001071
628.000000	0.001137
627.000000	0.001204
626.000000	0.001157
625.000000	0.001097
624.000000	0.001111
623.000000	0.001088
622.000000	0.000949
621.000000	0.000841
620.000000	0.000885
619.000000	0.000960
618.000000	0.000956
617.000000	0.001006
616.000000	0.001208
615.000000	0.001367
614.000000	0.001284
613.000000	0.001080
612.000000	0.000972
611.000000	0.000943
610.000000	0.000881
609.000000	0.000837
608.000000	0.000894
607.000000	0.000963
606.000000	0.000957
605.000000	0.000979
604.000000	0.001102
603.000000	0.001181
602.000000	0.001103
601.000000	0.001022
600.000000	0.001112
599.000000	0.001300
598.000000	0.001470
597.000000	0.001685
596.000000	0.001993
595.000000	0.002229
594.000000	0.002261
593.000000	0.002204
592.000000	0.002193
591.000000	0.002173
590.000000	0.002124
589.000000	0.002226
588.000000	0.002557
587.000000	0.002905
586.000000	0.003094
585.000000	0.003233
584.000000	0.003426
583.000000	0.003514
582.000000	0.003384
581.000000	0.003233
580.000000	0.003263
579.000000	0.003372
578.000000	0.003412
577.000000	0.003470
576.000000	0.003610
575.000000	0.003670
574.000000	0.003580
573.000000	0.003577
572.000000	0.003796
571.000000	0.003989
570.000000	0.003910
569.000000	0.003705
568.000000	0.003611
567.000000	0.003577
566.000000	0.003484
565.000000	0.003403
564.000000	0.003358
563.000000	0.003164
562.000000	0.002796
561.000000	0.002553
560.000000	0.002585
559.000000	0.002603
558.000000	0.002382
557.000000	0.002144
556.000000	0.002121
555.000000	0.002124
554.000000	0.001922
553.000000	0.001668
552.000000	0.001558
551.000000	0.001426
550.000000	0.001089
549.000000	0.000754
548.000000	0.000680
547.000000	0.000741
546.000000	0.000698
545.000000	0.000633
544.000000	0.000708
543.000000	0.000814
542.000000	0.000808
541.000000	0.000819
540.000000	0.000963
539.000000	0.001058
538.000000	0.000945
537.000000	0.000785
536.000000	0.000745
535.000000	0.000696
534.000000	0.000551
533.000000	0.000545
532.000000	0.000852
531.000000	0.001274
530.000000	0.001603
529.000000	0.001938
528.000000	0.002344
527.000000	0.002604
526.000000	0.002652
525.000000	0.002842
524.000000	0.003329
523.000000	0.003706
522.000000	0.003651
521.000000	0.003428
520.000000	0.003401
519.000000	0.003446
518.000000	0.003291
517.000000	0.003075
516.000000	0.003049
515.000000	0.003093
514.000000	0.003039
513.000000	0.003022
512.000000	0.003149
511.000000	0.003201
510.000000	0.003038
509.000000	0.002917
508.000000	0.003057
507.000000	0.003285
506.000000	0.003440
505.000000	0.003683
504.000000	0.004039
503.000000	0.004136
502.000000	0.003830
501.000000	0.003578
500.000000	0.003684
499.000000	0.003808
498.000000	0.003664
497.000000	0.003519
496.000000	0.003595
495.000000	0.003593
494.000000	0.003282
493.000000	0.003036
492.000000	0.003190
491.000000	0.003403
490.000000	0.003292
489.000000	0.003137
488.000000	0.003298
487.000000	0.003505
486.000000	0.003340
485.000000	0.002951
484.000000	0.002714
483.000000	0.002551
482.000000	0.002283
481.000000	0.002130
480.000000	0.002266
479.000000	0.002381
478.000000	0.002247
477.000000	0.002203
476.000000	0.002493
475.000000	0.002687
474.000000	0.002349
473.000000	0.001802
472.000000	0.001522
471.000000	0.001249
470.000000	0.000652
469.000000	0.000173
468.000000	0.000323
467.000000	0.000842
466.000000	0.001200
465.000000	0.001464
464.000000	0.001868
463.000000	0.002109
462.000000	0.001867
461.000000	0.001480
460.000000	0.001329
459.000000	0.001123
458.000000	0.000596
457.000000	0.000348
456.000000	0.000829
455.000000	0.001380
454.000000	0.001376
453.000000	0.001097
452.000000	0.000991
451.000000	0.000778
450.000000	0.000173
