PE IR       SUBTECH     SPECTRUM    ASCII       PEDS        4.00        
   -1
P12-Vert018_1.ASC
23/06/08
16:21:11.00
23/06/08
16:23:55.00
uco
Sample 018 By uco Date Thursday, June 08 2023
450.000000
#HDR
-1
-1
#GR
cm-1
A
1.0
0.0
4000.000000
-1.000000
3551
8
0.044395
0.002075
#DATA
4000.000000	0.002491
3999.000000	0.002496
3998.000000	0.002510
3997.000000	0.002517
3996.000000	0.002517
3995.000000	0.002515
3994.000000	0.002516
3993.000000	0.002519
3992.000000	0.002526
3991.000000	0.002534
3990.000000	0.002542
3989.000000	0.002552
3988.000000	0.002563
3987.000000	0.002573
3986.000000	0.002576
3985.000000	0.002566
3984.000000	0.002542
3983.000000	0.002515
3982.000000	0.002502
3981.000000	0.002513
3980.000000	0.002541
3979.000000	0.002570
3978.000000	0.002583
3977.000000	0.002575
3976.000000	0.002558
3975.000000	0.002543
3974.000000	0.002540
3973.000000	0.002548
3972.000000	0.002562
3971.000000	0.002570
3970.000000	0.002565
3969.000000	0.002545
3968.000000	0.002517
3967.000000	0.002499
3966.000000	0.002504
3965.000000	0.002531
3964.000000	0.002564
3963.000000	0.002584
3962.000000	0.002586
3961.000000	0.002578
3960.000000	0.002577
3959.000000	0.002589
3958.000000	0.002604
3957.000000	0.002607
3956.000000	0.002597
3955.000000	0.002579
3954.000000	0.002565
3953.000000	0.002560
3952.000000	0.002566
3951.000000	0.002581
3950.000000	0.002600
3949.000000	0.002621
3948.000000	0.002638
3947.000000	0.002650
3946.000000	0.002654
3945.000000	0.002649
3944.000000	0.002642
3943.000000	0.002641
3942.000000	0.002653
3941.000000	0.002679
3940.000000	0.002704
3939.000000	0.002716
3938.000000	0.002707
3937.000000	0.002687
3936.000000	0.002671
3935.000000	0.002667
3934.000000	0.002668
3933.000000	0.002661
3932.000000	0.002638
3931.000000	0.002606
3930.000000	0.002582
3929.000000	0.002577
3928.000000	0.002586
3927.000000	0.002603
3926.000000	0.002620
3925.000000	0.002635
3924.000000	0.002646
3923.000000	0.002657
3922.000000	0.002672
3921.000000	0.002695
3920.000000	0.002722
3919.000000	0.002736
3918.000000	0.002724
3917.000000	0.002686
3916.000000	0.002644
3915.000000	0.002619
3914.000000	0.002615
3913.000000	0.002621
3912.000000	0.002626
3911.000000	0.002629
3910.000000	0.002629
3909.000000	0.002626
3908.000000	0.002617
3907.000000	0.002603
3906.000000	0.002598
3905.000000	0.002617
3904.000000	0.002662
3903.000000	0.002714
3902.000000	0.002752
3901.000000	0.002769
3900.000000	0.002768
3899.000000	0.002752
3898.000000	0.002722
3897.000000	0.002683
3896.000000	0.002644
3895.000000	0.002618
3894.000000	0.002610
3893.000000	0.002619
3892.000000	0.002636
3891.000000	0.002648
3890.000000	0.002652
3889.000000	0.002652
3888.000000	0.002652
3887.000000	0.002656
3886.000000	0.002664
3885.000000	0.002676
3884.000000	0.002684
3883.000000	0.002679
3882.000000	0.002659
3881.000000	0.002633
3880.000000	0.002622
3879.000000	0.002633
3878.000000	0.002657
3877.000000	0.002670
3876.000000	0.002661
3875.000000	0.002636
3874.000000	0.002621
3873.000000	0.002639
3872.000000	0.002686
3871.000000	0.002732
3870.000000	0.002749
3869.000000	0.002738
3868.000000	0.002721
3867.000000	0.002709
3866.000000	0.002690
3865.000000	0.002659
3864.000000	0.002630
3863.000000	0.002623
3862.000000	0.002643
3861.000000	0.002674
3860.000000	0.002702
3859.000000	0.002721
3858.000000	0.002735
3857.000000	0.002744
3856.000000	0.002748
3855.000000	0.002739
3854.000000	0.002725
3853.000000	0.002718
3852.000000	0.002706
3851.000000	0.002683
3850.000000	0.002658
3849.000000	0.002639
3848.000000	0.002629
3847.000000	0.002630
3846.000000	0.002634
3845.000000	0.002634
3844.000000	0.002623
3843.000000	0.002610
3842.000000	0.002604
3841.000000	0.002610
3840.000000	0.002621
3839.000000	0.002628
3838.000000	0.002628
3837.000000	0.002623
3836.000000	0.002619
3835.000000	0.002619
3834.000000	0.002626
3833.000000	0.002635
3832.000000	0.002638
3831.000000	0.002633
3830.000000	0.002626
3829.000000	0.002624
3828.000000	0.002626
3827.000000	0.002623
3826.000000	0.002612
3825.000000	0.002601
3824.000000	0.002600
3823.000000	0.002603
3822.000000	0.002601
3821.000000	0.002596
3820.000000	0.002593
3819.000000	0.002599
3818.000000	0.002611
3817.000000	0.002622
3816.000000	0.002626
3815.000000	0.002624
3814.000000	0.002624
3813.000000	0.002625
3812.000000	0.002621
3811.000000	0.002611
3810.000000	0.002599
3809.000000	0.002589
3808.000000	0.002580
3807.000000	0.002574
3806.000000	0.002580
3805.000000	0.002603
3804.000000	0.002636
3803.000000	0.002654
3802.000000	0.002634
3801.000000	0.002585
3800.000000	0.002539
3799.000000	0.002520
3798.000000	0.002524
3797.000000	0.002541
3796.000000	0.002554
3795.000000	0.002560
3794.000000	0.002563
3793.000000	0.002572
3792.000000	0.002590
3791.000000	0.002607
3790.000000	0.002614
3789.000000	0.002608
3788.000000	0.002595
3787.000000	0.002584
3786.000000	0.002580
3785.000000	0.002578
3784.000000	0.002571
3783.000000	0.002556
3782.000000	0.002538
3781.000000	0.002526
3780.000000	0.002526
3779.000000	0.002534
3778.000000	0.002535
3777.000000	0.002526
3776.000000	0.002515
3775.000000	0.002519
3774.000000	0.002543
3773.000000	0.002576
3772.000000	0.002598
3771.000000	0.002586
3770.000000	0.002541
3769.000000	0.002489
3768.000000	0.002462
3767.000000	0.002472
3766.000000	0.002511
3765.000000	0.002553
3764.000000	0.002573
3763.000000	0.002566
3762.000000	0.002539
3761.000000	0.002512
3760.000000	0.002504
3759.000000	0.002524
3758.000000	0.002558
3757.000000	0.002590
3756.000000	0.002615
3755.000000	0.002635
3754.000000	0.002654
3753.000000	0.002670
3752.000000	0.002686
3751.000000	0.002709
3750.000000	0.002731
3749.000000	0.002736
3748.000000	0.002724
3747.000000	0.002704
3746.000000	0.002676
3745.000000	0.002637
3744.000000	0.002594
3743.000000	0.002560
3742.000000	0.002539
3741.000000	0.002526
3740.000000	0.002512
3739.000000	0.002496
3738.000000	0.002488
3737.000000	0.002494
3736.000000	0.002505
3735.000000	0.002503
3734.000000	0.002496
3733.000000	0.002511
3732.000000	0.002546
3731.000000	0.002586
3730.000000	0.002621
3729.000000	0.002652
3728.000000	0.002678
3727.000000	0.002693
3726.000000	0.002699
3725.000000	0.002705
3724.000000	0.002714
3723.000000	0.002715
3722.000000	0.002699
3721.000000	0.002666
3720.000000	0.002621
3719.000000	0.002575
3718.000000	0.002534
3717.000000	0.002504
3716.000000	0.002487
3715.000000	0.002483
3714.000000	0.002497
3713.000000	0.002537
3712.000000	0.002602
3711.000000	0.002664
3710.000000	0.002683
3709.000000	0.002651
3708.000000	0.002590
3707.000000	0.002529
3706.000000	0.002488
3705.000000	0.002473
3704.000000	0.002478
3703.000000	0.002490
3702.000000	0.002497
3701.000000	0.002497
3700.000000	0.002492
3699.000000	0.002489
3698.000000	0.002495
3697.000000	0.002509
3696.000000	0.002530
3695.000000	0.002553
3694.000000	0.002573
3693.000000	0.002578
3692.000000	0.002557
3691.000000	0.002512
3690.000000	0.002465
3689.000000	0.002449
3688.000000	0.002466
3687.000000	0.002492
3686.000000	0.002509
3685.000000	0.002514
3684.000000	0.002512
3683.000000	0.002505
3682.000000	0.002497
3681.000000	0.002501
3680.000000	0.002528
3679.000000	0.002582
3678.000000	0.002649
3677.000000	0.002697
3676.000000	0.002697
3675.000000	0.002657
3674.000000	0.002611
3673.000000	0.002582
3672.000000	0.002568
3671.000000	0.002568
3670.000000	0.002582
3669.000000	0.002606
3668.000000	0.002619
3667.000000	0.002607
3666.000000	0.002576
3665.000000	0.002545
3664.000000	0.002534
3663.000000	0.002552
3662.000000	0.002585
3661.000000	0.002613
3660.000000	0.002622
3659.000000	0.002606
3658.000000	0.002575
3657.000000	0.002543
3656.000000	0.002528
3655.000000	0.002539
3654.000000	0.002571
3653.000000	0.002618
3652.000000	0.002670
3651.000000	0.002727
3650.000000	0.002790
3649.000000	0.002844
3648.000000	0.002863
3647.000000	0.002839
3646.000000	0.002788
3645.000000	0.002733
3644.000000	0.002689
3643.000000	0.002662
3642.000000	0.002650
3641.000000	0.002650
3640.000000	0.002662
3639.000000	0.002688
3638.000000	0.002724
3637.000000	0.002758
3636.000000	0.002778
3635.000000	0.002785
3634.000000	0.002790
3633.000000	0.002806
3632.000000	0.002833
3631.000000	0.002859
3630.000000	0.002870
3629.000000	0.002869
3628.000000	0.002868
3627.000000	0.002872
3626.000000	0.002873
3625.000000	0.002868
3624.000000	0.002855
3623.000000	0.002839
3622.000000	0.002820
3621.000000	0.002800
3620.000000	0.002789
3619.000000	0.002802
3618.000000	0.002840
3617.000000	0.002885
3616.000000	0.002918
3615.000000	0.002935
3614.000000	0.002944
3613.000000	0.002955
3612.000000	0.002970
3611.000000	0.002994
3610.000000	0.003026
3609.000000	0.003060
3608.000000	0.003079
3607.000000	0.003074
3606.000000	0.003057
3605.000000	0.003049
3604.000000	0.003054
3603.000000	0.003064
3602.000000	0.003066
3601.000000	0.003060
3600.000000	0.003053
3599.000000	0.003053
3598.000000	0.003052
3597.000000	0.003047
3596.000000	0.003046
3595.000000	0.003068
3594.000000	0.003122
3593.000000	0.003191
3592.000000	0.003250
3591.000000	0.003284
3590.000000	0.003296
3589.000000	0.003298
3588.000000	0.003297
3587.000000	0.003291
3586.000000	0.003283
3585.000000	0.003280
3584.000000	0.003284
3583.000000	0.003286
3582.000000	0.003286
3581.000000	0.003285
3580.000000	0.003292
3579.000000	0.003307
3578.000000	0.003323
3577.000000	0.003332
3576.000000	0.003335
3575.000000	0.003340
3574.000000	0.003356
3573.000000	0.003388
3572.000000	0.003435
3571.000000	0.003495
3570.000000	0.003567
3569.000000	0.003652
3568.000000	0.003733
3567.000000	0.003784
3566.000000	0.003789
3565.000000	0.003770
3564.000000	0.003747
3563.000000	0.003724
3562.000000	0.003698
3561.000000	0.003676
3560.000000	0.003671
3559.000000	0.003687
3558.000000	0.003720
3557.000000	0.003754
3556.000000	0.003781
3555.000000	0.003804
3554.000000	0.003830
3553.000000	0.003859
3552.000000	0.003886
3551.000000	0.003910
3550.000000	0.003933
3549.000000	0.003960
3548.000000	0.003987
3547.000000	0.004005
3546.000000	0.004007
3545.000000	0.003997
3544.000000	0.003989
3543.000000	0.003994
3542.000000	0.004008
3541.000000	0.004019
3540.000000	0.004026
3539.000000	0.004031
3538.000000	0.004039
3537.000000	0.004047
3536.000000	0.004051
3535.000000	0.004053
3534.000000	0.004063
3533.000000	0.004085
3532.000000	0.004114
3531.000000	0.004138
3530.000000	0.004151
3529.000000	0.004156
3528.000000	0.004161
3527.000000	0.004167
3526.000000	0.004174
3525.000000	0.004177
3524.000000	0.004175
3523.000000	0.004169
3522.000000	0.004162
3521.000000	0.004158
3520.000000	0.004158
3519.000000	0.004161
3518.000000	0.004166
3517.000000	0.004168
3516.000000	0.004162
3515.000000	0.004148
3514.000000	0.004134
3513.000000	0.004132
3512.000000	0.004148
3511.000000	0.004175
3510.000000	0.004200
3509.000000	0.004213
3508.000000	0.004215
3507.000000	0.004211
3506.000000	0.004208
3505.000000	0.004208
3504.000000	0.004213
3503.000000	0.004222
3502.000000	0.004231
3501.000000	0.004234
3500.000000	0.004229
3499.000000	0.004218
3498.000000	0.004208
3497.000000	0.004209
3496.000000	0.004224
3495.000000	0.004248
3494.000000	0.004273
3493.000000	0.004295
3492.000000	0.004316
3491.000000	0.004337
3490.000000	0.004356
3489.000000	0.004367
3488.000000	0.004367
3487.000000	0.004365
3486.000000	0.004371
3485.000000	0.004391
3484.000000	0.004416
3483.000000	0.004430
3482.000000	0.004419
3481.000000	0.004385
3480.000000	0.004350
3479.000000	0.004338
3478.000000	0.004358
3477.000000	0.004402
3476.000000	0.004448
3475.000000	0.004482
3474.000000	0.004506
3473.000000	0.004530
3472.000000	0.004557
3471.000000	0.004577
3470.000000	0.004578
3469.000000	0.004563
3468.000000	0.004541
3467.000000	0.004525
3466.000000	0.004518
3465.000000	0.004521
3464.000000	0.004533
3463.000000	0.004552
3462.000000	0.004573
3461.000000	0.004588
3460.000000	0.004590
3459.000000	0.004581
3458.000000	0.004570
3457.000000	0.004566
3456.000000	0.004575
3455.000000	0.004592
3454.000000	0.004612
3453.000000	0.004631
3452.000000	0.004646
3451.000000	0.004658
3450.000000	0.004670
3449.000000	0.004682
3448.000000	0.004691
3447.000000	0.004690
3446.000000	0.004683
3445.000000	0.004680
3444.000000	0.004686
3443.000000	0.004699
3442.000000	0.004710
3441.000000	0.004721
3440.000000	0.004735
3439.000000	0.004753
3438.000000	0.004764
3437.000000	0.004762
3436.000000	0.004754
3435.000000	0.004753
3434.000000	0.004765
3433.000000	0.004786
3432.000000	0.004805
3431.000000	0.004818
3430.000000	0.004827
3429.000000	0.004838
3428.000000	0.004854
3427.000000	0.004875
3426.000000	0.004901
3425.000000	0.004932
3424.000000	0.004969
3423.000000	0.005002
3422.000000	0.005026
3421.000000	0.005039
3420.000000	0.005045
3419.000000	0.005049
3418.000000	0.005054
3417.000000	0.005064
3416.000000	0.005083
3415.000000	0.005109
3414.000000	0.005138
3413.000000	0.005167
3412.000000	0.005197
3411.000000	0.005229
3410.000000	0.005257
3409.000000	0.005276
3408.000000	0.005287
3407.000000	0.005295
3406.000000	0.005298
3405.000000	0.005293
3404.000000	0.005278
3403.000000	0.005260
3402.000000	0.005254
3401.000000	0.005269
3400.000000	0.005302
3399.000000	0.005338
3398.000000	0.005364
3397.000000	0.005378
3396.000000	0.005389
3395.000000	0.005399
3394.000000	0.005402
3393.000000	0.005386
3392.000000	0.005345
3391.000000	0.005289
3390.000000	0.005241
3389.000000	0.005217
3388.000000	0.005220
3387.000000	0.005242
3386.000000	0.005267
3385.000000	0.005289
3384.000000	0.005308
3383.000000	0.005327
3382.000000	0.005348
3381.000000	0.005367
3380.000000	0.005377
3379.000000	0.005377
3378.000000	0.005366
3377.000000	0.005354
3376.000000	0.005350
3375.000000	0.005356
3374.000000	0.005366
3373.000000	0.005373
3372.000000	0.005376
3371.000000	0.005385
3370.000000	0.005405
3369.000000	0.005434
3368.000000	0.005465
3367.000000	0.005492
3366.000000	0.005509
3365.000000	0.005510
3364.000000	0.005490
3363.000000	0.005457
3362.000000	0.005425
3361.000000	0.005405
3360.000000	0.005406
3359.000000	0.005430
3358.000000	0.005470
3357.000000	0.005508
3356.000000	0.005529
3355.000000	0.005531
3354.000000	0.005531
3353.000000	0.005549
3352.000000	0.005585
3351.000000	0.005625
3350.000000	0.005651
3349.000000	0.005654
3348.000000	0.005635
3347.000000	0.005607
3346.000000	0.005581
3345.000000	0.005566
3344.000000	0.005560
3343.000000	0.005562
3342.000000	0.005575
3341.000000	0.005606
3340.000000	0.005651
3339.000000	0.005697
3338.000000	0.005736
3337.000000	0.005765
3336.000000	0.005785
3335.000000	0.005792
3334.000000	0.005788
3333.000000	0.005775
3332.000000	0.005760
3331.000000	0.005751
3330.000000	0.005749
3329.000000	0.005759
3328.000000	0.005778
3327.000000	0.005801
3326.000000	0.005820
3325.000000	0.005831
3324.000000	0.005834
3323.000000	0.005832
3322.000000	0.005826
3321.000000	0.005821
3320.000000	0.005820
3319.000000	0.005826
3318.000000	0.005847
3317.000000	0.005885
3316.000000	0.005932
3315.000000	0.005965
3314.000000	0.005971
3313.000000	0.005955
3312.000000	0.005939
3311.000000	0.005937
3310.000000	0.005946
3309.000000	0.005955
3308.000000	0.005962
3307.000000	0.005971
3306.000000	0.005986
3305.000000	0.006007
3304.000000	0.006030
3303.000000	0.006049
3302.000000	0.006057
3301.000000	0.006050
3300.000000	0.006033
3299.000000	0.006015
3298.000000	0.006004
3297.000000	0.006004
3296.000000	0.006014
3295.000000	0.006029
3294.000000	0.006044
3293.000000	0.006056
3292.000000	0.006063
3291.000000	0.006061
3290.000000	0.006049
3289.000000	0.006032
3288.000000	0.006019
3287.000000	0.006020
3286.000000	0.006034
3285.000000	0.006049
3284.000000	0.006052
3283.000000	0.006045
3282.000000	0.006033
3281.000000	0.006021
3280.000000	0.006006
3279.000000	0.005984
3278.000000	0.005961
3277.000000	0.005946
3276.000000	0.005947
3275.000000	0.005956
3274.000000	0.005962
3273.000000	0.005958
3272.000000	0.005949
3271.000000	0.005944
3270.000000	0.005951
3269.000000	0.005970
3268.000000	0.005992
3267.000000	0.006006
3266.000000	0.006007
3265.000000	0.005997
3264.000000	0.005987
3263.000000	0.005981
3262.000000	0.005972
3261.000000	0.005953
3260.000000	0.005928
3259.000000	0.005910
3258.000000	0.005906
3257.000000	0.005910
3256.000000	0.005908
3255.000000	0.005892
3254.000000	0.005873
3253.000000	0.005862
3252.000000	0.005866
3251.000000	0.005875
3250.000000	0.005881
3249.000000	0.005884
3248.000000	0.005887
3247.000000	0.005889
3246.000000	0.005879
3245.000000	0.005853
3244.000000	0.005815
3243.000000	0.005779
3242.000000	0.005757
3241.000000	0.005744
3240.000000	0.005729
3239.000000	0.005703
3238.000000	0.005673
3237.000000	0.005651
3236.000000	0.005646
3235.000000	0.005656
3234.000000	0.005672
3233.000000	0.005680
3232.000000	0.005675
3231.000000	0.005657
3230.000000	0.005639
3229.000000	0.005631
3228.000000	0.005634
3227.000000	0.005644
3226.000000	0.005656
3225.000000	0.005666
3224.000000	0.005678
3223.000000	0.005690
3222.000000	0.005696
3221.000000	0.005694
3220.000000	0.005686
3219.000000	0.005675
3218.000000	0.005662
3217.000000	0.005644
3216.000000	0.005621
3215.000000	0.005599
3214.000000	0.005588
3213.000000	0.005589
3212.000000	0.005590
3211.000000	0.005581
3210.000000	0.005559
3209.000000	0.005536
3208.000000	0.005529
3207.000000	0.005547
3206.000000	0.005581
3205.000000	0.005612
3204.000000	0.005622
3203.000000	0.005609
3202.000000	0.005578
3201.000000	0.005540
3200.000000	0.005504
3199.000000	0.005478
3198.000000	0.005466
3197.000000	0.005471
3196.000000	0.005487
3195.000000	0.005507
3194.000000	0.005518
3193.000000	0.005512
3192.000000	0.005490
3191.000000	0.005462
3190.000000	0.005444
3189.000000	0.005444
3188.000000	0.005452
3187.000000	0.005458
3186.000000	0.005454
3185.000000	0.005444
3184.000000	0.005431
3183.000000	0.005419
3182.000000	0.005413
3181.000000	0.005418
3180.000000	0.005429
3179.000000	0.005436
3178.000000	0.005428
3177.000000	0.005404
3176.000000	0.005374
3175.000000	0.005346
3174.000000	0.005323
3173.000000	0.005300
3172.000000	0.005278
3171.000000	0.005262
3170.000000	0.005253
3169.000000	0.005246
3168.000000	0.005240
3167.000000	0.005236
3166.000000	0.005234
3165.000000	0.005235
3164.000000	0.005231
3163.000000	0.005221
3162.000000	0.005205
3161.000000	0.005187
3160.000000	0.005169
3159.000000	0.005154
3158.000000	0.005141
3157.000000	0.005133
3156.000000	0.005135
3155.000000	0.005152
3154.000000	0.005176
3153.000000	0.005192
3152.000000	0.005189
3151.000000	0.005170
3150.000000	0.005147
3149.000000	0.005128
3148.000000	0.005113
3147.000000	0.005102
3146.000000	0.005097
3145.000000	0.005094
3144.000000	0.005091
3143.000000	0.005083
3142.000000	0.005075
3141.000000	0.005065
3140.000000	0.005050
3139.000000	0.005029
3138.000000	0.005009
3137.000000	0.004996
3136.000000	0.004991
3135.000000	0.004989
3134.000000	0.004988
3133.000000	0.004989
3132.000000	0.004994
3131.000000	0.004999
3130.000000	0.005002
3129.000000	0.005000
3128.000000	0.004995
3127.000000	0.004990
3126.000000	0.004989
3125.000000	0.004993
3124.000000	0.004999
3123.000000	0.005000
3122.000000	0.004993
3121.000000	0.004980
3120.000000	0.004968
3119.000000	0.004962
3118.000000	0.004968
3117.000000	0.004978
3116.000000	0.004982
3115.000000	0.004976
3114.000000	0.004964
3113.000000	0.004961
3112.000000	0.004976
3111.000000	0.005006
3110.000000	0.005033
3109.000000	0.005039
3108.000000	0.005018
3107.000000	0.004979
3106.000000	0.004942
3105.000000	0.004921
3104.000000	0.004915
3103.000000	0.004915
3102.000000	0.004915
3101.000000	0.004917
3100.000000	0.004924
3099.000000	0.004934
3098.000000	0.004942
3097.000000	0.004945
3096.000000	0.004945
3095.000000	0.004943
3094.000000	0.004939
3093.000000	0.004931
3092.000000	0.004918
3091.000000	0.004899
3090.000000	0.004877
3089.000000	0.004858
3088.000000	0.004848
3087.000000	0.004855
3086.000000	0.004880
3085.000000	0.004914
3084.000000	0.004941
3083.000000	0.004950
3082.000000	0.004942
3081.000000	0.004929
3080.000000	0.004924
3079.000000	0.004930
3078.000000	0.004941
3077.000000	0.004940
3076.000000	0.004922
3075.000000	0.004894
3074.000000	0.004872
3073.000000	0.004868
3072.000000	0.004880
3071.000000	0.004894
3070.000000	0.004899
3069.000000	0.004896
3068.000000	0.004894
3067.000000	0.004898
3066.000000	0.004909
3065.000000	0.004923
3064.000000	0.004936
3063.000000	0.004946
3062.000000	0.004954
3061.000000	0.004956
3060.000000	0.004949
3059.000000	0.004932
3058.000000	0.004908
3057.000000	0.004887
3056.000000	0.004878
3055.000000	0.004882
3054.000000	0.004892
3053.000000	0.004896
3052.000000	0.004887
3051.000000	0.004872
3050.000000	0.004864
3049.000000	0.004866
3048.000000	0.004869
3047.000000	0.004865
3046.000000	0.004855
3045.000000	0.004845
3044.000000	0.004837
3043.000000	0.004829
3042.000000	0.004821
3041.000000	0.004816
3040.000000	0.004812
3039.000000	0.004805
3038.000000	0.004792
3037.000000	0.004777
3036.000000	0.004770
3035.000000	0.004779
3034.000000	0.004799
3033.000000	0.004817
3032.000000	0.004825
3031.000000	0.004824
3030.000000	0.004822
3029.000000	0.004826
3028.000000	0.004835
3027.000000	0.004845
3026.000000	0.004856
3025.000000	0.004869
3024.000000	0.004880
3023.000000	0.004882
3022.000000	0.004873
3021.000000	0.004857
3020.000000	0.004840
3019.000000	0.004823
3018.000000	0.004809
3017.000000	0.004800
3016.000000	0.004801
3015.000000	0.004814
3014.000000	0.004831
3013.000000	0.004845
3012.000000	0.004857
3011.000000	0.004882
3010.000000	0.004931
3009.000000	0.005003
3008.000000	0.005076
3007.000000	0.005131
3006.000000	0.005162
3005.000000	0.005181
3004.000000	0.005205
3003.000000	0.005242
3002.000000	0.005292
3001.000000	0.005346
3000.000000	0.005397
2999.000000	0.005446
2998.000000	0.005497
2997.000000	0.005554
2996.000000	0.005616
2995.000000	0.005687
2994.000000	0.005773
2993.000000	0.005874
2992.000000	0.005980
2991.000000	0.006076
2990.000000	0.006163
2989.000000	0.006250
2988.000000	0.006346
2987.000000	0.006450
2986.000000	0.006562
2985.000000	0.006681
2984.000000	0.006807
2983.000000	0.006941
2982.000000	0.007082
2981.000000	0.007231
2980.000000	0.007387
2979.000000	0.007548
2978.000000	0.007720
2977.000000	0.007912
2976.000000	0.008124
2975.000000	0.008349
2974.000000	0.008577
2973.000000	0.008803
2972.000000	0.009035
2971.000000	0.009279
2970.000000	0.009540
2969.000000	0.009816
2968.000000	0.010094
2967.000000	0.010359
2966.000000	0.010603
2965.000000	0.010826
2964.000000	0.011037
2963.000000	0.011236
2962.000000	0.011416
2961.000000	0.011565
2960.000000	0.011671
2959.000000	0.011733
2958.000000	0.011752
2957.000000	0.011735
2956.000000	0.011679
2955.000000	0.011579
2954.000000	0.011440
2953.000000	0.011281
2952.000000	0.011134
2951.000000	0.011021
2950.000000	0.010945
2949.000000	0.010896
2948.000000	0.010870
2947.000000	0.010874
2946.000000	0.010924
2945.000000	0.011026
2944.000000	0.011173
2943.000000	0.011353
2942.000000	0.011555
2941.000000	0.011777
2940.000000	0.012014
2939.000000	0.012261
2938.000000	0.012511
2937.000000	0.012764
2936.000000	0.013020
2935.000000	0.013272
2934.000000	0.013507
2933.000000	0.013713
2932.000000	0.013887
2931.000000	0.014025
2930.000000	0.014123
2929.000000	0.014174
2928.000000	0.014175
2927.000000	0.014138
2926.000000	0.014078
2925.000000	0.014004
2924.000000	0.013907
2923.000000	0.013772
2922.000000	0.013595
2921.000000	0.013382
2920.000000	0.013149
2919.000000	0.012914
2918.000000	0.012697
2917.000000	0.012510
2916.000000	0.012352
2915.000000	0.012206
2914.000000	0.012058
2913.000000	0.011908
2912.000000	0.011764
2911.000000	0.011629
2910.000000	0.011494
2909.000000	0.011351
2908.000000	0.011197
2907.000000	0.011042
2906.000000	0.010891
2905.000000	0.010744
2904.000000	0.010588
2903.000000	0.010413
2902.000000	0.010218
2901.000000	0.010009
2900.000000	0.009798
2899.000000	0.009593
2898.000000	0.009393
2897.000000	0.009195
2896.000000	0.009003
2895.000000	0.008825
2894.000000	0.008668
2893.000000	0.008533
2892.000000	0.008408
2891.000000	0.008284
2890.000000	0.008163
2889.000000	0.008055
2888.000000	0.007967
2887.000000	0.007901
2886.000000	0.007860
2885.000000	0.007851
2884.000000	0.007881
2883.000000	0.007944
2882.000000	0.008033
2881.000000	0.008141
2880.000000	0.008269
2879.000000	0.008414
2878.000000	0.008570
2877.000000	0.008724
2876.000000	0.008864
2875.000000	0.008986
2874.000000	0.009093
2873.000000	0.009185
2872.000000	0.009255
2871.000000	0.009298
2870.000000	0.009315
2869.000000	0.009323
2868.000000	0.009343
2867.000000	0.009390
2866.000000	0.009465
2865.000000	0.009561
2864.000000	0.009667
2863.000000	0.009774
2862.000000	0.009876
2861.000000	0.009970
2860.000000	0.010054
2859.000000	0.010126
2858.000000	0.010182
2857.000000	0.010207
2856.000000	0.010181
2855.000000	0.010092
2854.000000	0.009942
2853.000000	0.009745
2852.000000	0.009512
2851.000000	0.009244
2850.000000	0.008949
2849.000000	0.008649
2848.000000	0.008373
2847.000000	0.008139
2846.000000	0.007942
2845.000000	0.007757
2844.000000	0.007569
2843.000000	0.007376
2842.000000	0.007189
2841.000000	0.007017
2840.000000	0.006859
2839.000000	0.006708
2838.000000	0.006566
2837.000000	0.006442
2836.000000	0.006344
2835.000000	0.006274
2834.000000	0.006221
2833.000000	0.006174
2832.000000	0.006121
2831.000000	0.006062
2830.000000	0.006003
2829.000000	0.005951
2828.000000	0.005909
2827.000000	0.005874
2826.000000	0.005842
2825.000000	0.005817
2824.000000	0.005806
2823.000000	0.005809
2822.000000	0.005816
2821.000000	0.005814
2820.000000	0.005792
2819.000000	0.005751
2818.000000	0.005700
2817.000000	0.005650
2816.000000	0.005607
2815.000000	0.005570
2814.000000	0.005539
2813.000000	0.005513
2812.000000	0.005492
2811.000000	0.005477
2810.000000	0.005464
2809.000000	0.005449
2808.000000	0.005428
2807.000000	0.005400
2806.000000	0.005372
2805.000000	0.005348
2804.000000	0.005324
2803.000000	0.005295
2802.000000	0.005263
2801.000000	0.005238
2800.000000	0.005231
2799.000000	0.005239
2798.000000	0.005251
2797.000000	0.005257
2796.000000	0.005251
2795.000000	0.005239
2794.000000	0.005222
2793.000000	0.005203
2792.000000	0.005185
2791.000000	0.005172
2790.000000	0.005169
2789.000000	0.005175
2788.000000	0.005185
2787.000000	0.005189
2786.000000	0.005182
2785.000000	0.005161
2784.000000	0.005130
2783.000000	0.005098
2782.000000	0.005078
2781.000000	0.005072
2780.000000	0.005071
2779.000000	0.005065
2778.000000	0.005051
2777.000000	0.005034
2776.000000	0.005021
2775.000000	0.005012
2774.000000	0.005000
2773.000000	0.004983
2772.000000	0.004961
2771.000000	0.004947
2770.000000	0.004950
2769.000000	0.004972
2768.000000	0.004999
2767.000000	0.005015
2766.000000	0.005015
2765.000000	0.005005
2764.000000	0.004993
2763.000000	0.004986
2762.000000	0.004982
2761.000000	0.004984
2760.000000	0.004992
2759.000000	0.005004
2758.000000	0.005015
2757.000000	0.005018
2756.000000	0.005006
2755.000000	0.004982
2754.000000	0.004952
2753.000000	0.004927
2752.000000	0.004915
2751.000000	0.004916
2750.000000	0.004925
2749.000000	0.004937
2748.000000	0.004948
2747.000000	0.004953
2746.000000	0.004953
2745.000000	0.004952
2744.000000	0.004952
2743.000000	0.004954
2742.000000	0.004956
2741.000000	0.004955
2740.000000	0.004944
2739.000000	0.004922
2738.000000	0.004894
2737.000000	0.004872
2736.000000	0.004861
2735.000000	0.004857
2734.000000	0.004855
2733.000000	0.004854
2732.000000	0.004857
2731.000000	0.004860
2730.000000	0.004863
2729.000000	0.004867
2728.000000	0.004873
2727.000000	0.004878
2726.000000	0.004883
2725.000000	0.004889
2724.000000	0.004895
2723.000000	0.004897
2722.000000	0.004888
2721.000000	0.004868
2720.000000	0.004842
2719.000000	0.004818
2718.000000	0.004803
2717.000000	0.004803
2716.000000	0.004813
2715.000000	0.004821
2714.000000	0.004820
2713.000000	0.004815
2712.000000	0.004816
2711.000000	0.004821
2710.000000	0.004825
2709.000000	0.004823
2708.000000	0.004818
2707.000000	0.004810
2706.000000	0.004795
2705.000000	0.004778
2704.000000	0.004769
2703.000000	0.004776
2702.000000	0.004792
2701.000000	0.004803
2700.000000	0.004806
2699.000000	0.004810
2698.000000	0.004821
2697.000000	0.004833
2696.000000	0.004830
2695.000000	0.004808
2694.000000	0.004777
2693.000000	0.004755
2692.000000	0.004752
2691.000000	0.004759
2690.000000	0.004762
2689.000000	0.004757
2688.000000	0.004754
2687.000000	0.004763
2686.000000	0.004779
2685.000000	0.004791
2684.000000	0.004791
2683.000000	0.004782
2682.000000	0.004770
2681.000000	0.004759
2680.000000	0.004752
2679.000000	0.004744
2678.000000	0.004737
2677.000000	0.004735
2676.000000	0.004741
2675.000000	0.004756
2674.000000	0.004771
2673.000000	0.004780
2672.000000	0.004782
2671.000000	0.004780
2670.000000	0.004777
2669.000000	0.004775
2668.000000	0.004775
2667.000000	0.004776
2666.000000	0.004780
2665.000000	0.004785
2664.000000	0.004790
2663.000000	0.004791
2662.000000	0.004784
2661.000000	0.004771
2660.000000	0.004763
2659.000000	0.004762
2658.000000	0.004764
2657.000000	0.004763
2656.000000	0.004759
2655.000000	0.004762
2654.000000	0.004773
2653.000000	0.004781
2652.000000	0.004776
2651.000000	0.004758
2650.000000	0.004738
2649.000000	0.004724
2648.000000	0.004712
2647.000000	0.004688
2646.000000	0.004649
2645.000000	0.004603
2644.000000	0.004565
2643.000000	0.004547
2642.000000	0.004552
2641.000000	0.004571
2640.000000	0.004590
2639.000000	0.004597
2638.000000	0.004594
2637.000000	0.004589
2636.000000	0.004590
2635.000000	0.004594
2634.000000	0.004590
2633.000000	0.004571
2632.000000	0.004545
2631.000000	0.004523
2630.000000	0.004515
2629.000000	0.004522
2628.000000	0.004539
2627.000000	0.004557
2626.000000	0.004562
2625.000000	0.004545
2624.000000	0.004513
2623.000000	0.004481
2622.000000	0.004461
2621.000000	0.004450
2620.000000	0.004440
2619.000000	0.004432
2618.000000	0.004429
2617.000000	0.004433
2616.000000	0.004443
2615.000000	0.004454
2614.000000	0.004466
2613.000000	0.004476
2612.000000	0.004479
2611.000000	0.004476
2610.000000	0.004477
2609.000000	0.004485
2608.000000	0.004491
2607.000000	0.004480
2606.000000	0.004450
2605.000000	0.004415
2604.000000	0.004389
2603.000000	0.004379
2602.000000	0.004380
2601.000000	0.004383
2600.000000	0.004379
2599.000000	0.004360
2598.000000	0.004332
2597.000000	0.004306
2596.000000	0.004293
2595.000000	0.004298
2594.000000	0.004317
2593.000000	0.004340
2592.000000	0.004354
2591.000000	0.004349
2590.000000	0.004330
2589.000000	0.004315
2588.000000	0.004316
2587.000000	0.004331
2586.000000	0.004346
2585.000000	0.004347
2584.000000	0.004325
2583.000000	0.004290
2582.000000	0.004258
2581.000000	0.004239
2580.000000	0.004233
2579.000000	0.004232
2578.000000	0.004233
2577.000000	0.004237
2576.000000	0.004243
2575.000000	0.004246
2574.000000	0.004251
2573.000000	0.004268
2572.000000	0.004299
2571.000000	0.004329
2570.000000	0.004341
2569.000000	0.004331
2568.000000	0.004313
2567.000000	0.004298
2566.000000	0.004288
2565.000000	0.004274
2564.000000	0.004252
2563.000000	0.004232
2562.000000	0.004229
2561.000000	0.004246
2560.000000	0.004267
2559.000000	0.004272
2558.000000	0.004257
2557.000000	0.004236
2556.000000	0.004217
2555.000000	0.004191
2554.000000	0.004150
2553.000000	0.004100
2552.000000	0.004062
2551.000000	0.004054
2550.000000	0.004080
2549.000000	0.004126
2548.000000	0.004175
2547.000000	0.004214
2546.000000	0.004239
2545.000000	0.004255
2544.000000	0.004267
2543.000000	0.004283
2542.000000	0.004308
2541.000000	0.004340
2540.000000	0.004371
2539.000000	0.004386
2538.000000	0.004379
2537.000000	0.004359
2536.000000	0.004344
2535.000000	0.004350
2534.000000	0.004380
2533.000000	0.004418
2532.000000	0.004443
2531.000000	0.004452
2530.000000	0.004454
2529.000000	0.004462
2528.000000	0.004477
2527.000000	0.004489
2526.000000	0.004490
2525.000000	0.004481
2524.000000	0.004468
2523.000000	0.004459
2522.000000	0.004468
2521.000000	0.004501
2520.000000	0.004552
2519.000000	0.004608
2518.000000	0.004660
2517.000000	0.004699
2516.000000	0.004717
2515.000000	0.004713
2514.000000	0.004701
2513.000000	0.004698
2512.000000	0.004707
2511.000000	0.004717
2510.000000	0.004718
2509.000000	0.004709
2508.000000	0.004682
2507.000000	0.004637
2506.000000	0.004584
2505.000000	0.004539
2504.000000	0.004506
2503.000000	0.004473
2502.000000	0.004440
2501.000000	0.004419
2500.000000	0.004411
2499.000000	0.004397
2498.000000	0.004365
2497.000000	0.004322
2496.000000	0.004286
2495.000000	0.004255
2494.000000	0.004219
2493.000000	0.004181
2492.000000	0.004154
2491.000000	0.004139
2490.000000	0.004125
2489.000000	0.004105
2488.000000	0.004087
2487.000000	0.004077
2486.000000	0.004070
2485.000000	0.004059
2484.000000	0.004044
2483.000000	0.004030
2482.000000	0.004017
2481.000000	0.004008
2480.000000	0.004012
2479.000000	0.004030
2478.000000	0.004053
2477.000000	0.004058
2476.000000	0.004035
2475.000000	0.003997
2474.000000	0.003968
2473.000000	0.003967
2472.000000	0.003987
2471.000000	0.004010
2470.000000	0.004020
2469.000000	0.004016
2468.000000	0.004004
2467.000000	0.003985
2466.000000	0.003959
2465.000000	0.003937
2464.000000	0.003933
2463.000000	0.003951
2462.000000	0.003981
2461.000000	0.004005
2460.000000	0.004009
2459.000000	0.003994
2458.000000	0.003971
2457.000000	0.003949
2456.000000	0.003935
2455.000000	0.003933
2454.000000	0.003952
2453.000000	0.003995
2452.000000	0.004050
2451.000000	0.004091
2450.000000	0.004092
2449.000000	0.004056
2448.000000	0.004006
2447.000000	0.003972
2446.000000	0.003972
2445.000000	0.004001
2444.000000	0.004038
2443.000000	0.004051
2442.000000	0.004018
2441.000000	0.003951
2440.000000	0.003886
2439.000000	0.003862
2438.000000	0.003889
2437.000000	0.003937
2436.000000	0.003974
2435.000000	0.003984
2434.000000	0.003977
2433.000000	0.003968
2432.000000	0.003962
2431.000000	0.003956
2430.000000	0.003947
2429.000000	0.003937
2428.000000	0.003938
2427.000000	0.003960
2426.000000	0.004007
2425.000000	0.004063
2424.000000	0.004103
2423.000000	0.004108
2422.000000	0.004081
2421.000000	0.004039
2420.000000	0.004000
2419.000000	0.003972
2418.000000	0.003959
2417.000000	0.003956
2416.000000	0.003951
2415.000000	0.003935
2414.000000	0.003918
2413.000000	0.003914
2412.000000	0.003926
2411.000000	0.003936
2410.000000	0.003925
2409.000000	0.003892
2408.000000	0.003852
2407.000000	0.003823
2406.000000	0.003809
2405.000000	0.003803
2404.000000	0.003795
2403.000000	0.003785
2402.000000	0.003779
2401.000000	0.003783
2400.000000	0.003795
2399.000000	0.003811
2398.000000	0.003824
2397.000000	0.003836
2396.000000	0.003848
2395.000000	0.003863
2394.000000	0.003882
2393.000000	0.003899
2392.000000	0.003905
2391.000000	0.003897
2390.000000	0.003888
2389.000000	0.003885
2388.000000	0.003887
2387.000000	0.003881
2386.000000	0.003863
2385.000000	0.003836
2384.000000	0.003807
2383.000000	0.003780
2382.000000	0.003761
2381.000000	0.003751
2380.000000	0.003746
2379.000000	0.003739
2378.000000	0.003733
2377.000000	0.003738
2376.000000	0.003757
2375.000000	0.003786
2374.000000	0.003812
2373.000000	0.003813
2372.000000	0.003771
2371.000000	0.003697
2370.000000	0.003629
2369.000000	0.003595
2368.000000	0.003597
2367.000000	0.003629
2366.000000	0.003686
2365.000000	0.003746
2364.000000	0.003779
2363.000000	0.003783
2362.000000	0.003789
2361.000000	0.003817
2360.000000	0.003857
2359.000000	0.003885
2358.000000	0.003888
2357.000000	0.003866
2356.000000	0.003828
2355.000000	0.003811
2354.000000	0.003812
2353.000000	0.003797
2352.000000	0.003762
2351.000000	0.003747
2350.000000	0.003778
2349.000000	0.003837
2348.000000	0.003893
2347.000000	0.003917
2346.000000	0.003909
2345.000000	0.003906
2344.000000	0.003926
2343.000000	0.003954
2342.000000	0.003952
2341.000000	0.003911
2340.000000	0.003870
2339.000000	0.003873
2338.000000	0.003915
2337.000000	0.003951
2336.000000	0.003952
2335.000000	0.003921
2334.000000	0.003875
2333.000000	0.003827
2332.000000	0.003802
2331.000000	0.003811
2330.000000	0.003863
2329.000000	0.003935
2328.000000	0.004025
2327.000000	0.004125
2326.000000	0.004224
2325.000000	0.004291
2324.000000	0.004305
2323.000000	0.004265
2322.000000	0.004193
2321.000000	0.004119
2320.000000	0.004078
2319.000000	0.004077
2318.000000	0.004111
2317.000000	0.004152
2316.000000	0.004172
2315.000000	0.004149
2314.000000	0.004098
2313.000000	0.004048
2312.000000	0.004018
2311.000000	0.003992
2310.000000	0.003962
2309.000000	0.003944
2308.000000	0.003964
2307.000000	0.004008
2306.000000	0.004037
2305.000000	0.004018
2304.000000	0.003955
2303.000000	0.003879
2302.000000	0.003824
2301.000000	0.003813
2300.000000	0.003843
2299.000000	0.003882
2298.000000	0.003904
2297.000000	0.003901
2296.000000	0.003898
2295.000000	0.003916
2294.000000	0.003956
2293.000000	0.004001
2292.000000	0.004034
2291.000000	0.004053
2290.000000	0.004076
2289.000000	0.004122
2288.000000	0.004188
2287.000000	0.004244
2286.000000	0.004261
2285.000000	0.004236
2284.000000	0.004192
2283.000000	0.004153
2282.000000	0.004125
2281.000000	0.004103
2280.000000	0.004079
2279.000000	0.004052
2278.000000	0.004021
2277.000000	0.003981
2276.000000	0.003927
2275.000000	0.003867
2274.000000	0.003832
2273.000000	0.003839
2272.000000	0.003864
2271.000000	0.003864
2270.000000	0.003842
2269.000000	0.003844
2268.000000	0.003886
2267.000000	0.003913
2266.000000	0.003866
2265.000000	0.003767
2264.000000	0.003699
2263.000000	0.003725
2262.000000	0.003834
2261.000000	0.003968
2260.000000	0.004065
2259.000000	0.004097
2258.000000	0.004080
2257.000000	0.004054
2256.000000	0.004038
2255.000000	0.004009
2254.000000	0.003952
2253.000000	0.003895
2252.000000	0.003871
2251.000000	0.003862
2250.000000	0.003819
2249.000000	0.003729
2248.000000	0.003637
2247.000000	0.003586
2246.000000	0.003578
2245.000000	0.003597
2244.000000	0.003638
2243.000000	0.003710
2242.000000	0.003806
2241.000000	0.003903
2240.000000	0.003962
2239.000000	0.003960
2238.000000	0.003907
2237.000000	0.003845
2236.000000	0.003806
2235.000000	0.003790
2234.000000	0.003786
2233.000000	0.003809
2232.000000	0.003868
2231.000000	0.003926
2230.000000	0.003923
2229.000000	0.003831
2228.000000	0.003686
2227.000000	0.003548
2226.000000	0.003468
2225.000000	0.003470
2224.000000	0.003540
2223.000000	0.003628
2222.000000	0.003694
2221.000000	0.003734
2220.000000	0.003760
2219.000000	0.003758
2218.000000	0.003695
2217.000000	0.003575
2216.000000	0.003448
2215.000000	0.003362
2214.000000	0.003315
2213.000000	0.003281
2212.000000	0.003242
2211.000000	0.003203
2210.000000	0.003186
2209.000000	0.003206
2208.000000	0.003259
2207.000000	0.003319
2206.000000	0.003360
2205.000000	0.003381
2204.000000	0.003389
2203.000000	0.003390
2202.000000	0.003386
2201.000000	0.003390
2200.000000	0.003414
2199.000000	0.003466
2198.000000	0.003561
2197.000000	0.003709
2196.000000	0.003859
2195.000000	0.003911
2194.000000	0.003817
2193.000000	0.003661
2192.000000	0.003573
2191.000000	0.003586
2190.000000	0.003623
2189.000000	0.003618
2188.000000	0.003588
2187.000000	0.003578
2186.000000	0.003589
2185.000000	0.003597
2184.000000	0.003589
2183.000000	0.003548
2182.000000	0.003448
2181.000000	0.003298
2180.000000	0.003155
2179.000000	0.003058
2178.000000	0.002987
2177.000000	0.002902
2176.000000	0.002801
2175.000000	0.002707
2174.000000	0.002635
2173.000000	0.002608
2172.000000	0.002677
2171.000000	0.002880
2170.000000	0.003191
2169.000000	0.003517
2168.000000	0.003749
2167.000000	0.003818
2166.000000	0.003723
2165.000000	0.003548
2164.000000	0.003440
2163.000000	0.003499
2162.000000	0.003695
2161.000000	0.003875
2160.000000	0.003870
2159.000000	0.003616
2158.000000	0.003189
2157.000000	0.002741
2156.000000	0.002398
2155.000000	0.002202
2154.000000	0.002146
2153.000000	0.002229
2152.000000	0.002442
2151.000000	0.002725
2150.000000	0.002964
2149.000000	0.003065
2148.000000	0.003036
2147.000000	0.002965
2146.000000	0.002931
2145.000000	0.002949
2144.000000	0.003017
2143.000000	0.003146
2142.000000	0.003326
2141.000000	0.003484
2140.000000	0.003526
2139.000000	0.003438
2138.000000	0.003303
2137.000000	0.003220
2136.000000	0.003214
2135.000000	0.003242
2134.000000	0.003250
2133.000000	0.003217
2132.000000	0.003157
2131.000000	0.003103
2130.000000	0.003093
2129.000000	0.003140
2128.000000	0.003223
2127.000000	0.003292
2126.000000	0.003309
2125.000000	0.003282
2124.000000	0.003259
2123.000000	0.003287
2122.000000	0.003379
2121.000000	0.003507
2120.000000	0.003631
2119.000000	0.003719
2118.000000	0.003763
2117.000000	0.003764
2116.000000	0.003745
2115.000000	0.003737
2114.000000	0.003762
2113.000000	0.003806
2112.000000	0.003831
2111.000000	0.003821
2110.000000	0.003796
2109.000000	0.003788
2108.000000	0.003803
2107.000000	0.003825
2106.000000	0.003842
2105.000000	0.003843
2104.000000	0.003823
2103.000000	0.003792
2102.000000	0.003769
2101.000000	0.003763
2100.000000	0.003764
2099.000000	0.003764
2098.000000	0.003775
2097.000000	0.003802
2096.000000	0.003822
2095.000000	0.003816
2094.000000	0.003792
2093.000000	0.003777
2092.000000	0.003769
2091.000000	0.003745
2090.000000	0.003700
2089.000000	0.003660
2088.000000	0.003657
2087.000000	0.003702
2086.000000	0.003778
2085.000000	0.003847
2084.000000	0.003873
2083.000000	0.003858
2082.000000	0.003841
2081.000000	0.003856
2080.000000	0.003902
2079.000000	0.003961
2078.000000	0.004035
2077.000000	0.004116
2076.000000	0.004153
2075.000000	0.004086
2074.000000	0.003927
2073.000000	0.003768
2072.000000	0.003683
2071.000000	0.003670
2070.000000	0.003679
2069.000000	0.003670
2068.000000	0.003633
2067.000000	0.003585
2066.000000	0.003557
2065.000000	0.003574
2064.000000	0.003619
2063.000000	0.003649
2062.000000	0.003629
2061.000000	0.003560
2060.000000	0.003472
2059.000000	0.003404
2058.000000	0.003387
2057.000000	0.003410
2056.000000	0.003426
2055.000000	0.003419
2054.000000	0.003453
2053.000000	0.003592
2052.000000	0.003780
2051.000000	0.003866
2050.000000	0.003758
2049.000000	0.003538
2048.000000	0.003385
2047.000000	0.003402
2046.000000	0.003535
2045.000000	0.003643
2044.000000	0.003616
2043.000000	0.003456
2042.000000	0.003260
2041.000000	0.003116
2040.000000	0.003020
2039.000000	0.002935
2038.000000	0.002878
2037.000000	0.002892
2036.000000	0.002944
2035.000000	0.002957
2034.000000	0.002925
2033.000000	0.002909
2032.000000	0.002904
2031.000000	0.002831
2030.000000	0.002692
2029.000000	0.002579
2028.000000	0.002525
2027.000000	0.002462
2026.000000	0.002360
2025.000000	0.002313
2024.000000	0.002385
2023.000000	0.002510
2022.000000	0.002595
2021.000000	0.002643
2020.000000	0.002703
2019.000000	0.002765
2018.000000	0.002790
2017.000000	0.002782
2016.000000	0.002776
2015.000000	0.002788
2014.000000	0.002818
2013.000000	0.002859
2012.000000	0.002877
2011.000000	0.002819
2010.000000	0.002699
2009.000000	0.002613
2008.000000	0.002650
2007.000000	0.002810
2006.000000	0.003010
2005.000000	0.003135
2004.000000	0.003089
2003.000000	0.002876
2002.000000	0.002638
2001.000000	0.002550
2000.000000	0.002632
1999.000000	0.002738
1998.000000	0.002757
1997.000000	0.002731
1996.000000	0.002753
1995.000000	0.002835
1994.000000	0.002937
1993.000000	0.003035
1992.000000	0.003103
1991.000000	0.003105
1990.000000	0.003067
1989.000000	0.003099
1988.000000	0.003259
1987.000000	0.003446
1986.000000	0.003497
1985.000000	0.003372
1984.000000	0.003176
1983.000000	0.003045
1982.000000	0.003039
1981.000000	0.003114
1980.000000	0.003131
1979.000000	0.002948
1978.000000	0.002594
1977.000000	0.002315
1976.000000	0.002349
1975.000000	0.002670
1974.000000	0.003072
1973.000000	0.003376
1972.000000	0.003495
1971.000000	0.003404
1970.000000	0.003160
1969.000000	0.002928
1968.000000	0.002867
1967.000000	0.002962
1966.000000	0.003049
1965.000000	0.002996
1964.000000	0.002817
1963.000000	0.002609
1962.000000	0.002462
1961.000000	0.002421
1960.000000	0.002467
1959.000000	0.002533
1958.000000	0.002575
1957.000000	0.002602
1956.000000	0.002636
1955.000000	0.002669
1954.000000	0.002671
1953.000000	0.002642
1952.000000	0.002613
1951.000000	0.002615
1950.000000	0.002656
1949.000000	0.002711
1948.000000	0.002741
1947.000000	0.002722
1946.000000	0.002671
1945.000000	0.002626
1944.000000	0.002611
1943.000000	0.002627
1942.000000	0.002678
1941.000000	0.002768
1940.000000	0.002860
1939.000000	0.002899
1938.000000	0.002873
1937.000000	0.002825
1936.000000	0.002787
1935.000000	0.002742
1934.000000	0.002672
1933.000000	0.002603
1932.000000	0.002578
1931.000000	0.002602
1930.000000	0.002645
1929.000000	0.002687
1928.000000	0.002723
1927.000000	0.002737
1926.000000	0.002701
1925.000000	0.002618
1924.000000	0.002542
1923.000000	0.002534
1922.000000	0.002603
1921.000000	0.002700
1920.000000	0.002767
1919.000000	0.002788
1918.000000	0.002785
1917.000000	0.002782
1916.000000	0.002785
1915.000000	0.002795
1914.000000	0.002817
1913.000000	0.002854
1912.000000	0.002884
1911.000000	0.002877
1910.000000	0.002837
1909.000000	0.002800
1908.000000	0.002786
1907.000000	0.002781
1906.000000	0.002771
1905.000000	0.002760
1904.000000	0.002752
1903.000000	0.002739
1902.000000	0.002729
1901.000000	0.002752
1900.000000	0.002825
1899.000000	0.002908
1898.000000	0.002954
1897.000000	0.002954
1896.000000	0.002944
1895.000000	0.002950
1894.000000	0.002959
1893.000000	0.002937
1892.000000	0.002868
1891.000000	0.002776
1890.000000	0.002719
1889.000000	0.002740
1888.000000	0.002809
1887.000000	0.002857
1886.000000	0.002852
1885.000000	0.002823
1884.000000	0.002807
1883.000000	0.002806
1882.000000	0.002798
1881.000000	0.002787
1880.000000	0.002789
1879.000000	0.002797
1878.000000	0.002791
1877.000000	0.002763
1876.000000	0.002719
1875.000000	0.002660
1874.000000	0.002583
1873.000000	0.002501
1872.000000	0.002435
1871.000000	0.002402
1870.000000	0.002418
1869.000000	0.002493
1868.000000	0.002601
1867.000000	0.002691
1866.000000	0.002733
1865.000000	0.002739
1864.000000	0.002737
1863.000000	0.002739
1862.000000	0.002737
1861.000000	0.002717
1860.000000	0.002677
1859.000000	0.002623
1858.000000	0.002575
1857.000000	0.002558
1856.000000	0.002582
1855.000000	0.002622
1854.000000	0.002658
1853.000000	0.002686
1852.000000	0.002708
1851.000000	0.002708
1850.000000	0.002676
1849.000000	0.002630
1848.000000	0.002599
1847.000000	0.002587
1846.000000	0.002578
1845.000000	0.002577
1844.000000	0.002599
1843.000000	0.002620
1842.000000	0.002615
1841.000000	0.002594
1840.000000	0.002583
1839.000000	0.002590
1838.000000	0.002600
1837.000000	0.002601
1836.000000	0.002595
1835.000000	0.002585
1834.000000	0.002566
1833.000000	0.002533
1832.000000	0.002485
1831.000000	0.002440
1830.000000	0.002436
1829.000000	0.002471
1828.000000	0.002503
1827.000000	0.002497
1826.000000	0.002471
1825.000000	0.002469
1824.000000	0.002506
1823.000000	0.002557
1822.000000	0.002595
1821.000000	0.002613
1820.000000	0.002610
1819.000000	0.002587
1818.000000	0.002557
1817.000000	0.002542
1816.000000	0.002546
1815.000000	0.002540
1814.000000	0.002499
1813.000000	0.002441
1812.000000	0.002411
1811.000000	0.002434
1810.000000	0.002491
1809.000000	0.002545
1808.000000	0.002588
1807.000000	0.002636
1806.000000	0.002694
1805.000000	0.002751
1804.000000	0.002808
1803.000000	0.002889
1802.000000	0.003021
1801.000000	0.003192
1800.000000	0.003352
1799.000000	0.003460
1798.000000	0.003508
1797.000000	0.003516
1796.000000	0.003505
1795.000000	0.003474
1794.000000	0.003407
1793.000000	0.003306
1792.000000	0.003210
1791.000000	0.003140
1790.000000	0.003079
1789.000000	0.002991
1788.000000	0.002863
1787.000000	0.002710
1786.000000	0.002575
1785.000000	0.002493
1784.000000	0.002464
1783.000000	0.002459
1782.000000	0.002460
1781.000000	0.002478
1780.000000	0.002521
1779.000000	0.002567
1778.000000	0.002582
1777.000000	0.002562
1776.000000	0.002534
1775.000000	0.002512
1774.000000	0.002500
1773.000000	0.002517
1772.000000	0.002574
1771.000000	0.002626
1770.000000	0.002645
1769.000000	0.002673
1768.000000	0.002757
1767.000000	0.002891
1766.000000	0.003033
1765.000000	0.003163
1764.000000	0.003305
1763.000000	0.003504
1762.000000	0.003790
1761.000000	0.004145
1760.000000	0.004535
1759.000000	0.004974
1758.000000	0.005540
1757.000000	0.006313
1756.000000	0.007232
1755.000000	0.008126
1754.000000	0.008940
1753.000000	0.009785
1752.000000	0.010824
1751.000000	0.012080
1750.000000	0.013406
1749.000000	0.014682
1748.000000	0.015853
1747.000000	0.016857
1746.000000	0.017691
1745.000000	0.018426
1744.000000	0.019107
1743.000000	0.019699
1742.000000	0.020172
1741.000000	0.020539
1740.000000	0.020778
1739.000000	0.020826
1738.000000	0.020701
1737.000000	0.020476
1736.000000	0.020132
1735.000000	0.019553
1734.000000	0.018708
1733.000000	0.017806
1732.000000	0.016994
1731.000000	0.016196
1730.000000	0.015337
1729.000000	0.014438
1728.000000	0.013544
1727.000000	0.012656
1726.000000	0.011772
1725.000000	0.010915
1724.000000	0.010104
1723.000000	0.009340
1722.000000	0.008637
1721.000000	0.008006
1720.000000	0.007412
1719.000000	0.006826
1718.000000	0.006305
1717.000000	0.005930
1716.000000	0.005663
1715.000000	0.005423
1714.000000	0.005186
1713.000000	0.004974
1712.000000	0.004800
1711.000000	0.004655
1710.000000	0.004536
1709.000000	0.004439
1708.000000	0.004337
1707.000000	0.004213
1706.000000	0.004102
1705.000000	0.004054
1704.000000	0.004062
1703.000000	0.004095
1702.000000	0.004136
1701.000000	0.004193
1700.000000	0.004263
1699.000000	0.004299
1698.000000	0.004303
1697.000000	0.004326
1696.000000	0.004389
1695.000000	0.004480
1694.000000	0.004579
1693.000000	0.004671
1692.000000	0.004740
1691.000000	0.004778
1690.000000	0.004816
1689.000000	0.004898
1688.000000	0.005013
1687.000000	0.005111
1686.000000	0.005152
1685.000000	0.005180
1684.000000	0.005264
1683.000000	0.005349
1682.000000	0.005416
1681.000000	0.005513
1680.000000	0.005630
1679.000000	0.005733
1678.000000	0.005815
1677.000000	0.005902
1676.000000	0.006006
1675.000000	0.006105
1674.000000	0.006180
1673.000000	0.006260
1672.000000	0.006367
1671.000000	0.006493
1670.000000	0.006632
1669.000000	0.006790
1668.000000	0.006944
1667.000000	0.007066
1666.000000	0.007165
1665.000000	0.007267
1664.000000	0.007383
1663.000000	0.007506
1662.000000	0.007623
1661.000000	0.007735
1660.000000	0.007842
1659.000000	0.007919
1658.000000	0.007959
1657.000000	0.007993
1656.000000	0.008074
1655.000000	0.008208
1654.000000	0.008387
1653.000000	0.008535
1652.000000	0.008547
1651.000000	0.008461
1650.000000	0.008395
1649.000000	0.008389
1648.000000	0.008443
1647.000000	0.008511
1646.000000	0.008548
1645.000000	0.008576
1644.000000	0.008621
1643.000000	0.008671
1642.000000	0.008703
1641.000000	0.008707
1640.000000	0.008691
1639.000000	0.008681
1638.000000	0.008700
1637.000000	0.008751
1636.000000	0.008792
1635.000000	0.008754
1634.000000	0.008665
1633.000000	0.008599
1632.000000	0.008570
1631.000000	0.008541
1630.000000	0.008484
1629.000000	0.008413
1628.000000	0.008362
1627.000000	0.008335
1626.000000	0.008319
1625.000000	0.008293
1624.000000	0.008230
1623.000000	0.008107
1622.000000	0.007955
1621.000000	0.007841
1620.000000	0.007787
1619.000000	0.007758
1618.000000	0.007693
1617.000000	0.007552
1616.000000	0.007346
1615.000000	0.007124
1614.000000	0.006941
1613.000000	0.006814
1612.000000	0.006715
1611.000000	0.006611
1610.000000	0.006498
1609.000000	0.006396
1608.000000	0.006305
1607.000000	0.006203
1606.000000	0.006090
1605.000000	0.005986
1604.000000	0.005898
1603.000000	0.005812
1602.000000	0.005721
1601.000000	0.005638
1600.000000	0.005574
1599.000000	0.005523
1598.000000	0.005483
1597.000000	0.005456
1596.000000	0.005435
1595.000000	0.005412
1594.000000	0.005387
1593.000000	0.005370
1592.000000	0.005358
1591.000000	0.005338
1590.000000	0.005310
1589.000000	0.005290
1588.000000	0.005282
1587.000000	0.005273
1586.000000	0.005264
1585.000000	0.005270
1584.000000	0.005289
1583.000000	0.005302
1582.000000	0.005291
1581.000000	0.005268
1580.000000	0.005259
1579.000000	0.005289
1578.000000	0.005361
1577.000000	0.005454
1576.000000	0.005520
1575.000000	0.005530
1574.000000	0.005533
1573.000000	0.005581
1572.000000	0.005656
1571.000000	0.005715
1570.000000	0.005761
1569.000000	0.005830
1568.000000	0.005920
1567.000000	0.006007
1566.000000	0.006098
1565.000000	0.006208
1564.000000	0.006320
1563.000000	0.006414
1562.000000	0.006488
1561.000000	0.006562
1560.000000	0.006684
1559.000000	0.006913
1558.000000	0.007051
1557.000000	0.007105
1556.000000	0.007179
1555.000000	0.007289
1554.000000	0.007424
1553.000000	0.007551
1552.000000	0.007654
1551.000000	0.007772
1550.000000	0.007958
1549.000000	0.008190
1548.000000	0.008377
1547.000000	0.008477
1546.000000	0.008555
1545.000000	0.008723
1544.000000	0.008992
1543.000000	0.009272
1542.000000	0.009517
1541.000000	0.009780
1540.000000	0.010081
1539.000000	0.010310
1538.000000	0.010443
1537.000000	0.010559
1536.000000	0.010693
1535.000000	0.010842
1534.000000	0.011018
1533.000000	0.011227
1532.000000	0.011430
1531.000000	0.011596
1530.000000	0.011721
1529.000000	0.011825
1528.000000	0.011941
1527.000000	0.012094
1526.000000	0.012285
1525.000000	0.012477
1524.000000	0.012626
1523.000000	0.012719
1522.000000	0.012819
1521.000000	0.012980
1520.000000	0.013154
1519.000000	0.013289
1518.000000	0.013416
1517.000000	0.013584
1516.000000	0.013786
1515.000000	0.013971
1514.000000	0.014134
1513.000000	0.014287
1512.000000	0.014416
1511.000000	0.014497
1510.000000	0.014551
1509.000000	0.014662
1508.000000	0.014919
1507.000000	0.015303
1506.000000	0.015654
1505.000000	0.015914
1504.000000	0.016082
1503.000000	0.016203
1502.000000	0.016335
1501.000000	0.016507
1500.000000	0.016695
1499.000000	0.016865
1498.000000	0.017058
1497.000000	0.017345
1496.000000	0.017678
1495.000000	0.017949
1494.000000	0.018140
1493.000000	0.018292
1492.000000	0.018439
1491.000000	0.018627
1490.000000	0.018924
1489.000000	0.019321
1488.000000	0.019735
1487.000000	0.020109
1486.000000	0.020442
1485.000000	0.020763
1484.000000	0.021078
1483.000000	0.021388
1482.000000	0.021722
1481.000000	0.022097
1480.000000	0.022470
1479.000000	0.022796
1478.000000	0.023106
1477.000000	0.023466
1476.000000	0.023883
1475.000000	0.024325
1474.000000	0.024835
1473.000000	0.025488
1472.000000	0.026191
1471.000000	0.026798
1470.000000	0.027323
1469.000000	0.027829
1468.000000	0.028314
1467.000000	0.028760
1466.000000	0.029192
1465.000000	0.029632
1464.000000	0.030020
1463.000000	0.030300
1462.000000	0.030513
1461.000000	0.030720
1460.000000	0.030935
1459.000000	0.031183
1458.000000	0.031596
1457.000000	0.032234
1456.000000	0.032821
1455.000000	0.033188
1454.000000	0.033461
1453.000000	0.033746
1452.000000	0.034033
1451.000000	0.034274
1450.000000	0.034491
1449.000000	0.034748
1448.000000	0.035055
1447.000000	0.035367
1446.000000	0.035670
1445.000000	0.035979
1444.000000	0.036284
1443.000000	0.036574
1442.000000	0.036877
1441.000000	0.037213
1440.000000	0.037536
1439.000000	0.037813
1438.000000	0.038126
1437.000000	0.038620
1436.000000	0.039218
1435.000000	0.039702
1434.000000	0.040055
1433.000000	0.040365
1432.000000	0.040660
1431.000000	0.040940
1430.000000	0.041254
1429.000000	0.041660
1428.000000	0.042111
1427.000000	0.042520
1426.000000	0.042882
1425.000000	0.043231
1424.000000	0.043516
1423.000000	0.043653
1422.000000	0.043697
1421.000000	0.043762
1420.000000	0.043899
1419.000000	0.044067
1418.000000	0.044213
1417.000000	0.044334
1416.000000	0.044395
1415.000000	0.044353
1414.000000	0.044235
1413.000000	0.044086
1412.000000	0.043876
1411.000000	0.043557
1410.000000	0.043161
1409.000000	0.042749
1408.000000	0.042314
1407.000000	0.041826
1406.000000	0.041326
1405.000000	0.040878
1404.000000	0.040487
1403.000000	0.040130
1402.000000	0.039821
1401.000000	0.039569
1400.000000	0.039346
1399.000000	0.039118
1398.000000	0.038901
1397.000000	0.038721
1396.000000	0.038549
1395.000000	0.038341
1394.000000	0.038126
1393.000000	0.037950
1392.000000	0.037774
1391.000000	0.037537
1390.000000	0.037230
1389.000000	0.036884
1388.000000	0.036517
1387.000000	0.036147
1386.000000	0.035818
1385.000000	0.035545
1384.000000	0.035287
1383.000000	0.035008
1382.000000	0.034715
1381.000000	0.034405
1380.000000	0.034045
1379.000000	0.033616
1378.000000	0.033152
1377.000000	0.032681
1376.000000	0.032188
1375.000000	0.031663
1374.000000	0.031152
1373.000000	0.030708
1372.000000	0.030323
1371.000000	0.029954
1370.000000	0.029582
1369.000000	0.029223
1368.000000	0.028886
1367.000000	0.028563
1366.000000	0.028249
1365.000000	0.027926
1364.000000	0.027583
1363.000000	0.027244
1362.000000	0.026962
1361.000000	0.026769
1360.000000	0.026639
1359.000000	0.026529
1358.000000	0.026416
1357.000000	0.026286
1356.000000	0.026125
1355.000000	0.025937
1354.000000	0.025741
1353.000000	0.025537
1352.000000	0.025309
1351.000000	0.025064
1350.000000	0.024830
1349.000000	0.024631
1348.000000	0.024461
1347.000000	0.024309
1346.000000	0.024180
1345.000000	0.024071
1344.000000	0.023965
1343.000000	0.023853
1342.000000	0.023756
1341.000000	0.023714
1340.000000	0.023750
1339.000000	0.023845
1338.000000	0.023963
1337.000000	0.024070
1336.000000	0.024133
1335.000000	0.024136
1334.000000	0.024081
1333.000000	0.023975
1332.000000	0.023822
1331.000000	0.023637
1330.000000	0.023441
1329.000000	0.023236
1328.000000	0.023012
1327.000000	0.022767
1326.000000	0.022518
1325.000000	0.022283
1324.000000	0.022057
1323.000000	0.021836
1322.000000	0.021623
1321.000000	0.021423
1320.000000	0.021227
1319.000000	0.021025
1318.000000	0.020815
1317.000000	0.020594
1316.000000	0.020361
1315.000000	0.020123
1314.000000	0.019903
1313.000000	0.019703
1312.000000	0.019506
1311.000000	0.019301
1310.000000	0.019105
1309.000000	0.018931
1308.000000	0.018767
1307.000000	0.018591
1306.000000	0.018389
1305.000000	0.018167
1304.000000	0.017935
1303.000000	0.017703
1302.000000	0.017484
1301.000000	0.017274
1300.000000	0.017055
1299.000000	0.016827
1298.000000	0.016602
1297.000000	0.016393
1296.000000	0.016201
1295.000000	0.016024
1294.000000	0.015870
1293.000000	0.015746
1292.000000	0.015654
1291.000000	0.015592
1290.000000	0.015550
1289.000000	0.015503
1288.000000	0.015425
1287.000000	0.015323
1286.000000	0.015222
1285.000000	0.015133
1284.000000	0.015044
1283.000000	0.014944
1282.000000	0.014842
1281.000000	0.014751
1280.000000	0.014679
1279.000000	0.014633
1278.000000	0.014630
1277.000000	0.014673
1276.000000	0.014755
1275.000000	0.014865
1274.000000	0.015002
1273.000000	0.015173
1272.000000	0.015388
1271.000000	0.015654
1270.000000	0.015975
1269.000000	0.016335
1268.000000	0.016709
1267.000000	0.017077
1266.000000	0.017442
1265.000000	0.017811
1264.000000	0.018177
1263.000000	0.018529
1262.000000	0.018876
1261.000000	0.019235
1260.000000	0.019611
1259.000000	0.019989
1258.000000	0.020352
1257.000000	0.020680
1256.000000	0.020940
1255.000000	0.021105
1254.000000	0.021175
1253.000000	0.021183
1252.000000	0.021166
1251.000000	0.021144
1250.000000	0.021128
1249.000000	0.021123
1248.000000	0.021129
1247.000000	0.021147
1246.000000	0.021182
1245.000000	0.021233
1244.000000	0.021285
1243.000000	0.021317
1242.000000	0.021317
1241.000000	0.021287
1240.000000	0.021231
1239.000000	0.021150
1238.000000	0.021043
1237.000000	0.020908
1236.000000	0.020741
1235.000000	0.020542
1234.000000	0.020318
1233.000000	0.020070
1232.000000	0.019802
1231.000000	0.019518
1230.000000	0.019220
1229.000000	0.018893
1228.000000	0.018508
1227.000000	0.018052
1226.000000	0.017539
1225.000000	0.016998
1224.000000	0.016462
1223.000000	0.015958
1222.000000	0.015502
1221.000000	0.015101
1220.000000	0.014749
1219.000000	0.014443
1218.000000	0.014181
1217.000000	0.013954
1216.000000	0.013746
1215.000000	0.013548
1214.000000	0.013362
1213.000000	0.013190
1212.000000	0.013040
1211.000000	0.012931
1210.000000	0.012874
1209.000000	0.012861
1208.000000	0.012867
1207.000000	0.012879
1206.000000	0.012909
1205.000000	0.012968
1204.000000	0.013057
1203.000000	0.013165
1202.000000	0.013276
1201.000000	0.013383
1200.000000	0.013492
1199.000000	0.013616
1198.000000	0.013767
1197.000000	0.013934
1196.000000	0.014100
1195.000000	0.014257
1194.000000	0.014412
1193.000000	0.014576
1192.000000	0.014753
1191.000000	0.014946
1190.000000	0.015153
1189.000000	0.015363
1188.000000	0.015567
1187.000000	0.015778
1186.000000	0.016023
1185.000000	0.016316
1184.000000	0.016640
1183.000000	0.016972
1182.000000	0.017313
1181.000000	0.017688
1180.000000	0.018113
1179.000000	0.018577
1178.000000	0.019042
1177.000000	0.019478
1176.000000	0.019882
1175.000000	0.020272
1174.000000	0.020669
1173.000000	0.021075
1172.000000	0.021479
1171.000000	0.021870
1170.000000	0.022252
1169.000000	0.022623
1168.000000	0.022977
1167.000000	0.023310
1166.000000	0.023612
1165.000000	0.023871
1164.000000	0.024071
1163.000000	0.024206
1162.000000	0.024289
1161.000000	0.024325
1160.000000	0.024304
1159.000000	0.024222
1158.000000	0.024089
1157.000000	0.023915
1156.000000	0.023689
1155.000000	0.023391
1154.000000	0.023022
1153.000000	0.022603
1152.000000	0.022154
1151.000000	0.021678
1150.000000	0.021163
1149.000000	0.020595
1148.000000	0.019969
1147.000000	0.019307
1146.000000	0.018646
1145.000000	0.018006
1144.000000	0.017381
1143.000000	0.016760
1142.000000	0.016151
1141.000000	0.015572
1140.000000	0.015033
1139.000000	0.014535
1138.000000	0.014069
1137.000000	0.013620
1136.000000	0.013182
1135.000000	0.012772
1134.000000	0.012408
1133.000000	0.012088
1132.000000	0.011791
1131.000000	0.011516
1130.000000	0.011286
1129.000000	0.011116
1128.000000	0.010998
1127.000000	0.010920
1126.000000	0.010892
1125.000000	0.010928
1124.000000	0.011024
1123.000000	0.011160
1122.000000	0.011316
1121.000000	0.011484
1120.000000	0.011669
1119.000000	0.011877
1118.000000	0.012116
1117.000000	0.012404
1116.000000	0.012763
1115.000000	0.013206
1114.000000	0.013714
1113.000000	0.014241
1112.000000	0.014739
1111.000000	0.015183
1110.000000	0.015557
1109.000000	0.015840
1108.000000	0.016016
1107.000000	0.016097
1106.000000	0.016116
1105.000000	0.016097
1104.000000	0.016048
1103.000000	0.015991
1102.000000	0.015969
1101.000000	0.016022
1100.000000	0.016156
1099.000000	0.016346
1098.000000	0.016564
1097.000000	0.016788
1096.000000	0.016998
1095.000000	0.017174
1094.000000	0.017297
1093.000000	0.017348
1092.000000	0.017307
1091.000000	0.017173
1090.000000	0.016960
1089.000000	0.016682
1088.000000	0.016342
1087.000000	0.015940
1086.000000	0.015488
1085.000000	0.015008
1084.000000	0.014522
1083.000000	0.014049
1082.000000	0.013599
1081.000000	0.013170
1080.000000	0.012762
1079.000000	0.012386
1078.000000	0.012050
1077.000000	0.011753
1076.000000	0.011484
1075.000000	0.011246
1074.000000	0.011047
1073.000000	0.010877
1072.000000	0.010721
1071.000000	0.010574
1070.000000	0.010458
1069.000000	0.010395
1068.000000	0.010388
1067.000000	0.010425
1066.000000	0.010488
1065.000000	0.010554
1064.000000	0.010614
1063.000000	0.010664
1062.000000	0.010705
1061.000000	0.010731
1060.000000	0.010732
1059.000000	0.010707
1058.000000	0.010663
1057.000000	0.010604
1056.000000	0.010534
1055.000000	0.010460
1054.000000	0.010391
1053.000000	0.010331
1052.000000	0.010278
1051.000000	0.010232
1050.000000	0.010188
1049.000000	0.010141
1048.000000	0.010099
1047.000000	0.010088
1046.000000	0.010133
1045.000000	0.010231
1044.000000	0.010360
1043.000000	0.010497
1042.000000	0.010625
1041.000000	0.010733
1040.000000	0.010830
1039.000000	0.010944
1038.000000	0.011088
1037.000000	0.011241
1036.000000	0.011372
1035.000000	0.011477
1034.000000	0.011584
1033.000000	0.011706
1032.000000	0.011821
1031.000000	0.011901
1030.000000	0.011944
1029.000000	0.011976
1028.000000	0.012025
1027.000000	0.012098
1026.000000	0.012182
1025.000000	0.012250
1024.000000	0.012281
1023.000000	0.012273
1022.000000	0.012240
1021.000000	0.012191
1020.000000	0.012135
1019.000000	0.012086
1018.000000	0.012051
1017.000000	0.012017
1016.000000	0.011950
1015.000000	0.011834
1014.000000	0.011686
1013.000000	0.011540
1012.000000	0.011410
1011.000000	0.011286
1010.000000	0.011149
1009.000000	0.010986
1008.000000	0.010798
1007.000000	0.010597
1006.000000	0.010390
1005.000000	0.010181
1004.000000	0.009973
1003.000000	0.009776
1002.000000	0.009600
1001.000000	0.009448
1000.000000	0.009319
999.000000	0.009211
998.000000	0.009122
997.000000	0.009043
996.000000	0.008973
995.000000	0.008905
994.000000	0.008831
993.000000	0.008744
992.000000	0.008656
991.000000	0.008597
990.000000	0.008578
989.000000	0.008577
988.000000	0.008556
987.000000	0.008501
986.000000	0.008435
985.000000	0.008388
984.000000	0.008380
983.000000	0.008399
982.000000	0.008420
981.000000	0.008421
980.000000	0.008408
979.000000	0.008404
978.000000	0.008418
977.000000	0.008449
976.000000	0.008499
975.000000	0.008580
974.000000	0.008689
973.000000	0.008794
972.000000	0.008876
971.000000	0.008940
970.000000	0.009002
969.000000	0.009051
968.000000	0.009065
967.000000	0.009044
966.000000	0.009008
965.000000	0.008971
964.000000	0.008933
963.000000	0.008885
962.000000	0.008820
961.000000	0.008727
960.000000	0.008612
959.000000	0.008489
958.000000	0.008361
957.000000	0.008208
956.000000	0.008019
955.000000	0.007822
954.000000	0.007645
953.000000	0.007479
952.000000	0.007296
951.000000	0.007105
950.000000	0.006944
949.000000	0.006826
948.000000	0.006711
947.000000	0.006565
946.000000	0.006402
945.000000	0.006256
944.000000	0.006136
943.000000	0.006027
942.000000	0.005916
941.000000	0.005806
940.000000	0.005702
939.000000	0.005600
938.000000	0.005494
937.000000	0.005383
936.000000	0.005273
935.000000	0.005172
934.000000	0.005083
933.000000	0.005001
932.000000	0.004925
931.000000	0.004863
930.000000	0.004819
929.000000	0.004780
928.000000	0.004723
927.000000	0.004639
926.000000	0.004536
925.000000	0.004423
924.000000	0.004312
923.000000	0.004216
922.000000	0.004147
921.000000	0.004102
920.000000	0.004063
919.000000	0.004012
918.000000	0.003945
917.000000	0.003864
916.000000	0.003777
915.000000	0.003698
914.000000	0.003639
913.000000	0.003598
912.000000	0.003554
911.000000	0.003491
910.000000	0.003405
909.000000	0.003308
908.000000	0.003210
907.000000	0.003109
906.000000	0.002999
905.000000	0.002882
904.000000	0.002772
903.000000	0.002691
902.000000	0.002638
901.000000	0.002596
900.000000	0.002545
899.000000	0.002482
898.000000	0.002420
897.000000	0.002381
896.000000	0.002382
895.000000	0.002422
894.000000	0.002479
893.000000	0.002532
892.000000	0.002587
891.000000	0.002681
890.000000	0.002863
889.000000	0.003215
888.000000	0.003868
887.000000	0.004954
886.000000	0.006492
885.000000	0.008331
884.000000	0.010243
883.000000	0.012075
882.000000	0.013843
881.000000	0.015691
880.000000	0.017769
879.000000	0.020110
878.000000	0.022591
877.000000	0.024976
876.000000	0.027004
875.000000	0.028446
874.000000	0.029124
873.000000	0.028930
872.000000	0.027843
871.000000	0.025984
870.000000	0.023628
869.000000	0.021119
868.000000	0.018747
867.000000	0.016658
866.000000	0.014860
865.000000	0.013313
864.000000	0.011999
863.000000	0.010910
862.000000	0.009989
861.000000	0.009148
860.000000	0.008349
859.000000	0.007639
858.000000	0.007067
857.000000	0.006604
856.000000	0.006197
855.000000	0.005831
854.000000	0.005526
853.000000	0.005280
852.000000	0.005103
851.000000	0.005057
850.000000	0.005192
849.000000	0.005421
848.000000	0.005542
847.000000	0.005403
846.000000	0.005024
845.000000	0.004546
844.000000	0.004109
843.000000	0.003790
842.000000	0.003606
841.000000	0.003522
840.000000	0.003479
839.000000	0.003430
838.000000	0.003371
837.000000	0.003321
836.000000	0.003287
835.000000	0.003255
834.000000	0.003209
833.000000	0.003140
832.000000	0.003047
831.000000	0.002942
830.000000	0.002841
829.000000	0.002749
828.000000	0.002653
827.000000	0.002545
826.000000	0.002439
825.000000	0.002365
824.000000	0.002345
823.000000	0.002387
822.000000	0.002483
821.000000	0.002605
820.000000	0.002730
819.000000	0.002857
818.000000	0.003002
817.000000	0.003168
816.000000	0.003320
815.000000	0.003407
814.000000	0.003388
813.000000	0.003262
812.000000	0.003066
811.000000	0.002848
810.000000	0.002652
809.000000	0.002505
808.000000	0.002415
807.000000	0.002383
806.000000	0.002394
805.000000	0.002420
804.000000	0.002438
803.000000	0.002452
802.000000	0.002476
801.000000	0.002518
800.000000	0.002565
799.000000	0.002596
798.000000	0.002606
797.000000	0.002604
796.000000	0.002606
795.000000	0.002617
794.000000	0.002634
793.000000	0.002650
792.000000	0.002666
791.000000	0.002683
790.000000	0.002700
789.000000	0.002718
788.000000	0.002747
787.000000	0.002800
786.000000	0.002882
785.000000	0.002986
784.000000	0.003099
783.000000	0.003198
782.000000	0.003252
781.000000	0.003239
780.000000	0.003184
779.000000	0.003148
778.000000	0.003173
777.000000	0.003236
776.000000	0.003279
775.000000	0.003272
774.000000	0.003242
773.000000	0.003241
772.000000	0.003295
771.000000	0.003383
770.000000	0.003460
769.000000	0.003504
768.000000	0.003533
767.000000	0.003579
766.000000	0.003647
765.000000	0.003709
764.000000	0.003738
763.000000	0.003748
762.000000	0.003792
761.000000	0.003919
760.000000	0.004114
759.000000	0.004299
758.000000	0.004403
757.000000	0.004440
756.000000	0.004503
755.000000	0.004654
754.000000	0.004851
753.000000	0.004999
752.000000	0.005055
751.000000	0.005057
750.000000	0.005053
749.000000	0.005043
748.000000	0.005008
747.000000	0.004951
746.000000	0.004906
745.000000	0.004904
744.000000	0.004946
743.000000	0.005002
742.000000	0.005030
741.000000	0.005018
740.000000	0.004993
739.000000	0.004985
738.000000	0.004993
737.000000	0.005005
736.000000	0.005038
735.000000	0.005127
734.000000	0.005268
733.000000	0.005424
732.000000	0.005574
731.000000	0.005715
730.000000	0.005822
729.000000	0.005852
728.000000	0.005803
727.000000	0.005727
726.000000	0.005675
725.000000	0.005657
724.000000	0.005656
723.000000	0.005664
722.000000	0.005697
721.000000	0.005791
720.000000	0.006010
719.000000	0.006434
718.000000	0.007142
717.000000	0.008214
716.000000	0.009712
715.000000	0.011580
714.000000	0.013500
713.000000	0.014937
712.000000	0.015432
711.000000	0.014920
710.000000	0.013753
709.000000	0.012447
708.000000	0.011389
707.000000	0.010702
706.000000	0.010312
705.000000	0.010077
704.000000	0.009895
703.000000	0.009741
702.000000	0.009632
701.000000	0.009575
700.000000	0.009574
699.000000	0.009624
698.000000	0.009708
697.000000	0.009789
696.000000	0.009832
695.000000	0.009828
694.000000	0.009792
693.000000	0.009751
692.000000	0.009745
691.000000	0.009786
690.000000	0.009828
689.000000	0.009803
688.000000	0.009699
687.000000	0.009588
686.000000	0.009526
685.000000	0.009497
684.000000	0.009474
683.000000	0.009462
682.000000	0.009459
681.000000	0.009428
680.000000	0.009363
679.000000	0.009306
678.000000	0.009268
677.000000	0.009222
676.000000	0.009156
675.000000	0.009079
674.000000	0.008974
673.000000	0.008791
672.000000	0.008498
671.000000	0.008096
670.000000	0.007573
669.000000	0.006950
668.000000	0.006491
667.000000	0.006518
666.000000	0.006776
665.000000	0.007042
664.000000	0.007192
663.000000	0.007132
662.000000	0.006905
661.000000	0.006656
660.000000	0.006491
659.000000	0.006408
658.000000	0.006361
657.000000	0.006366
656.000000	0.006447
655.000000	0.006583
654.000000	0.006746
653.000000	0.006946
652.000000	0.007175
651.000000	0.007393
650.000000	0.007596
649.000000	0.007828
648.000000	0.008096
647.000000	0.008350
646.000000	0.008575
645.000000	0.008825
644.000000	0.009119
643.000000	0.009397
642.000000	0.009598
641.000000	0.009748
640.000000	0.009905
639.000000	0.010067
638.000000	0.010187
637.000000	0.010248
636.000000	0.010260
635.000000	0.010231
634.000000	0.010170
633.000000	0.010097
632.000000	0.010021
631.000000	0.009947
630.000000	0.009900
629.000000	0.009914
628.000000	0.009973
627.000000	0.010012
626.000000	0.009997
625.000000	0.009960
624.000000	0.009949
623.000000	0.009966
622.000000	0.009981
621.000000	0.009976
620.000000	0.009962
619.000000	0.009975
618.000000	0.010068
617.000000	0.010259
616.000000	0.010496
615.000000	0.010692
614.000000	0.010812
613.000000	0.010897
612.000000	0.011003
611.000000	0.011133
610.000000	0.011250
609.000000	0.011312
608.000000	0.011312
607.000000	0.011279
606.000000	0.011275
605.000000	0.011319
604.000000	0.011328
603.000000	0.011179
602.000000	0.010812
601.000000	0.010285
600.000000	0.009715
599.000000	0.009209
598.000000	0.008824
597.000000	0.008555
596.000000	0.008344
595.000000	0.008129
594.000000	0.007890
593.000000	0.007648
592.000000	0.007422
591.000000	0.007225
590.000000	0.007077
589.000000	0.006992
588.000000	0.006955
587.000000	0.006932
586.000000	0.006924
585.000000	0.006945
584.000000	0.006975
583.000000	0.006962
582.000000	0.006911
581.000000	0.006892
580.000000	0.006934
579.000000	0.006962
578.000000	0.006894
577.000000	0.006758
576.000000	0.006649
575.000000	0.006621
574.000000	0.006637
573.000000	0.006637
572.000000	0.006580
571.000000	0.006458
570.000000	0.006299
569.000000	0.006153
568.000000	0.006035
567.000000	0.005909
566.000000	0.005747
565.000000	0.005572
564.000000	0.005446
563.000000	0.005414
562.000000	0.005494
561.000000	0.005668
560.000000	0.005863
559.000000	0.005984
558.000000	0.005985
557.000000	0.005897
556.000000	0.005768
555.000000	0.005629
554.000000	0.005518
553.000000	0.005500
552.000000	0.005585
551.000000	0.005681
550.000000	0.005671
549.000000	0.005551
548.000000	0.005427
547.000000	0.005388
546.000000	0.005419
545.000000	0.005439
544.000000	0.005384
543.000000	0.005262
542.000000	0.005149
541.000000	0.005118
540.000000	0.005160
539.000000	0.005187
538.000000	0.005132
537.000000	0.005030
536.000000	0.004968
535.000000	0.004989
534.000000	0.005091
533.000000	0.005262
532.000000	0.005483
531.000000	0.005684
530.000000	0.005766
529.000000	0.005695
528.000000	0.005548
527.000000	0.005438
526.000000	0.005428
525.000000	0.005520
524.000000	0.005685
523.000000	0.005894
522.000000	0.006107
521.000000	0.006262
520.000000	0.006301
519.000000	0.006230
518.000000	0.006146
517.000000	0.006136
516.000000	0.006158
515.000000	0.006098
514.000000	0.005925
513.000000	0.005725
512.000000	0.005586
511.000000	0.005531
510.000000	0.005565
509.000000	0.005714
508.000000	0.005979
507.000000	0.006253
506.000000	0.006415
505.000000	0.006465
504.000000	0.006502
503.000000	0.006584
502.000000	0.006690
501.000000	0.006799
500.000000	0.006907
499.000000	0.006960
498.000000	0.006892
497.000000	0.006729
496.000000	0.006577
495.000000	0.006495
494.000000	0.006454
493.000000	0.006433
492.000000	0.006478
491.000000	0.006605
490.000000	0.006741
489.000000	0.006800
488.000000	0.006753
487.000000	0.006602
486.000000	0.006343
485.000000	0.006029
484.000000	0.005796
483.000000	0.005735
482.000000	0.005820
481.000000	0.005984
480.000000	0.006182
479.000000	0.006349
478.000000	0.006389
477.000000	0.006268
476.000000	0.006044
475.000000	0.005766
474.000000	0.005453
473.000000	0.005183
472.000000	0.005090
471.000000	0.005179
470.000000	0.005272
469.000000	0.005223
468.000000	0.005080
467.000000	0.005008
466.000000	0.005111
465.000000	0.005315
464.000000	0.005447
463.000000	0.005361
462.000000	0.005018
461.000000	0.004513
460.000000	0.003990
459.000000	0.003585
458.000000	0.003435
457.000000	0.003592
456.000000	0.003891
455.000000	0.004073
454.000000	0.003966
453.000000	0.003566
452.000000	0.003016
451.000000	0.002482
450.000000	0.002075
