PE IR       SUBTECH     SPECTRUM    ASCII       PEDS        4.00        
   -1
P12-Vert040_1.ASC
23/06/09
11:09:42.00
23/06/09
11:23:17.00
uco
Sample 040 By uco Date Friday, June 09 2023
450.000000
#HDR
-1
-1
#GR
cm-1
A
1.0
0.0
4000.000000
-1.000000
3551
8
0.005160
-0.000403
#DATA
4000.000000	0.000211
3999.000000	0.000222
3998.000000	0.000233
3997.000000	0.000243
3996.000000	0.000240
3995.000000	0.000227
3994.000000	0.000206
3993.000000	0.000189
3992.000000	0.000184
3991.000000	0.000194
3990.000000	0.000209
3989.000000	0.000219
3988.000000	0.000220
3987.000000	0.000221
3986.000000	0.000231
3985.000000	0.000259
3984.000000	0.000299
3983.000000	0.000339
3982.000000	0.000365
3981.000000	0.000371
3980.000000	0.000357
3979.000000	0.000329
3978.000000	0.000295
3977.000000	0.000263
3976.000000	0.000235
3975.000000	0.000217
3974.000000	0.000212
3973.000000	0.000217
3972.000000	0.000230
3971.000000	0.000243
3970.000000	0.000252
3969.000000	0.000255
3968.000000	0.000251
3967.000000	0.000245
3966.000000	0.000240
3965.000000	0.000239
3964.000000	0.000241
3963.000000	0.000244
3962.000000	0.000248
3961.000000	0.000254
3960.000000	0.000268
3959.000000	0.000292
3958.000000	0.000321
3957.000000	0.000344
3956.000000	0.000348
3955.000000	0.000333
3954.000000	0.000308
3953.000000	0.000288
3952.000000	0.000279
3951.000000	0.000277
3950.000000	0.000276
3949.000000	0.000275
3948.000000	0.000282
3947.000000	0.000306
3946.000000	0.000345
3945.000000	0.000383
3944.000000	0.000403
3943.000000	0.000395
3942.000000	0.000366
3941.000000	0.000334
3940.000000	0.000317
3939.000000	0.000321
3938.000000	0.000337
3937.000000	0.000344
3936.000000	0.000332
3935.000000	0.000304
3934.000000	0.000275
3933.000000	0.000262
3932.000000	0.000272
3931.000000	0.000299
3930.000000	0.000327
3929.000000	0.000345
3928.000000	0.000350
3927.000000	0.000353
3926.000000	0.000363
3925.000000	0.000382
3924.000000	0.000398
3923.000000	0.000395
3922.000000	0.000372
3921.000000	0.000338
3920.000000	0.000309
3919.000000	0.000297
3918.000000	0.000299
3917.000000	0.000299
3916.000000	0.000291
3915.000000	0.000279
3914.000000	0.000274
3913.000000	0.000281
3912.000000	0.000301
3911.000000	0.000329
3910.000000	0.000358
3909.000000	0.000375
3908.000000	0.000373
3907.000000	0.000351
3906.000000	0.000320
3905.000000	0.000298
3904.000000	0.000294
3903.000000	0.000307
3902.000000	0.000321
3901.000000	0.000324
3900.000000	0.000311
3899.000000	0.000289
3898.000000	0.000272
3897.000000	0.000268
3896.000000	0.000278
3895.000000	0.000298
3894.000000	0.000319
3893.000000	0.000333
3892.000000	0.000332
3891.000000	0.000323
3890.000000	0.000318
3889.000000	0.000323
3888.000000	0.000339
3887.000000	0.000362
3886.000000	0.000383
3885.000000	0.000387
3884.000000	0.000373
3883.000000	0.000349
3882.000000	0.000323
3881.000000	0.000300
3880.000000	0.000282
3879.000000	0.000277
3878.000000	0.000291
3877.000000	0.000318
3876.000000	0.000347
3875.000000	0.000367
3874.000000	0.000365
3873.000000	0.000342
3872.000000	0.000314
3871.000000	0.000296
3870.000000	0.000285
3869.000000	0.000275
3868.000000	0.000269
3867.000000	0.000276
3866.000000	0.000297
3865.000000	0.000322
3864.000000	0.000333
3863.000000	0.000326
3862.000000	0.000316
3861.000000	0.000321
3860.000000	0.000344
3859.000000	0.000375
3858.000000	0.000398
3857.000000	0.000407
3856.000000	0.000412
3855.000000	0.000426
3854.000000	0.000445
3853.000000	0.000451
3852.000000	0.000444
3851.000000	0.000439
3850.000000	0.000428
3849.000000	0.000403
3848.000000	0.000372
3847.000000	0.000345
3846.000000	0.000335
3845.000000	0.000342
3844.000000	0.000358
3843.000000	0.000366
3842.000000	0.000357
3841.000000	0.000332
3840.000000	0.000299
3839.000000	0.000271
3838.000000	0.000256
3837.000000	0.000255
3836.000000	0.000263
3835.000000	0.000277
3834.000000	0.000298
3833.000000	0.000322
3832.000000	0.000342
3831.000000	0.000353
3830.000000	0.000357
3829.000000	0.000363
3828.000000	0.000374
3827.000000	0.000384
3826.000000	0.000380
3825.000000	0.000357
3824.000000	0.000331
3823.000000	0.000325
3822.000000	0.000349
3821.000000	0.000379
3820.000000	0.000391
3819.000000	0.000390
3818.000000	0.000390
3817.000000	0.000391
3816.000000	0.000389
3815.000000	0.000384
3814.000000	0.000383
3813.000000	0.000382
3812.000000	0.000377
3811.000000	0.000369
3810.000000	0.000357
3809.000000	0.000340
3808.000000	0.000316
3807.000000	0.000284
3806.000000	0.000251
3805.000000	0.000232
3804.000000	0.000238
3803.000000	0.000272
3802.000000	0.000320
3801.000000	0.000353
3800.000000	0.000364
3799.000000	0.000368
3798.000000	0.000372
3797.000000	0.000376
3796.000000	0.000377
3795.000000	0.000377
3794.000000	0.000378
3793.000000	0.000377
3792.000000	0.000373
3791.000000	0.000368
3790.000000	0.000367
3789.000000	0.000369
3788.000000	0.000375
3787.000000	0.000382
3786.000000	0.000385
3785.000000	0.000378
3784.000000	0.000366
3783.000000	0.000360
3782.000000	0.000366
3781.000000	0.000378
3780.000000	0.000383
3779.000000	0.000376
3778.000000	0.000362
3777.000000	0.000350
3776.000000	0.000343
3775.000000	0.000341
3774.000000	0.000344
3773.000000	0.000352
3772.000000	0.000362
3771.000000	0.000371
3770.000000	0.000374
3769.000000	0.000370
3768.000000	0.000364
3767.000000	0.000362
3766.000000	0.000362
3765.000000	0.000365
3764.000000	0.000373
3763.000000	0.000394
3762.000000	0.000427
3761.000000	0.000461
3760.000000	0.000477
3759.000000	0.000467
3758.000000	0.000440
3757.000000	0.000415
3756.000000	0.000394
3755.000000	0.000375
3754.000000	0.000356
3753.000000	0.000342
3752.000000	0.000342
3751.000000	0.000369
3750.000000	0.000420
3749.000000	0.000474
3748.000000	0.000507
3747.000000	0.000513
3746.000000	0.000502
3745.000000	0.000480
3744.000000	0.000444
3743.000000	0.000404
3742.000000	0.000370
3741.000000	0.000337
3740.000000	0.000313
3739.000000	0.000312
3738.000000	0.000341
3737.000000	0.000388
3736.000000	0.000425
3735.000000	0.000418
3734.000000	0.000367
3733.000000	0.000305
3732.000000	0.000267
3731.000000	0.000267
3730.000000	0.000298
3729.000000	0.000345
3728.000000	0.000394
3727.000000	0.000429
3726.000000	0.000433
3725.000000	0.000408
3724.000000	0.000371
3723.000000	0.000344
3722.000000	0.000333
3721.000000	0.000332
3720.000000	0.000335
3719.000000	0.000340
3718.000000	0.000339
3717.000000	0.000325
3716.000000	0.000300
3715.000000	0.000279
3714.000000	0.000283
3713.000000	0.000315
3712.000000	0.000356
3711.000000	0.000372
3710.000000	0.000354
3709.000000	0.000320
3708.000000	0.000291
3707.000000	0.000279
3706.000000	0.000286
3705.000000	0.000301
3704.000000	0.000311
3703.000000	0.000312
3702.000000	0.000308
3701.000000	0.000311
3700.000000	0.000331
3699.000000	0.000366
3698.000000	0.000405
3697.000000	0.000431
3696.000000	0.000438
3695.000000	0.000435
3694.000000	0.000432
3693.000000	0.000433
3692.000000	0.000432
3691.000000	0.000424
3690.000000	0.000402
3689.000000	0.000371
3688.000000	0.000349
3687.000000	0.000350
3686.000000	0.000358
3685.000000	0.000356
3684.000000	0.000342
3683.000000	0.000334
3682.000000	0.000342
3681.000000	0.000362
3680.000000	0.000382
3679.000000	0.000389
3678.000000	0.000374
3677.000000	0.000328
3676.000000	0.000253
3675.000000	0.000177
3674.000000	0.000143
3673.000000	0.000151
3672.000000	0.000173
3671.000000	0.000198
3670.000000	0.000224
3669.000000	0.000256
3668.000000	0.000299
3667.000000	0.000348
3666.000000	0.000390
3665.000000	0.000413
3664.000000	0.000418
3663.000000	0.000407
3662.000000	0.000384
3661.000000	0.000352
3660.000000	0.000322
3659.000000	0.000310
3658.000000	0.000318
3657.000000	0.000332
3656.000000	0.000330
3655.000000	0.000312
3654.000000	0.000290
3653.000000	0.000274
3652.000000	0.000275
3651.000000	0.000298
3650.000000	0.000331
3649.000000	0.000344
3648.000000	0.000337
3647.000000	0.000339
3646.000000	0.000358
3645.000000	0.000385
3644.000000	0.000411
3643.000000	0.000435
3642.000000	0.000448
3641.000000	0.000443
3640.000000	0.000415
3639.000000	0.000380
3638.000000	0.000354
3637.000000	0.000344
3636.000000	0.000349
3635.000000	0.000368
3634.000000	0.000390
3633.000000	0.000408
3632.000000	0.000422
3631.000000	0.000448
3630.000000	0.000494
3629.000000	0.000540
3628.000000	0.000556
3627.000000	0.000549
3626.000000	0.000532
3625.000000	0.000503
3624.000000	0.000464
3623.000000	0.000421
3622.000000	0.000379
3621.000000	0.000341
3620.000000	0.000316
3619.000000	0.000315
3618.000000	0.000338
3617.000000	0.000370
3616.000000	0.000396
3615.000000	0.000413
3614.000000	0.000424
3613.000000	0.000431
3612.000000	0.000438
3611.000000	0.000454
3610.000000	0.000483
3609.000000	0.000520
3608.000000	0.000548
3607.000000	0.000559
3606.000000	0.000555
3605.000000	0.000538
3604.000000	0.000514
3603.000000	0.000492
3602.000000	0.000477
3601.000000	0.000467
3600.000000	0.000461
3599.000000	0.000466
3598.000000	0.000483
3597.000000	0.000506
3596.000000	0.000528
3595.000000	0.000547
3594.000000	0.000567
3593.000000	0.000587
3592.000000	0.000606
3591.000000	0.000629
3590.000000	0.000658
3589.000000	0.000682
3588.000000	0.000676
3587.000000	0.000630
3586.000000	0.000571
3585.000000	0.000536
3584.000000	0.000542
3583.000000	0.000581
3582.000000	0.000631
3581.000000	0.000667
3580.000000	0.000674
3579.000000	0.000662
3578.000000	0.000652
3577.000000	0.000653
3576.000000	0.000663
3575.000000	0.000673
3574.000000	0.000679
3573.000000	0.000677
3572.000000	0.000669
3571.000000	0.000657
3570.000000	0.000648
3569.000000	0.000639
3568.000000	0.000624
3567.000000	0.000607
3566.000000	0.000607
3565.000000	0.000636
3564.000000	0.000687
3563.000000	0.000741
3562.000000	0.000783
3561.000000	0.000805
3560.000000	0.000809
3559.000000	0.000797
3558.000000	0.000778
3557.000000	0.000759
3556.000000	0.000747
3555.000000	0.000749
3554.000000	0.000766
3553.000000	0.000792
3552.000000	0.000820
3551.000000	0.000842
3550.000000	0.000850
3549.000000	0.000839
3548.000000	0.000814
3547.000000	0.000793
3546.000000	0.000788
3545.000000	0.000799
3544.000000	0.000815
3543.000000	0.000829
3542.000000	0.000835
3541.000000	0.000833
3540.000000	0.000830
3539.000000	0.000835
3538.000000	0.000854
3537.000000	0.000881
3536.000000	0.000910
3535.000000	0.000941
3534.000000	0.000968
3533.000000	0.000985
3532.000000	0.000984
3531.000000	0.000967
3530.000000	0.000941
3529.000000	0.000913
3528.000000	0.000893
3527.000000	0.000886
3526.000000	0.000892
3525.000000	0.000899
3524.000000	0.000905
3523.000000	0.000914
3522.000000	0.000928
3521.000000	0.000941
3520.000000	0.000948
3519.000000	0.000954
3518.000000	0.000967
3517.000000	0.000986
3516.000000	0.001002
3515.000000	0.001012
3514.000000	0.001013
3513.000000	0.001006
3512.000000	0.000998
3511.000000	0.001003
3510.000000	0.001030
3509.000000	0.001073
3508.000000	0.001110
3507.000000	0.001123
3506.000000	0.001111
3505.000000	0.001081
3504.000000	0.001049
3503.000000	0.001027
3502.000000	0.001020
3501.000000	0.001022
3500.000000	0.001025
3499.000000	0.001027
3498.000000	0.001027
3497.000000	0.001027
3496.000000	0.001026
3495.000000	0.001027
3494.000000	0.001030
3493.000000	0.001038
3492.000000	0.001054
3491.000000	0.001081
3490.000000	0.001109
3489.000000	0.001127
3488.000000	0.001132
3487.000000	0.001135
3486.000000	0.001145
3485.000000	0.001161
3484.000000	0.001175
3483.000000	0.001187
3482.000000	0.001201
3481.000000	0.001212
3480.000000	0.001214
3479.000000	0.001202
3478.000000	0.001176
3477.000000	0.001143
3476.000000	0.001116
3475.000000	0.001107
3474.000000	0.001118
3473.000000	0.001131
3472.000000	0.001132
3471.000000	0.001125
3470.000000	0.001125
3469.000000	0.001137
3468.000000	0.001152
3467.000000	0.001162
3466.000000	0.001166
3465.000000	0.001168
3464.000000	0.001175
3463.000000	0.001190
3462.000000	0.001210
3461.000000	0.001226
3460.000000	0.001234
3459.000000	0.001238
3458.000000	0.001238
3457.000000	0.001233
3456.000000	0.001223
3455.000000	0.001214
3454.000000	0.001212
3453.000000	0.001213
3452.000000	0.001214
3451.000000	0.001216
3450.000000	0.001225
3449.000000	0.001244
3448.000000	0.001270
3447.000000	0.001294
3446.000000	0.001312
3445.000000	0.001321
3444.000000	0.001324
3443.000000	0.001329
3442.000000	0.001342
3441.000000	0.001356
3440.000000	0.001365
3439.000000	0.001364
3438.000000	0.001361
3437.000000	0.001359
3436.000000	0.001359
3435.000000	0.001361
3434.000000	0.001362
3433.000000	0.001362
3432.000000	0.001364
3431.000000	0.001367
3430.000000	0.001366
3429.000000	0.001362
3428.000000	0.001358
3427.000000	0.001364
3426.000000	0.001384
3425.000000	0.001405
3424.000000	0.001415
3423.000000	0.001409
3422.000000	0.001398
3421.000000	0.001396
3420.000000	0.001409
3419.000000	0.001432
3418.000000	0.001453
3417.000000	0.001462
3416.000000	0.001460
3415.000000	0.001455
3414.000000	0.001453
3413.000000	0.001457
3412.000000	0.001464
3411.000000	0.001472
3410.000000	0.001479
3409.000000	0.001488
3408.000000	0.001511
3407.000000	0.001554
3406.000000	0.001603
3405.000000	0.001635
3404.000000	0.001632
3403.000000	0.001601
3402.000000	0.001561
3401.000000	0.001526
3400.000000	0.001505
3399.000000	0.001503
3398.000000	0.001518
3397.000000	0.001539
3396.000000	0.001560
3395.000000	0.001581
3394.000000	0.001607
3393.000000	0.001631
3392.000000	0.001641
3391.000000	0.001631
3390.000000	0.001607
3389.000000	0.001585
3388.000000	0.001576
3387.000000	0.001580
3386.000000	0.001594
3385.000000	0.001610
3384.000000	0.001621
3383.000000	0.001624
3382.000000	0.001616
3381.000000	0.001602
3380.000000	0.001590
3379.000000	0.001590
3378.000000	0.001608
3377.000000	0.001638
3376.000000	0.001671
3375.000000	0.001697
3374.000000	0.001712
3373.000000	0.001716
3372.000000	0.001715
3371.000000	0.001714
3370.000000	0.001711
3369.000000	0.001702
3368.000000	0.001694
3367.000000	0.001700
3366.000000	0.001722
3365.000000	0.001745
3364.000000	0.001753
3363.000000	0.001741
3362.000000	0.001721
3361.000000	0.001703
3360.000000	0.001689
3359.000000	0.001675
3358.000000	0.001659
3357.000000	0.001647
3356.000000	0.001647
3355.000000	0.001660
3354.000000	0.001679
3353.000000	0.001696
3352.000000	0.001706
3351.000000	0.001712
3350.000000	0.001716
3349.000000	0.001717
3348.000000	0.001716
3347.000000	0.001718
3346.000000	0.001726
3345.000000	0.001738
3344.000000	0.001752
3343.000000	0.001765
3342.000000	0.001773
3341.000000	0.001777
3340.000000	0.001785
3339.000000	0.001807
3338.000000	0.001845
3337.000000	0.001882
3336.000000	0.001903
3335.000000	0.001899
3334.000000	0.001877
3333.000000	0.001850
3332.000000	0.001833
3331.000000	0.001835
3330.000000	0.001852
3329.000000	0.001874
3328.000000	0.001897
3327.000000	0.001920
3326.000000	0.001936
3325.000000	0.001939
3324.000000	0.001933
3323.000000	0.001933
3322.000000	0.001950
3321.000000	0.001979
3320.000000	0.002006
3319.000000	0.002024
3318.000000	0.002033
3317.000000	0.002031
3316.000000	0.002023
3315.000000	0.002013
3314.000000	0.002007
3313.000000	0.002002
3312.000000	0.001993
3311.000000	0.001981
3310.000000	0.001971
3309.000000	0.001963
3308.000000	0.001958
3307.000000	0.001953
3306.000000	0.001947
3305.000000	0.001939
3304.000000	0.001931
3303.000000	0.001933
3302.000000	0.001944
3301.000000	0.001958
3300.000000	0.001968
3299.000000	0.001972
3298.000000	0.001971
3297.000000	0.001962
3296.000000	0.001948
3295.000000	0.001940
3294.000000	0.001945
3293.000000	0.001958
3292.000000	0.001970
3291.000000	0.001970
3290.000000	0.001958
3289.000000	0.001940
3288.000000	0.001928
3287.000000	0.001932
3286.000000	0.001950
3285.000000	0.001967
3284.000000	0.001974
3283.000000	0.001975
3282.000000	0.001983
3281.000000	0.002002
3280.000000	0.002019
3279.000000	0.002022
3278.000000	0.002007
3277.000000	0.001983
3276.000000	0.001967
3275.000000	0.001973
3274.000000	0.001998
3273.000000	0.002020
3272.000000	0.002018
3271.000000	0.001996
3270.000000	0.001974
3269.000000	0.001970
3268.000000	0.001984
3267.000000	0.002007
3266.000000	0.002025
3265.000000	0.002032
3264.000000	0.002027
3263.000000	0.002015
3262.000000	0.002001
3261.000000	0.001990
3260.000000	0.001979
3259.000000	0.001961
3258.000000	0.001933
3257.000000	0.001902
3256.000000	0.001879
3255.000000	0.001873
3254.000000	0.001884
3253.000000	0.001906
3252.000000	0.001931
3251.000000	0.001947
3250.000000	0.001944
3249.000000	0.001920
3248.000000	0.001886
3247.000000	0.001861
3246.000000	0.001854
3245.000000	0.001858
3244.000000	0.001860
3243.000000	0.001860
3242.000000	0.001862
3241.000000	0.001872
3240.000000	0.001884
3239.000000	0.001892
3238.000000	0.001894
3237.000000	0.001893
3236.000000	0.001893
3235.000000	0.001895
3234.000000	0.001892
3233.000000	0.001884
3232.000000	0.001879
3231.000000	0.001879
3230.000000	0.001880
3229.000000	0.001878
3228.000000	0.001876
3227.000000	0.001886
3226.000000	0.001907
3225.000000	0.001930
3224.000000	0.001944
3223.000000	0.001943
3222.000000	0.001928
3221.000000	0.001905
3220.000000	0.001885
3219.000000	0.001874
3218.000000	0.001870
3217.000000	0.001861
3216.000000	0.001846
3215.000000	0.001833
3214.000000	0.001826
3213.000000	0.001822
3212.000000	0.001815
3211.000000	0.001808
3210.000000	0.001806
3209.000000	0.001819
3208.000000	0.001847
3207.000000	0.001881
3206.000000	0.001902
3205.000000	0.001899
3204.000000	0.001877
3203.000000	0.001849
3202.000000	0.001821
3201.000000	0.001791
3200.000000	0.001766
3199.000000	0.001762
3198.000000	0.001782
3197.000000	0.001808
3196.000000	0.001819
3195.000000	0.001812
3194.000000	0.001800
3193.000000	0.001796
3192.000000	0.001798
3191.000000	0.001801
3190.000000	0.001807
3189.000000	0.001819
3188.000000	0.001837
3187.000000	0.001853
3186.000000	0.001856
3185.000000	0.001838
3184.000000	0.001809
3183.000000	0.001787
3182.000000	0.001782
3181.000000	0.001792
3180.000000	0.001809
3179.000000	0.001826
3178.000000	0.001837
3177.000000	0.001836
3176.000000	0.001821
3175.000000	0.001801
3174.000000	0.001787
3173.000000	0.001786
3172.000000	0.001795
3171.000000	0.001808
3170.000000	0.001820
3169.000000	0.001830
3168.000000	0.001839
3167.000000	0.001844
3166.000000	0.001840
3165.000000	0.001823
3164.000000	0.001800
3163.000000	0.001782
3162.000000	0.001774
3161.000000	0.001772
3160.000000	0.001767
3159.000000	0.001759
3158.000000	0.001752
3157.000000	0.001752
3156.000000	0.001766
3155.000000	0.001787
3154.000000	0.001803
3153.000000	0.001805
3152.000000	0.001795
3151.000000	0.001784
3150.000000	0.001772
3149.000000	0.001754
3148.000000	0.001731
3147.000000	0.001714
3146.000000	0.001707
3145.000000	0.001699
3144.000000	0.001677
3143.000000	0.001641
3142.000000	0.001604
3141.000000	0.001585
3140.000000	0.001592
3139.000000	0.001619
3138.000000	0.001650
3137.000000	0.001665
3136.000000	0.001660
3135.000000	0.001642
3134.000000	0.001628
3133.000000	0.001634
3132.000000	0.001666
3131.000000	0.001717
3130.000000	0.001764
3129.000000	0.001783
3128.000000	0.001764
3127.000000	0.001723
3126.000000	0.001677
3125.000000	0.001640
3124.000000	0.001620
3123.000000	0.001621
3122.000000	0.001642
3121.000000	0.001665
3120.000000	0.001679
3119.000000	0.001678
3118.000000	0.001667
3117.000000	0.001652
3116.000000	0.001635
3115.000000	0.001621
3114.000000	0.001611
3113.000000	0.001604
3112.000000	0.001600
3111.000000	0.001599
3110.000000	0.001600
3109.000000	0.001601
3108.000000	0.001602
3107.000000	0.001607
3106.000000	0.001619
3105.000000	0.001629
3104.000000	0.001630
3103.000000	0.001620
3102.000000	0.001607
3101.000000	0.001597
3100.000000	0.001592
3099.000000	0.001593
3098.000000	0.001595
3097.000000	0.001596
3096.000000	0.001595
3095.000000	0.001600
3094.000000	0.001614
3093.000000	0.001635
3092.000000	0.001657
3091.000000	0.001678
3090.000000	0.001694
3089.000000	0.001700
3088.000000	0.001695
3087.000000	0.001685
3086.000000	0.001677
3085.000000	0.001674
3084.000000	0.001671
3083.000000	0.001664
3082.000000	0.001649
3081.000000	0.001626
3080.000000	0.001596
3079.000000	0.001569
3078.000000	0.001553
3077.000000	0.001553
3076.000000	0.001571
3075.000000	0.001609
3074.000000	0.001661
3073.000000	0.001712
3072.000000	0.001743
3071.000000	0.001742
3070.000000	0.001711
3069.000000	0.001666
3068.000000	0.001629
3067.000000	0.001616
3066.000000	0.001630
3065.000000	0.001656
3064.000000	0.001674
3063.000000	0.001677
3062.000000	0.001669
3061.000000	0.001658
3060.000000	0.001650
3059.000000	0.001645
3058.000000	0.001642
3057.000000	0.001637
3056.000000	0.001626
3055.000000	0.001608
3054.000000	0.001584
3053.000000	0.001561
3052.000000	0.001548
3051.000000	0.001552
3050.000000	0.001573
3049.000000	0.001601
3048.000000	0.001625
3047.000000	0.001636
3046.000000	0.001630
3045.000000	0.001614
3044.000000	0.001599
3043.000000	0.001594
3042.000000	0.001595
3041.000000	0.001595
3040.000000	0.001593
3039.000000	0.001596
3038.000000	0.001611
3037.000000	0.001634
3036.000000	0.001649
3035.000000	0.001641
3034.000000	0.001610
3033.000000	0.001570
3032.000000	0.001546
3031.000000	0.001553
3030.000000	0.001589
3029.000000	0.001634
3028.000000	0.001670
3027.000000	0.001685
3026.000000	0.001680
3025.000000	0.001662
3024.000000	0.001644
3023.000000	0.001632
3022.000000	0.001627
3021.000000	0.001623
3020.000000	0.001622
3019.000000	0.001624
3018.000000	0.001630
3017.000000	0.001634
3016.000000	0.001634
3015.000000	0.001628
3014.000000	0.001624
3013.000000	0.001626
3012.000000	0.001637
3011.000000	0.001648
3010.000000	0.001653
3009.000000	0.001648
3008.000000	0.001643
3007.000000	0.001646
3006.000000	0.001659
3005.000000	0.001672
3004.000000	0.001685
3003.000000	0.001701
3002.000000	0.001722
3001.000000	0.001741
3000.000000	0.001752
2999.000000	0.001760
2998.000000	0.001773
2997.000000	0.001790
2996.000000	0.001805
2995.000000	0.001818
2994.000000	0.001834
2993.000000	0.001860
2992.000000	0.001892
2991.000000	0.001920
2990.000000	0.001938
2989.000000	0.001941
2988.000000	0.001933
2987.000000	0.001926
2986.000000	0.001931
2985.000000	0.001952
2984.000000	0.001985
2983.000000	0.002018
2982.000000	0.002043
2981.000000	0.002057
2980.000000	0.002067
2979.000000	0.002086
2978.000000	0.002122
2977.000000	0.002171
2976.000000	0.002220
2975.000000	0.002261
2974.000000	0.002298
2973.000000	0.002338
2972.000000	0.002382
2971.000000	0.002425
2970.000000	0.002458
2969.000000	0.002485
2968.000000	0.002518
2967.000000	0.002570
2966.000000	0.002639
2965.000000	0.002704
2964.000000	0.002745
2963.000000	0.002760
2962.000000	0.002764
2961.000000	0.002774
2960.000000	0.002793
2959.000000	0.002811
2958.000000	0.002816
2957.000000	0.002810
2956.000000	0.002801
2955.000000	0.002788
2954.000000	0.002765
2953.000000	0.002733
2952.000000	0.002702
2951.000000	0.002684
2950.000000	0.002680
2949.000000	0.002685
2948.000000	0.002692
2947.000000	0.002700
2946.000000	0.002707
2945.000000	0.002717
2944.000000	0.002738
2943.000000	0.002774
2942.000000	0.002822
2941.000000	0.002876
2940.000000	0.002935
2939.000000	0.002999
2938.000000	0.003058
2937.000000	0.003099
2936.000000	0.003116
2935.000000	0.003125
2934.000000	0.003148
2933.000000	0.003191
2932.000000	0.003241
2931.000000	0.003278
2930.000000	0.003293
2929.000000	0.003288
2928.000000	0.003276
2927.000000	0.003267
2926.000000	0.003260
2925.000000	0.003254
2924.000000	0.003250
2923.000000	0.003251
2922.000000	0.003255
2921.000000	0.003249
2920.000000	0.003227
2919.000000	0.003195
2918.000000	0.003160
2917.000000	0.003124
2916.000000	0.003085
2915.000000	0.003047
2914.000000	0.003014
2913.000000	0.002985
2912.000000	0.002953
2911.000000	0.002914
2910.000000	0.002871
2909.000000	0.002833
2908.000000	0.002802
2907.000000	0.002779
2906.000000	0.002762
2905.000000	0.002741
2904.000000	0.002709
2903.000000	0.002664
2902.000000	0.002612
2901.000000	0.002562
2900.000000	0.002522
2899.000000	0.002493
2898.000000	0.002473
2897.000000	0.002460
2896.000000	0.002455
2895.000000	0.002452
2894.000000	0.002443
2893.000000	0.002419
2892.000000	0.002385
2891.000000	0.002352
2890.000000	0.002332
2889.000000	0.002319
2888.000000	0.002300
2887.000000	0.002270
2886.000000	0.002234
2885.000000	0.002206
2884.000000	0.002195
2883.000000	0.002203
2882.000000	0.002231
2881.000000	0.002274
2880.000000	0.002325
2879.000000	0.002377
2878.000000	0.002423
2877.000000	0.002463
2876.000000	0.002497
2875.000000	0.002521
2874.000000	0.002526
2873.000000	0.002509
2872.000000	0.002478
2871.000000	0.002454
2870.000000	0.002454
2869.000000	0.002476
2868.000000	0.002506
2867.000000	0.002530
2866.000000	0.002541
2865.000000	0.002542
2864.000000	0.002542
2863.000000	0.002550
2862.000000	0.002565
2861.000000	0.002585
2860.000000	0.002602
2859.000000	0.002611
2858.000000	0.002613
2857.000000	0.002610
2856.000000	0.002605
2855.000000	0.002600
2854.000000	0.002592
2853.000000	0.002576
2852.000000	0.002546
2851.000000	0.002503
2850.000000	0.002451
2849.000000	0.002394
2848.000000	0.002339
2847.000000	0.002290
2846.000000	0.002251
2845.000000	0.002215
2844.000000	0.002172
2843.000000	0.002119
2842.000000	0.002069
2841.000000	0.002029
2840.000000	0.001997
2839.000000	0.001966
2838.000000	0.001938
2837.000000	0.001918
2836.000000	0.001905
2835.000000	0.001894
2834.000000	0.001884
2833.000000	0.001878
2832.000000	0.001875
2831.000000	0.001862
2830.000000	0.001835
2829.000000	0.001806
2828.000000	0.001794
2827.000000	0.001803
2826.000000	0.001819
2825.000000	0.001829
2824.000000	0.001826
2823.000000	0.001815
2822.000000	0.001800
2821.000000	0.001782
2820.000000	0.001765
2819.000000	0.001747
2818.000000	0.001729
2817.000000	0.001712
2816.000000	0.001700
2815.000000	0.001697
2814.000000	0.001705
2813.000000	0.001718
2812.000000	0.001722
2811.000000	0.001712
2810.000000	0.001693
2809.000000	0.001679
2808.000000	0.001677
2807.000000	0.001682
2806.000000	0.001685
2805.000000	0.001687
2804.000000	0.001694
2803.000000	0.001707
2802.000000	0.001723
2801.000000	0.001733
2800.000000	0.001738
2799.000000	0.001739
2798.000000	0.001733
2797.000000	0.001720
2796.000000	0.001700
2795.000000	0.001677
2794.000000	0.001654
2793.000000	0.001639
2792.000000	0.001637
2791.000000	0.001649
2790.000000	0.001665
2789.000000	0.001673
2788.000000	0.001668
2787.000000	0.001652
2786.000000	0.001637
2785.000000	0.001630
2784.000000	0.001633
2783.000000	0.001641
2782.000000	0.001648
2781.000000	0.001654
2780.000000	0.001658
2779.000000	0.001662
2778.000000	0.001667
2777.000000	0.001677
2776.000000	0.001690
2775.000000	0.001700
2774.000000	0.001697
2773.000000	0.001680
2772.000000	0.001661
2771.000000	0.001651
2770.000000	0.001649
2769.000000	0.001646
2768.000000	0.001636
2767.000000	0.001625
2766.000000	0.001622
2765.000000	0.001628
2764.000000	0.001637
2763.000000	0.001648
2762.000000	0.001667
2761.000000	0.001695
2760.000000	0.001718
2759.000000	0.001716
2758.000000	0.001686
2757.000000	0.001648
2756.000000	0.001624
2755.000000	0.001622
2754.000000	0.001628
2753.000000	0.001636
2752.000000	0.001645
2751.000000	0.001659
2750.000000	0.001671
2749.000000	0.001669
2748.000000	0.001650
2747.000000	0.001622
2746.000000	0.001600
2745.000000	0.001592
2744.000000	0.001597
2743.000000	0.001606
2742.000000	0.001615
2741.000000	0.001628
2740.000000	0.001648
2739.000000	0.001671
2738.000000	0.001688
2737.000000	0.001691
2736.000000	0.001687
2735.000000	0.001684
2734.000000	0.001685
2733.000000	0.001687
2732.000000	0.001686
2731.000000	0.001680
2730.000000	0.001669
2729.000000	0.001656
2728.000000	0.001644
2727.000000	0.001641
2726.000000	0.001648
2725.000000	0.001660
2724.000000	0.001671
2723.000000	0.001679
2722.000000	0.001681
2721.000000	0.001677
2720.000000	0.001664
2719.000000	0.001646
2718.000000	0.001626
2717.000000	0.001610
2716.000000	0.001599
2715.000000	0.001591
2714.000000	0.001589
2713.000000	0.001599
2712.000000	0.001623
2711.000000	0.001654
2710.000000	0.001675
2709.000000	0.001677
2708.000000	0.001662
2707.000000	0.001641
2706.000000	0.001624
2705.000000	0.001616
2704.000000	0.001616
2703.000000	0.001618
2702.000000	0.001617
2701.000000	0.001614
2700.000000	0.001615
2699.000000	0.001620
2698.000000	0.001622
2697.000000	0.001613
2696.000000	0.001598
2695.000000	0.001588
2694.000000	0.001585
2693.000000	0.001587
2692.000000	0.001588
2691.000000	0.001589
2690.000000	0.001594
2689.000000	0.001602
2688.000000	0.001610
2687.000000	0.001617
2686.000000	0.001620
2685.000000	0.001621
2684.000000	0.001622
2683.000000	0.001627
2682.000000	0.001635
2681.000000	0.001642
2680.000000	0.001643
2679.000000	0.001641
2678.000000	0.001639
2677.000000	0.001639
2676.000000	0.001639
2675.000000	0.001638
2674.000000	0.001639
2673.000000	0.001639
2672.000000	0.001632
2671.000000	0.001616
2670.000000	0.001600
2669.000000	0.001593
2668.000000	0.001596
2667.000000	0.001603
2666.000000	0.001606
2665.000000	0.001608
2664.000000	0.001615
2663.000000	0.001629
2662.000000	0.001652
2661.000000	0.001680
2660.000000	0.001707
2659.000000	0.001726
2658.000000	0.001735
2657.000000	0.001733
2656.000000	0.001726
2655.000000	0.001715
2654.000000	0.001703
2653.000000	0.001693
2652.000000	0.001689
2651.000000	0.001687
2650.000000	0.001680
2649.000000	0.001664
2648.000000	0.001647
2647.000000	0.001641
2646.000000	0.001652
2645.000000	0.001673
2644.000000	0.001693
2643.000000	0.001700
2642.000000	0.001694
2641.000000	0.001681
2640.000000	0.001664
2639.000000	0.001649
2638.000000	0.001637
2637.000000	0.001630
2636.000000	0.001624
2635.000000	0.001613
2634.000000	0.001601
2633.000000	0.001596
2632.000000	0.001601
2631.000000	0.001606
2630.000000	0.001597
2629.000000	0.001576
2628.000000	0.001555
2627.000000	0.001545
2626.000000	0.001543
2625.000000	0.001540
2624.000000	0.001528
2623.000000	0.001509
2622.000000	0.001492
2621.000000	0.001486
2620.000000	0.001488
2619.000000	0.001487
2618.000000	0.001478
2617.000000	0.001471
2616.000000	0.001478
2615.000000	0.001497
2614.000000	0.001513
2613.000000	0.001520
2612.000000	0.001522
2611.000000	0.001528
2610.000000	0.001533
2609.000000	0.001522
2608.000000	0.001489
2607.000000	0.001448
2606.000000	0.001426
2605.000000	0.001440
2604.000000	0.001478
2603.000000	0.001508
2602.000000	0.001507
2601.000000	0.001477
2600.000000	0.001444
2599.000000	0.001428
2598.000000	0.001434
2597.000000	0.001452
2596.000000	0.001478
2595.000000	0.001501
2594.000000	0.001511
2593.000000	0.001501
2592.000000	0.001476
2591.000000	0.001453
2590.000000	0.001442
2589.000000	0.001437
2588.000000	0.001430
2587.000000	0.001423
2586.000000	0.001427
2585.000000	0.001445
2584.000000	0.001465
2583.000000	0.001471
2582.000000	0.001461
2581.000000	0.001439
2580.000000	0.001410
2579.000000	0.001375
2578.000000	0.001346
2577.000000	0.001337
2576.000000	0.001354
2575.000000	0.001382
2574.000000	0.001400
2573.000000	0.001402
2572.000000	0.001395
2571.000000	0.001386
2570.000000	0.001377
2569.000000	0.001375
2568.000000	0.001384
2567.000000	0.001403
2566.000000	0.001422
2565.000000	0.001433
2564.000000	0.001437
2563.000000	0.001442
2562.000000	0.001452
2561.000000	0.001460
2560.000000	0.001451
2559.000000	0.001420
2558.000000	0.001381
2557.000000	0.001352
2556.000000	0.001335
2555.000000	0.001318
2554.000000	0.001287
2553.000000	0.001247
2552.000000	0.001214
2551.000000	0.001204
2550.000000	0.001218
2549.000000	0.001249
2548.000000	0.001282
2547.000000	0.001303
2546.000000	0.001302
2545.000000	0.001286
2544.000000	0.001273
2543.000000	0.001277
2542.000000	0.001304
2541.000000	0.001341
2540.000000	0.001369
2539.000000	0.001373
2538.000000	0.001356
2537.000000	0.001328
2536.000000	0.001293
2535.000000	0.001251
2534.000000	0.001213
2533.000000	0.001202
2532.000000	0.001240
2531.000000	0.001312
2530.000000	0.001379
2529.000000	0.001409
2528.000000	0.001401
2527.000000	0.001376
2526.000000	0.001355
2525.000000	0.001341
2524.000000	0.001330
2523.000000	0.001320
2522.000000	0.001316
2521.000000	0.001317
2520.000000	0.001316
2519.000000	0.001306
2518.000000	0.001288
2517.000000	0.001271
2516.000000	0.001265
2515.000000	0.001273
2514.000000	0.001292
2513.000000	0.001316
2512.000000	0.001332
2511.000000	0.001327
2510.000000	0.001297
2509.000000	0.001253
2508.000000	0.001219
2507.000000	0.001218
2506.000000	0.001255
2505.000000	0.001313
2504.000000	0.001356
2503.000000	0.001356
2502.000000	0.001318
2501.000000	0.001272
2500.000000	0.001242
2499.000000	0.001230
2498.000000	0.001227
2497.000000	0.001225
2496.000000	0.001223
2495.000000	0.001221
2494.000000	0.001217
2493.000000	0.001214
2492.000000	0.001219
2491.000000	0.001234
2490.000000	0.001254
2489.000000	0.001275
2488.000000	0.001289
2487.000000	0.001293
2486.000000	0.001290
2485.000000	0.001285
2484.000000	0.001282
2483.000000	0.001282
2482.000000	0.001281
2481.000000	0.001279
2480.000000	0.001274
2479.000000	0.001269
2478.000000	0.001270
2477.000000	0.001277
2476.000000	0.001279
2475.000000	0.001262
2474.000000	0.001230
2473.000000	0.001198
2472.000000	0.001177
2471.000000	0.001163
2470.000000	0.001146
2469.000000	0.001123
2468.000000	0.001097
2467.000000	0.001074
2466.000000	0.001065
2465.000000	0.001079
2464.000000	0.001122
2463.000000	0.001186
2462.000000	0.001257
2461.000000	0.001320
2460.000000	0.001360
2459.000000	0.001373
2458.000000	0.001375
2457.000000	0.001383
2456.000000	0.001401
2455.000000	0.001411
2454.000000	0.001402
2453.000000	0.001381
2452.000000	0.001366
2451.000000	0.001363
2450.000000	0.001362
2449.000000	0.001347
2448.000000	0.001316
2447.000000	0.001285
2446.000000	0.001278
2445.000000	0.001305
2444.000000	0.001347
2443.000000	0.001379
2442.000000	0.001386
2441.000000	0.001376
2440.000000	0.001359
2439.000000	0.001340
2438.000000	0.001327
2437.000000	0.001326
2436.000000	0.001323
2435.000000	0.001299
2434.000000	0.001252
2433.000000	0.001211
2432.000000	0.001202
2431.000000	0.001226
2430.000000	0.001260
2429.000000	0.001284
2428.000000	0.001289
2427.000000	0.001271
2426.000000	0.001233
2425.000000	0.001196
2424.000000	0.001184
2423.000000	0.001202
2422.000000	0.001234
2421.000000	0.001254
2420.000000	0.001250
2419.000000	0.001230
2418.000000	0.001216
2417.000000	0.001220
2416.000000	0.001233
2415.000000	0.001235
2414.000000	0.001212
2413.000000	0.001166
2412.000000	0.001110
2411.000000	0.001064
2410.000000	0.001053
2409.000000	0.001092
2408.000000	0.001163
2407.000000	0.001232
2406.000000	0.001272
2405.000000	0.001287
2404.000000	0.001290
2403.000000	0.001286
2402.000000	0.001271
2401.000000	0.001250
2400.000000	0.001233
2399.000000	0.001226
2398.000000	0.001227
2397.000000	0.001234
2396.000000	0.001237
2395.000000	0.001228
2394.000000	0.001206
2393.000000	0.001181
2392.000000	0.001161
2391.000000	0.001146
2390.000000	0.001130
2389.000000	0.001118
2388.000000	0.001119
2387.000000	0.001137
2386.000000	0.001161
2385.000000	0.001171
2384.000000	0.001149
2383.000000	0.001094
2382.000000	0.001020
2381.000000	0.000950
2380.000000	0.000905
2379.000000	0.000903
2378.000000	0.000950
2377.000000	0.001031
2376.000000	0.001106
2375.000000	0.001136
2374.000000	0.001116
2373.000000	0.001069
2372.000000	0.001016
2371.000000	0.000965
2370.000000	0.000916
2369.000000	0.000877
2368.000000	0.000860
2367.000000	0.000885
2366.000000	0.000960
2365.000000	0.001066
2364.000000	0.001159
2363.000000	0.001211
2362.000000	0.001230
2361.000000	0.001229
2360.000000	0.001208
2359.000000	0.001165
2358.000000	0.001113
2357.000000	0.001074
2356.000000	0.001064
2355.000000	0.001093
2354.000000	0.001138
2353.000000	0.001153
2352.000000	0.001136
2351.000000	0.001123
2350.000000	0.001143
2349.000000	0.001189
2348.000000	0.001238
2347.000000	0.001253
2346.000000	0.001223
2345.000000	0.001183
2344.000000	0.001175
2343.000000	0.001205
2342.000000	0.001251
2341.000000	0.001293
2340.000000	0.001328
2339.000000	0.001353
2338.000000	0.001354
2337.000000	0.001321
2336.000000	0.001262
2335.000000	0.001190
2334.000000	0.001114
2333.000000	0.001049
2332.000000	0.001023
2331.000000	0.001045
2330.000000	0.001094
2329.000000	0.001138
2328.000000	0.001184
2327.000000	0.001251
2326.000000	0.001336
2325.000000	0.001413
2324.000000	0.001457
2323.000000	0.001474
2322.000000	0.001481
2321.000000	0.001506
2320.000000	0.001557
2319.000000	0.001620
2318.000000	0.001665
2317.000000	0.001674
2316.000000	0.001647
2315.000000	0.001593
2314.000000	0.001536
2313.000000	0.001497
2312.000000	0.001484
2311.000000	0.001481
2310.000000	0.001471
2309.000000	0.001452
2308.000000	0.001435
2307.000000	0.001429
2306.000000	0.001436
2305.000000	0.001460
2304.000000	0.001488
2303.000000	0.001502
2302.000000	0.001494
2301.000000	0.001483
2300.000000	0.001487
2299.000000	0.001505
2298.000000	0.001516
2297.000000	0.001508
2296.000000	0.001482
2295.000000	0.001447
2294.000000	0.001421
2293.000000	0.001431
2292.000000	0.001483
2291.000000	0.001550
2290.000000	0.001590
2289.000000	0.001591
2288.000000	0.001574
2287.000000	0.001561
2286.000000	0.001551
2285.000000	0.001534
2284.000000	0.001506
2283.000000	0.001474
2282.000000	0.001448
2281.000000	0.001431
2280.000000	0.001411
2279.000000	0.001372
2278.000000	0.001324
2277.000000	0.001292
2276.000000	0.001289
2275.000000	0.001297
2274.000000	0.001295
2273.000000	0.001276
2272.000000	0.001248
2271.000000	0.001216
2270.000000	0.001193
2269.000000	0.001201
2268.000000	0.001243
2267.000000	0.001287
2266.000000	0.001297
2265.000000	0.001268
2264.000000	0.001222
2263.000000	0.001182
2262.000000	0.001173
2261.000000	0.001213
2260.000000	0.001290
2259.000000	0.001346
2258.000000	0.001325
2257.000000	0.001233
2256.000000	0.001125
2255.000000	0.001062
2254.000000	0.001073
2253.000000	0.001154
2252.000000	0.001275
2251.000000	0.001388
2250.000000	0.001458
2249.000000	0.001469
2248.000000	0.001427
2247.000000	0.001358
2246.000000	0.001312
2245.000000	0.001327
2244.000000	0.001384
2243.000000	0.001412
2242.000000	0.001374
2241.000000	0.001300
2240.000000	0.001248
2239.000000	0.001243
2238.000000	0.001281
2237.000000	0.001357
2236.000000	0.001453
2235.000000	0.001530
2234.000000	0.001567
2233.000000	0.001561
2232.000000	0.001499
2231.000000	0.001358
2230.000000	0.001176
2229.000000	0.001059
2228.000000	0.001071
2227.000000	0.001156
2226.000000	0.001197
2225.000000	0.001153
2224.000000	0.001079
2223.000000	0.001043
2222.000000	0.001073
2221.000000	0.001155
2220.000000	0.001233
2219.000000	0.001238
2218.000000	0.001157
2217.000000	0.001056
2216.000000	0.000998
2215.000000	0.000979
2214.000000	0.000968
2213.000000	0.000984
2212.000000	0.001059
2211.000000	0.001164
2210.000000	0.001228
2209.000000	0.001231
2208.000000	0.001214
2207.000000	0.001213
2206.000000	0.001223
2205.000000	0.001232
2204.000000	0.001232
2203.000000	0.001209
2202.000000	0.001160
2201.000000	0.001112
2200.000000	0.001098
2199.000000	0.001108
2198.000000	0.001110
2197.000000	0.001097
2196.000000	0.001077
2195.000000	0.001038
2194.000000	0.000971
2193.000000	0.000908
2192.000000	0.000894
2191.000000	0.000928
2190.000000	0.000966
2189.000000	0.000977
2188.000000	0.000952
2187.000000	0.000901
2186.000000	0.000850
2185.000000	0.000840
2184.000000	0.000859
2183.000000	0.000831
2182.000000	0.000717
2181.000000	0.000616
2180.000000	0.000675
2179.000000	0.000901
2178.000000	0.001132
2177.000000	0.001195
2176.000000	0.001061
2175.000000	0.000847
2174.000000	0.000698
2173.000000	0.000676
2172.000000	0.000743
2171.000000	0.000839
2170.000000	0.000949
2169.000000	0.001075
2168.000000	0.001171
2167.000000	0.001179
2166.000000	0.001126
2165.000000	0.001130
2164.000000	0.001254
2163.000000	0.001418
2162.000000	0.001503
2161.000000	0.001450
2160.000000	0.001232
2159.000000	0.000827
2158.000000	0.000334
2157.000000	-0.000018
2156.000000	-0.000091
2155.000000	0.000025
2154.000000	0.000158
2153.000000	0.000237
2152.000000	0.000273
2151.000000	0.000267
2150.000000	0.000209
2149.000000	0.000130
2148.000000	0.000115
2147.000000	0.000232
2146.000000	0.000463
2145.000000	0.000697
2144.000000	0.000809
2143.000000	0.000776
2142.000000	0.000702
2141.000000	0.000701
2140.000000	0.000775
2139.000000	0.000849
2138.000000	0.000889
2137.000000	0.000919
2136.000000	0.000922
2135.000000	0.000827
2134.000000	0.000622
2133.000000	0.000412
2132.000000	0.000309
2131.000000	0.000325
2130.000000	0.000407
2129.000000	0.000513
2128.000000	0.000623
2127.000000	0.000718
2126.000000	0.000781
2125.000000	0.000825
2124.000000	0.000875
2123.000000	0.000948
2122.000000	0.001045
2121.000000	0.001146
2120.000000	0.001205
2119.000000	0.001183
2118.000000	0.001094
2117.000000	0.001004
2116.000000	0.000973
2115.000000	0.001008
2114.000000	0.001081
2113.000000	0.001163
2112.000000	0.001221
2111.000000	0.001230
2110.000000	0.001200
2109.000000	0.001164
2108.000000	0.001134
2107.000000	0.001102
2106.000000	0.001079
2105.000000	0.001113
2104.000000	0.001205
2103.000000	0.001285
2102.000000	0.001282
2101.000000	0.001207
2100.000000	0.001120
2099.000000	0.001047
2098.000000	0.000968
2097.000000	0.000871
2096.000000	0.000768
2095.000000	0.000674
2094.000000	0.000610
2093.000000	0.000610
2092.000000	0.000694
2091.000000	0.000837
2090.000000	0.000980
2089.000000	0.001082
2088.000000	0.001142
2087.000000	0.001186
2086.000000	0.001229
2085.000000	0.001263
2084.000000	0.001261
2083.000000	0.001198
2082.000000	0.001089
2081.000000	0.000988
2080.000000	0.000953
2079.000000	0.001019
2078.000000	0.001167
2077.000000	0.001320
2076.000000	0.001375
2075.000000	0.001288
2074.000000	0.001122
2073.000000	0.000979
2072.000000	0.000891
2071.000000	0.000831
2070.000000	0.000811
2069.000000	0.000890
2068.000000	0.001069
2067.000000	0.001249
2066.000000	0.001333
2065.000000	0.001311
2064.000000	0.001227
2063.000000	0.001119
2062.000000	0.001023
2061.000000	0.000991
2060.000000	0.001038
2059.000000	0.001115
2058.000000	0.001153
2057.000000	0.001115
2056.000000	0.001002
2055.000000	0.000853
2054.000000	0.000763
2053.000000	0.000828
2052.000000	0.001053
2051.000000	0.001342
2050.000000	0.001597
2049.000000	0.001744
2048.000000	0.001711
2047.000000	0.001469
2046.000000	0.001124
2045.000000	0.000877
2044.000000	0.000806
2043.000000	0.000805
2042.000000	0.000758
2041.000000	0.000687
2040.000000	0.000648
2039.000000	0.000630
2038.000000	0.000617
2037.000000	0.000652
2036.000000	0.000742
2035.000000	0.000794
2034.000000	0.000724
2033.000000	0.000552
2032.000000	0.000327
2031.000000	0.000072
2030.000000	-0.000108
2029.000000	-0.000026
2028.000000	0.000348
2027.000000	0.000772
2026.000000	0.000976
2025.000000	0.000916
2024.000000	0.000741
2023.000000	0.000594
2022.000000	0.000560
2021.000000	0.000666
2020.000000	0.000827
2019.000000	0.000876
2018.000000	0.000736
2017.000000	0.000526
2016.000000	0.000406
2015.000000	0.000420
2014.000000	0.000522
2013.000000	0.000662
2012.000000	0.000761
2011.000000	0.000726
2010.000000	0.000554
2009.000000	0.000339
2008.000000	0.000158
2007.000000	0.000017
2006.000000	-0.000042
2005.000000	0.000047
2004.000000	0.000225
2003.000000	0.000334
2002.000000	0.000344
2001.000000	0.000393
2000.000000	0.000547
1999.000000	0.000660
1998.000000	0.000584
1997.000000	0.000381
1996.000000	0.000241
1995.000000	0.000248
1994.000000	0.000349
1993.000000	0.000467
1992.000000	0.000548
1991.000000	0.000558
1990.000000	0.000523
1989.000000	0.000514
1988.000000	0.000552
1987.000000	0.000591
1986.000000	0.000622
1985.000000	0.000713
1984.000000	0.000888
1983.000000	0.001051
1982.000000	0.001118
1981.000000	0.001126
1980.000000	0.001143
1979.000000	0.001144
1978.000000	0.001074
1977.000000	0.000947
1976.000000	0.000797
1975.000000	0.000623
1974.000000	0.000461
1973.000000	0.000400
1972.000000	0.000425
1971.000000	0.000391
1970.000000	0.000250
1969.000000	0.000154
1968.000000	0.000250
1967.000000	0.000468
1966.000000	0.000645
1965.000000	0.000742
1964.000000	0.000806
1963.000000	0.000832
1962.000000	0.000784
1961.000000	0.000683
1960.000000	0.000574
1959.000000	0.000453
1958.000000	0.000306
1957.000000	0.000168
1956.000000	0.000080
1955.000000	0.000045
1954.000000	0.000060
1953.000000	0.000142
1952.000000	0.000269
1951.000000	0.000380
1950.000000	0.000448
1949.000000	0.000502
1948.000000	0.000553
1947.000000	0.000567
1946.000000	0.000549
1945.000000	0.000564
1944.000000	0.000629
1943.000000	0.000663
1942.000000	0.000603
1941.000000	0.000516
1940.000000	0.000494
1939.000000	0.000539
1938.000000	0.000597
1937.000000	0.000642
1936.000000	0.000669
1935.000000	0.000658
1934.000000	0.000603
1933.000000	0.000537
1932.000000	0.000493
1931.000000	0.000465
1930.000000	0.000454
1929.000000	0.000490
1928.000000	0.000578
1927.000000	0.000666
1926.000000	0.000705
1925.000000	0.000702
1924.000000	0.000684
1923.000000	0.000637
1922.000000	0.000539
1921.000000	0.000417
1920.000000	0.000313
1919.000000	0.000246
1918.000000	0.000224
1917.000000	0.000268
1916.000000	0.000376
1915.000000	0.000502
1914.000000	0.000594
1913.000000	0.000630
1912.000000	0.000617
1911.000000	0.000572
1910.000000	0.000519
1909.000000	0.000477
1908.000000	0.000445
1907.000000	0.000409
1906.000000	0.000379
1905.000000	0.000385
1904.000000	0.000435
1903.000000	0.000504
1902.000000	0.000562
1901.000000	0.000602
1900.000000	0.000613
1899.000000	0.000579
1898.000000	0.000515
1897.000000	0.000471
1896.000000	0.000476
1895.000000	0.000508
1894.000000	0.000534
1893.000000	0.000543
1892.000000	0.000527
1891.000000	0.000483
1890.000000	0.000435
1889.000000	0.000438
1888.000000	0.000508
1887.000000	0.000594
1886.000000	0.000644
1885.000000	0.000637
1884.000000	0.000577
1883.000000	0.000487
1882.000000	0.000421
1881.000000	0.000431
1880.000000	0.000505
1879.000000	0.000569
1878.000000	0.000570
1877.000000	0.000519
1876.000000	0.000457
1875.000000	0.000405
1874.000000	0.000378
1873.000000	0.000382
1872.000000	0.000391
1871.000000	0.000369
1870.000000	0.000328
1869.000000	0.000329
1868.000000	0.000388
1867.000000	0.000437
1866.000000	0.000438
1865.000000	0.000436
1864.000000	0.000465
1863.000000	0.000500
1862.000000	0.000503
1861.000000	0.000479
1860.000000	0.000452
1859.000000	0.000421
1858.000000	0.000387
1857.000000	0.000376
1856.000000	0.000401
1855.000000	0.000433
1854.000000	0.000439
1853.000000	0.000430
1852.000000	0.000426
1851.000000	0.000426
1850.000000	0.000422
1849.000000	0.000427
1848.000000	0.000445
1847.000000	0.000441
1846.000000	0.000389
1845.000000	0.000327
1844.000000	0.000315
1843.000000	0.000354
1842.000000	0.000393
1841.000000	0.000411
1840.000000	0.000417
1839.000000	0.000411
1838.000000	0.000394
1837.000000	0.000385
1836.000000	0.000397
1835.000000	0.000413
1834.000000	0.000406
1833.000000	0.000376
1832.000000	0.000339
1831.000000	0.000308
1830.000000	0.000297
1829.000000	0.000316
1828.000000	0.000350
1827.000000	0.000361
1826.000000	0.000339
1825.000000	0.000306
1824.000000	0.000281
1823.000000	0.000260
1822.000000	0.000239
1821.000000	0.000230
1820.000000	0.000229
1819.000000	0.000210
1818.000000	0.000173
1817.000000	0.000159
1816.000000	0.000192
1815.000000	0.000243
1814.000000	0.000266
1813.000000	0.000260
1812.000000	0.000254
1811.000000	0.000263
1810.000000	0.000284
1809.000000	0.000304
1808.000000	0.000317
1807.000000	0.000317
1806.000000	0.000312
1805.000000	0.000314
1804.000000	0.000328
1803.000000	0.000338
1802.000000	0.000340
1801.000000	0.000350
1800.000000	0.000378
1799.000000	0.000405
1798.000000	0.000408
1797.000000	0.000387
1796.000000	0.000357
1795.000000	0.000332
1794.000000	0.000336
1793.000000	0.000391
1792.000000	0.000470
1791.000000	0.000507
1790.000000	0.000484
1789.000000	0.000438
1788.000000	0.000400
1787.000000	0.000370
1786.000000	0.000345
1785.000000	0.000332
1784.000000	0.000322
1783.000000	0.000286
1782.000000	0.000222
1781.000000	0.000172
1780.000000	0.000170
1779.000000	0.000198
1778.000000	0.000215
1777.000000	0.000211
1776.000000	0.000201
1775.000000	0.000195
1774.000000	0.000208
1773.000000	0.000266
1772.000000	0.000350
1771.000000	0.000392
1770.000000	0.000369
1769.000000	0.000332
1768.000000	0.000330
1767.000000	0.000356
1766.000000	0.000376
1765.000000	0.000383
1764.000000	0.000404
1763.000000	0.000458
1762.000000	0.000542
1761.000000	0.000632
1760.000000	0.000701
1759.000000	0.000743
1758.000000	0.000793
1757.000000	0.000902
1756.000000	0.001071
1755.000000	0.001235
1754.000000	0.001362
1753.000000	0.001494
1752.000000	0.001691
1751.000000	0.001950
1750.000000	0.002219
1749.000000	0.002469
1748.000000	0.002688
1747.000000	0.002841
1746.000000	0.002927
1745.000000	0.002995
1744.000000	0.003085
1743.000000	0.003171
1742.000000	0.003212
1741.000000	0.003215
1740.000000	0.003208
1739.000000	0.003173
1738.000000	0.003074
1737.000000	0.002912
1736.000000	0.002727
1735.000000	0.002578
1734.000000	0.002506
1733.000000	0.002478
1732.000000	0.002415
1731.000000	0.002284
1730.000000	0.002114
1729.000000	0.001947
1728.000000	0.001794
1727.000000	0.001635
1726.000000	0.001471
1725.000000	0.001326
1724.000000	0.001207
1723.000000	0.001089
1722.000000	0.000958
1721.000000	0.000830
1720.000000	0.000731
1719.000000	0.000668
1718.000000	0.000640
1717.000000	0.000640
1716.000000	0.000651
1715.000000	0.000640
1714.000000	0.000593
1713.000000	0.000534
1712.000000	0.000477
1711.000000	0.000418
1710.000000	0.000357
1709.000000	0.000316
1708.000000	0.000312
1707.000000	0.000343
1706.000000	0.000395
1705.000000	0.000440
1704.000000	0.000446
1703.000000	0.000398
1702.000000	0.000336
1701.000000	0.000347
1700.000000	0.000461
1699.000000	0.000576
1698.000000	0.000614
1697.000000	0.000613
1696.000000	0.000621
1695.000000	0.000637
1694.000000	0.000646
1693.000000	0.000647
1692.000000	0.000648
1691.000000	0.000648
1690.000000	0.000635
1689.000000	0.000613
1688.000000	0.000596
1687.000000	0.000592
1686.000000	0.000624
1685.000000	0.000725
1684.000000	0.000854
1683.000000	0.000921
1682.000000	0.000924
1681.000000	0.000911
1680.000000	0.000908
1679.000000	0.000904
1678.000000	0.000892
1677.000000	0.000897
1676.000000	0.000941
1675.000000	0.001007
1674.000000	0.001059
1673.000000	0.001094
1672.000000	0.001128
1671.000000	0.001162
1670.000000	0.001190
1669.000000	0.001219
1668.000000	0.001253
1667.000000	0.001281
1666.000000	0.001301
1665.000000	0.001335
1664.000000	0.001391
1663.000000	0.001438
1662.000000	0.001456
1661.000000	0.001472
1660.000000	0.001502
1659.000000	0.001529
1658.000000	0.001541
1657.000000	0.001558
1656.000000	0.001593
1655.000000	0.001649
1654.000000	0.001687
1653.000000	0.001672
1652.000000	0.001681
1651.000000	0.001722
1650.000000	0.001737
1649.000000	0.001752
1648.000000	0.001800
1647.000000	0.001854
1646.000000	0.001868
1645.000000	0.001856
1644.000000	0.001845
1643.000000	0.001828
1642.000000	0.001801
1641.000000	0.001777
1640.000000	0.001767
1639.000000	0.001759
1638.000000	0.001739
1637.000000	0.001709
1636.000000	0.001673
1635.000000	0.001634
1634.000000	0.001614
1633.000000	0.001619
1632.000000	0.001635
1631.000000	0.001651
1630.000000	0.001658
1629.000000	0.001663
1628.000000	0.001672
1627.000000	0.001671
1626.000000	0.001652
1625.000000	0.001622
1624.000000	0.001585
1623.000000	0.001530
1622.000000	0.001467
1621.000000	0.001428
1620.000000	0.001413
1619.000000	0.001399
1618.000000	0.001367
1617.000000	0.001327
1616.000000	0.001314
1615.000000	0.001328
1614.000000	0.001337
1613.000000	0.001329
1612.000000	0.001308
1611.000000	0.001272
1610.000000	0.001224
1609.000000	0.001184
1608.000000	0.001162
1607.000000	0.001141
1606.000000	0.001111
1605.000000	0.001083
1604.000000	0.001066
1603.000000	0.001050
1602.000000	0.001027
1601.000000	0.001003
1600.000000	0.000973
1599.000000	0.000921
1598.000000	0.000854
1597.000000	0.000809
1596.000000	0.000805
1595.000000	0.000822
1594.000000	0.000838
1593.000000	0.000854
1592.000000	0.000865
1591.000000	0.000853
1590.000000	0.000816
1589.000000	0.000785
1588.000000	0.000781
1587.000000	0.000788
1586.000000	0.000783
1585.000000	0.000775
1584.000000	0.000781
1583.000000	0.000790
1582.000000	0.000789
1581.000000	0.000788
1580.000000	0.000798
1579.000000	0.000805
1578.000000	0.000799
1577.000000	0.000785
1576.000000	0.000775
1575.000000	0.000769
1574.000000	0.000762
1573.000000	0.000767
1572.000000	0.000797
1571.000000	0.000845
1570.000000	0.000879
1569.000000	0.000886
1568.000000	0.000886
1567.000000	0.000884
1566.000000	0.000879
1565.000000	0.000884
1564.000000	0.000904
1563.000000	0.000922
1562.000000	0.000933
1561.000000	0.000959
1560.000000	0.001019
1559.000000	0.001024
1558.000000	0.000981
1557.000000	0.001014
1556.000000	0.001089
1555.000000	0.001145
1554.000000	0.001184
1553.000000	0.001223
1552.000000	0.001269
1551.000000	0.001298
1550.000000	0.001309
1549.000000	0.001331
1548.000000	0.001384
1547.000000	0.001452
1546.000000	0.001517
1545.000000	0.001582
1544.000000	0.001641
1543.000000	0.001681
1542.000000	0.001700
1541.000000	0.001715
1540.000000	0.001723
1539.000000	0.001728
1538.000000	0.001753
1537.000000	0.001798
1536.000000	0.001849
1535.000000	0.001895
1534.000000	0.001922
1533.000000	0.001940
1532.000000	0.001969
1531.000000	0.002008
1530.000000	0.002050
1529.000000	0.002098
1528.000000	0.002144
1527.000000	0.002162
1526.000000	0.002153
1525.000000	0.002153
1524.000000	0.002173
1523.000000	0.002185
1522.000000	0.002170
1521.000000	0.002166
1520.000000	0.002214
1519.000000	0.002279
1518.000000	0.002322
1517.000000	0.002348
1516.000000	0.002372
1515.000000	0.002393
1514.000000	0.002410
1513.000000	0.002435
1512.000000	0.002471
1511.000000	0.002497
1510.000000	0.002502
1509.000000	0.002505
1508.000000	0.002518
1507.000000	0.002494
1506.000000	0.002445
1505.000000	0.002460
1504.000000	0.002513
1503.000000	0.002544
1502.000000	0.002552
1501.000000	0.002554
1500.000000	0.002559
1499.000000	0.002556
1498.000000	0.002556
1497.000000	0.002594
1496.000000	0.002669
1495.000000	0.002729
1494.000000	0.002748
1493.000000	0.002753
1492.000000	0.002769
1491.000000	0.002782
1490.000000	0.002766
1489.000000	0.002738
1488.000000	0.002737
1487.000000	0.002764
1486.000000	0.002803
1485.000000	0.002849
1484.000000	0.002899
1483.000000	0.002938
1482.000000	0.002962
1481.000000	0.002986
1480.000000	0.003018
1479.000000	0.003049
1478.000000	0.003074
1477.000000	0.003100
1476.000000	0.003128
1475.000000	0.003150
1474.000000	0.003189
1473.000000	0.003279
1472.000000	0.003400
1471.000000	0.003487
1470.000000	0.003531
1469.000000	0.003565
1468.000000	0.003597
1467.000000	0.003612
1466.000000	0.003606
1465.000000	0.003621
1464.000000	0.003673
1463.000000	0.003725
1462.000000	0.003744
1461.000000	0.003747
1460.000000	0.003758
1459.000000	0.003782
1458.000000	0.003813
1457.000000	0.003856
1456.000000	0.003907
1455.000000	0.003937
1454.000000	0.003938
1453.000000	0.003940
1452.000000	0.003958
1451.000000	0.003969
1450.000000	0.003965
1449.000000	0.003971
1448.000000	0.004004
1447.000000	0.004038
1446.000000	0.004051
1445.000000	0.004062
1444.000000	0.004089
1443.000000	0.004122
1442.000000	0.004156
1441.000000	0.004197
1440.000000	0.004244
1439.000000	0.004277
1438.000000	0.004299
1437.000000	0.004344
1436.000000	0.004416
1435.000000	0.004476
1434.000000	0.004510
1433.000000	0.004553
1432.000000	0.004628
1431.000000	0.004715
1430.000000	0.004784
1429.000000	0.004841
1428.000000	0.004892
1427.000000	0.004927
1426.000000	0.004945
1425.000000	0.004977
1424.000000	0.005029
1423.000000	0.005063
1422.000000	0.005057
1421.000000	0.005042
1420.000000	0.005052
1419.000000	0.005070
1418.000000	0.005079
1417.000000	0.005099
1416.000000	0.005135
1415.000000	0.005160
1414.000000	0.005160
1413.000000	0.005150
1412.000000	0.005143
1411.000000	0.005126
1410.000000	0.005093
1409.000000	0.005059
1408.000000	0.005029
1407.000000	0.004988
1406.000000	0.004933
1405.000000	0.004894
1404.000000	0.004887
1403.000000	0.004888
1402.000000	0.004880
1401.000000	0.004878
1400.000000	0.004893
1399.000000	0.004903
1398.000000	0.004894
1397.000000	0.004897
1396.000000	0.004930
1395.000000	0.004969
1394.000000	0.004987
1393.000000	0.005003
1392.000000	0.005026
1391.000000	0.005031
1390.000000	0.005003
1389.000000	0.004963
1388.000000	0.004939
1387.000000	0.004932
1386.000000	0.004928
1385.000000	0.004924
1384.000000	0.004910
1383.000000	0.004871
1382.000000	0.004814
1381.000000	0.004769
1380.000000	0.004744
1379.000000	0.004710
1378.000000	0.004651
1377.000000	0.004589
1376.000000	0.004543
1375.000000	0.004498
1374.000000	0.004438
1373.000000	0.004385
1372.000000	0.004356
1371.000000	0.004331
1370.000000	0.004294
1369.000000	0.004251
1368.000000	0.004206
1367.000000	0.004147
1366.000000	0.004074
1365.000000	0.004006
1364.000000	0.003950
1363.000000	0.003882
1362.000000	0.003803
1361.000000	0.003751
1360.000000	0.003739
1359.000000	0.003741
1358.000000	0.003737
1357.000000	0.003737
1356.000000	0.003739
1355.000000	0.003715
1354.000000	0.003657
1353.000000	0.003597
1352.000000	0.003559
1351.000000	0.003525
1350.000000	0.003477
1349.000000	0.003437
1348.000000	0.003422
1347.000000	0.003415
1346.000000	0.003397
1345.000000	0.003382
1344.000000	0.003388
1343.000000	0.003401
1342.000000	0.003393
1341.000000	0.003366
1340.000000	0.003331
1339.000000	0.003299
1338.000000	0.003280
1337.000000	0.003287
1336.000000	0.003311
1335.000000	0.003316
1334.000000	0.003292
1333.000000	0.003262
1332.000000	0.003244
1331.000000	0.003227
1330.000000	0.003203
1329.000000	0.003181
1328.000000	0.003161
1327.000000	0.003125
1326.000000	0.003070
1325.000000	0.003025
1324.000000	0.003002
1323.000000	0.002978
1322.000000	0.002937
1321.000000	0.002900
1320.000000	0.002877
1319.000000	0.002844
1318.000000	0.002792
1317.000000	0.002746
1316.000000	0.002723
1315.000000	0.002697
1314.000000	0.002653
1313.000000	0.002608
1312.000000	0.002578
1311.000000	0.002548
1310.000000	0.002507
1309.000000	0.002476
1308.000000	0.002466
1307.000000	0.002451
1306.000000	0.002409
1305.000000	0.002357
1304.000000	0.002311
1303.000000	0.002258
1302.000000	0.002196
1301.000000	0.002152
1300.000000	0.002139
1299.000000	0.002128
1298.000000	0.002096
1297.000000	0.002066
1296.000000	0.002053
1295.000000	0.002040
1294.000000	0.002009
1293.000000	0.001980
1292.000000	0.001969
1291.000000	0.001954
1290.000000	0.001926
1289.000000	0.001912
1288.000000	0.001926
1287.000000	0.001932
1286.000000	0.001898
1285.000000	0.001854
1284.000000	0.001838
1283.000000	0.001839
1282.000000	0.001824
1281.000000	0.001795
1280.000000	0.001769
1279.000000	0.001748
1278.000000	0.001732
1277.000000	0.001737
1276.000000	0.001768
1275.000000	0.001791
1274.000000	0.001782
1273.000000	0.001763
1272.000000	0.001762
1271.000000	0.001777
1270.000000	0.001802
1269.000000	0.001848
1268.000000	0.001911
1267.000000	0.001955
1266.000000	0.001967
1265.000000	0.001982
1264.000000	0.002028
1263.000000	0.002078
1262.000000	0.002101
1261.000000	0.002120
1260.000000	0.002166
1259.000000	0.002218
1258.000000	0.002243
1257.000000	0.002251
1256.000000	0.002266
1255.000000	0.002287
1254.000000	0.002301
1253.000000	0.002315
1252.000000	0.002335
1251.000000	0.002338
1250.000000	0.002316
1249.000000	0.002296
1248.000000	0.002303
1247.000000	0.002322
1246.000000	0.002338
1245.000000	0.002364
1244.000000	0.002408
1243.000000	0.002443
1242.000000	0.002446
1241.000000	0.002436
1240.000000	0.002433
1239.000000	0.002428
1238.000000	0.002412
1237.000000	0.002399
1236.000000	0.002395
1235.000000	0.002376
1234.000000	0.002333
1233.000000	0.002294
1232.000000	0.002279
1231.000000	0.002260
1230.000000	0.002206
1229.000000	0.002131
1228.000000	0.002058
1227.000000	0.001985
1226.000000	0.001911
1225.000000	0.001861
1224.000000	0.001833
1223.000000	0.001787
1222.000000	0.001695
1221.000000	0.001591
1220.000000	0.001520
1219.000000	0.001480
1218.000000	0.001452
1217.000000	0.001436
1216.000000	0.001427
1215.000000	0.001400
1214.000000	0.001355
1213.000000	0.001328
1212.000000	0.001329
1211.000000	0.001319
1210.000000	0.001270
1209.000000	0.001216
1208.000000	0.001193
1207.000000	0.001190
1206.000000	0.001180
1205.000000	0.001174
1204.000000	0.001183
1203.000000	0.001191
1202.000000	0.001182
1201.000000	0.001179
1200.000000	0.001205
1199.000000	0.001239
1198.000000	0.001264
1197.000000	0.001294
1196.000000	0.001334
1195.000000	0.001354
1194.000000	0.001341
1193.000000	0.001334
1192.000000	0.001361
1191.000000	0.001401
1190.000000	0.001421
1189.000000	0.001435
1188.000000	0.001463
1187.000000	0.001501
1186.000000	0.001541
1185.000000	0.001602
1184.000000	0.001687
1183.000000	0.001763
1182.000000	0.001813
1181.000000	0.001870
1180.000000	0.001957
1179.000000	0.002046
1178.000000	0.002118
1177.000000	0.002200
1176.000000	0.002306
1175.000000	0.002400
1174.000000	0.002457
1173.000000	0.002510
1172.000000	0.002593
1171.000000	0.002673
1170.000000	0.002717
1169.000000	0.002754
1168.000000	0.002826
1167.000000	0.002919
1166.000000	0.002999
1165.000000	0.003067
1164.000000	0.003126
1163.000000	0.003142
1162.000000	0.003098
1161.000000	0.003043
1160.000000	0.003026
1159.000000	0.003030
1158.000000	0.003013
1157.000000	0.002981
1156.000000	0.002959
1155.000000	0.002940
1154.000000	0.002908
1153.000000	0.002875
1152.000000	0.002848
1151.000000	0.002801
1150.000000	0.002717
1149.000000	0.002623
1148.000000	0.002542
1147.000000	0.002452
1146.000000	0.002338
1145.000000	0.002235
1144.000000	0.002173
1143.000000	0.002124
1142.000000	0.002053
1141.000000	0.001975
1140.000000	0.001913
1139.000000	0.001851
1138.000000	0.001770
1137.000000	0.001689
1136.000000	0.001627
1135.000000	0.001566
1134.000000	0.001498
1133.000000	0.001461
1132.000000	0.001469
1131.000000	0.001480
1130.000000	0.001464
1129.000000	0.001449
1128.000000	0.001461
1127.000000	0.001473
1126.000000	0.001456
1125.000000	0.001439
1124.000000	0.001451
1123.000000	0.001469
1122.000000	0.001475
1121.000000	0.001495
1120.000000	0.001554
1119.000000	0.001623
1118.000000	0.001673
1117.000000	0.001725
1116.000000	0.001798
1115.000000	0.001865
1114.000000	0.001905
1113.000000	0.001954
1112.000000	0.002033
1111.000000	0.002109
1110.000000	0.002155
1109.000000	0.002204
1108.000000	0.002287
1107.000000	0.002372
1106.000000	0.002428
1105.000000	0.002471
1104.000000	0.002517
1103.000000	0.002536
1102.000000	0.002522
1101.000000	0.002524
1100.000000	0.002573
1099.000000	0.002628
1098.000000	0.002652
1097.000000	0.002680
1096.000000	0.002744
1095.000000	0.002808
1094.000000	0.002826
1093.000000	0.002810
1092.000000	0.002781
1091.000000	0.002719
1090.000000	0.002617
1089.000000	0.002524
1088.000000	0.002472
1087.000000	0.002426
1086.000000	0.002348
1085.000000	0.002256
1084.000000	0.002172
1083.000000	0.002076
1082.000000	0.001971
1081.000000	0.001912
1080.000000	0.001924
1079.000000	0.001948
1078.000000	0.001932
1077.000000	0.001897
1076.000000	0.001872
1075.000000	0.001831
1074.000000	0.001759
1073.000000	0.001703
1072.000000	0.001695
1071.000000	0.001699
1070.000000	0.001691
1069.000000	0.001718
1068.000000	0.001810
1067.000000	0.001916
1066.000000	0.001983
1065.000000	0.002037
1064.000000	0.002115
1063.000000	0.002190
1062.000000	0.002228
1061.000000	0.002255
1060.000000	0.002303
1059.000000	0.002352
1058.000000	0.002392
1057.000000	0.002457
1056.000000	0.002566
1055.000000	0.002669
1054.000000	0.002720
1053.000000	0.002743
1052.000000	0.002772
1051.000000	0.002794
1050.000000	0.002806
1049.000000	0.002851
1048.000000	0.002936
1047.000000	0.003009
1046.000000	0.003042
1045.000000	0.003083
1044.000000	0.003150
1043.000000	0.003195
1042.000000	0.003193
1041.000000	0.003202
1040.000000	0.003267
1039.000000	0.003349
1038.000000	0.003403
1037.000000	0.003436
1036.000000	0.003458
1035.000000	0.003446
1034.000000	0.003411
1033.000000	0.003411
1032.000000	0.003451
1031.000000	0.003467
1030.000000	0.003443
1029.000000	0.003450
1028.000000	0.003517
1027.000000	0.003560
1026.000000	0.003523
1025.000000	0.003466
1024.000000	0.003456
1023.000000	0.003460
1022.000000	0.003433
1021.000000	0.003398
1020.000000	0.003383
1019.000000	0.003348
1018.000000	0.003278
1017.000000	0.003232
1016.000000	0.003244
1015.000000	0.003251
1014.000000	0.003201
1013.000000	0.003135
1012.000000	0.003101
1011.000000	0.003072
1010.000000	0.003025
1009.000000	0.003000
1008.000000	0.003012
1007.000000	0.002995
1006.000000	0.002909
1005.000000	0.002814
1004.000000	0.002764
1003.000000	0.002723
1002.000000	0.002652
1001.000000	0.002597
1000.000000	0.002597
999.000000	0.002606
998.000000	0.002568
997.000000	0.002512
996.000000	0.002479
995.000000	0.002448
994.000000	0.002393
993.000000	0.002344
992.000000	0.002319
991.000000	0.002278
990.000000	0.002199
989.000000	0.002137
988.000000	0.002129
987.000000	0.002129
986.000000	0.002092
985.000000	0.002052
984.000000	0.002042
983.000000	0.002032
982.000000	0.001999
981.000000	0.001980
980.000000	0.001996
979.000000	0.001992
978.000000	0.001936
977.000000	0.001882
976.000000	0.001872
975.000000	0.001860
974.000000	0.001811
973.000000	0.001776
972.000000	0.001792
971.000000	0.001806
970.000000	0.001764
969.000000	0.001702
968.000000	0.001659
967.000000	0.001601
966.000000	0.001500
965.000000	0.001411
964.000000	0.001383
963.000000	0.001373
962.000000	0.001328
961.000000	0.001281
960.000000	0.001275
959.000000	0.001279
958.000000	0.001243
957.000000	0.001187
956.000000	0.001143
955.000000	0.001093
954.000000	0.001030
953.000000	0.001004
952.000000	0.001029
951.000000	0.001034
950.000000	0.000970
949.000000	0.000893
948.000000	0.000864
947.000000	0.000853
946.000000	0.000807
945.000000	0.000749
944.000000	0.000712
943.000000	0.000676
942.000000	0.000627
941.000000	0.000607
940.000000	0.000643
939.000000	0.000677
938.000000	0.000664
937.000000	0.000643
936.000000	0.000646
935.000000	0.000632
934.000000	0.000568
933.000000	0.000502
932.000000	0.000470
931.000000	0.000437
930.000000	0.000385
929.000000	0.000375
928.000000	0.000442
927.000000	0.000508
926.000000	0.000507
925.000000	0.000477
924.000000	0.000478
923.000000	0.000472
922.000000	0.000415
921.000000	0.000349
920.000000	0.000333
919.000000	0.000351
918.000000	0.000363
917.000000	0.000379
916.000000	0.000411
915.000000	0.000412
914.000000	0.000365
913.000000	0.000342
912.000000	0.000393
911.000000	0.000464
910.000000	0.000486
909.000000	0.000483
908.000000	0.000495
907.000000	0.000502
906.000000	0.000490
905.000000	0.000505
904.000000	0.000557
903.000000	0.000569
902.000000	0.000503
901.000000	0.000438
900.000000	0.000444
899.000000	0.000471
898.000000	0.000457
897.000000	0.000440
896.000000	0.000475
895.000000	0.000517
894.000000	0.000509
893.000000	0.000485
892.000000	0.000495
891.000000	0.000499
890.000000	0.000463
889.000000	0.000451
888.000000	0.000538
887.000000	0.000699
886.000000	0.000877
885.000000	0.001076
884.000000	0.001301
883.000000	0.001494
882.000000	0.001628
881.000000	0.001791
880.000000	0.002062
879.000000	0.002392
878.000000	0.002693
877.000000	0.002957
876.000000	0.003199
875.000000	0.003368
874.000000	0.003420
873.000000	0.003401
872.000000	0.003349
871.000000	0.003214
870.000000	0.002959
869.000000	0.002659
868.000000	0.002399
867.000000	0.002178
866.000000	0.001978
865.000000	0.001833
864.000000	0.001751
863.000000	0.001663
862.000000	0.001532
861.000000	0.001415
860.000000	0.001348
859.000000	0.001273
858.000000	0.001156
857.000000	0.001062
856.000000	0.001032
855.000000	0.000995
854.000000	0.000903
853.000000	0.000828
852.000000	0.000836
851.000000	0.000868
850.000000	0.000856
849.000000	0.000830
848.000000	0.000820
847.000000	0.000773
846.000000	0.000659
845.000000	0.000555
844.000000	0.000517
843.000000	0.000491
842.000000	0.000431
841.000000	0.000391
840.000000	0.000405
839.000000	0.000395
838.000000	0.000309
837.000000	0.000232
836.000000	0.000231
835.000000	0.000248
834.000000	0.000219
833.000000	0.000201
832.000000	0.000244
831.000000	0.000269
830.000000	0.000207
829.000000	0.000134
828.000000	0.000139
827.000000	0.000179
826.000000	0.000181
825.000000	0.000189
824.000000	0.000257
823.000000	0.000337
822.000000	0.000388
821.000000	0.000493
820.000000	0.000717
819.000000	0.000990
818.000000	0.001220
817.000000	0.001406
816.000000	0.001552
815.000000	0.001591
814.000000	0.001506
813.000000	0.001393
812.000000	0.001309
811.000000	0.001188
810.000000	0.001001
809.000000	0.000865
808.000000	0.000857
807.000000	0.000882
806.000000	0.000830
805.000000	0.000742
804.000000	0.000694
803.000000	0.000664
802.000000	0.000625
801.000000	0.000642
800.000000	0.000735
799.000000	0.000795
798.000000	0.000745
797.000000	0.000671
796.000000	0.000668
795.000000	0.000688
794.000000	0.000671
793.000000	0.000669
792.000000	0.000724
791.000000	0.000759
790.000000	0.000721
789.000000	0.000689
788.000000	0.000724
787.000000	0.000741
786.000000	0.000672
785.000000	0.000608
784.000000	0.000652
783.000000	0.000748
782.000000	0.000798
781.000000	0.000818
780.000000	0.000863
779.000000	0.000901
778.000000	0.000904
777.000000	0.000934
776.000000	0.001018
775.000000	0.001052
774.000000	0.000954
773.000000	0.000809
772.000000	0.000729
771.000000	0.000703
770.000000	0.000679
769.000000	0.000683
768.000000	0.000732
767.000000	0.000739
766.000000	0.000646
765.000000	0.000552
764.000000	0.000566
763.000000	0.000645
762.000000	0.000691
761.000000	0.000706
760.000000	0.000734
759.000000	0.000755
758.000000	0.000762
757.000000	0.000820
756.000000	0.000956
755.000000	0.001080
754.000000	0.001133
753.000000	0.001187
752.000000	0.001291
751.000000	0.001360
750.000000	0.001322
749.000000	0.001258
748.000000	0.001263
747.000000	0.001296
746.000000	0.001300
745.000000	0.001319
744.000000	0.001386
743.000000	0.001404
742.000000	0.001307
741.000000	0.001195
740.000000	0.001182
739.000000	0.001214
738.000000	0.001185
737.000000	0.001117
736.000000	0.001084
735.000000	0.001067
734.000000	0.001023
733.000000	0.000999
732.000000	0.001042
731.000000	0.001083
730.000000	0.001044
729.000000	0.000970
728.000000	0.000934
727.000000	0.000912
726.000000	0.000873
725.000000	0.000878
724.000000	0.000954
723.000000	0.000992
722.000000	0.000906
721.000000	0.000782
720.000000	0.000739
719.000000	0.000769
718.000000	0.000824
717.000000	0.000953
716.000000	0.001203
715.000000	0.001491
714.000000	0.001706
713.000000	0.001827
712.000000	0.001862
711.000000	0.001771
710.000000	0.001567
709.000000	0.001380
708.000000	0.001296
707.000000	0.001244
706.000000	0.001156
705.000000	0.001101
704.000000	0.001138
703.000000	0.001190
702.000000	0.001193
701.000000	0.001213
700.000000	0.001298
699.000000	0.001351
698.000000	0.001301
697.000000	0.001247
696.000000	0.001289
695.000000	0.001360
694.000000	0.001356
693.000000	0.001308
692.000000	0.001282
691.000000	0.001229
690.000000	0.001107
689.000000	0.001010
688.000000	0.001026
687.000000	0.001066
686.000000	0.001002
685.000000	0.000869
684.000000	0.000775
683.000000	0.000730
682.000000	0.000699
681.000000	0.000718
680.000000	0.000799
679.000000	0.000841
678.000000	0.000762
677.000000	0.000657
676.000000	0.000649
675.000000	0.000702
674.000000	0.000736
673.000000	0.000773
672.000000	0.000823
671.000000	0.000749
670.000000	0.000420
669.000000	-0.000069
668.000000	-0.000320
667.000000	-0.000144
666.000000	0.000092
665.000000	0.000311
664.000000	0.000558
663.000000	0.000707
662.000000	0.000678
661.000000	0.000584
660.000000	0.000547
659.000000	0.000498
658.000000	0.000364
657.000000	0.000253
656.000000	0.000261
655.000000	0.000288
654.000000	0.000253
653.000000	0.000262
652.000000	0.000368
651.000000	0.000431
650.000000	0.000368
649.000000	0.000325
648.000000	0.000398
647.000000	0.000445
646.000000	0.000371
645.000000	0.000316
644.000000	0.000388
643.000000	0.000472
642.000000	0.000470
641.000000	0.000496
640.000000	0.000623
639.000000	0.000690
638.000000	0.000576
637.000000	0.000433
636.000000	0.000418
635.000000	0.000438
634.000000	0.000369
633.000000	0.000300
632.000000	0.000349
631.000000	0.000432
630.000000	0.000448
629.000000	0.000470
628.000000	0.000563
627.000000	0.000608
626.000000	0.000527
625.000000	0.000442
624.000000	0.000438
623.000000	0.000380
622.000000	0.000185
621.000000	0.000029
620.000000	0.000078
619.000000	0.000236
618.000000	0.000348
617.000000	0.000444
616.000000	0.000562
615.000000	0.000566
614.000000	0.000385
613.000000	0.000207
612.000000	0.000202
611.000000	0.000269
610.000000	0.000267
609.000000	0.000269
608.000000	0.000368
607.000000	0.000445
606.000000	0.000397
605.000000	0.000344
604.000000	0.000386
603.000000	0.000381
602.000000	0.000206
601.000000	0.000018
600.000000	0.000010
599.000000	0.000116
598.000000	0.000198
597.000000	0.000291
596.000000	0.000454
595.000000	0.000582
594.000000	0.000594
593.000000	0.000587
592.000000	0.000611
591.000000	0.000540
590.000000	0.000347
589.000000	0.000264
588.000000	0.000416
587.000000	0.000601
586.000000	0.000620
585.000000	0.000564
584.000000	0.000551
583.000000	0.000482
582.000000	0.000302
581.000000	0.000222
580.000000	0.000404
579.000000	0.000671
578.000000	0.000801
577.000000	0.000857
576.000000	0.000959
575.000000	0.001032
574.000000	0.001013
573.000000	0.001035
572.000000	0.001146
571.000000	0.001154
570.000000	0.000972
569.000000	0.000836
568.000000	0.000913
567.000000	0.001024
566.000000	0.001004
565.000000	0.000988
564.000000	0.001074
563.000000	0.001069
562.000000	0.000856
561.000000	0.000660
560.000000	0.000656
559.000000	0.000655
558.000000	0.000497
557.000000	0.000374
556.000000	0.000464
555.000000	0.000569
554.000000	0.000481
553.000000	0.000345
552.000000	0.000326
551.000000	0.000276
550.000000	0.000072
549.000000	-0.000056
548.000000	0.000086
547.000000	0.000267
546.000000	0.000217
545.000000	0.000085
544.000000	0.000137
543.000000	0.000306
542.000000	0.000398
541.000000	0.000437
540.000000	0.000488
539.000000	0.000425
538.000000	0.000193
537.000000	-0.000006
536.000000	-0.000056
535.000000	-0.000147
534.000000	-0.000352
533.000000	-0.000379
532.000000	-0.000039
531.000000	0.000421
530.000000	0.000727
529.000000	0.000958
528.000000	0.001219
527.000000	0.001357
526.000000	0.001331
525.000000	0.001439
524.000000	0.001765
523.000000	0.001896
522.000000	0.001594
521.000000	0.001230
520.000000	0.001222
519.000000	0.001425
518.000000	0.001490
517.000000	0.001475
516.000000	0.001561
515.000000	0.001590
514.000000	0.001388
513.000000	0.001140
512.000000	0.001041
511.000000	0.000960
510.000000	0.000792
509.000000	0.000759
508.000000	0.001016
507.000000	0.001305
506.000000	0.001411
505.000000	0.001535
504.000000	0.001824
503.000000	0.001995
502.000000	0.001824
501.000000	0.001591
500.000000	0.001546
499.000000	0.001462
498.000000	0.001174
497.000000	0.000979
496.000000	0.001103
495.000000	0.001261
494.000000	0.001195
493.000000	0.001186
492.000000	0.001507
491.000000	0.001849
490.000000	0.001847
489.000000	0.001688
488.000000	0.001657
487.000000	0.001581
486.000000	0.001241
485.000000	0.000873
484.000000	0.000756
483.000000	0.000687
482.000000	0.000477
481.000000	0.000419
480.000000	0.000731
479.000000	0.001062
478.000000	0.001072
477.000000	0.001002
476.000000	0.001116
475.000000	0.001102
474.000000	0.000637
473.000000	0.000087
472.000000	-0.000038
471.000000	0.000041
470.000000	-0.000067
469.000000	-0.000116
468.000000	0.000203
467.000000	0.000576
466.000000	0.000617
465.000000	0.000584
464.000000	0.000808
463.000000	0.000984
462.000000	0.000702
461.000000	0.000220
460.000000	-0.000037
459.000000	-0.000188
458.000000	-0.000403
457.000000	-0.000252
456.000000	0.000457
455.000000	0.001021
454.000000	0.000893
453.000000	0.000449
452.000000	0.000292
451.000000	0.000310
450.000000	0.000146
