PE IR       SUBTECH     SPECTRUM    ASCII       PEDS        4.00        
   -1
P12-Vert009_1.ASC
23/06/08
16:11:34.00
23/06/08
16:23:55.00
uco
Sample 009 By uco Date Thursday, June 08 2023
450.000000
#HDR
-1
-1
#GR
cm-1
A
1.0
0.0
4000.000000
-1.000000
3551
8
0.039188
0.001401
#DATA
4000.000000	0.001773
3999.000000	0.001811
3998.000000	0.001835
3997.000000	0.001839
3996.000000	0.001828
3995.000000	0.001815
3994.000000	0.001742
3993.000000	0.001748
3992.000000	0.001760
3991.000000	0.001771
3990.000000	0.001777
3989.000000	0.001783
3988.000000	0.001793
3987.000000	0.001805
3986.000000	0.001815
3985.000000	0.001819
3984.000000	0.001817
3983.000000	0.001816
3982.000000	0.001824
3981.000000	0.001847
3980.000000	0.001880
3979.000000	0.001910
3978.000000	0.001922
3977.000000	0.001915
3976.000000	0.001895
3975.000000	0.001872
3974.000000	0.001853
3973.000000	0.001839
3972.000000	0.001827
3971.000000	0.001819
3970.000000	0.001818
3969.000000	0.001823
3968.000000	0.001833
3967.000000	0.001846
3966.000000	0.001860
3965.000000	0.001876
3964.000000	0.001889
3963.000000	0.001895
3962.000000	0.001895
3961.000000	0.001893
3960.000000	0.001895
3959.000000	0.001901
3958.000000	0.001906
3957.000000	0.001903
3956.000000	0.001893
3955.000000	0.001880
3954.000000	0.001871
3953.000000	0.001872
3952.000000	0.001887
3951.000000	0.001909
3950.000000	0.001926
3949.000000	0.001929
3948.000000	0.001921
3947.000000	0.001915
3946.000000	0.001915
3945.000000	0.001916
3944.000000	0.001910
3943.000000	0.001897
3942.000000	0.001894
3941.000000	0.001912
3940.000000	0.001947
3939.000000	0.001976
3938.000000	0.001982
3937.000000	0.001972
3936.000000	0.001964
3935.000000	0.001975
3934.000000	0.001999
3933.000000	0.002012
3932.000000	0.001999
3931.000000	0.001969
3930.000000	0.001946
3929.000000	0.001944
3928.000000	0.001956
3927.000000	0.001964
3926.000000	0.001962
3925.000000	0.001953
3924.000000	0.001947
3923.000000	0.001955
3922.000000	0.001976
3921.000000	0.002001
3920.000000	0.002019
3919.000000	0.002023
3918.000000	0.002008
3917.000000	0.001977
3916.000000	0.001941
3915.000000	0.001909
3914.000000	0.001886
3913.000000	0.001869
3912.000000	0.001858
3911.000000	0.001856
3910.000000	0.001862
3909.000000	0.001868
3908.000000	0.001866
3907.000000	0.001856
3906.000000	0.001852
3905.000000	0.001865
3904.000000	0.001898
3903.000000	0.001938
3902.000000	0.001969
3901.000000	0.001987
3900.000000	0.001992
3899.000000	0.001988
3898.000000	0.001980
3897.000000	0.001975
3896.000000	0.001977
3895.000000	0.001984
3894.000000	0.001989
3893.000000	0.001987
3892.000000	0.001976
3891.000000	0.001961
3890.000000	0.001950
3889.000000	0.001947
3888.000000	0.001952
3887.000000	0.001962
3886.000000	0.001968
3885.000000	0.001967
3884.000000	0.001958
3883.000000	0.001937
3882.000000	0.001900
3881.000000	0.001856
3880.000000	0.001830
3879.000000	0.001841
3878.000000	0.001877
3877.000000	0.001910
3876.000000	0.001921
3875.000000	0.001912
3874.000000	0.001901
3873.000000	0.001914
3872.000000	0.001956
3871.000000	0.002004
3870.000000	0.002029
3869.000000	0.002026
3868.000000	0.002012
3867.000000	0.002001
3866.000000	0.001986
3865.000000	0.001961
3864.000000	0.001931
3863.000000	0.001916
3862.000000	0.001925
3861.000000	0.001950
3860.000000	0.001976
3859.000000	0.001992
3858.000000	0.001994
3857.000000	0.001991
3856.000000	0.001996
3855.000000	0.002008
3854.000000	0.002007
3853.000000	0.001980
3852.000000	0.001939
3851.000000	0.001905
3850.000000	0.001890
3849.000000	0.001897
3848.000000	0.001926
3847.000000	0.001969
3846.000000	0.002015
3845.000000	0.002044
3844.000000	0.002046
3843.000000	0.002024
3842.000000	0.001992
3841.000000	0.001963
3840.000000	0.001939
3839.000000	0.001919
3838.000000	0.001908
3837.000000	0.001913
3836.000000	0.001930
3835.000000	0.001947
3834.000000	0.001959
3833.000000	0.001964
3832.000000	0.001965
3831.000000	0.001967
3830.000000	0.001971
3829.000000	0.001977
3828.000000	0.001976
3827.000000	0.001962
3826.000000	0.001937
3825.000000	0.001915
3824.000000	0.001909
3823.000000	0.001912
3822.000000	0.001904
3821.000000	0.001875
3820.000000	0.001849
3819.000000	0.001848
3818.000000	0.001868
3817.000000	0.001884
3816.000000	0.001880
3815.000000	0.001870
3814.000000	0.001881
3813.000000	0.001918
3812.000000	0.001963
3811.000000	0.001995
3810.000000	0.002009
3809.000000	0.002011
3808.000000	0.002003
3807.000000	0.001984
3806.000000	0.001961
3805.000000	0.001948
3804.000000	0.001953
3803.000000	0.001961
3802.000000	0.001947
3801.000000	0.001908
3800.000000	0.001871
3799.000000	0.001853
3798.000000	0.001854
3797.000000	0.001866
3796.000000	0.001880
3795.000000	0.001892
3794.000000	0.001904
3793.000000	0.001913
3792.000000	0.001916
3791.000000	0.001909
3790.000000	0.001892
3789.000000	0.001869
3788.000000	0.001850
3787.000000	0.001841
3786.000000	0.001847
3785.000000	0.001866
3784.000000	0.001888
3783.000000	0.001904
3782.000000	0.001908
3781.000000	0.001900
3780.000000	0.001885
3779.000000	0.001874
3778.000000	0.001876
3777.000000	0.001888
3776.000000	0.001898
3775.000000	0.001900
3774.000000	0.001894
3773.000000	0.001886
3772.000000	0.001879
3771.000000	0.001868
3770.000000	0.001852
3769.000000	0.001841
3768.000000	0.001843
3767.000000	0.001857
3766.000000	0.001875
3765.000000	0.001891
3764.000000	0.001904
3763.000000	0.001915
3762.000000	0.001921
3761.000000	0.001916
3760.000000	0.001902
3759.000000	0.001896
3758.000000	0.001909
3757.000000	0.001935
3756.000000	0.001960
3755.000000	0.001976
3754.000000	0.001983
3753.000000	0.001986
3752.000000	0.001990
3751.000000	0.001996
3750.000000	0.001994
3749.000000	0.001971
3748.000000	0.001930
3747.000000	0.001890
3746.000000	0.001866
3745.000000	0.001853
3744.000000	0.001846
3743.000000	0.001844
3742.000000	0.001845
3741.000000	0.001846
3740.000000	0.001846
3739.000000	0.001849
3738.000000	0.001863
3737.000000	0.001884
3736.000000	0.001885
3735.000000	0.001843
3734.000000	0.001787
3733.000000	0.001760
3732.000000	0.001770
3731.000000	0.001797
3730.000000	0.001829
3729.000000	0.001873
3728.000000	0.001931
3727.000000	0.001992
3726.000000	0.002037
3725.000000	0.002062
3724.000000	0.002071
3723.000000	0.002063
3722.000000	0.002036
3721.000000	0.001990
3720.000000	0.001932
3719.000000	0.001873
3718.000000	0.001826
3717.000000	0.001796
3716.000000	0.001781
3715.000000	0.001782
3714.000000	0.001803
3713.000000	0.001846
3712.000000	0.001904
3711.000000	0.001950
3710.000000	0.001957
3709.000000	0.001924
3708.000000	0.001870
3707.000000	0.001816
3706.000000	0.001781
3705.000000	0.001768
3704.000000	0.001771
3703.000000	0.001775
3702.000000	0.001772
3701.000000	0.001766
3700.000000	0.001767
3699.000000	0.001782
3698.000000	0.001808
3697.000000	0.001832
3696.000000	0.001849
3695.000000	0.001863
3694.000000	0.001876
3693.000000	0.001881
3692.000000	0.001862
3691.000000	0.001816
3690.000000	0.001766
3689.000000	0.001747
3688.000000	0.001763
3687.000000	0.001787
3686.000000	0.001800
3685.000000	0.001809
3684.000000	0.001823
3683.000000	0.001842
3682.000000	0.001859
3681.000000	0.001871
3680.000000	0.001880
3679.000000	0.001898
3678.000000	0.001931
3677.000000	0.001962
3676.000000	0.001957
3675.000000	0.001918
3674.000000	0.001883
3673.000000	0.001866
3672.000000	0.001860
3671.000000	0.001851
3670.000000	0.001844
3669.000000	0.001858
3668.000000	0.001892
3667.000000	0.001925
3666.000000	0.001946
3665.000000	0.001958
3664.000000	0.001970
3663.000000	0.001983
3662.000000	0.001990
3661.000000	0.001982
3660.000000	0.001957
3659.000000	0.001922
3658.000000	0.001892
3657.000000	0.001880
3656.000000	0.001896
3655.000000	0.001930
3654.000000	0.001969
3653.000000	0.002006
3652.000000	0.002038
3651.000000	0.002061
3650.000000	0.002066
3649.000000	0.002051
3648.000000	0.002024
3647.000000	0.001999
3646.000000	0.001979
3645.000000	0.001961
3644.000000	0.001941
3643.000000	0.001921
3642.000000	0.001908
3641.000000	0.001904
3640.000000	0.001912
3639.000000	0.001931
3638.000000	0.001956
3637.000000	0.001984
3636.000000	0.002009
3635.000000	0.002029
3634.000000	0.002044
3633.000000	0.002058
3632.000000	0.002072
3631.000000	0.002077
3630.000000	0.002057
3629.000000	0.002015
3628.000000	0.001991
3627.000000	0.002009
3626.000000	0.002049
3625.000000	0.002082
3624.000000	0.002094
3623.000000	0.002078
3622.000000	0.002037
3621.000000	0.001981
3620.000000	0.001927
3619.000000	0.001902
3618.000000	0.001924
3617.000000	0.001979
3616.000000	0.002046
3615.000000	0.002107
3614.000000	0.002153
3613.000000	0.002183
3612.000000	0.002205
3611.000000	0.002226
3610.000000	0.002250
3609.000000	0.002271
3608.000000	0.002274
3607.000000	0.002257
3606.000000	0.002232
3605.000000	0.002213
3604.000000	0.002205
3603.000000	0.002202
3602.000000	0.002195
3601.000000	0.002178
3600.000000	0.002157
3599.000000	0.002141
3598.000000	0.002138
3597.000000	0.002152
3596.000000	0.002188
3595.000000	0.002241
3594.000000	0.002294
3593.000000	0.002329
3592.000000	0.002342
3591.000000	0.002342
3590.000000	0.002337
3589.000000	0.002329
3588.000000	0.002314
3587.000000	0.002298
3586.000000	0.002305
3585.000000	0.002344
3584.000000	0.002399
3583.000000	0.002448
3582.000000	0.002476
3581.000000	0.002478
3580.000000	0.002457
3579.000000	0.002423
3578.000000	0.002390
3577.000000	0.002371
3576.000000	0.002374
3575.000000	0.002400
3574.000000	0.002442
3573.000000	0.002487
3572.000000	0.002528
3571.000000	0.002565
3570.000000	0.002608
3569.000000	0.002661
3568.000000	0.002711
3567.000000	0.002739
3566.000000	0.002746
3565.000000	0.002753
3564.000000	0.002764
3563.000000	0.002765
3562.000000	0.002748
3561.000000	0.002727
3560.000000	0.002722
3559.000000	0.002740
3558.000000	0.002765
3557.000000	0.002778
3556.000000	0.002777
3555.000000	0.002785
3554.000000	0.002822
3553.000000	0.002888
3552.000000	0.002956
3551.000000	0.003002
3550.000000	0.003020
3549.000000	0.003023
3548.000000	0.003024
3547.000000	0.003025
3546.000000	0.003020
3545.000000	0.003006
3544.000000	0.002992
3543.000000	0.002987
3542.000000	0.002992
3541.000000	0.003001
3540.000000	0.003007
3539.000000	0.003012
3538.000000	0.003023
3537.000000	0.003042
3536.000000	0.003060
3535.000000	0.003065
3534.000000	0.003055
3533.000000	0.003042
3532.000000	0.003040
3531.000000	0.003054
3530.000000	0.003072
3529.000000	0.003083
3528.000000	0.003088
3527.000000	0.003094
3526.000000	0.003108
3525.000000	0.003126
3524.000000	0.003137
3523.000000	0.003134
3522.000000	0.003113
3521.000000	0.003083
3520.000000	0.003052
3519.000000	0.003030
3518.000000	0.003022
3517.000000	0.003026
3516.000000	0.003038
3515.000000	0.003050
3514.000000	0.003058
3513.000000	0.003065
3512.000000	0.003077
3511.000000	0.003091
3510.000000	0.003102
3509.000000	0.003105
3508.000000	0.003108
3507.000000	0.003119
3506.000000	0.003139
3505.000000	0.003158
3504.000000	0.003167
3503.000000	0.003162
3502.000000	0.003152
3501.000000	0.003148
3500.000000	0.003152
3499.000000	0.003160
3498.000000	0.003169
3497.000000	0.003182
3496.000000	0.003197
3495.000000	0.003209
3494.000000	0.003213
3493.000000	0.003211
3492.000000	0.003213
3491.000000	0.003224
3490.000000	0.003239
3489.000000	0.003249
3488.000000	0.003255
3487.000000	0.003265
3486.000000	0.003286
3485.000000	0.003311
3484.000000	0.003329
3483.000000	0.003328
3482.000000	0.003306
3481.000000	0.003272
3480.000000	0.003239
3479.000000	0.003222
3478.000000	0.003225
3477.000000	0.003242
3476.000000	0.003262
3475.000000	0.003280
3474.000000	0.003299
3473.000000	0.003325
3472.000000	0.003357
3471.000000	0.003389
3470.000000	0.003410
3469.000000	0.003413
3468.000000	0.003402
3467.000000	0.003388
3466.000000	0.003385
3465.000000	0.003400
3464.000000	0.003424
3463.000000	0.003444
3462.000000	0.003451
3461.000000	0.003439
3460.000000	0.003414
3459.000000	0.003389
3458.000000	0.003377
3457.000000	0.003384
3456.000000	0.003404
3455.000000	0.003427
3454.000000	0.003445
3453.000000	0.003461
3452.000000	0.003480
3451.000000	0.003502
3450.000000	0.003524
3449.000000	0.003541
3448.000000	0.003554
3447.000000	0.003568
3446.000000	0.003591
3445.000000	0.003618
3444.000000	0.003636
3443.000000	0.003629
3442.000000	0.003601
3441.000000	0.003568
3440.000000	0.003550
3439.000000	0.003550
3438.000000	0.003560
3437.000000	0.003571
3436.000000	0.003583
3435.000000	0.003599
3434.000000	0.003613
3433.000000	0.003617
3432.000000	0.003609
3431.000000	0.003595
3430.000000	0.003585
3429.000000	0.003584
3428.000000	0.003593
3427.000000	0.003611
3426.000000	0.003634
3425.000000	0.003663
3424.000000	0.003695
3423.000000	0.003723
3422.000000	0.003740
3421.000000	0.003746
3420.000000	0.003745
3419.000000	0.003748
3418.000000	0.003763
3417.000000	0.003797
3416.000000	0.003845
3415.000000	0.003893
3414.000000	0.003925
3413.000000	0.003935
3412.000000	0.003936
3411.000000	0.003945
3410.000000	0.003966
3409.000000	0.003983
3408.000000	0.003984
3407.000000	0.003968
3406.000000	0.003943
3405.000000	0.003922
3404.000000	0.003911
3403.000000	0.003915
3402.000000	0.003935
3401.000000	0.003965
3400.000000	0.003993
3399.000000	0.004009
3398.000000	0.004010
3397.000000	0.004006
3396.000000	0.004010
3395.000000	0.004032
3394.000000	0.004059
3393.000000	0.004071
3392.000000	0.004054
3391.000000	0.004017
3390.000000	0.003982
3389.000000	0.003967
3388.000000	0.003975
3387.000000	0.003999
3386.000000	0.004028
3385.000000	0.004054
3384.000000	0.004075
3383.000000	0.004091
3382.000000	0.004107
3381.000000	0.004123
3380.000000	0.004133
3379.000000	0.004133
3378.000000	0.004120
3377.000000	0.004099
3376.000000	0.004083
3375.000000	0.004079
3374.000000	0.004091
3373.000000	0.004112
3372.000000	0.004133
3371.000000	0.004151
3370.000000	0.004167
3369.000000	0.004181
3368.000000	0.004191
3367.000000	0.004194
3366.000000	0.004192
3365.000000	0.004185
3364.000000	0.004172
3363.000000	0.004152
3362.000000	0.004129
3361.000000	0.004113
3360.000000	0.004110
3359.000000	0.004124
3358.000000	0.004149
3357.000000	0.004173
3356.000000	0.004185
3355.000000	0.004182
3354.000000	0.004177
3353.000000	0.004185
3352.000000	0.004208
3351.000000	0.004237
3350.000000	0.004260
3349.000000	0.004272
3348.000000	0.004270
3347.000000	0.004259
3346.000000	0.004244
3345.000000	0.004233
3344.000000	0.004232
3343.000000	0.004242
3342.000000	0.004256
3341.000000	0.004265
3340.000000	0.004266
3339.000000	0.004264
3338.000000	0.004270
3337.000000	0.004292
3336.000000	0.004324
3335.000000	0.004354
3334.000000	0.004374
3333.000000	0.004386
3332.000000	0.004392
3331.000000	0.004387
3330.000000	0.004371
3329.000000	0.004348
3328.000000	0.004330
3327.000000	0.004324
3326.000000	0.004329
3325.000000	0.004341
3324.000000	0.004353
3323.000000	0.004359
3322.000000	0.004358
3321.000000	0.004353
3320.000000	0.004349
3319.000000	0.004351
3318.000000	0.004362
3317.000000	0.004384
3316.000000	0.004414
3315.000000	0.004444
3314.000000	0.004464
3313.000000	0.004469
3312.000000	0.004469
3311.000000	0.004472
3310.000000	0.004478
3309.000000	0.004483
3308.000000	0.004485
3307.000000	0.004489
3306.000000	0.004498
3305.000000	0.004513
3304.000000	0.004531
3303.000000	0.004544
3302.000000	0.004547
3301.000000	0.004542
3300.000000	0.004538
3299.000000	0.004547
3298.000000	0.004567
3297.000000	0.004586
3296.000000	0.004593
3295.000000	0.004589
3294.000000	0.004579
3293.000000	0.004570
3292.000000	0.004561
3291.000000	0.004551
3290.000000	0.004538
3289.000000	0.004523
3288.000000	0.004506
3287.000000	0.004489
3286.000000	0.004472
3285.000000	0.004458
3284.000000	0.004448
3283.000000	0.004449
3282.000000	0.004462
3281.000000	0.004483
3280.000000	0.004496
3279.000000	0.004489
3278.000000	0.004466
3277.000000	0.004445
3276.000000	0.004442
3275.000000	0.004455
3274.000000	0.004471
3273.000000	0.004474
3272.000000	0.004464
3271.000000	0.004455
3270.000000	0.004463
3269.000000	0.004488
3268.000000	0.004517
3267.000000	0.004534
3266.000000	0.004531
3265.000000	0.004513
3264.000000	0.004494
3263.000000	0.004483
3262.000000	0.004480
3261.000000	0.004478
3260.000000	0.004471
3259.000000	0.004461
3258.000000	0.004452
3257.000000	0.004448
3256.000000	0.004443
3255.000000	0.004437
3254.000000	0.004433
3253.000000	0.004433
3252.000000	0.004432
3251.000000	0.004423
3250.000000	0.004408
3249.000000	0.004399
3248.000000	0.004405
3247.000000	0.004422
3246.000000	0.004437
3245.000000	0.004441
3244.000000	0.004431
3243.000000	0.004409
3242.000000	0.004381
3241.000000	0.004355
3240.000000	0.004335
3239.000000	0.004324
3238.000000	0.004320
3237.000000	0.004323
3236.000000	0.004327
3235.000000	0.004325
3234.000000	0.004310
3233.000000	0.004289
3232.000000	0.004276
3231.000000	0.004277
3230.000000	0.004282
3229.000000	0.004282
3228.000000	0.004274
3227.000000	0.004265
3226.000000	0.004261
3225.000000	0.004263
3224.000000	0.004270
3223.000000	0.004280
3222.000000	0.004284
3221.000000	0.004277
3220.000000	0.004261
3219.000000	0.004246
3218.000000	0.004238
3217.000000	0.004239
3216.000000	0.004244
3215.000000	0.004249
3214.000000	0.004252
3213.000000	0.004250
3212.000000	0.004242
3211.000000	0.004229
3210.000000	0.004216
3209.000000	0.004208
3208.000000	0.004209
3207.000000	0.004218
3206.000000	0.004226
3205.000000	0.004226
3204.000000	0.004213
3203.000000	0.004192
3202.000000	0.004171
3201.000000	0.004155
3200.000000	0.004147
3199.000000	0.004145
3198.000000	0.004149
3197.000000	0.004155
3196.000000	0.004156
3195.000000	0.004148
3194.000000	0.004133
3193.000000	0.004116
3192.000000	0.004103
3191.000000	0.004098
3190.000000	0.004098
3189.000000	0.004100
3188.000000	0.004102
3187.000000	0.004103
3186.000000	0.004103
3185.000000	0.004105
3184.000000	0.004110
3183.000000	0.004117
3182.000000	0.004122
3181.000000	0.004123
3180.000000	0.004118
3179.000000	0.004109
3178.000000	0.004094
3177.000000	0.004075
3176.000000	0.004054
3175.000000	0.004034
3174.000000	0.004017
3173.000000	0.004000
3172.000000	0.003985
3171.000000	0.003982
3170.000000	0.003994
3169.000000	0.004012
3168.000000	0.004021
3167.000000	0.004010
3166.000000	0.003986
3165.000000	0.003963
3164.000000	0.003943
3163.000000	0.003927
3162.000000	0.003914
3161.000000	0.003907
3160.000000	0.003911
3159.000000	0.003924
3158.000000	0.003937
3157.000000	0.003943
3156.000000	0.003938
3155.000000	0.003930
3154.000000	0.003930
3153.000000	0.003942
3152.000000	0.003957
3151.000000	0.003968
3150.000000	0.003971
3149.000000	0.003973
3148.000000	0.003974
3147.000000	0.003975
3146.000000	0.003972
3145.000000	0.003965
3144.000000	0.003953
3143.000000	0.003936
3142.000000	0.003913
3141.000000	0.003889
3140.000000	0.003869
3139.000000	0.003857
3138.000000	0.003851
3137.000000	0.003844
3136.000000	0.003829
3135.000000	0.003808
3134.000000	0.003791
3133.000000	0.003787
3132.000000	0.003797
3131.000000	0.003813
3130.000000	0.003824
3129.000000	0.003830
3128.000000	0.003836
3127.000000	0.003844
3126.000000	0.003849
3125.000000	0.003846
3124.000000	0.003835
3123.000000	0.003823
3122.000000	0.003818
3121.000000	0.003818
3120.000000	0.003820
3119.000000	0.003824
3118.000000	0.003829
3117.000000	0.003836
3116.000000	0.003838
3115.000000	0.003833
3114.000000	0.003828
3113.000000	0.003829
3112.000000	0.003842
3111.000000	0.003864
3110.000000	0.003882
3109.000000	0.003882
3108.000000	0.003857
3107.000000	0.003818
3106.000000	0.003780
3105.000000	0.003759
3104.000000	0.003756
3103.000000	0.003767
3102.000000	0.003780
3101.000000	0.003790
3100.000000	0.003793
3099.000000	0.003790
3098.000000	0.003781
3097.000000	0.003765
3096.000000	0.003740
3095.000000	0.003714
3094.000000	0.003702
3093.000000	0.003712
3092.000000	0.003741
3091.000000	0.003773
3090.000000	0.003791
3089.000000	0.003789
3088.000000	0.003774
3087.000000	0.003761
3086.000000	0.003759
3085.000000	0.003766
3084.000000	0.003770
3083.000000	0.003761
3082.000000	0.003741
3081.000000	0.003724
3080.000000	0.003720
3079.000000	0.003730
3078.000000	0.003749
3077.000000	0.003766
3076.000000	0.003772
3075.000000	0.003762
3074.000000	0.003744
3073.000000	0.003730
3072.000000	0.003730
3071.000000	0.003745
3070.000000	0.003766
3069.000000	0.003784
3068.000000	0.003790
3067.000000	0.003784
3066.000000	0.003769
3065.000000	0.003754
3064.000000	0.003746
3063.000000	0.003746
3062.000000	0.003750
3061.000000	0.003752
3060.000000	0.003751
3059.000000	0.003750
3058.000000	0.003751
3057.000000	0.003752
3056.000000	0.003748
3055.000000	0.003740
3054.000000	0.003730
3053.000000	0.003720
3052.000000	0.003707
3051.000000	0.003694
3050.000000	0.003691
3049.000000	0.003706
3048.000000	0.003731
3047.000000	0.003751
3046.000000	0.003752
3045.000000	0.003741
3044.000000	0.003729
3043.000000	0.003727
3042.000000	0.003735
3041.000000	0.003746
3040.000000	0.003747
3039.000000	0.003730
3038.000000	0.003697
3037.000000	0.003662
3036.000000	0.003644
3035.000000	0.003651
3034.000000	0.003677
3033.000000	0.003703
3032.000000	0.003714
3031.000000	0.003710
3030.000000	0.003703
3029.000000	0.003704
3028.000000	0.003713
3027.000000	0.003724
3026.000000	0.003735
3025.000000	0.003747
3024.000000	0.003762
3023.000000	0.003777
3022.000000	0.003791
3021.000000	0.003807
3020.000000	0.003823
3019.000000	0.003833
3018.000000	0.003834
3017.000000	0.003831
3016.000000	0.003833
3015.000000	0.003845
3014.000000	0.003863
3013.000000	0.003881
3012.000000	0.003897
3011.000000	0.003916
3010.000000	0.003949
3009.000000	0.003996
3008.000000	0.004047
3007.000000	0.004088
3006.000000	0.004114
3005.000000	0.004135
3004.000000	0.004162
3003.000000	0.004202
3002.000000	0.004255
3001.000000	0.004317
3000.000000	0.004383
2999.000000	0.004446
2998.000000	0.004503
2997.000000	0.004552
2996.000000	0.004598
2995.000000	0.004652
2994.000000	0.004724
2993.000000	0.004817
2992.000000	0.004919
2991.000000	0.005020
2990.000000	0.005120
2989.000000	0.005225
2988.000000	0.005337
2987.000000	0.005451
2986.000000	0.005561
2985.000000	0.005669
2984.000000	0.005783
2983.000000	0.005906
2982.000000	0.006038
2981.000000	0.006182
2980.000000	0.006335
2979.000000	0.006493
2978.000000	0.006659
2977.000000	0.006840
2976.000000	0.007046
2975.000000	0.007270
2974.000000	0.007502
2973.000000	0.007735
2972.000000	0.007969
2971.000000	0.008213
2970.000000	0.008471
2969.000000	0.008742
2968.000000	0.009015
2967.000000	0.009274
2966.000000	0.009513
2965.000000	0.009736
2964.000000	0.009953
2963.000000	0.010166
2962.000000	0.010363
2961.000000	0.010527
2960.000000	0.010640
2959.000000	0.010697
2958.000000	0.010702
2957.000000	0.010666
2956.000000	0.010597
2955.000000	0.010497
2954.000000	0.010370
2953.000000	0.010228
2952.000000	0.010089
2951.000000	0.009968
2950.000000	0.009877
2949.000000	0.009820
2948.000000	0.009796
2947.000000	0.009801
2946.000000	0.009836
2945.000000	0.009907
2944.000000	0.010020
2943.000000	0.010177
2942.000000	0.010371
2941.000000	0.010597
2940.000000	0.010842
2939.000000	0.011093
2938.000000	0.011343
2937.000000	0.011589
2936.000000	0.011834
2935.000000	0.012075
2934.000000	0.012297
2933.000000	0.012487
2932.000000	0.012640
2931.000000	0.012758
2930.000000	0.012843
2929.000000	0.012891
2928.000000	0.012901
2927.000000	0.012873
2926.000000	0.012818
2925.000000	0.012744
2924.000000	0.012645
2923.000000	0.012506
2922.000000	0.012314
2921.000000	0.012080
2920.000000	0.011830
2919.000000	0.011589
2918.000000	0.011371
2917.000000	0.011180
2916.000000	0.011017
2915.000000	0.010870
2914.000000	0.010727
2913.000000	0.010582
2912.000000	0.010440
2911.000000	0.010309
2910.000000	0.010185
2909.000000	0.010062
2908.000000	0.009931
2907.000000	0.009790
2906.000000	0.009642
2905.000000	0.009483
2904.000000	0.009311
2903.000000	0.009124
2902.000000	0.008931
2901.000000	0.008737
2900.000000	0.008547
2899.000000	0.008355
2898.000000	0.008160
2897.000000	0.007970
2896.000000	0.007797
2895.000000	0.007646
2894.000000	0.007511
2893.000000	0.007379
2892.000000	0.007245
2891.000000	0.007113
2890.000000	0.006993
2889.000000	0.006893
2888.000000	0.006822
2887.000000	0.006781
2886.000000	0.006767
2885.000000	0.006778
2884.000000	0.006808
2883.000000	0.006852
2882.000000	0.006911
2881.000000	0.006993
2880.000000	0.007108
2879.000000	0.007253
2878.000000	0.007415
2877.000000	0.007583
2876.000000	0.007748
2875.000000	0.007905
2874.000000	0.008043
2873.000000	0.008146
2872.000000	0.008209
2871.000000	0.008235
2870.000000	0.008242
2869.000000	0.008249
2868.000000	0.008270
2867.000000	0.008310
2866.000000	0.008365
2865.000000	0.008437
2864.000000	0.008529
2863.000000	0.008638
2862.000000	0.008753
2861.000000	0.008859
2860.000000	0.008949
2859.000000	0.009019
2858.000000	0.009063
2857.000000	0.009069
2856.000000	0.009029
2855.000000	0.008938
2854.000000	0.008800
2853.000000	0.008613
2852.000000	0.008378
2851.000000	0.008103
2850.000000	0.007807
2849.000000	0.007517
2848.000000	0.007255
2847.000000	0.007026
2846.000000	0.006821
2845.000000	0.006623
2844.000000	0.006423
2843.000000	0.006220
2842.000000	0.006023
2841.000000	0.005844
2840.000000	0.005690
2839.000000	0.005562
2838.000000	0.005453
2837.000000	0.005357
2836.000000	0.005268
2835.000000	0.005187
2834.000000	0.005116
2833.000000	0.005057
2832.000000	0.005007
2831.000000	0.004964
2830.000000	0.004921
2829.000000	0.004879
2828.000000	0.004838
2827.000000	0.004800
2826.000000	0.004764
2825.000000	0.004737
2824.000000	0.004726
2823.000000	0.004733
2822.000000	0.004748
2821.000000	0.004755
2820.000000	0.004742
2819.000000	0.004709
2818.000000	0.004667
2817.000000	0.004628
2816.000000	0.004599
2815.000000	0.004577
2814.000000	0.004552
2813.000000	0.004517
2812.000000	0.004475
2811.000000	0.004438
2810.000000	0.004416
2809.000000	0.004405
2808.000000	0.004394
2807.000000	0.004376
2806.000000	0.004356
2805.000000	0.004339
2804.000000	0.004324
2803.000000	0.004305
2802.000000	0.004282
2801.000000	0.004258
2800.000000	0.004240
2799.000000	0.004231
2798.000000	0.004225
2797.000000	0.004220
2796.000000	0.004216
2795.000000	0.004213
2794.000000	0.004209
2793.000000	0.004206
2792.000000	0.004206
2791.000000	0.004211
2790.000000	0.004217
2789.000000	0.004216
2788.000000	0.004205
2787.000000	0.004188
2786.000000	0.004171
2785.000000	0.004156
2784.000000	0.004142
2783.000000	0.004129
2782.000000	0.004119
2781.000000	0.004113
2780.000000	0.004109
2779.000000	0.004103
2778.000000	0.004094
2777.000000	0.004082
2776.000000	0.004068
2775.000000	0.004056
2774.000000	0.004047
2773.000000	0.004041
2772.000000	0.004036
2771.000000	0.004032
2770.000000	0.004030
2769.000000	0.004035
2768.000000	0.004042
2767.000000	0.004043
2766.000000	0.004036
2765.000000	0.004025
2764.000000	0.004020
2763.000000	0.004022
2762.000000	0.004025
2761.000000	0.004025
2760.000000	0.004022
2759.000000	0.004021
2758.000000	0.004024
2757.000000	0.004024
2756.000000	0.004017
2755.000000	0.004002
2754.000000	0.003989
2753.000000	0.003984
2752.000000	0.003991
2751.000000	0.004005
2750.000000	0.004019
2749.000000	0.004031
2748.000000	0.004039
2747.000000	0.004040
2746.000000	0.004034
2745.000000	0.004022
2744.000000	0.004012
2743.000000	0.004006
2742.000000	0.004004
2741.000000	0.003998
2740.000000	0.003985
2739.000000	0.003967
2738.000000	0.003956
2737.000000	0.003957
2736.000000	0.003968
2735.000000	0.003975
2734.000000	0.003971
2733.000000	0.003960
2732.000000	0.003952
2731.000000	0.003956
2730.000000	0.003972
2729.000000	0.003995
2728.000000	0.004014
2727.000000	0.004024
2726.000000	0.004022
2725.000000	0.004012
2724.000000	0.003999
2723.000000	0.003984
2722.000000	0.003968
2721.000000	0.003951
2720.000000	0.003935
2719.000000	0.003922
2718.000000	0.003912
2717.000000	0.003907
2716.000000	0.003903
2715.000000	0.003898
2714.000000	0.003895
2713.000000	0.003894
2712.000000	0.003892
2711.000000	0.003882
2710.000000	0.003864
2709.000000	0.003849
2708.000000	0.003849
2707.000000	0.003863
2706.000000	0.003883
2705.000000	0.003901
2704.000000	0.003918
2703.000000	0.003938
2702.000000	0.003959
2701.000000	0.003974
2700.000000	0.003979
2699.000000	0.003974
2698.000000	0.003962
2697.000000	0.003949
2696.000000	0.003937
2695.000000	0.003924
2694.000000	0.003914
2693.000000	0.003912
2692.000000	0.003921
2691.000000	0.003929
2690.000000	0.003922
2689.000000	0.003898
2688.000000	0.003872
2687.000000	0.003862
2686.000000	0.003869
2685.000000	0.003877
2684.000000	0.003875
2683.000000	0.003861
2682.000000	0.003846
2681.000000	0.003840
2680.000000	0.003844
2679.000000	0.003855
2678.000000	0.003870
2677.000000	0.003888
2676.000000	0.003907
2675.000000	0.003921
2674.000000	0.003926
2673.000000	0.003922
2672.000000	0.003911
2671.000000	0.003897
2670.000000	0.003881
2669.000000	0.003867
2668.000000	0.003864
2667.000000	0.003873
2666.000000	0.003892
2665.000000	0.003917
2664.000000	0.003942
2663.000000	0.003963
2662.000000	0.003971
2661.000000	0.003964
2660.000000	0.003949
2659.000000	0.003936
2658.000000	0.003931
2657.000000	0.003932
2656.000000	0.003932
2655.000000	0.003932
2654.000000	0.003935
2653.000000	0.003938
2652.000000	0.003936
2651.000000	0.003921
2650.000000	0.003895
2649.000000	0.003865
2648.000000	0.003838
2647.000000	0.003813
2646.000000	0.003787
2645.000000	0.003758
2644.000000	0.003733
2643.000000	0.003721
2642.000000	0.003727
2641.000000	0.003743
2640.000000	0.003753
2639.000000	0.003745
2638.000000	0.003724
2637.000000	0.003704
2636.000000	0.003695
2635.000000	0.003694
2634.000000	0.003696
2633.000000	0.003696
2632.000000	0.003694
2631.000000	0.003688
2630.000000	0.003679
2629.000000	0.003672
2628.000000	0.003675
2627.000000	0.003684
2626.000000	0.003684
2625.000000	0.003663
2624.000000	0.003617
2623.000000	0.003565
2622.000000	0.003527
2621.000000	0.003513
2620.000000	0.003516
2619.000000	0.003519
2618.000000	0.003513
2617.000000	0.003507
2616.000000	0.003513
2615.000000	0.003535
2614.000000	0.003560
2613.000000	0.003577
2612.000000	0.003585
2611.000000	0.003592
2610.000000	0.003603
2609.000000	0.003610
2608.000000	0.003598
2607.000000	0.003564
2606.000000	0.003520
2605.000000	0.003489
2604.000000	0.003486
2603.000000	0.003499
2602.000000	0.003506
2601.000000	0.003492
2600.000000	0.003462
2599.000000	0.003430
2598.000000	0.003404
2597.000000	0.003384
2596.000000	0.003368
2595.000000	0.003360
2594.000000	0.003363
2593.000000	0.003372
2592.000000	0.003385
2591.000000	0.003397
2590.000000	0.003402
2589.000000	0.003398
2588.000000	0.003394
2587.000000	0.003404
2586.000000	0.003429
2585.000000	0.003448
2584.000000	0.003445
2583.000000	0.003432
2582.000000	0.003433
2581.000000	0.003452
2580.000000	0.003462
2579.000000	0.003443
2578.000000	0.003405
2577.000000	0.003374
2576.000000	0.003367
2575.000000	0.003382
2574.000000	0.003409
2573.000000	0.003434
2572.000000	0.003444
2571.000000	0.003439
2570.000000	0.003428
2569.000000	0.003422
2568.000000	0.003424
2567.000000	0.003426
2566.000000	0.003422
2565.000000	0.003405
2564.000000	0.003373
2563.000000	0.003334
2562.000000	0.003305
2561.000000	0.003295
2560.000000	0.003299
2559.000000	0.003305
2558.000000	0.003313
2557.000000	0.003325
2556.000000	0.003335
2555.000000	0.003332
2554.000000	0.003315
2553.000000	0.003292
2552.000000	0.003271
2551.000000	0.003257
2550.000000	0.003260
2549.000000	0.003285
2548.000000	0.003326
2547.000000	0.003371
2546.000000	0.003417
2545.000000	0.003463
2544.000000	0.003498
2543.000000	0.003504
2542.000000	0.003475
2541.000000	0.003421
2540.000000	0.003365
2539.000000	0.003325
2538.000000	0.003314
2537.000000	0.003334
2536.000000	0.003376
2535.000000	0.003422
2534.000000	0.003462
2533.000000	0.003496
2532.000000	0.003529
2531.000000	0.003560
2530.000000	0.003589
2529.000000	0.003611
2528.000000	0.003616
2527.000000	0.003598
2526.000000	0.003570
2525.000000	0.003556
2524.000000	0.003566
2523.000000	0.003596
2522.000000	0.003642
2521.000000	0.003704
2520.000000	0.003767
2519.000000	0.003806
2518.000000	0.003807
2517.000000	0.003785
2516.000000	0.003771
2515.000000	0.003782
2514.000000	0.003815
2513.000000	0.003856
2512.000000	0.003889
2511.000000	0.003896
2510.000000	0.003875
2509.000000	0.003835
2508.000000	0.003790
2507.000000	0.003741
2506.000000	0.003688
2505.000000	0.003640
2504.000000	0.003601
2503.000000	0.003567
2502.000000	0.003534
2501.000000	0.003510
2500.000000	0.003501
2499.000000	0.003495
2498.000000	0.003476
2497.000000	0.003448
2496.000000	0.003430
2495.000000	0.003428
2494.000000	0.003424
2493.000000	0.003400
2492.000000	0.003363
2491.000000	0.003332
2490.000000	0.003312
2489.000000	0.003293
2488.000000	0.003262
2487.000000	0.003221
2486.000000	0.003188
2485.000000	0.003181
2484.000000	0.003196
2483.000000	0.003215
2482.000000	0.003218
2481.000000	0.003203
2480.000000	0.003188
2479.000000	0.003187
2478.000000	0.003204
2477.000000	0.003222
2476.000000	0.003219
2475.000000	0.003185
2474.000000	0.003134
2473.000000	0.003096
2472.000000	0.003087
2471.000000	0.003100
2470.000000	0.003115
2469.000000	0.003128
2468.000000	0.003139
2467.000000	0.003148
2466.000000	0.003143
2465.000000	0.003124
2464.000000	0.003112
2463.000000	0.003125
2462.000000	0.003164
2461.000000	0.003204
2460.000000	0.003222
2459.000000	0.003207
2458.000000	0.003166
2457.000000	0.003119
2456.000000	0.003086
2455.000000	0.003083
2454.000000	0.003109
2453.000000	0.003145
2452.000000	0.003171
2451.000000	0.003179
2450.000000	0.003181
2449.000000	0.003189
2448.000000	0.003199
2447.000000	0.003203
2446.000000	0.003198
2445.000000	0.003191
2444.000000	0.003189
2443.000000	0.003184
2442.000000	0.003162
2441.000000	0.003118
2440.000000	0.003064
2439.000000	0.003029
2438.000000	0.003034
2437.000000	0.003076
2436.000000	0.003133
2435.000000	0.003183
2434.000000	0.003222
2433.000000	0.003248
2432.000000	0.003252
2431.000000	0.003227
2430.000000	0.003182
2429.000000	0.003137
2428.000000	0.003113
2427.000000	0.003111
2426.000000	0.003128
2425.000000	0.003154
2424.000000	0.003176
2423.000000	0.003184
2422.000000	0.003179
2421.000000	0.003165
2420.000000	0.003144
2419.000000	0.003110
2418.000000	0.003069
2417.000000	0.003036
2416.000000	0.003020
2415.000000	0.003013
2414.000000	0.003010
2413.000000	0.003015
2412.000000	0.003036
2411.000000	0.003067
2410.000000	0.003092
2409.000000	0.003102
2408.000000	0.003100
2407.000000	0.003092
2406.000000	0.003085
2405.000000	0.003080
2404.000000	0.003080
2403.000000	0.003080
2402.000000	0.003079
2401.000000	0.003079
2400.000000	0.003082
2399.000000	0.003083
2398.000000	0.003076
2397.000000	0.003062
2396.000000	0.003051
2395.000000	0.003051
2394.000000	0.003062
2393.000000	0.003073
2392.000000	0.003071
2391.000000	0.003057
2390.000000	0.003040
2389.000000	0.003030
2388.000000	0.003026
2387.000000	0.003020
2386.000000	0.003000
2385.000000	0.002957
2384.000000	0.002892
2383.000000	0.002813
2382.000000	0.002742
2381.000000	0.002697
2380.000000	0.002680
2379.000000	0.002686
2378.000000	0.002710
2377.000000	0.002747
2376.000000	0.002788
2375.000000	0.002822
2374.000000	0.002844
2373.000000	0.002855
2372.000000	0.002855
2371.000000	0.002840
2370.000000	0.002811
2369.000000	0.002753
2368.000000	0.002673
2367.000000	0.002614
2366.000000	0.002632
2365.000000	0.002718
2364.000000	0.002799
2363.000000	0.002824
2362.000000	0.002824
2361.000000	0.002841
2360.000000	0.002874
2359.000000	0.002888
2358.000000	0.002866
2357.000000	0.002825
2356.000000	0.002799
2355.000000	0.002821
2354.000000	0.002861
2353.000000	0.002865
2352.000000	0.002827
2351.000000	0.002805
2350.000000	0.002834
2349.000000	0.002903
2348.000000	0.002971
2347.000000	0.002991
2346.000000	0.002957
2345.000000	0.002933
2344.000000	0.002969
2343.000000	0.003042
2342.000000	0.003080
2341.000000	0.003050
2340.000000	0.003001
2339.000000	0.002997
2338.000000	0.003038
2337.000000	0.003072
2336.000000	0.003066
2335.000000	0.003024
2334.000000	0.002963
2333.000000	0.002895
2332.000000	0.002854
2331.000000	0.002859
2330.000000	0.002911
2329.000000	0.002987
2328.000000	0.003098
2327.000000	0.003237
2326.000000	0.003372
2325.000000	0.003449
2324.000000	0.003448
2323.000000	0.003387
2322.000000	0.003311
2321.000000	0.003261
2320.000000	0.003263
2319.000000	0.003302
2318.000000	0.003347
2317.000000	0.003370
2316.000000	0.003366
2315.000000	0.003326
2314.000000	0.003260
2313.000000	0.003181
2312.000000	0.003120
2311.000000	0.003085
2310.000000	0.003079
2309.000000	0.003095
2308.000000	0.003125
2307.000000	0.003140
2306.000000	0.003117
2305.000000	0.003061
2304.000000	0.003008
2303.000000	0.002984
2302.000000	0.002986
2301.000000	0.003008
2300.000000	0.003053
2299.000000	0.003114
2298.000000	0.003168
2297.000000	0.003185
2296.000000	0.003171
2295.000000	0.003143
2294.000000	0.003121
2293.000000	0.003112
2292.000000	0.003125
2291.000000	0.003161
2290.000000	0.003212
2289.000000	0.003265
2288.000000	0.003308
2287.000000	0.003335
2286.000000	0.003349
2285.000000	0.003369
2284.000000	0.003404
2283.000000	0.003438
2282.000000	0.003428
2281.000000	0.003352
2280.000000	0.003239
2279.000000	0.003144
2278.000000	0.003096
2277.000000	0.003079
2276.000000	0.003062
2275.000000	0.003032
2274.000000	0.002998
2273.000000	0.002975
2272.000000	0.002966
2271.000000	0.002968
2270.000000	0.002986
2269.000000	0.003026
2268.000000	0.003073
2267.000000	0.003083
2266.000000	0.003025
2265.000000	0.002928
2264.000000	0.002865
2263.000000	0.002882
2262.000000	0.002962
2261.000000	0.003055
2260.000000	0.003124
2259.000000	0.003159
2258.000000	0.003162
2257.000000	0.003144
2256.000000	0.003129
2255.000000	0.003129
2254.000000	0.003136
2253.000000	0.003131
2252.000000	0.003107
2251.000000	0.003078
2250.000000	0.003054
2249.000000	0.003029
2248.000000	0.002994
2247.000000	0.002947
2246.000000	0.002902
2245.000000	0.002882
2244.000000	0.002902
2243.000000	0.002949
2242.000000	0.003000
2241.000000	0.003041
2240.000000	0.003078
2239.000000	0.003118
2238.000000	0.003138
2237.000000	0.003104
2236.000000	0.003005
2235.000000	0.002885
2234.000000	0.002814
2233.000000	0.002821
2232.000000	0.002872
2231.000000	0.002906
2230.000000	0.002894
2229.000000	0.002853
2228.000000	0.002808
2227.000000	0.002775
2226.000000	0.002776
2225.000000	0.002835
2224.000000	0.002938
2223.000000	0.003012
2222.000000	0.002995
2221.000000	0.002911
2220.000000	0.002833
2219.000000	0.002797
2218.000000	0.002765
2217.000000	0.002695
2216.000000	0.002603
2215.000000	0.002542
2214.000000	0.002541
2213.000000	0.002576
2212.000000	0.002593
2211.000000	0.002557
2210.000000	0.002478
2209.000000	0.002404
2208.000000	0.002390
2207.000000	0.002449
2206.000000	0.002551
2205.000000	0.002651
2204.000000	0.002727
2203.000000	0.002789
2202.000000	0.002850
2201.000000	0.002892
2200.000000	0.002873
2199.000000	0.002792
2198.000000	0.002724
2197.000000	0.002756
2196.000000	0.002872
2195.000000	0.002952
2194.000000	0.002898
2193.000000	0.002748
2192.000000	0.002623
2191.000000	0.002587
2190.000000	0.002614
2189.000000	0.002657
2188.000000	0.002693
2187.000000	0.002704
2186.000000	0.002671
2185.000000	0.002596
2184.000000	0.002496
2183.000000	0.002365
2182.000000	0.002193
2181.000000	0.002033
2180.000000	0.001976
2179.000000	0.002052
2178.000000	0.002192
2177.000000	0.002305
2176.000000	0.002367
2175.000000	0.002398
2174.000000	0.002403
2173.000000	0.002376
2172.000000	0.002357
2171.000000	0.002430
2170.000000	0.002653
2169.000000	0.002987
2168.000000	0.003295
2167.000000	0.003427
2166.000000	0.003346
2165.000000	0.003172
2164.000000	0.003089
2163.000000	0.003168
2162.000000	0.003303
2161.000000	0.003312
2160.000000	0.003096
2159.000000	0.002688
2158.000000	0.002202
2157.000000	0.001767
2156.000000	0.001488
2155.000000	0.001401
2154.000000	0.001480
2153.000000	0.001662
2152.000000	0.001875
2151.000000	0.002059
2150.000000	0.002159
2149.000000	0.002139
2148.000000	0.002013
2147.000000	0.001853
2146.000000	0.001752
2145.000000	0.001764
2144.000000	0.001888
2143.000000	0.002076
2142.000000	0.002284
2141.000000	0.002475
2140.000000	0.002611
2139.000000	0.002658
2138.000000	0.002611
2137.000000	0.002509
2136.000000	0.002401
2135.000000	0.002300
2134.000000	0.002190
2133.000000	0.002077
2132.000000	0.001996
2131.000000	0.001972
2130.000000	0.001998
2129.000000	0.002067
2128.000000	0.002194
2127.000000	0.002382
2126.000000	0.002580
2125.000000	0.002709
2124.000000	0.002741
2123.000000	0.002721
2122.000000	0.002718
2121.000000	0.002750
2120.000000	0.002793
2119.000000	0.002831
2118.000000	0.002874
2117.000000	0.002929
2116.000000	0.002980
2115.000000	0.002997
2114.000000	0.002974
2113.000000	0.002927
2112.000000	0.002882
2111.000000	0.002865
2110.000000	0.002891
2109.000000	0.002947
2108.000000	0.002993
2107.000000	0.002993
2106.000000	0.002948
2105.000000	0.002893
2104.000000	0.002866
2103.000000	0.002878
2102.000000	0.002910
2101.000000	0.002928
2100.000000	0.002913
2099.000000	0.002865
2098.000000	0.002806
2097.000000	0.002754
2096.000000	0.002721
2095.000000	0.002720
2094.000000	0.002759
2093.000000	0.002829
2092.000000	0.002895
2091.000000	0.002920
2090.000000	0.002896
2089.000000	0.002843
2088.000000	0.002792
2087.000000	0.002771
2086.000000	0.002786
2085.000000	0.002819
2084.000000	0.002851
2083.000000	0.002887
2082.000000	0.002950
2081.000000	0.003033
2080.000000	0.003096
2079.000000	0.003118
2078.000000	0.003137
2077.000000	0.003188
2076.000000	0.003237
2075.000000	0.003208
2074.000000	0.003084
2073.000000	0.002933
2072.000000	0.002829
2071.000000	0.002788
2070.000000	0.002784
2069.000000	0.002798
2068.000000	0.002819
2067.000000	0.002835
2066.000000	0.002836
2065.000000	0.002827
2064.000000	0.002816
2063.000000	0.002801
2062.000000	0.002786
2061.000000	0.002775
2060.000000	0.002773
2059.000000	0.002783
2058.000000	0.002812
2057.000000	0.002854
2056.000000	0.002888
2055.000000	0.002910
2054.000000	0.002969
2053.000000	0.003104
2052.000000	0.003254
2051.000000	0.003273
2050.000000	0.003065
2049.000000	0.002695
2048.000000	0.002356
2047.000000	0.002224
2046.000000	0.002341
2045.000000	0.002608
2044.000000	0.002842
2043.000000	0.002890
2042.000000	0.002734
2041.000000	0.002488
2040.000000	0.002297
2039.000000	0.002245
2038.000000	0.002346
2037.000000	0.002552
2036.000000	0.002734
2035.000000	0.002761
2034.000000	0.002623
2033.000000	0.002431
2032.000000	0.002268
2031.000000	0.002120
2030.000000	0.001978
2029.000000	0.001911
2028.000000	0.001971
2027.000000	0.002099
2026.000000	0.002196
2025.000000	0.002215
2024.000000	0.002157
2023.000000	0.002049
2022.000000	0.001969
2021.000000	0.002021
2020.000000	0.002193
2019.000000	0.002327
2018.000000	0.002286
2017.000000	0.002125
2016.000000	0.002001
2015.000000	0.001959
2014.000000	0.001914
2013.000000	0.001815
2012.000000	0.001712
2011.000000	0.001673
2010.000000	0.001703
2009.000000	0.001759
2008.000000	0.001802
2007.000000	0.001818
2006.000000	0.001824
2005.000000	0.001844
2004.000000	0.001869
2003.000000	0.001858
2002.000000	0.001810
2001.000000	0.001789
2000.000000	0.001872
1999.000000	0.002068
1998.000000	0.002323
1997.000000	0.002573
1996.000000	0.002762
1995.000000	0.002838
1994.000000	0.002779
1993.000000	0.002623
1992.000000	0.002439
1991.000000	0.002293
1990.000000	0.002228
1989.000000	0.002279
1988.000000	0.002443
1987.000000	0.002641
1986.000000	0.002766
1985.000000	0.002758
1984.000000	0.002639
1983.000000	0.002486
1982.000000	0.002373
1981.000000	0.002319
1980.000000	0.002263
1979.000000	0.002108
1978.000000	0.001856
1977.000000	0.001663
1976.000000	0.001704
1975.000000	0.001991
1974.000000	0.002364
1973.000000	0.002617
1972.000000	0.002626
1971.000000	0.002413
1970.000000	0.002143
1969.000000	0.002013
1968.000000	0.002094
1967.000000	0.002273
1966.000000	0.002373
1965.000000	0.002316
1964.000000	0.002135
1963.000000	0.001900
1962.000000	0.001687
1961.000000	0.001564
1960.000000	0.001556
1959.000000	0.001634
1958.000000	0.001749
1957.000000	0.001872
1956.000000	0.001982
1955.000000	0.002056
1954.000000	0.002087
1953.000000	0.002081
1952.000000	0.002043
1951.000000	0.001975
1950.000000	0.001895
1949.000000	0.001826
1948.000000	0.001776
1947.000000	0.001751
1946.000000	0.001786
1945.000000	0.001914
1944.000000	0.002105
1943.000000	0.002268
1942.000000	0.002349
1941.000000	0.002386
1940.000000	0.002427
1939.000000	0.002459
1938.000000	0.002452
1937.000000	0.002410
1936.000000	0.002356
1935.000000	0.002292
1934.000000	0.002213
1933.000000	0.002146
1932.000000	0.002124
1931.000000	0.002145
1930.000000	0.002178
1929.000000	0.002199
1928.000000	0.002195
1927.000000	0.002154
1926.000000	0.002076
1925.000000	0.001986
1924.000000	0.001928
1923.000000	0.001925
1922.000000	0.001971
1921.000000	0.002041
1920.000000	0.002104
1919.000000	0.002137
1918.000000	0.002130
1917.000000	0.002107
1916.000000	0.002104
1915.000000	0.002128
1914.000000	0.002162
1913.000000	0.002187
1912.000000	0.002193
1911.000000	0.002186
1910.000000	0.002175
1909.000000	0.002167
1908.000000	0.002153
1907.000000	0.002123
1906.000000	0.002096
1905.000000	0.002107
1904.000000	0.002158
1903.000000	0.002207
1902.000000	0.002220
1901.000000	0.002224
1900.000000	0.002269
1899.000000	0.002353
1898.000000	0.002418
1897.000000	0.002415
1896.000000	0.002347
1895.000000	0.002252
1894.000000	0.002161
1893.000000	0.002085
1892.000000	0.002027
1891.000000	0.002002
1890.000000	0.002028
1889.000000	0.002104
1888.000000	0.002186
1887.000000	0.002217
1886.000000	0.002184
1885.000000	0.002127
1884.000000	0.002093
1883.000000	0.002083
1882.000000	0.002068
1881.000000	0.002045
1880.000000	0.002044
1879.000000	0.002071
1878.000000	0.002099
1877.000000	0.002092
1876.000000	0.002046
1875.000000	0.001982
1874.000000	0.001929
1873.000000	0.001900
1872.000000	0.001891
1871.000000	0.001886
1870.000000	0.001882
1869.000000	0.001893
1868.000000	0.001928
1867.000000	0.001971
1866.000000	0.002001
1865.000000	0.002018
1864.000000	0.002031
1863.000000	0.002032
1862.000000	0.002005
1861.000000	0.001953
1860.000000	0.001899
1859.000000	0.001861
1858.000000	0.001843
1857.000000	0.001844
1856.000000	0.001862
1855.000000	0.001880
1854.000000	0.001883
1853.000000	0.001883
1852.000000	0.001896
1851.000000	0.001910
1850.000000	0.001899
1849.000000	0.001864
1848.000000	0.001834
1847.000000	0.001827
1846.000000	0.001829
1845.000000	0.001825
1844.000000	0.001820
1843.000000	0.001814
1842.000000	0.001796
1841.000000	0.001770
1840.000000	0.001757
1839.000000	0.001767
1838.000000	0.001788
1837.000000	0.001804
1836.000000	0.001815
1835.000000	0.001819
1834.000000	0.001813
1833.000000	0.001797
1832.000000	0.001777
1831.000000	0.001760
1830.000000	0.001759
1829.000000	0.001778
1828.000000	0.001801
1827.000000	0.001803
1826.000000	0.001781
1825.000000	0.001759
1824.000000	0.001760
1823.000000	0.001777
1822.000000	0.001789
1821.000000	0.001790
1820.000000	0.001793
1819.000000	0.001800
1818.000000	0.001803
1817.000000	0.001795
1816.000000	0.001780
1815.000000	0.001767
1814.000000	0.001755
1813.000000	0.001752
1812.000000	0.001769
1811.000000	0.001811
1810.000000	0.001863
1809.000000	0.001900
1808.000000	0.001926
1807.000000	0.001965
1806.000000	0.002026
1805.000000	0.002096
1804.000000	0.002164
1803.000000	0.002241
1802.000000	0.002344
1801.000000	0.002464
1800.000000	0.002577
1799.000000	0.002671
1798.000000	0.002740
1797.000000	0.002784
1796.000000	0.002810
1795.000000	0.002817
1794.000000	0.002785
1793.000000	0.002695
1792.000000	0.002564
1791.000000	0.002438
1790.000000	0.002333
1789.000000	0.002231
1788.000000	0.002117
1787.000000	0.002001
1786.000000	0.001907
1785.000000	0.001856
1784.000000	0.001850
1783.000000	0.001868
1782.000000	0.001885
1781.000000	0.001895
1780.000000	0.001907
1779.000000	0.001927
1778.000000	0.001946
1777.000000	0.001952
1776.000000	0.001947
1775.000000	0.001937
1774.000000	0.001929
1773.000000	0.001948
1772.000000	0.002009
1771.000000	0.002076
1770.000000	0.002108
1769.000000	0.002123
1768.000000	0.002163
1767.000000	0.002254
1766.000000	0.002386
1765.000000	0.002542
1764.000000	0.002725
1763.000000	0.002953
1762.000000	0.003250
1761.000000	0.003622
1760.000000	0.004051
1759.000000	0.004527
1758.000000	0.005096
1757.000000	0.005825
1756.000000	0.006703
1755.000000	0.007627
1754.000000	0.008555
1753.000000	0.009558
1752.000000	0.010716
1751.000000	0.011983
1750.000000	0.013230
1749.000000	0.014409
1748.000000	0.015516
1747.000000	0.016507
1746.000000	0.017363
1745.000000	0.018130
1744.000000	0.018825
1743.000000	0.019408
1742.000000	0.019862
1741.000000	0.020207
1740.000000	0.020419
1739.000000	0.020453
1738.000000	0.020358
1737.000000	0.020216
1736.000000	0.019981
1735.000000	0.019448
1734.000000	0.018511
1733.000000	0.017476
1732.000000	0.016588
1731.000000	0.015730
1730.000000	0.014784
1729.000000	0.013778
1728.000000	0.012801
1727.000000	0.011886
1726.000000	0.011013
1725.000000	0.010162
1724.000000	0.009324
1723.000000	0.008525
1722.000000	0.007817
1721.000000	0.007222
1720.000000	0.006692
1719.000000	0.006153
1718.000000	0.005608
1717.000000	0.005146
1716.000000	0.004798
1715.000000	0.004510
1714.000000	0.004255
1713.000000	0.004042
1712.000000	0.003863
1711.000000	0.003699
1710.000000	0.003556
1709.000000	0.003446
1708.000000	0.003349
1707.000000	0.003235
1706.000000	0.003123
1705.000000	0.003059
1704.000000	0.003050
1703.000000	0.003065
1702.000000	0.003072
1701.000000	0.003064
1700.000000	0.003067
1699.000000	0.003085
1698.000000	0.003084
1697.000000	0.003056
1696.000000	0.003013
1695.000000	0.003001
1694.000000	0.003030
1693.000000	0.003066
1692.000000	0.003098
1691.000000	0.003121
1690.000000	0.003143
1689.000000	0.003181
1688.000000	0.003237
1687.000000	0.003284
1686.000000	0.003282
1685.000000	0.003223
1684.000000	0.003177
1683.000000	0.003212
1682.000000	0.003294
1681.000000	0.003378
1680.000000	0.003441
1679.000000	0.003474
1678.000000	0.003498
1677.000000	0.003538
1676.000000	0.003588
1675.000000	0.003622
1674.000000	0.003639
1673.000000	0.003667
1672.000000	0.003716
1671.000000	0.003785
1670.000000	0.003866
1669.000000	0.003955
1668.000000	0.004030
1667.000000	0.004072
1666.000000	0.004097
1665.000000	0.004135
1664.000000	0.004191
1663.000000	0.004251
1662.000000	0.004312
1661.000000	0.004382
1660.000000	0.004447
1659.000000	0.004485
1658.000000	0.004492
1657.000000	0.004501
1656.000000	0.004542
1655.000000	0.004597
1654.000000	0.004624
1653.000000	0.004659
1652.000000	0.004749
1651.000000	0.004762
1650.000000	0.004700
1649.000000	0.004665
1648.000000	0.004682
1647.000000	0.004698
1646.000000	0.004694
1645.000000	0.004710
1644.000000	0.004744
1643.000000	0.004770
1642.000000	0.004780
1641.000000	0.004771
1640.000000	0.004746
1639.000000	0.004716
1638.000000	0.004699
1637.000000	0.004693
1636.000000	0.004666
1635.000000	0.004605
1634.000000	0.004550
1633.000000	0.004523
1632.000000	0.004521
1631.000000	0.004515
1630.000000	0.004475
1629.000000	0.004406
1628.000000	0.004346
1627.000000	0.004319
1626.000000	0.004313
1625.000000	0.004304
1624.000000	0.004270
1623.000000	0.004203
1622.000000	0.004124
1621.000000	0.004066
1620.000000	0.004035
1619.000000	0.004013
1618.000000	0.003969
1617.000000	0.003882
1616.000000	0.003766
1615.000000	0.003644
1614.000000	0.003535
1613.000000	0.003459
1612.000000	0.003405
1611.000000	0.003344
1610.000000	0.003266
1609.000000	0.003192
1608.000000	0.003127
1607.000000	0.003056
1606.000000	0.002980
1605.000000	0.002926
1604.000000	0.002898
1603.000000	0.002866
1602.000000	0.002802
1601.000000	0.002721
1600.000000	0.002654
1599.000000	0.002611
1598.000000	0.002586
1597.000000	0.002573
1596.000000	0.002563
1595.000000	0.002552
1594.000000	0.002541
1593.000000	0.002541
1592.000000	0.002551
1591.000000	0.002560
1590.000000	0.002564
1589.000000	0.002569
1588.000000	0.002575
1587.000000	0.002572
1586.000000	0.002562
1585.000000	0.002558
1584.000000	0.002559
1583.000000	0.002549
1582.000000	0.002523
1581.000000	0.002494
1580.000000	0.002483
1579.000000	0.002499
1578.000000	0.002541
1577.000000	0.002593
1576.000000	0.002633
1575.000000	0.002650
1574.000000	0.002657
1573.000000	0.002688
1572.000000	0.002745
1571.000000	0.002796
1570.000000	0.002821
1569.000000	0.002844
1568.000000	0.002881
1567.000000	0.002920
1566.000000	0.002965
1565.000000	0.003040
1564.000000	0.003137
1563.000000	0.003232
1562.000000	0.003319
1561.000000	0.003400
1560.000000	0.003476
1559.000000	0.003538
1558.000000	0.003591
1557.000000	0.003710
1556.000000	0.003840
1555.000000	0.003955
1554.000000	0.004063
1553.000000	0.004177
1552.000000	0.004293
1551.000000	0.004415
1550.000000	0.004556
1549.000000	0.004716
1548.000000	0.004871
1547.000000	0.005005
1546.000000	0.005147
1545.000000	0.005337
1544.000000	0.005555
1543.000000	0.005748
1542.000000	0.005915
1541.000000	0.006102
1540.000000	0.006324
1539.000000	0.006554
1538.000000	0.006757
1537.000000	0.006924
1536.000000	0.007088
1535.000000	0.007276
1534.000000	0.007498
1533.000000	0.007742
1532.000000	0.007968
1531.000000	0.008157
1530.000000	0.008318
1529.000000	0.008465
1528.000000	0.008618
1527.000000	0.008790
1526.000000	0.008983
1525.000000	0.009184
1524.000000	0.009369
1523.000000	0.009536
1522.000000	0.009709
1521.000000	0.009893
1520.000000	0.010052
1519.000000	0.010182
1518.000000	0.010332
1517.000000	0.010537
1516.000000	0.010760
1515.000000	0.010957
1514.000000	0.011149
1513.000000	0.011364
1512.000000	0.011584
1511.000000	0.011775
1510.000000	0.011947
1509.000000	0.012145
1508.000000	0.012366
1507.000000	0.012526
1506.000000	0.012686
1505.000000	0.012949
1504.000000	0.013189
1503.000000	0.013367
1502.000000	0.013536
1501.000000	0.013729
1500.000000	0.013927
1499.000000	0.014113
1498.000000	0.014329
1497.000000	0.014626
1496.000000	0.014947
1495.000000	0.015206
1494.000000	0.015415
1493.000000	0.015632
1492.000000	0.015884
1491.000000	0.016167
1490.000000	0.016474
1489.000000	0.016786
1488.000000	0.017074
1487.000000	0.017336
1486.000000	0.017596
1485.000000	0.017878
1484.000000	0.018184
1483.000000	0.018501
1482.000000	0.018841
1481.000000	0.019212
1480.000000	0.019586
1479.000000	0.019930
1478.000000	0.020265
1477.000000	0.020631
1476.000000	0.021023
1475.000000	0.021419
1474.000000	0.021851
1473.000000	0.022361
1472.000000	0.022890
1471.000000	0.023367
1470.000000	0.023818
1469.000000	0.024279
1468.000000	0.024737
1467.000000	0.025159
1466.000000	0.025542
1465.000000	0.025887
1464.000000	0.026169
1463.000000	0.026391
1462.000000	0.026607
1461.000000	0.026856
1460.000000	0.027136
1459.000000	0.027444
1458.000000	0.027826
1457.000000	0.028285
1456.000000	0.028659
1455.000000	0.028876
1454.000000	0.029039
1453.000000	0.029240
1452.000000	0.029469
1451.000000	0.029682
1450.000000	0.029892
1449.000000	0.030133
1448.000000	0.030392
1447.000000	0.030630
1446.000000	0.030861
1445.000000	0.031117
1444.000000	0.031384
1443.000000	0.031649
1442.000000	0.031939
1441.000000	0.032281
1440.000000	0.032651
1439.000000	0.033018
1438.000000	0.033423
1437.000000	0.033921
1436.000000	0.034428
1435.000000	0.034815
1434.000000	0.035116
1433.000000	0.035409
1432.000000	0.035704
1431.000000	0.035985
1430.000000	0.036298
1429.000000	0.036691
1428.000000	0.037123
1427.000000	0.037521
1426.000000	0.037883
1425.000000	0.038228
1424.000000	0.038494
1423.000000	0.038631
1422.000000	0.038720
1421.000000	0.038864
1420.000000	0.039046
1419.000000	0.039157
1418.000000	0.039179
1417.000000	0.039188
1416.000000	0.039182
1415.000000	0.039113
1414.000000	0.038993
1413.000000	0.038849
1412.000000	0.038646
1411.000000	0.038343
1410.000000	0.037974
1409.000000	0.037597
1408.000000	0.037201
1407.000000	0.036757
1406.000000	0.036294
1405.000000	0.035867
1404.000000	0.035494
1403.000000	0.035183
1402.000000	0.034960
1401.000000	0.034816
1400.000000	0.034688
1399.000000	0.034525
1398.000000	0.034358
1397.000000	0.034225
1396.000000	0.034085
1395.000000	0.033886
1394.000000	0.033679
1393.000000	0.033537
1392.000000	0.033429
1391.000000	0.033293
1390.000000	0.033122
1389.000000	0.032930
1388.000000	0.032684
1387.000000	0.032358
1386.000000	0.032007
1385.000000	0.031704
1384.000000	0.031437
1383.000000	0.031168
1382.000000	0.030898
1381.000000	0.030634
1380.000000	0.030344
1379.000000	0.029998
1378.000000	0.029615
1377.000000	0.029223
1376.000000	0.028799
1375.000000	0.028303
1374.000000	0.027764
1373.000000	0.027275
1372.000000	0.026882
1371.000000	0.026553
1370.000000	0.026243
1369.000000	0.025931
1368.000000	0.025621
1367.000000	0.025334
1366.000000	0.025096
1365.000000	0.024892
1364.000000	0.024677
1363.000000	0.024415
1362.000000	0.024133
1361.000000	0.023891
1360.000000	0.023705
1359.000000	0.023553
1358.000000	0.023414
1357.000000	0.023270
1356.000000	0.023103
1355.000000	0.022910
1354.000000	0.022710
1353.000000	0.022511
1352.000000	0.022301
1351.000000	0.022076
1350.000000	0.021853
1349.000000	0.021649
1348.000000	0.021472
1347.000000	0.021326
1346.000000	0.021216
1345.000000	0.021138
1344.000000	0.021074
1343.000000	0.021016
1342.000000	0.020973
1341.000000	0.020954
1340.000000	0.020949
1339.000000	0.020954
1338.000000	0.020977
1337.000000	0.021017
1336.000000	0.021040
1335.000000	0.021015
1334.000000	0.020942
1333.000000	0.020825
1332.000000	0.020666
1331.000000	0.020472
1330.000000	0.020260
1329.000000	0.020042
1328.000000	0.019820
1327.000000	0.019598
1326.000000	0.019391
1325.000000	0.019201
1324.000000	0.019016
1323.000000	0.018826
1322.000000	0.018646
1321.000000	0.018481
1320.000000	0.018318
1319.000000	0.018140
1318.000000	0.017946
1317.000000	0.017740
1316.000000	0.017521
1315.000000	0.017292
1314.000000	0.017069
1313.000000	0.016860
1312.000000	0.016659
1311.000000	0.016459
1310.000000	0.016272
1309.000000	0.016104
1308.000000	0.015944
1307.000000	0.015772
1306.000000	0.015578
1305.000000	0.015362
1304.000000	0.015131
1303.000000	0.014902
1302.000000	0.014692
1301.000000	0.014501
1300.000000	0.014311
1299.000000	0.014120
1298.000000	0.013937
1297.000000	0.013762
1296.000000	0.013581
1295.000000	0.013396
1294.000000	0.013230
1293.000000	0.013106
1292.000000	0.013022
1291.000000	0.012960
1290.000000	0.012900
1289.000000	0.012825
1288.000000	0.012727
1287.000000	0.012616
1286.000000	0.012511
1285.000000	0.012414
1284.000000	0.012314
1283.000000	0.012208
1282.000000	0.012112
1281.000000	0.012038
1280.000000	0.011986
1279.000000	0.011956
1278.000000	0.011955
1277.000000	0.011988
1276.000000	0.012045
1275.000000	0.012125
1274.000000	0.012235
1273.000000	0.012389
1272.000000	0.012594
1271.000000	0.012855
1270.000000	0.013170
1269.000000	0.013517
1268.000000	0.013871
1267.000000	0.014224
1266.000000	0.014588
1265.000000	0.014963
1264.000000	0.015324
1263.000000	0.015651
1262.000000	0.015951
1261.000000	0.016249
1260.000000	0.016559
1259.000000	0.016877
1258.000000	0.017190
1257.000000	0.017476
1256.000000	0.017699
1255.000000	0.017835
1254.000000	0.017887
1253.000000	0.017882
1252.000000	0.017853
1251.000000	0.017825
1250.000000	0.017821
1249.000000	0.017843
1248.000000	0.017866
1247.000000	0.017871
1246.000000	0.017861
1245.000000	0.017856
1244.000000	0.017861
1243.000000	0.017867
1242.000000	0.017859
1241.000000	0.017825
1240.000000	0.017758
1239.000000	0.017659
1238.000000	0.017535
1237.000000	0.017388
1236.000000	0.017207
1235.000000	0.016996
1234.000000	0.016773
1233.000000	0.016552
1232.000000	0.016325
1231.000000	0.016079
1230.000000	0.015809
1229.000000	0.015508
1228.000000	0.015160
1227.000000	0.014757
1226.000000	0.014316
1225.000000	0.013860
1224.000000	0.013403
1223.000000	0.012953
1222.000000	0.012526
1221.000000	0.012140
1220.000000	0.011803
1219.000000	0.011514
1218.000000	0.011269
1217.000000	0.011059
1216.000000	0.010868
1215.000000	0.010683
1214.000000	0.010498
1213.000000	0.010316
1212.000000	0.010143
1211.000000	0.009997
1210.000000	0.009901
1209.000000	0.009857
1208.000000	0.009847
1207.000000	0.009854
1206.000000	0.009872
1205.000000	0.009908
1204.000000	0.009964
1203.000000	0.010037
1202.000000	0.010116
1201.000000	0.010188
1200.000000	0.010256
1199.000000	0.010342
1198.000000	0.010475
1197.000000	0.010654
1196.000000	0.010855
1195.000000	0.011059
1194.000000	0.011265
1193.000000	0.011476
1192.000000	0.011695
1191.000000	0.011927
1190.000000	0.012175
1189.000000	0.012434
1188.000000	0.012691
1187.000000	0.012946
1186.000000	0.013222
1185.000000	0.013535
1184.000000	0.013873
1183.000000	0.014220
1182.000000	0.014579
1181.000000	0.014971
1180.000000	0.015403
1179.000000	0.015860
1178.000000	0.016323
1177.000000	0.016780
1176.000000	0.017229
1175.000000	0.017669
1174.000000	0.018102
1173.000000	0.018521
1172.000000	0.018919
1171.000000	0.019291
1170.000000	0.019645
1169.000000	0.019990
1168.000000	0.020324
1167.000000	0.020642
1166.000000	0.020940
1165.000000	0.021204
1164.000000	0.021409
1163.000000	0.021537
1162.000000	0.021602
1161.000000	0.021624
1160.000000	0.021602
1159.000000	0.021526
1158.000000	0.021402
1157.000000	0.021242
1156.000000	0.021038
1155.000000	0.020769
1154.000000	0.020432
1153.000000	0.020039
1152.000000	0.019603
1151.000000	0.019122
1150.000000	0.018597
1149.000000	0.018032
1148.000000	0.017424
1147.000000	0.016776
1146.000000	0.016105
1145.000000	0.015437
1144.000000	0.014789
1143.000000	0.014168
1142.000000	0.013566
1141.000000	0.012971
1140.000000	0.012380
1139.000000	0.011809
1138.000000	0.011284
1137.000000	0.010807
1136.000000	0.010364
1135.000000	0.009954
1134.000000	0.009594
1133.000000	0.009294
1132.000000	0.009040
1131.000000	0.008816
1130.000000	0.008620
1129.000000	0.008454
1128.000000	0.008310
1127.000000	0.008183
1126.000000	0.008096
1125.000000	0.008075
1124.000000	0.008128
1123.000000	0.008236
1122.000000	0.008383
1121.000000	0.008563
1120.000000	0.008777
1119.000000	0.009018
1118.000000	0.009287
1117.000000	0.009606
1116.000000	0.010012
1115.000000	0.010521
1114.000000	0.011103
1113.000000	0.011693
1112.000000	0.012228
1111.000000	0.012681
1110.000000	0.013045
1109.000000	0.013314
1108.000000	0.013475
1107.000000	0.013532
1106.000000	0.013524
1105.000000	0.013495
1104.000000	0.013464
1103.000000	0.013435
1102.000000	0.013431
1101.000000	0.013490
1100.000000	0.013629
1099.000000	0.013828
1098.000000	0.014037
1097.000000	0.014217
1096.000000	0.014352
1095.000000	0.014451
1094.000000	0.014527
1093.000000	0.014571
1092.000000	0.014551
1091.000000	0.014427
1090.000000	0.014187
1089.000000	0.013846
1088.000000	0.013430
1087.000000	0.012966
1086.000000	0.012475
1085.000000	0.011972
1084.000000	0.011467
1083.000000	0.010971
1082.000000	0.010498
1081.000000	0.010060
1080.000000	0.009661
1079.000000	0.009313
1078.000000	0.009023
1077.000000	0.008780
1076.000000	0.008556
1075.000000	0.008338
1074.000000	0.008139
1073.000000	0.007981
1072.000000	0.007865
1071.000000	0.007773
1070.000000	0.007702
1069.000000	0.007672
1068.000000	0.007705
1067.000000	0.007802
1066.000000	0.007932
1065.000000	0.008058
1064.000000	0.008162
1063.000000	0.008255
1062.000000	0.008352
1061.000000	0.008448
1060.000000	0.008519
1059.000000	0.008545
1058.000000	0.008529
1057.000000	0.008492
1056.000000	0.008453
1055.000000	0.008424
1054.000000	0.008415
1053.000000	0.008431
1052.000000	0.008462
1051.000000	0.008485
1050.000000	0.008483
1049.000000	0.008463
1048.000000	0.008452
1047.000000	0.008477
1046.000000	0.008550
1045.000000	0.008664
1044.000000	0.008807
1043.000000	0.008959
1042.000000	0.009104
1041.000000	0.009235
1040.000000	0.009364
1039.000000	0.009509
1038.000000	0.009664
1037.000000	0.009804
1036.000000	0.009913
1035.000000	0.009999
1034.000000	0.010085
1033.000000	0.010179
1032.000000	0.010271
1031.000000	0.010350
1030.000000	0.010412
1029.000000	0.010463
1028.000000	0.010519
1027.000000	0.010592
1026.000000	0.010680
1025.000000	0.010766
1024.000000	0.010829
1023.000000	0.010860
1022.000000	0.010866
1021.000000	0.010855
1020.000000	0.010838
1019.000000	0.010823
1018.000000	0.010805
1017.000000	0.010770
1016.000000	0.010706
1015.000000	0.010611
1014.000000	0.010492
1013.000000	0.010351
1012.000000	0.010191
1011.000000	0.010015
1010.000000	0.009829
1009.000000	0.009636
1008.000000	0.009445
1007.000000	0.009263
1006.000000	0.009089
1005.000000	0.008907
1004.000000	0.008709
1003.000000	0.008505
1002.000000	0.008314
1001.000000	0.008151
1000.000000	0.008025
999.000000	0.007942
998.000000	0.007895
997.000000	0.007856
996.000000	0.007799
995.000000	0.007728
994.000000	0.007658
993.000000	0.007601
992.000000	0.007556
991.000000	0.007521
990.000000	0.007490
989.000000	0.007449
988.000000	0.007388
987.000000	0.007326
986.000000	0.007295
985.000000	0.007306
984.000000	0.007336
983.000000	0.007353
982.000000	0.007344
981.000000	0.007315
980.000000	0.007281
979.000000	0.007258
978.000000	0.007252
977.000000	0.007266
976.000000	0.007301
975.000000	0.007354
974.000000	0.007417
973.000000	0.007480
972.000000	0.007540
971.000000	0.007605
970.000000	0.007671
969.000000	0.007720
968.000000	0.007739
967.000000	0.007728
966.000000	0.007694
965.000000	0.007635
964.000000	0.007552
963.000000	0.007452
962.000000	0.007348
961.000000	0.007242
960.000000	0.007132
959.000000	0.007025
958.000000	0.006916
957.000000	0.006786
956.000000	0.006617
955.000000	0.006424
954.000000	0.006240
953.000000	0.006075
952.000000	0.005921
951.000000	0.005781
950.000000	0.005674
949.000000	0.005594
948.000000	0.005499
947.000000	0.005352
946.000000	0.005173
945.000000	0.005012
944.000000	0.004901
943.000000	0.004826
942.000000	0.004751
941.000000	0.004653
940.000000	0.004532
939.000000	0.004399
938.000000	0.004255
937.000000	0.004103
936.000000	0.003961
935.000000	0.003857
934.000000	0.003800
933.000000	0.003762
932.000000	0.003709
931.000000	0.003642
930.000000	0.003581
929.000000	0.003536
928.000000	0.003492
927.000000	0.003441
926.000000	0.003390
925.000000	0.003344
924.000000	0.003295
923.000000	0.003232
922.000000	0.003158
921.000000	0.003085
920.000000	0.003020
919.000000	0.002966
918.000000	0.002919
917.000000	0.002873
916.000000	0.002819
915.000000	0.002752
914.000000	0.002678
913.000000	0.002610
912.000000	0.002559
911.000000	0.002527
910.000000	0.002497
909.000000	0.002443
908.000000	0.002360
907.000000	0.002266
906.000000	0.002178
905.000000	0.002097
904.000000	0.002011
903.000000	0.001920
902.000000	0.001836
901.000000	0.001769
900.000000	0.001724
899.000000	0.001703
898.000000	0.001710
897.000000	0.001739
896.000000	0.001774
895.000000	0.001800
894.000000	0.001811
893.000000	0.001823
892.000000	0.001864
891.000000	0.001965
890.000000	0.002158
889.000000	0.002514
888.000000	0.003161
887.000000	0.004225
886.000000	0.005709
885.000000	0.007452
884.000000	0.009224
883.000000	0.010884
882.000000	0.012473
881.000000	0.014157
880.000000	0.016082
879.000000	0.018257
878.000000	0.020542
877.000000	0.022718
876.000000	0.024568
875.000000	0.025902
874.000000	0.026548
873.000000	0.026386
872.000000	0.025397
871.000000	0.023710
870.000000	0.021587
869.000000	0.019323
868.000000	0.017155
867.000000	0.015215
866.000000	0.013533
865.000000	0.012079
864.000000	0.010829
863.000000	0.009784
862.000000	0.008924
861.000000	0.008189
860.000000	0.007516
859.000000	0.006888
858.000000	0.006318
857.000000	0.005802
856.000000	0.005335
855.000000	0.004934
854.000000	0.004623
853.000000	0.004387
852.000000	0.004208
851.000000	0.004122
850.000000	0.004182
849.000000	0.004341
848.000000	0.004425
847.000000	0.004281
846.000000	0.003910
845.000000	0.003448
844.000000	0.003037
843.000000	0.002740
842.000000	0.002557
841.000000	0.002449
840.000000	0.002358
839.000000	0.002245
838.000000	0.002130
837.000000	0.002071
836.000000	0.002094
835.000000	0.002165
834.000000	0.002224
833.000000	0.002243
832.000000	0.002228
831.000000	0.002181
830.000000	0.002092
829.000000	0.001954
828.000000	0.001793
827.000000	0.001656
826.000000	0.001582
825.000000	0.001579
824.000000	0.001637
823.000000	0.001741
822.000000	0.001890
821.000000	0.002085
820.000000	0.002312
819.000000	0.002546
818.000000	0.002766
817.000000	0.002963
816.000000	0.003127
815.000000	0.003222
814.000000	0.003198
813.000000	0.003030
812.000000	0.002751
811.000000	0.002434
810.000000	0.002142
809.000000	0.001913
808.000000	0.001763
807.000000	0.001694
806.000000	0.001689
805.000000	0.001715
804.000000	0.001746
803.000000	0.001770
802.000000	0.001785
801.000000	0.001789
800.000000	0.001782
799.000000	0.001773
798.000000	0.001767
797.000000	0.001766
796.000000	0.001772
795.000000	0.001788
794.000000	0.001808
793.000000	0.001827
792.000000	0.001842
791.000000	0.001848
790.000000	0.001839
789.000000	0.001810
788.000000	0.001779
787.000000	0.001769
786.000000	0.001793
785.000000	0.001842
784.000000	0.001901
783.000000	0.001962
782.000000	0.002009
781.000000	0.002032
780.000000	0.002040
779.000000	0.002056
778.000000	0.002092
777.000000	0.002136
776.000000	0.002169
775.000000	0.002186
774.000000	0.002191
773.000000	0.002183
772.000000	0.002167
771.000000	0.002152
770.000000	0.002144
769.000000	0.002146
768.000000	0.002170
767.000000	0.002230
766.000000	0.002319
765.000000	0.002409
764.000000	0.002471
763.000000	0.002506
762.000000	0.002544
761.000000	0.002624
760.000000	0.002760
759.000000	0.002925
758.000000	0.003064
757.000000	0.003154
756.000000	0.003233
755.000000	0.003360
754.000000	0.003534
753.000000	0.003700
752.000000	0.003813
751.000000	0.003874
750.000000	0.003904
749.000000	0.003906
748.000000	0.003879
747.000000	0.003835
746.000000	0.003793
745.000000	0.003759
744.000000	0.003732
743.000000	0.003701
742.000000	0.003655
741.000000	0.003592
740.000000	0.003536
739.000000	0.003514
738.000000	0.003524
737.000000	0.003548
736.000000	0.003589
735.000000	0.003671
734.000000	0.003789
733.000000	0.003908
732.000000	0.004011
731.000000	0.004096
730.000000	0.004134
729.000000	0.004086
728.000000	0.003967
727.000000	0.003850
726.000000	0.003794
725.000000	0.003791
724.000000	0.003800
723.000000	0.003812
722.000000	0.003851
721.000000	0.003951
720.000000	0.004155
719.000000	0.004528
718.000000	0.005149
717.000000	0.006111
716.000000	0.007495
715.000000	0.009265
714.000000	0.011110
713.000000	0.012492
712.000000	0.012951
711.000000	0.012432
710.000000	0.011293
709.000000	0.010019
708.000000	0.008961
707.000000	0.008241
706.000000	0.007819
705.000000	0.007583
704.000000	0.007417
703.000000	0.007263
702.000000	0.007123
701.000000	0.007026
700.000000	0.007001
699.000000	0.007057
698.000000	0.007171
697.000000	0.007294
696.000000	0.007375
695.000000	0.007400
694.000000	0.007380
693.000000	0.007334
692.000000	0.007294
691.000000	0.007278
690.000000	0.007263
689.000000	0.007210
688.000000	0.007117
687.000000	0.007029
686.000000	0.006942
685.000000	0.006792
684.000000	0.006578
683.000000	0.006400
682.000000	0.006336
681.000000	0.006340
680.000000	0.006331
679.000000	0.006293
678.000000	0.006234
677.000000	0.006149
676.000000	0.006037
675.000000	0.005923
674.000000	0.005821
673.000000	0.005681
672.000000	0.005432
671.000000	0.005027
670.000000	0.004433
669.000000	0.003688
668.000000	0.003178
667.000000	0.003276
666.000000	0.003546
665.000000	0.003768
664.000000	0.003894
663.000000	0.003846
662.000000	0.003641
661.000000	0.003398
660.000000	0.003209
659.000000	0.003072
658.000000	0.002971
657.000000	0.002951
656.000000	0.003034
655.000000	0.003172
654.000000	0.003326
653.000000	0.003517
652.000000	0.003743
651.000000	0.003961
650.000000	0.004158
649.000000	0.004376
648.000000	0.004618
647.000000	0.004830
646.000000	0.005003
645.000000	0.005190
644.000000	0.005409
643.000000	0.005626
642.000000	0.005825
641.000000	0.006037
640.000000	0.006267
639.000000	0.006455
638.000000	0.006550
637.000000	0.006559
636.000000	0.006500
635.000000	0.006383
634.000000	0.006255
633.000000	0.006162
632.000000	0.006098
631.000000	0.006030
630.000000	0.005983
629.000000	0.006002
628.000000	0.006051
627.000000	0.006034
626.000000	0.005951
625.000000	0.005905
624.000000	0.005944
623.000000	0.006001
622.000000	0.006004
621.000000	0.005975
620.000000	0.005980
619.000000	0.006054
618.000000	0.006206
617.000000	0.006422
616.000000	0.006634
615.000000	0.006750
614.000000	0.006748
613.000000	0.006701
612.000000	0.006693
611.000000	0.006743
610.000000	0.006834
609.000000	0.006951
608.000000	0.007068
607.000000	0.007136
606.000000	0.007135
605.000000	0.007063
604.000000	0.006878
603.000000	0.006524
602.000000	0.006023
601.000000	0.005484
600.000000	0.005018
599.000000	0.004664
598.000000	0.004416
597.000000	0.004250
596.000000	0.004101
595.000000	0.003899
594.000000	0.003652
593.000000	0.003461
592.000000	0.003408
591.000000	0.003460
590.000000	0.003520
589.000000	0.003527
588.000000	0.003469
587.000000	0.003358
586.000000	0.003230
585.000000	0.003135
584.000000	0.003092
583.000000	0.003075
582.000000	0.003085
581.000000	0.003163
580.000000	0.003304
579.000000	0.003425
578.000000	0.003458
577.000000	0.003431
576.000000	0.003394
575.000000	0.003340
574.000000	0.003241
573.000000	0.003114
572.000000	0.003006
571.000000	0.002936
570.000000	0.002921
569.000000	0.002982
568.000000	0.003086
567.000000	0.003134
566.000000	0.003048
565.000000	0.002865
564.000000	0.002673
563.000000	0.002520
562.000000	0.002431
561.000000	0.002434
560.000000	0.002515
559.000000	0.002588
558.000000	0.002573
557.000000	0.002472
556.000000	0.002307
555.000000	0.002062
554.000000	0.001759
553.000000	0.001533
552.000000	0.001524
551.000000	0.001703
550.000000	0.001898
549.000000	0.001988
548.000000	0.001983
547.000000	0.001919
546.000000	0.001802
545.000000	0.001674
544.000000	0.001624
543.000000	0.001686
542.000000	0.001788
541.000000	0.001834
540.000000	0.001813
539.000000	0.001782
538.000000	0.001786
537.000000	0.001830
536.000000	0.001898
535.000000	0.001976
534.000000	0.002084
533.000000	0.002271
532.000000	0.002557
531.000000	0.002872
530.000000	0.003081
529.000000	0.003134
528.000000	0.003129
527.000000	0.003200
526.000000	0.003371
525.000000	0.003558
524.000000	0.003689
523.000000	0.003784
522.000000	0.003880
521.000000	0.003950
520.000000	0.003910
519.000000	0.003737
518.000000	0.003540
517.000000	0.003484
516.000000	0.003605
515.000000	0.003780
514.000000	0.003875
513.000000	0.003862
512.000000	0.003794
511.000000	0.003741
510.000000	0.003761
509.000000	0.003882
508.000000	0.004082
507.000000	0.004284
506.000000	0.004417
505.000000	0.004489
504.000000	0.004560
503.000000	0.004680
502.000000	0.004855
501.000000	0.005027
500.000000	0.005086
499.000000	0.004945
498.000000	0.004647
497.000000	0.004373
496.000000	0.004257
495.000000	0.004250
494.000000	0.004209
493.000000	0.004082
492.000000	0.003944
491.000000	0.003857
490.000000	0.003822
489.000000	0.003834
488.000000	0.003897
487.000000	0.003955
486.000000	0.003909
485.000000	0.003729
484.000000	0.003502
483.000000	0.003354
482.000000	0.003355
481.000000	0.003505
480.000000	0.003719
479.000000	0.003843
478.000000	0.003788
477.000000	0.003630
476.000000	0.003511
475.000000	0.003456
474.000000	0.003388
473.000000	0.003293
472.000000	0.003239
471.000000	0.003236
470.000000	0.003231
469.000000	0.003225
468.000000	0.003261
467.000000	0.003309
466.000000	0.003318
465.000000	0.003332
464.000000	0.003429
463.000000	0.003554
462.000000	0.003530
461.000000	0.003271
460.000000	0.002837
459.000000	0.002314
458.000000	0.001831
457.000000	0.001611
456.000000	0.001731
455.000000	0.001947
454.000000	0.001963
453.000000	0.001755
452.000000	0.001602
451.000000	0.001706
450.000000	0.001938
