PE IR       SUBTECH     SPECTRUM    ASCII       PEDS        4.00        
   -1
P12-Vert017_1.ASC
23/06/08
16:20:15.00
23/06/08
16:23:55.00
uco
Sample 017 By uco Date Thursday, June 08 2023
450.000000
#HDR
-1
-1
#GR
cm-1
A
1.0
0.0
4000.000000
-1.000000
3551
8
0.043941
0.001745
#DATA
4000.000000	0.002056
3999.000000	0.002101
3998.000000	0.002126
3997.000000	0.002088
3996.000000	0.002059
3995.000000	0.002037
3994.000000	0.002037
3993.000000	0.002055
3992.000000	0.002076
3991.000000	0.002088
3990.000000	0.002090
3989.000000	0.002087
3988.000000	0.002087
3987.000000	0.002094
3986.000000	0.002104
3985.000000	0.002114
3984.000000	0.002119
3983.000000	0.002122
3982.000000	0.002126
3981.000000	0.002134
3980.000000	0.002142
3979.000000	0.002145
3978.000000	0.002142
3977.000000	0.002136
3976.000000	0.002131
3975.000000	0.002132
3974.000000	0.002138
3973.000000	0.002143
3972.000000	0.002144
3971.000000	0.002135
3970.000000	0.002114
3969.000000	0.002087
3968.000000	0.002063
3967.000000	0.002056
3966.000000	0.002068
3965.000000	0.002091
3964.000000	0.002111
3963.000000	0.002121
3962.000000	0.002122
3961.000000	0.002120
3960.000000	0.002121
3959.000000	0.002120
3958.000000	0.002115
3957.000000	0.002104
3956.000000	0.002092
3955.000000	0.002087
3954.000000	0.002093
3953.000000	0.002112
3952.000000	0.002145
3951.000000	0.002187
3950.000000	0.002229
3949.000000	0.002258
3948.000000	0.002268
3947.000000	0.002259
3946.000000	0.002237
3945.000000	0.002209
3944.000000	0.002184
3943.000000	0.002172
3942.000000	0.002185
3941.000000	0.002220
3940.000000	0.002259
3939.000000	0.002283
3938.000000	0.002284
3937.000000	0.002269
3936.000000	0.002252
3935.000000	0.002244
3934.000000	0.002246
3933.000000	0.002248
3932.000000	0.002241
3931.000000	0.002227
3930.000000	0.002215
3929.000000	0.002215
3928.000000	0.002224
3927.000000	0.002235
3926.000000	0.002238
3925.000000	0.002226
3924.000000	0.002201
3923.000000	0.002176
3922.000000	0.002164
3921.000000	0.002174
3920.000000	0.002204
3919.000000	0.002237
3918.000000	0.002255
3917.000000	0.002255
3916.000000	0.002244
3915.000000	0.002232
3914.000000	0.002220
3913.000000	0.002203
3912.000000	0.002179
3911.000000	0.002155
3910.000000	0.002139
3909.000000	0.002136
3908.000000	0.002147
3907.000000	0.002165
3906.000000	0.002190
3905.000000	0.002223
3904.000000	0.002263
3903.000000	0.002299
3902.000000	0.002316
3901.000000	0.002306
3900.000000	0.002280
3899.000000	0.002253
3898.000000	0.002236
3897.000000	0.002229
3896.000000	0.002231
3895.000000	0.002241
3894.000000	0.002251
3893.000000	0.002255
3892.000000	0.002254
3891.000000	0.002260
3890.000000	0.002274
3889.000000	0.002287
3888.000000	0.002285
3887.000000	0.002269
3886.000000	0.002253
3885.000000	0.002254
3884.000000	0.002268
3883.000000	0.002274
3882.000000	0.002258
3881.000000	0.002227
3880.000000	0.002207
3879.000000	0.002215
3878.000000	0.002241
3877.000000	0.002257
3876.000000	0.002249
3875.000000	0.002227
3874.000000	0.002215
3873.000000	0.002229
3872.000000	0.002265
3871.000000	0.002303
3870.000000	0.002333
3869.000000	0.002354
3868.000000	0.002361
3867.000000	0.002342
3866.000000	0.002292
3865.000000	0.002226
3864.000000	0.002176
3863.000000	0.002169
3862.000000	0.002206
3861.000000	0.002262
3860.000000	0.002312
3859.000000	0.002340
3858.000000	0.002350
3857.000000	0.002359
3856.000000	0.002380
3855.000000	0.002414
3854.000000	0.002458
3853.000000	0.002492
3852.000000	0.002475
3851.000000	0.002396
3850.000000	0.002296
3849.000000	0.002219
3848.000000	0.002183
3847.000000	0.002186
3846.000000	0.002205
3845.000000	0.002218
3844.000000	0.002209
3843.000000	0.002183
3842.000000	0.002157
3841.000000	0.002147
3840.000000	0.002158
3839.000000	0.002190
3838.000000	0.002239
3837.000000	0.002292
3836.000000	0.002331
3835.000000	0.002346
3834.000000	0.002337
3833.000000	0.002313
3832.000000	0.002282
3831.000000	0.002260
3830.000000	0.002249
3829.000000	0.002241
3828.000000	0.002225
3827.000000	0.002203
3826.000000	0.002190
3825.000000	0.002195
3824.000000	0.002209
3823.000000	0.002210
3822.000000	0.002190
3821.000000	0.002171
3820.000000	0.002176
3819.000000	0.002192
3818.000000	0.002200
3817.000000	0.002198
3816.000000	0.002201
3815.000000	0.002218
3814.000000	0.002239
3813.000000	0.002254
3812.000000	0.002264
3811.000000	0.002272
3810.000000	0.002275
3809.000000	0.002265
3808.000000	0.002238
3807.000000	0.002207
3806.000000	0.002190
3805.000000	0.002184
3804.000000	0.002176
3803.000000	0.002152
3802.000000	0.002116
3801.000000	0.002090
3800.000000	0.002080
3799.000000	0.002074
3798.000000	0.002070
3797.000000	0.002083
3796.000000	0.002117
3795.000000	0.002159
3794.000000	0.002190
3793.000000	0.002207
3792.000000	0.002221
3791.000000	0.002234
3790.000000	0.002242
3789.000000	0.002237
3788.000000	0.002216
3787.000000	0.002185
3786.000000	0.002153
3785.000000	0.002132
3784.000000	0.002129
3783.000000	0.002136
3782.000000	0.002143
3781.000000	0.002144
3780.000000	0.002143
3779.000000	0.002147
3778.000000	0.002156
3777.000000	0.002161
3776.000000	0.002160
3775.000000	0.002159
3774.000000	0.002164
3773.000000	0.002175
3772.000000	0.002185
3771.000000	0.002181
3770.000000	0.002159
3769.000000	0.002127
3768.000000	0.002093
3767.000000	0.002065
3766.000000	0.002059
3765.000000	0.002078
3764.000000	0.002110
3763.000000	0.002135
3762.000000	0.002139
3761.000000	0.002126
3760.000000	0.002113
3759.000000	0.002116
3758.000000	0.002135
3757.000000	0.002164
3756.000000	0.002198
3755.000000	0.002236
3754.000000	0.002277
3753.000000	0.002319
3752.000000	0.002361
3751.000000	0.002399
3750.000000	0.002426
3749.000000	0.002432
3748.000000	0.002416
3747.000000	0.002388
3746.000000	0.002353
3745.000000	0.002315
3744.000000	0.002286
3743.000000	0.002262
3742.000000	0.002225
3741.000000	0.002188
3740.000000	0.002169
3739.000000	0.002173
3738.000000	0.002188
3737.000000	0.002192
3736.000000	0.002164
3735.000000	0.002101
3734.000000	0.002041
3733.000000	0.002028
3732.000000	0.002064
3731.000000	0.002117
3730.000000	0.002164
3729.000000	0.002209
3728.000000	0.002258
3727.000000	0.002309
3726.000000	0.002345
3725.000000	0.002348
3724.000000	0.002319
3723.000000	0.002271
3722.000000	0.002223
3721.000000	0.002184
3720.000000	0.002151
3719.000000	0.002119
3718.000000	0.002092
3717.000000	0.002071
3716.000000	0.002055
3715.000000	0.002044
3714.000000	0.002045
3713.000000	0.002067
3712.000000	0.002112
3711.000000	0.002164
3710.000000	0.002194
3709.000000	0.002188
3708.000000	0.002155
3707.000000	0.002114
3706.000000	0.002082
3705.000000	0.002069
3704.000000	0.002070
3703.000000	0.002074
3702.000000	0.002070
3701.000000	0.002059
3700.000000	0.002049
3699.000000	0.002045
3698.000000	0.002053
3697.000000	0.002071
3696.000000	0.002093
3695.000000	0.002113
3694.000000	0.002133
3693.000000	0.002150
3692.000000	0.002160
3691.000000	0.002157
3690.000000	0.002148
3689.000000	0.002151
3688.000000	0.002166
3687.000000	0.002175
3686.000000	0.002165
3685.000000	0.002144
3684.000000	0.002124
3683.000000	0.002106
3682.000000	0.002090
3681.000000	0.002081
3680.000000	0.002094
3679.000000	0.002137
3678.000000	0.002193
3677.000000	0.002236
3676.000000	0.002254
3675.000000	0.002276
3674.000000	0.002316
3673.000000	0.002355
3672.000000	0.002376
3671.000000	0.002369
3670.000000	0.002338
3669.000000	0.002300
3668.000000	0.002262
3667.000000	0.002225
3666.000000	0.002198
3665.000000	0.002193
3664.000000	0.002211
3663.000000	0.002241
3662.000000	0.002262
3661.000000	0.002262
3660.000000	0.002242
3659.000000	0.002217
3658.000000	0.002205
3657.000000	0.002220
3656.000000	0.002267
3655.000000	0.002329
3654.000000	0.002382
3653.000000	0.002418
3652.000000	0.002440
3651.000000	0.002461
3650.000000	0.002491
3649.000000	0.002519
3648.000000	0.002518
3647.000000	0.002480
3646.000000	0.002428
3645.000000	0.002381
3644.000000	0.002347
3643.000000	0.002328
3642.000000	0.002318
3641.000000	0.002310
3640.000000	0.002297
3639.000000	0.002281
3638.000000	0.002273
3637.000000	0.002279
3636.000000	0.002300
3635.000000	0.002330
3634.000000	0.002370
3633.000000	0.002420
3632.000000	0.002474
3631.000000	0.002513
3630.000000	0.002530
3629.000000	0.002537
3628.000000	0.002554
3627.000000	0.002568
3626.000000	0.002555
3625.000000	0.002517
3624.000000	0.002470
3623.000000	0.002424
3622.000000	0.002384
3621.000000	0.002356
3620.000000	0.002352
3619.000000	0.002387
3618.000000	0.002455
3617.000000	0.002528
3616.000000	0.002583
3615.000000	0.002613
3614.000000	0.002623
3613.000000	0.002627
3612.000000	0.002637
3611.000000	0.002659
3610.000000	0.002687
3609.000000	0.002709
3608.000000	0.002710
3607.000000	0.002689
3606.000000	0.002663
3605.000000	0.002646
3604.000000	0.002642
3603.000000	0.002644
3602.000000	0.002647
3601.000000	0.002653
3600.000000	0.002668
3599.000000	0.002692
3598.000000	0.002721
3597.000000	0.002748
3596.000000	0.002778
3595.000000	0.002813
3594.000000	0.002850
3593.000000	0.002874
3592.000000	0.002879
3591.000000	0.002865
3590.000000	0.002841
3589.000000	0.002817
3588.000000	0.002801
3587.000000	0.002798
3586.000000	0.002817
3585.000000	0.002863
3584.000000	0.002923
3583.000000	0.002976
3582.000000	0.003005
3581.000000	0.003005
3580.000000	0.002986
3579.000000	0.002960
3578.000000	0.002933
3577.000000	0.002909
3576.000000	0.002900
3575.000000	0.002917
3574.000000	0.002961
3573.000000	0.003021
3572.000000	0.003083
3571.000000	0.003144
3570.000000	0.003215
3569.000000	0.003300
3568.000000	0.003383
3567.000000	0.003425
3566.000000	0.003412
3565.000000	0.003371
3564.000000	0.003329
3563.000000	0.003295
3562.000000	0.003270
3561.000000	0.003260
3560.000000	0.003270
3559.000000	0.003295
3558.000000	0.003322
3557.000000	0.003344
3556.000000	0.003366
3555.000000	0.003397
3554.000000	0.003441
3553.000000	0.003487
3552.000000	0.003523
3551.000000	0.003546
3550.000000	0.003563
3549.000000	0.003583
3548.000000	0.003606
3547.000000	0.003625
3546.000000	0.003635
3545.000000	0.003640
3544.000000	0.003648
3543.000000	0.003658
3542.000000	0.003660
3541.000000	0.003646
3540.000000	0.003622
3539.000000	0.003604
3538.000000	0.003606
3537.000000	0.003629
3536.000000	0.003665
3535.000000	0.003704
3534.000000	0.003741
3533.000000	0.003771
3532.000000	0.003786
3531.000000	0.003781
3530.000000	0.003762
3529.000000	0.003752
3528.000000	0.003770
3527.000000	0.003810
3526.000000	0.003844
3525.000000	0.003852
3524.000000	0.003833
3523.000000	0.003806
3522.000000	0.003782
3521.000000	0.003760
3520.000000	0.003734
3519.000000	0.003706
3518.000000	0.003686
3517.000000	0.003679
3516.000000	0.003682
3515.000000	0.003689
3514.000000	0.003699
3513.000000	0.003717
3512.000000	0.003746
3511.000000	0.003778
3510.000000	0.003803
3509.000000	0.003818
3508.000000	0.003830
3507.000000	0.003847
3506.000000	0.003867
3505.000000	0.003880
3504.000000	0.003883
3503.000000	0.003876
3502.000000	0.003867
3501.000000	0.003861
3500.000000	0.003859
3499.000000	0.003858
3498.000000	0.003853
3497.000000	0.003844
3496.000000	0.003835
3495.000000	0.003830
3494.000000	0.003834
3493.000000	0.003849
3492.000000	0.003870
3491.000000	0.003896
3490.000000	0.003921
3489.000000	0.003942
3488.000000	0.003957
3487.000000	0.003970
3486.000000	0.003980
3485.000000	0.003988
3484.000000	0.003992
3483.000000	0.003990
3482.000000	0.003982
3481.000000	0.003971
3480.000000	0.003959
3479.000000	0.003954
3478.000000	0.003958
3477.000000	0.003974
3476.000000	0.003999
3475.000000	0.004031
3474.000000	0.004067
3473.000000	0.004102
3472.000000	0.004130
3471.000000	0.004144
3470.000000	0.004146
3469.000000	0.004142
3468.000000	0.004142
3467.000000	0.004152
3466.000000	0.004168
3465.000000	0.004181
3464.000000	0.004185
3463.000000	0.004179
3462.000000	0.004166
3461.000000	0.004149
3460.000000	0.004137
3459.000000	0.004135
3458.000000	0.004145
3457.000000	0.004164
3456.000000	0.004189
3455.000000	0.004217
3454.000000	0.004243
3453.000000	0.004257
3452.000000	0.004257
3451.000000	0.004253
3450.000000	0.004258
3449.000000	0.004277
3448.000000	0.004303
3447.000000	0.004326
3446.000000	0.004341
3445.000000	0.004349
3444.000000	0.004350
3443.000000	0.004346
3442.000000	0.004342
3441.000000	0.004345
3440.000000	0.004357
3439.000000	0.004369
3438.000000	0.004375
3437.000000	0.004374
3436.000000	0.004375
3435.000000	0.004387
3434.000000	0.004410
3433.000000	0.004433
3432.000000	0.004444
3431.000000	0.004442
3430.000000	0.004434
3429.000000	0.004428
3428.000000	0.004429
3427.000000	0.004438
3426.000000	0.004459
3425.000000	0.004496
3424.000000	0.004548
3423.000000	0.004602
3422.000000	0.004643
3421.000000	0.004662
3420.000000	0.004662
3419.000000	0.004650
3418.000000	0.004637
3417.000000	0.004636
3416.000000	0.004654
3415.000000	0.004684
3414.000000	0.004714
3413.000000	0.004733
3412.000000	0.004746
3411.000000	0.004761
3410.000000	0.004782
3409.000000	0.004803
3408.000000	0.004819
3407.000000	0.004828
3406.000000	0.004832
3405.000000	0.004835
3404.000000	0.004839
3403.000000	0.004850
3402.000000	0.004872
3401.000000	0.004903
3400.000000	0.004930
3399.000000	0.004941
3398.000000	0.004935
3397.000000	0.004926
3396.000000	0.004932
3395.000000	0.004956
3394.000000	0.004979
3393.000000	0.004977
3392.000000	0.004942
3391.000000	0.004893
3390.000000	0.004859
3389.000000	0.004853
3388.000000	0.004868
3387.000000	0.004884
3386.000000	0.004894
3385.000000	0.004902
3384.000000	0.004917
3383.000000	0.004936
3382.000000	0.004946
3381.000000	0.004939
3380.000000	0.004917
3379.000000	0.004892
3378.000000	0.004872
3377.000000	0.004861
3376.000000	0.004862
3375.000000	0.004883
3374.000000	0.004921
3373.000000	0.004967
3372.000000	0.005006
3371.000000	0.005032
3370.000000	0.005049
3369.000000	0.005062
3368.000000	0.005074
3367.000000	0.005086
3366.000000	0.005092
3365.000000	0.005088
3364.000000	0.005075
3363.000000	0.005057
3362.000000	0.005042
3361.000000	0.005036
3360.000000	0.005036
3359.000000	0.005041
3358.000000	0.005055
3357.000000	0.005075
3356.000000	0.005094
3355.000000	0.005106
3354.000000	0.005111
3353.000000	0.005117
3352.000000	0.005129
3351.000000	0.005142
3350.000000	0.005151
3349.000000	0.005151
3348.000000	0.005140
3347.000000	0.005119
3346.000000	0.005100
3345.000000	0.005095
3344.000000	0.005108
3343.000000	0.005132
3342.000000	0.005158
3341.000000	0.005184
3340.000000	0.005217
3339.000000	0.005261
3338.000000	0.005312
3337.000000	0.005360
3336.000000	0.005389
3335.000000	0.005393
3334.000000	0.005376
3333.000000	0.005356
3332.000000	0.005346
3331.000000	0.005346
3330.000000	0.005347
3329.000000	0.005345
3328.000000	0.005345
3327.000000	0.005353
3326.000000	0.005370
3325.000000	0.005392
3324.000000	0.005414
3323.000000	0.005431
3322.000000	0.005442
3321.000000	0.005446
3320.000000	0.005444
3319.000000	0.005443
3318.000000	0.005458
3317.000000	0.005499
3316.000000	0.005558
3315.000000	0.005610
3314.000000	0.005631
3313.000000	0.005620
3312.000000	0.005594
3311.000000	0.005570
3310.000000	0.005555
3309.000000	0.005544
3308.000000	0.005536
3307.000000	0.005534
3306.000000	0.005539
3305.000000	0.005546
3304.000000	0.005549
3303.000000	0.005543
3302.000000	0.005531
3301.000000	0.005521
3300.000000	0.005524
3299.000000	0.005542
3298.000000	0.005570
3297.000000	0.005593
3296.000000	0.005603
3295.000000	0.005601
3294.000000	0.005596
3293.000000	0.005598
3292.000000	0.005613
3291.000000	0.005633
3290.000000	0.005647
3289.000000	0.005644
3288.000000	0.005625
3287.000000	0.005603
3286.000000	0.005592
3285.000000	0.005596
3284.000000	0.005606
3283.000000	0.005609
3282.000000	0.005599
3281.000000	0.005580
3280.000000	0.005556
3279.000000	0.005533
3278.000000	0.005512
3277.000000	0.005497
3276.000000	0.005491
3275.000000	0.005493
3274.000000	0.005499
3273.000000	0.005504
3272.000000	0.005500
3271.000000	0.005491
3270.000000	0.005489
3269.000000	0.005503
3268.000000	0.005532
3267.000000	0.005561
3266.000000	0.005575
3265.000000	0.005574
3264.000000	0.005567
3263.000000	0.005558
3262.000000	0.005542
3261.000000	0.005517
3260.000000	0.005491
3259.000000	0.005474
3258.000000	0.005473
3257.000000	0.005482
3256.000000	0.005493
3255.000000	0.005496
3254.000000	0.005488
3253.000000	0.005472
3252.000000	0.005453
3251.000000	0.005436
3250.000000	0.005423
3249.000000	0.005417
3248.000000	0.005417
3247.000000	0.005420
3246.000000	0.005423
3245.000000	0.005426
3244.000000	0.005432
3243.000000	0.005436
3242.000000	0.005432
3241.000000	0.005415
3240.000000	0.005391
3239.000000	0.005365
3238.000000	0.005345
3237.000000	0.005330
3236.000000	0.005316
3235.000000	0.005301
3234.000000	0.005288
3233.000000	0.005282
3232.000000	0.005283
3231.000000	0.005284
3230.000000	0.005276
3229.000000	0.005256
3228.000000	0.005233
3227.000000	0.005215
3226.000000	0.005209
3225.000000	0.005217
3224.000000	0.005235
3223.000000	0.005253
3222.000000	0.005254
3221.000000	0.005238
3220.000000	0.005218
3219.000000	0.005209
3218.000000	0.005214
3217.000000	0.005216
3216.000000	0.005207
3215.000000	0.005193
3214.000000	0.005193
3213.000000	0.005210
3212.000000	0.005228
3211.000000	0.005227
3210.000000	0.005205
3209.000000	0.005176
3208.000000	0.005160
3207.000000	0.005161
3206.000000	0.005174
3205.000000	0.005186
3204.000000	0.005196
3203.000000	0.005201
3202.000000	0.005201
3201.000000	0.005195
3200.000000	0.005181
3199.000000	0.005166
3198.000000	0.005153
3197.000000	0.005143
3196.000000	0.005129
3195.000000	0.005106
3194.000000	0.005077
3193.000000	0.005053
3192.000000	0.005043
3191.000000	0.005049
3190.000000	0.005061
3189.000000	0.005075
3188.000000	0.005088
3187.000000	0.005096
3186.000000	0.005091
3185.000000	0.005065
3184.000000	0.005026
3183.000000	0.004991
3182.000000	0.004977
3181.000000	0.004986
3180.000000	0.005005
3179.000000	0.005011
3178.000000	0.004992
3177.000000	0.004955
3176.000000	0.004923
3175.000000	0.004908
3174.000000	0.004899
3173.000000	0.004881
3172.000000	0.004856
3171.000000	0.004840
3170.000000	0.004846
3169.000000	0.004863
3168.000000	0.004873
3167.000000	0.004863
3166.000000	0.004838
3165.000000	0.004809
3164.000000	0.004785
3163.000000	0.004766
3162.000000	0.004748
3161.000000	0.004731
3160.000000	0.004720
3159.000000	0.004718
3158.000000	0.004722
3157.000000	0.004731
3156.000000	0.004749
3155.000000	0.004776
3154.000000	0.004803
3153.000000	0.004814
3152.000000	0.004796
3151.000000	0.004757
3150.000000	0.004715
3149.000000	0.004690
3148.000000	0.004686
3147.000000	0.004701
3146.000000	0.004720
3145.000000	0.004732
3144.000000	0.004725
3143.000000	0.004704
3142.000000	0.004681
3141.000000	0.004667
3140.000000	0.004662
3139.000000	0.004659
3138.000000	0.004654
3137.000000	0.004648
3136.000000	0.004639
3135.000000	0.004628
3134.000000	0.004617
3133.000000	0.004611
3132.000000	0.004615
3131.000000	0.004626
3130.000000	0.004638
3129.000000	0.004650
3128.000000	0.004659
3127.000000	0.004662
3126.000000	0.004655
3125.000000	0.004641
3124.000000	0.004628
3123.000000	0.004622
3122.000000	0.004621
3121.000000	0.004618
3120.000000	0.004610
3119.000000	0.004599
3118.000000	0.004590
3117.000000	0.004586
3116.000000	0.004588
3115.000000	0.004592
3114.000000	0.004592
3113.000000	0.004586
3112.000000	0.004576
3111.000000	0.004568
3110.000000	0.004568
3109.000000	0.004571
3108.000000	0.004568
3107.000000	0.004554
3106.000000	0.004531
3105.000000	0.004511
3104.000000	0.004507
3103.000000	0.004523
3102.000000	0.004548
3101.000000	0.004565
3100.000000	0.004566
3099.000000	0.004556
3098.000000	0.004545
3097.000000	0.004539
3096.000000	0.004537
3095.000000	0.004539
3094.000000	0.004543
3093.000000	0.004551
3092.000000	0.004565
3091.000000	0.004584
3090.000000	0.004600
3089.000000	0.004602
3088.000000	0.004589
3087.000000	0.004575
3086.000000	0.004570
3085.000000	0.004574
3084.000000	0.004574
3083.000000	0.004561
3082.000000	0.004531
3081.000000	0.004498
3080.000000	0.004479
3079.000000	0.004488
3078.000000	0.004522
3077.000000	0.004563
3076.000000	0.004588
3075.000000	0.004591
3074.000000	0.004581
3073.000000	0.004572
3072.000000	0.004573
3071.000000	0.004580
3070.000000	0.004580
3069.000000	0.004567
3068.000000	0.004548
3067.000000	0.004538
3066.000000	0.004541
3065.000000	0.004549
3064.000000	0.004552
3063.000000	0.004551
3062.000000	0.004555
3061.000000	0.004572
3060.000000	0.004595
3059.000000	0.004610
3058.000000	0.004609
3057.000000	0.004591
3056.000000	0.004565
3055.000000	0.004546
3054.000000	0.004538
3053.000000	0.004537
3052.000000	0.004535
3051.000000	0.004530
3050.000000	0.004526
3049.000000	0.004525
3048.000000	0.004522
3047.000000	0.004513
3046.000000	0.004501
3045.000000	0.004488
3044.000000	0.004477
3043.000000	0.004467
3042.000000	0.004461
3041.000000	0.004461
3040.000000	0.004459
3039.000000	0.004450
3038.000000	0.004430
3037.000000	0.004407
3036.000000	0.004397
3035.000000	0.004409
3034.000000	0.004435
3033.000000	0.004456
3032.000000	0.004457
3031.000000	0.004442
3030.000000	0.004431
3029.000000	0.004438
3028.000000	0.004461
3027.000000	0.004488
3026.000000	0.004510
3025.000000	0.004526
3024.000000	0.004535
3023.000000	0.004538
3022.000000	0.004534
3021.000000	0.004528
3020.000000	0.004525
3019.000000	0.004526
3018.000000	0.004525
3017.000000	0.004521
3016.000000	0.004516
3015.000000	0.004516
3014.000000	0.004527
3013.000000	0.004546
3012.000000	0.004573
3011.000000	0.004609
3010.000000	0.004657
3009.000000	0.004713
3008.000000	0.004769
3007.000000	0.004818
3006.000000	0.004859
3005.000000	0.004891
3004.000000	0.004916
3003.000000	0.004944
3002.000000	0.004982
3001.000000	0.005033
3000.000000	0.005092
2999.000000	0.005151
2998.000000	0.005208
2997.000000	0.005265
2996.000000	0.005325
2995.000000	0.005396
2994.000000	0.005487
2993.000000	0.005594
2992.000000	0.005703
2991.000000	0.005806
2990.000000	0.005901
2989.000000	0.005997
2988.000000	0.006098
2987.000000	0.006202
2986.000000	0.006309
2985.000000	0.006423
2984.000000	0.006547
2983.000000	0.006683
2982.000000	0.006825
2981.000000	0.006968
2980.000000	0.007106
2979.000000	0.007244
2978.000000	0.007398
2977.000000	0.007585
2976.000000	0.007807
2975.000000	0.008051
2974.000000	0.008303
2973.000000	0.008554
2972.000000	0.008803
2971.000000	0.009061
2970.000000	0.009335
2969.000000	0.009619
2968.000000	0.009895
2967.000000	0.010147
2966.000000	0.010377
2965.000000	0.010598
2964.000000	0.010819
2963.000000	0.011038
2962.000000	0.011245
2961.000000	0.011427
2960.000000	0.011568
2959.000000	0.011655
2958.000000	0.011679
2957.000000	0.011640
2956.000000	0.011546
2955.000000	0.011411
2954.000000	0.011254
2953.000000	0.011099
2952.000000	0.010964
2951.000000	0.010858
2950.000000	0.010781
2949.000000	0.010732
2948.000000	0.010711
2947.000000	0.010720
2946.000000	0.010767
2945.000000	0.010859
2944.000000	0.010992
2943.000000	0.011159
2942.000000	0.011350
2941.000000	0.011561
2940.000000	0.011794
2939.000000	0.012041
2938.000000	0.012296
2937.000000	0.012550
2936.000000	0.012806
2935.000000	0.013067
2934.000000	0.013325
2933.000000	0.013557
2932.000000	0.013741
2931.000000	0.013868
2930.000000	0.013947
2929.000000	0.013988
2928.000000	0.013993
2927.000000	0.013962
2926.000000	0.013902
2925.000000	0.013819
2924.000000	0.013709
2923.000000	0.013563
2922.000000	0.013380
2921.000000	0.013174
2920.000000	0.012961
2919.000000	0.012754
2918.000000	0.012554
2917.000000	0.012364
2916.000000	0.012186
2915.000000	0.012016
2914.000000	0.011854
2913.000000	0.011697
2912.000000	0.011549
2911.000000	0.011410
2910.000000	0.011277
2909.000000	0.011146
2908.000000	0.011011
2907.000000	0.010867
2906.000000	0.010712
2905.000000	0.010544
2904.000000	0.010365
2903.000000	0.010174
2902.000000	0.009976
2901.000000	0.009774
2900.000000	0.009576
2899.000000	0.009382
2898.000000	0.009189
2897.000000	0.008995
2896.000000	0.008804
2895.000000	0.008619
2894.000000	0.008441
2893.000000	0.008269
2892.000000	0.008109
2891.000000	0.007973
2890.000000	0.007873
2889.000000	0.007805
2888.000000	0.007756
2887.000000	0.007714
2886.000000	0.007676
2885.000000	0.007653
2884.000000	0.007656
2883.000000	0.007694
2882.000000	0.007772
2881.000000	0.007888
2880.000000	0.008033
2879.000000	0.008191
2878.000000	0.008352
2877.000000	0.008509
2876.000000	0.008660
2875.000000	0.008803
2874.000000	0.008929
2873.000000	0.009020
2872.000000	0.009066
2871.000000	0.009075
2870.000000	0.009071
2869.000000	0.009079
2868.000000	0.009112
2867.000000	0.009168
2866.000000	0.009244
2865.000000	0.009333
2864.000000	0.009431
2863.000000	0.009534
2862.000000	0.009639
2861.000000	0.009743
2860.000000	0.009839
2859.000000	0.009915
2858.000000	0.009962
2857.000000	0.009971
2856.000000	0.009935
2855.000000	0.009848
2854.000000	0.009714
2853.000000	0.009537
2852.000000	0.009317
2851.000000	0.009056
2850.000000	0.008764
2849.000000	0.008463
2848.000000	0.008177
2847.000000	0.007918
2846.000000	0.007685
2845.000000	0.007474
2844.000000	0.007275
2843.000000	0.007082
2842.000000	0.006893
2841.000000	0.006714
2840.000000	0.006554
2839.000000	0.006413
2838.000000	0.006289
2837.000000	0.006179
2836.000000	0.006085
2835.000000	0.006011
2834.000000	0.005955
2833.000000	0.005910
2832.000000	0.005863
2831.000000	0.005808
2830.000000	0.005747
2829.000000	0.005685
2828.000000	0.005628
2827.000000	0.005582
2826.000000	0.005549
2825.000000	0.005530
2824.000000	0.005520
2823.000000	0.005513
2822.000000	0.005504
2821.000000	0.005492
2820.000000	0.005479
2819.000000	0.005460
2818.000000	0.005432
2817.000000	0.005397
2816.000000	0.005366
2815.000000	0.005344
2814.000000	0.005323
2813.000000	0.005289
2812.000000	0.005241
2811.000000	0.005189
2810.000000	0.005150
2809.000000	0.005130
2808.000000	0.005125
2807.000000	0.005125
2806.000000	0.005123
2805.000000	0.005112
2804.000000	0.005084
2803.000000	0.005036
2802.000000	0.004980
2801.000000	0.004937
2800.000000	0.004917
2799.000000	0.004917
2798.000000	0.004928
2797.000000	0.004943
2796.000000	0.004959
2795.000000	0.004971
2794.000000	0.004972
2793.000000	0.004964
2792.000000	0.004956
2791.000000	0.004951
2790.000000	0.004943
2789.000000	0.004923
2788.000000	0.004888
2787.000000	0.004848
2786.000000	0.004817
2785.000000	0.004798
2784.000000	0.004787
2783.000000	0.004778
2782.000000	0.004771
2781.000000	0.004764
2780.000000	0.004758
2779.000000	0.004754
2778.000000	0.004752
2777.000000	0.004756
2776.000000	0.004763
2775.000000	0.004768
2774.000000	0.004768
2773.000000	0.004758
2772.000000	0.004740
2771.000000	0.004721
2770.000000	0.004706
2769.000000	0.004701
2768.000000	0.004704
2767.000000	0.004710
2766.000000	0.004713
2765.000000	0.004710
2764.000000	0.004704
2763.000000	0.004698
2762.000000	0.004692
2761.000000	0.004686
2760.000000	0.004684
2759.000000	0.004693
2758.000000	0.004715
2757.000000	0.004740
2756.000000	0.004753
2755.000000	0.004744
2754.000000	0.004716
2753.000000	0.004683
2752.000000	0.004657
2751.000000	0.004644
2750.000000	0.004644
2749.000000	0.004652
2748.000000	0.004663
2747.000000	0.004668
2746.000000	0.004661
2745.000000	0.004645
2744.000000	0.004634
2743.000000	0.004643
2742.000000	0.004673
2741.000000	0.004707
2740.000000	0.004721
2739.000000	0.004707
2738.000000	0.004676
2737.000000	0.004646
2736.000000	0.004628
2735.000000	0.004618
2734.000000	0.004610
2733.000000	0.004602
2732.000000	0.004593
2731.000000	0.004584
2730.000000	0.004583
2729.000000	0.004594
2728.000000	0.004612
2727.000000	0.004623
2726.000000	0.004622
2725.000000	0.004615
2724.000000	0.004615
2723.000000	0.004624
2722.000000	0.004633
2721.000000	0.004632
2720.000000	0.004615
2719.000000	0.004590
2718.000000	0.004567
2717.000000	0.004549
2716.000000	0.004537
2715.000000	0.004524
2714.000000	0.004513
2713.000000	0.004507
2712.000000	0.004510
2711.000000	0.004517
2710.000000	0.004524
2709.000000	0.004531
2708.000000	0.004540
2707.000000	0.004550
2706.000000	0.004553
2705.000000	0.004548
2704.000000	0.004544
2703.000000	0.004552
2702.000000	0.004571
2701.000000	0.004588
2700.000000	0.004592
2699.000000	0.004588
2698.000000	0.004585
2697.000000	0.004588
2696.000000	0.004589
2695.000000	0.004576
2694.000000	0.004551
2693.000000	0.004526
2692.000000	0.004510
2691.000000	0.004505
2690.000000	0.004504
2689.000000	0.004504
2688.000000	0.004507
2687.000000	0.004514
2686.000000	0.004522
2685.000000	0.004525
2684.000000	0.004518
2683.000000	0.004509
2682.000000	0.004502
2681.000000	0.004499
2680.000000	0.004496
2679.000000	0.004495
2678.000000	0.004504
2677.000000	0.004523
2676.000000	0.004545
2675.000000	0.004556
2674.000000	0.004551
2673.000000	0.004535
2672.000000	0.004516
2671.000000	0.004499
2670.000000	0.004487
2669.000000	0.004481
2668.000000	0.004481
2667.000000	0.004487
2666.000000	0.004501
2665.000000	0.004520
2664.000000	0.004541
2663.000000	0.004557
2662.000000	0.004561
2661.000000	0.004553
2660.000000	0.004540
2659.000000	0.004527
2658.000000	0.004519
2657.000000	0.004517
2656.000000	0.004521
2655.000000	0.004530
2654.000000	0.004543
2653.000000	0.004551
2652.000000	0.004547
2651.000000	0.004531
2650.000000	0.004512
2649.000000	0.004499
2648.000000	0.004495
2647.000000	0.004492
2646.000000	0.004481
2645.000000	0.004463
2644.000000	0.004441
2643.000000	0.004418
2642.000000	0.004393
2641.000000	0.004368
2640.000000	0.004348
2639.000000	0.004335
2638.000000	0.004328
2637.000000	0.004321
2636.000000	0.004314
2635.000000	0.004304
2634.000000	0.004291
2633.000000	0.004274
2632.000000	0.004257
2631.000000	0.004248
2630.000000	0.004247
2629.000000	0.004248
2628.000000	0.004243
2627.000000	0.004235
2626.000000	0.004234
2625.000000	0.004239
2624.000000	0.004244
2623.000000	0.004244
2622.000000	0.004241
2621.000000	0.004238
2620.000000	0.004228
2619.000000	0.004207
2618.000000	0.004180
2617.000000	0.004163
2616.000000	0.004167
2615.000000	0.004191
2614.000000	0.004226
2613.000000	0.004258
2612.000000	0.004276
2611.000000	0.004278
2610.000000	0.004269
2609.000000	0.004255
2608.000000	0.004236
2607.000000	0.004214
2606.000000	0.004196
2605.000000	0.004190
2604.000000	0.004194
2603.000000	0.004195
2602.000000	0.004182
2601.000000	0.004156
2600.000000	0.004128
2599.000000	0.004111
2598.000000	0.004109
2597.000000	0.004116
2596.000000	0.004118
2595.000000	0.004107
2594.000000	0.004090
2593.000000	0.004077
2592.000000	0.004075
2591.000000	0.004081
2590.000000	0.004091
2589.000000	0.004101
2588.000000	0.004105
2587.000000	0.004100
2586.000000	0.004089
2585.000000	0.004075
2584.000000	0.004064
2583.000000	0.004063
2582.000000	0.004074
2581.000000	0.004089
2580.000000	0.004091
2579.000000	0.004073
2578.000000	0.004043
2577.000000	0.004018
2576.000000	0.004000
2575.000000	0.003986
2574.000000	0.003980
2573.000000	0.003990
2572.000000	0.004015
2571.000000	0.004040
2570.000000	0.004056
2569.000000	0.004065
2568.000000	0.004077
2567.000000	0.004090
2566.000000	0.004092
2565.000000	0.004071
2564.000000	0.004027
2563.000000	0.003980
2562.000000	0.003956
2561.000000	0.003956
2560.000000	0.003963
2559.000000	0.003963
2558.000000	0.003964
2557.000000	0.003978
2556.000000	0.004002
2555.000000	0.004015
2554.000000	0.004002
2553.000000	0.003968
2552.000000	0.003930
2551.000000	0.003905
2550.000000	0.003912
2549.000000	0.003951
2548.000000	0.004010
2547.000000	0.004067
2546.000000	0.004114
2545.000000	0.004149
2544.000000	0.004164
2543.000000	0.004153
2542.000000	0.004126
2541.000000	0.004105
2540.000000	0.004102
2539.000000	0.004115
2538.000000	0.004141
2537.000000	0.004177
2536.000000	0.004215
2535.000000	0.004235
2534.000000	0.004228
2533.000000	0.004205
2532.000000	0.004190
2531.000000	0.004195
2530.000000	0.004220
2529.000000	0.004253
2528.000000	0.004277
2527.000000	0.004280
2526.000000	0.004264
2525.000000	0.004243
2524.000000	0.004234
2523.000000	0.004250
2522.000000	0.004299
2521.000000	0.004372
2520.000000	0.004440
2519.000000	0.004477
2518.000000	0.004479
2517.000000	0.004468
2516.000000	0.004468
2515.000000	0.004490
2514.000000	0.004526
2513.000000	0.004560
2512.000000	0.004571
2511.000000	0.004555
2510.000000	0.004524
2509.000000	0.004493
2508.000000	0.004462
2507.000000	0.004416
2506.000000	0.004357
2505.000000	0.004298
2504.000000	0.004253
2503.000000	0.004223
2502.000000	0.004208
2501.000000	0.004205
2500.000000	0.004201
2499.000000	0.004181
2498.000000	0.004144
2497.000000	0.004106
2496.000000	0.004077
2495.000000	0.004048
2494.000000	0.004015
2493.000000	0.003984
2492.000000	0.003963
2491.000000	0.003949
2490.000000	0.003934
2489.000000	0.003912
2488.000000	0.003885
2487.000000	0.003856
2486.000000	0.003834
2485.000000	0.003832
2484.000000	0.003846
2483.000000	0.003856
2482.000000	0.003842
2481.000000	0.003807
2480.000000	0.003778
2479.000000	0.003777
2478.000000	0.003804
2477.000000	0.003830
2476.000000	0.003823
2475.000000	0.003778
2474.000000	0.003729
2473.000000	0.003716
2472.000000	0.003748
2471.000000	0.003793
2470.000000	0.003819
2469.000000	0.003818
2468.000000	0.003802
2467.000000	0.003785
2466.000000	0.003775
2465.000000	0.003776
2464.000000	0.003781
2463.000000	0.003783
2462.000000	0.003783
2461.000000	0.003789
2460.000000	0.003801
2459.000000	0.003803
2458.000000	0.003785
2457.000000	0.003759
2456.000000	0.003745
2455.000000	0.003745
2454.000000	0.003751
2453.000000	0.003757
2452.000000	0.003767
2451.000000	0.003781
2450.000000	0.003798
2449.000000	0.003812
2448.000000	0.003821
2447.000000	0.003820
2446.000000	0.003814
2445.000000	0.003809
2444.000000	0.003805
2443.000000	0.003788
2442.000000	0.003745
2441.000000	0.003682
2440.000000	0.003622
2439.000000	0.003589
2438.000000	0.003598
2437.000000	0.003646
2436.000000	0.003711
2435.000000	0.003764
2434.000000	0.003789
2433.000000	0.003789
2432.000000	0.003774
2431.000000	0.003749
2430.000000	0.003729
2429.000000	0.003733
2428.000000	0.003766
2427.000000	0.003812
2426.000000	0.003847
2425.000000	0.003861
2424.000000	0.003855
2423.000000	0.003838
2422.000000	0.003816
2421.000000	0.003792
2420.000000	0.003764
2419.000000	0.003731
2418.000000	0.003702
2417.000000	0.003695
2416.000000	0.003717
2415.000000	0.003748
2414.000000	0.003767
2413.000000	0.003770
2412.000000	0.003766
2411.000000	0.003759
2410.000000	0.003744
2409.000000	0.003723
2408.000000	0.003706
2407.000000	0.003698
2406.000000	0.003700
2405.000000	0.003717
2404.000000	0.003745
2403.000000	0.003770
2402.000000	0.003770
2401.000000	0.003739
2400.000000	0.003694
2399.000000	0.003659
2398.000000	0.003642
2397.000000	0.003645
2396.000000	0.003669
2395.000000	0.003714
2394.000000	0.003763
2393.000000	0.003793
2392.000000	0.003785
2391.000000	0.003747
2390.000000	0.003710
2389.000000	0.003694
2388.000000	0.003691
2387.000000	0.003678
2386.000000	0.003643
2385.000000	0.003594
2384.000000	0.003547
2383.000000	0.003509
2382.000000	0.003483
2381.000000	0.003467
2380.000000	0.003456
2379.000000	0.003441
2378.000000	0.003421
2377.000000	0.003411
2376.000000	0.003426
2375.000000	0.003470
2374.000000	0.003524
2373.000000	0.003560
2372.000000	0.003554
2371.000000	0.003513
2370.000000	0.003462
2369.000000	0.003414
2368.000000	0.003363
2367.000000	0.003312
2366.000000	0.003285
2365.000000	0.003302
2364.000000	0.003356
2363.000000	0.003434
2362.000000	0.003524
2361.000000	0.003606
2360.000000	0.003657
2359.000000	0.003658
2358.000000	0.003614
2357.000000	0.003550
2356.000000	0.003503
2355.000000	0.003504
2354.000000	0.003521
2353.000000	0.003505
2352.000000	0.003464
2351.000000	0.003455
2350.000000	0.003493
2349.000000	0.003551
2348.000000	0.003587
2347.000000	0.003576
2346.000000	0.003537
2345.000000	0.003526
2344.000000	0.003566
2343.000000	0.003628
2342.000000	0.003664
2341.000000	0.003660
2340.000000	0.003647
2339.000000	0.003658
2338.000000	0.003685
2337.000000	0.003694
2336.000000	0.003675
2335.000000	0.003643
2334.000000	0.003613
2333.000000	0.003585
2332.000000	0.003572
2331.000000	0.003588
2330.000000	0.003638
2329.000000	0.003700
2328.000000	0.003771
2327.000000	0.003848
2326.000000	0.003930
2325.000000	0.004002
2324.000000	0.004048
2323.000000	0.004058
2322.000000	0.004040
2321.000000	0.004019
2320.000000	0.004016
2319.000000	0.004026
2318.000000	0.004039
2317.000000	0.004048
2316.000000	0.004049
2315.000000	0.004019
2314.000000	0.003944
2313.000000	0.003839
2312.000000	0.003750
2311.000000	0.003703
2310.000000	0.003705
2309.000000	0.003747
2308.000000	0.003813
2307.000000	0.003863
2306.000000	0.003861
2305.000000	0.003814
2304.000000	0.003761
2303.000000	0.003727
2302.000000	0.003707
2301.000000	0.003696
2300.000000	0.003710
2299.000000	0.003752
2298.000000	0.003798
2297.000000	0.003818
2296.000000	0.003813
2295.000000	0.003805
2294.000000	0.003807
2293.000000	0.003817
2292.000000	0.003831
2291.000000	0.003842
2290.000000	0.003843
2289.000000	0.003836
2288.000000	0.003840
2287.000000	0.003871
2286.000000	0.003928
2285.000000	0.003985
2284.000000	0.004018
2283.000000	0.004015
2282.000000	0.003974
2281.000000	0.003903
2280.000000	0.003819
2279.000000	0.003747
2278.000000	0.003709
2277.000000	0.003704
2276.000000	0.003704
2275.000000	0.003678
2274.000000	0.003626
2273.000000	0.003580
2272.000000	0.003573
2271.000000	0.003608
2270.000000	0.003664
2269.000000	0.003714
2268.000000	0.003728
2267.000000	0.003677
2266.000000	0.003562
2265.000000	0.003444
2264.000000	0.003401
2263.000000	0.003460
2262.000000	0.003583
2261.000000	0.003717
2260.000000	0.003836
2259.000000	0.003923
2258.000000	0.003950
2257.000000	0.003906
2256.000000	0.003822
2255.000000	0.003747
2254.000000	0.003703
2253.000000	0.003677
2252.000000	0.003653
2251.000000	0.003623
2250.000000	0.003577
2249.000000	0.003502
2248.000000	0.003411
2247.000000	0.003348
2246.000000	0.003354
2245.000000	0.003431
2244.000000	0.003541
2243.000000	0.003647
2242.000000	0.003733
2241.000000	0.003799
2240.000000	0.003844
2239.000000	0.003860
2238.000000	0.003850
2237.000000	0.003821
2236.000000	0.003777
2235.000000	0.003724
2234.000000	0.003684
2233.000000	0.003692
2232.000000	0.003756
2231.000000	0.003838
2230.000000	0.003880
2229.000000	0.003848
2228.000000	0.003752
2227.000000	0.003634
2226.000000	0.003551
2225.000000	0.003538
2224.000000	0.003584
2223.000000	0.003638
2222.000000	0.003656
2221.000000	0.003628
2220.000000	0.003564
2219.000000	0.003459
2218.000000	0.003314
2217.000000	0.003160
2216.000000	0.003055
2215.000000	0.003037
2214.000000	0.003095
2213.000000	0.003168
2212.000000	0.003196
2211.000000	0.003165
2210.000000	0.003127
2209.000000	0.003152
2208.000000	0.003250
2207.000000	0.003362
2206.000000	0.003419
2205.000000	0.003414
2204.000000	0.003378
2203.000000	0.003334
2202.000000	0.003279
2201.000000	0.003217
2200.000000	0.003172
2199.000000	0.003184
2198.000000	0.003291
2197.000000	0.003490
2196.000000	0.003688
2195.000000	0.003743
2194.000000	0.003603
2193.000000	0.003392
2192.000000	0.003292
2191.000000	0.003354
2190.000000	0.003470
2189.000000	0.003524
2188.000000	0.003506
2187.000000	0.003459
2186.000000	0.003398
2185.000000	0.003313
2184.000000	0.003216
2183.000000	0.003117
2182.000000	0.003006
2181.000000	0.002889
2180.000000	0.002823
2179.000000	0.002861
2178.000000	0.002966
2177.000000	0.003037
2176.000000	0.003011
2175.000000	0.002925
2174.000000	0.002859
2173.000000	0.002858
2172.000000	0.002926
2171.000000	0.003054
2170.000000	0.003231
2169.000000	0.003424
2168.000000	0.003577
2167.000000	0.003652
2166.000000	0.003673
2165.000000	0.003721
2164.000000	0.003876
2163.000000	0.004133
2162.000000	0.004369
2161.000000	0.004387
2160.000000	0.004042
2159.000000	0.003380
2158.000000	0.002657
2157.000000	0.002160
2156.000000	0.002006
2155.000000	0.002116
2154.000000	0.002350
2153.000000	0.002605
2152.000000	0.002828
2151.000000	0.002988
2150.000000	0.003054
2149.000000	0.003009
2148.000000	0.002873
2147.000000	0.002713
2146.000000	0.002613
2145.000000	0.002634
2144.000000	0.002780
2143.000000	0.003000
2142.000000	0.003221
2141.000000	0.003377
2140.000000	0.003433
2139.000000	0.003403
2138.000000	0.003331
2137.000000	0.003255
2136.000000	0.003178
2135.000000	0.003087
2134.000000	0.002993
2133.000000	0.002940
2132.000000	0.002956
2131.000000	0.003026
2130.000000	0.003110
2129.000000	0.003179
2128.000000	0.003225
2127.000000	0.003243
2126.000000	0.003235
2125.000000	0.003216
2124.000000	0.003225
2123.000000	0.003288
2122.000000	0.003382
2121.000000	0.003450
2120.000000	0.003458
2119.000000	0.003436
2118.000000	0.003444
2117.000000	0.003510
2116.000000	0.003597
2115.000000	0.003654
2114.000000	0.003665
2113.000000	0.003652
2112.000000	0.003646
2111.000000	0.003663
2110.000000	0.003701
2109.000000	0.003751
2108.000000	0.003791
2107.000000	0.003806
2106.000000	0.003795
2105.000000	0.003765
2104.000000	0.003729
2103.000000	0.003696
2102.000000	0.003670
2101.000000	0.003633
2100.000000	0.003563
2099.000000	0.003466
2098.000000	0.003385
2097.000000	0.003361
2096.000000	0.003391
2095.000000	0.003444
2094.000000	0.003506
2093.000000	0.003579
2092.000000	0.003644
2091.000000	0.003662
2090.000000	0.003613
2089.000000	0.003528
2088.000000	0.003466
2087.000000	0.003473
2086.000000	0.003547
2085.000000	0.003642
2084.000000	0.003702
2083.000000	0.003713
2082.000000	0.003712
2081.000000	0.003736
2080.000000	0.003771
2079.000000	0.003778
2078.000000	0.003753
2077.000000	0.003724
2076.000000	0.003701
2075.000000	0.003660
2074.000000	0.003593
2073.000000	0.003519
2072.000000	0.003450
2071.000000	0.003374
2070.000000	0.003303
2069.000000	0.003288
2068.000000	0.003361
2067.000000	0.003496
2066.000000	0.003641
2065.000000	0.003765
2064.000000	0.003851
2063.000000	0.003869
2062.000000	0.003790
2061.000000	0.003628
2060.000000	0.003453
2059.000000	0.003339
2058.000000	0.003320
2057.000000	0.003376
2056.000000	0.003463
2055.000000	0.003545
2054.000000	0.003618
2053.000000	0.003685
2052.000000	0.003718
2051.000000	0.003677
2050.000000	0.003557
2049.000000	0.003417
2048.000000	0.003334
2047.000000	0.003342
2046.000000	0.003409
2045.000000	0.003463
2044.000000	0.003441
2043.000000	0.003329
2042.000000	0.003171
2041.000000	0.003020
2040.000000	0.002896
2039.000000	0.002811
2038.000000	0.002799
2037.000000	0.002866
2036.000000	0.002919
2035.000000	0.002831
2034.000000	0.002597
2033.000000	0.002350
2032.000000	0.002215
2031.000000	0.002191
2030.000000	0.002194
2029.000000	0.002144
2028.000000	0.002004
2027.000000	0.001825
2026.000000	0.001745
2025.000000	0.001873
2024.000000	0.002152
2023.000000	0.002415
2022.000000	0.002578
2021.000000	0.002672
2020.000000	0.002707
2019.000000	0.002637
2018.000000	0.002479
2017.000000	0.002368
2016.000000	0.002396
2015.000000	0.002491
2014.000000	0.002529
2013.000000	0.002504
2012.000000	0.002511
2011.000000	0.002606
2010.000000	0.002764
2009.000000	0.002916
2008.000000	0.003006
2007.000000	0.003003
2006.000000	0.002925
2005.000000	0.002818
2004.000000	0.002729
2003.000000	0.002689
2002.000000	0.002724
2001.000000	0.002822
2000.000000	0.002899
1999.000000	0.002876
1998.000000	0.002783
1997.000000	0.002723
1996.000000	0.002732
1995.000000	0.002744
1994.000000	0.002721
1993.000000	0.002718
1992.000000	0.002783
1991.000000	0.002873
1990.000000	0.002928
1989.000000	0.002985
1988.000000	0.003099
1987.000000	0.003234
1986.000000	0.003290
1985.000000	0.003221
1984.000000	0.003075
1983.000000	0.002928
1982.000000	0.002831
1981.000000	0.002791
1980.000000	0.002759
1979.000000	0.002648
1978.000000	0.002439
1977.000000	0.002250
1976.000000	0.002223
1975.000000	0.002366
1974.000000	0.002572
1973.000000	0.002735
1972.000000	0.002805
1971.000000	0.002780
1970.000000	0.002721
1969.000000	0.002726
1968.000000	0.002843
1967.000000	0.003000
1966.000000	0.003059
1965.000000	0.002940
1964.000000	0.002680
1963.000000	0.002400
1962.000000	0.002222
1961.000000	0.002173
1960.000000	0.002146
1959.000000	0.002026
1958.000000	0.001852
1957.000000	0.001781
1956.000000	0.001897
1955.000000	0.002119
1954.000000	0.002311
1953.000000	0.002415
1952.000000	0.002454
1951.000000	0.002463
1950.000000	0.002466
1949.000000	0.002483
1948.000000	0.002520
1947.000000	0.002567
1946.000000	0.002624
1945.000000	0.002700
1944.000000	0.002772
1943.000000	0.002783
1942.000000	0.002722
1941.000000	0.002657
1940.000000	0.002645
1939.000000	0.002668
1938.000000	0.002691
1937.000000	0.002712
1936.000000	0.002727
1935.000000	0.002694
1934.000000	0.002581
1933.000000	0.002442
1932.000000	0.002374
1931.000000	0.002412
1930.000000	0.002501
1929.000000	0.002573
1928.000000	0.002591
1927.000000	0.002553
1926.000000	0.002462
1925.000000	0.002347
1924.000000	0.002269
1923.000000	0.002289
1922.000000	0.002409
1921.000000	0.002567
1920.000000	0.002687
1919.000000	0.002721
1918.000000	0.002666
1917.000000	0.002566
1916.000000	0.002482
1915.000000	0.002444
1914.000000	0.002440
1913.000000	0.002444
1912.000000	0.002428
1911.000000	0.002397
1910.000000	0.002394
1909.000000	0.002453
1908.000000	0.002551
1907.000000	0.002625
1906.000000	0.002646
1905.000000	0.002638
1904.000000	0.002623
1903.000000	0.002589
1902.000000	0.002520
1901.000000	0.002454
1900.000000	0.002447
1899.000000	0.002500
1898.000000	0.002555
1897.000000	0.002564
1896.000000	0.002535
1895.000000	0.002512
1894.000000	0.002510
1893.000000	0.002503
1892.000000	0.002456
1891.000000	0.002374
1890.000000	0.002307
1889.000000	0.002303
1888.000000	0.002353
1887.000000	0.002407
1886.000000	0.002432
1885.000000	0.002445
1884.000000	0.002469
1883.000000	0.002496
1882.000000	0.002506
1881.000000	0.002503
1880.000000	0.002511
1879.000000	0.002531
1878.000000	0.002544
1877.000000	0.002531
1876.000000	0.002493
1875.000000	0.002435
1874.000000	0.002370
1873.000000	0.002313
1872.000000	0.002277
1871.000000	0.002259
1870.000000	0.002257
1869.000000	0.002264
1868.000000	0.002275
1867.000000	0.002289
1866.000000	0.002303
1865.000000	0.002316
1864.000000	0.002319
1863.000000	0.002305
1862.000000	0.002276
1861.000000	0.002253
1860.000000	0.002256
1859.000000	0.002268
1858.000000	0.002263
1857.000000	0.002240
1856.000000	0.002226
1855.000000	0.002240
1854.000000	0.002278
1853.000000	0.002324
1852.000000	0.002351
1851.000000	0.002328
1850.000000	0.002240
1849.000000	0.002120
1848.000000	0.002028
1847.000000	0.001992
1846.000000	0.001997
1845.000000	0.002023
1844.000000	0.002061
1843.000000	0.002096
1842.000000	0.002114
1841.000000	0.002115
1840.000000	0.002110
1839.000000	0.002112
1838.000000	0.002121
1837.000000	0.002126
1836.000000	0.002119
1835.000000	0.002101
1834.000000	0.002084
1833.000000	0.002078
1832.000000	0.002081
1831.000000	0.002087
1830.000000	0.002101
1829.000000	0.002119
1828.000000	0.002122
1827.000000	0.002089
1826.000000	0.002031
1825.000000	0.001991
1824.000000	0.002004
1823.000000	0.002055
1822.000000	0.002109
1821.000000	0.002141
1820.000000	0.002147
1819.000000	0.002137
1818.000000	0.002128
1817.000000	0.002128
1816.000000	0.002129
1815.000000	0.002106
1814.000000	0.002054
1813.000000	0.002000
1812.000000	0.001982
1811.000000	0.002013
1810.000000	0.002071
1809.000000	0.002120
1808.000000	0.002153
1807.000000	0.002188
1806.000000	0.002239
1805.000000	0.002304
1804.000000	0.002380
1803.000000	0.002478
1802.000000	0.002618
1801.000000	0.002790
1800.000000	0.002953
1799.000000	0.003071
1798.000000	0.003133
1797.000000	0.003153
1796.000000	0.003151
1795.000000	0.003122
1794.000000	0.003041
1793.000000	0.002909
1792.000000	0.002763
1791.000000	0.002645
1790.000000	0.002553
1789.000000	0.002454
1788.000000	0.002327
1787.000000	0.002184
1786.000000	0.002065
1785.000000	0.002008
1784.000000	0.002021
1783.000000	0.002069
1782.000000	0.002110
1781.000000	0.002130
1780.000000	0.002139
1779.000000	0.002148
1778.000000	0.002147
1777.000000	0.002128
1776.000000	0.002109
1775.000000	0.002110
1774.000000	0.002143
1773.000000	0.002211
1772.000000	0.002279
1771.000000	0.002294
1770.000000	0.002258
1769.000000	0.002235
1768.000000	0.002281
1767.000000	0.002402
1766.000000	0.002558
1765.000000	0.002715
1764.000000	0.002875
1763.000000	0.003072
1762.000000	0.003345
1761.000000	0.003700
1760.000000	0.004114
1759.000000	0.004579
1758.000000	0.005152
1757.000000	0.005911
1756.000000	0.006826
1755.000000	0.007754
1754.000000	0.008632
1753.000000	0.009548
1752.000000	0.010638
1751.000000	0.011917
1750.000000	0.013259
1749.000000	0.014561
1748.000000	0.015763
1747.000000	0.016789
1746.000000	0.017631
1745.000000	0.018365
1744.000000	0.019031
1743.000000	0.019599
1742.000000	0.020042
1741.000000	0.020379
1740.000000	0.020589
1739.000000	0.020616
1738.000000	0.020489
1737.000000	0.020283
1736.000000	0.019972
1735.000000	0.019418
1734.000000	0.018555
1733.000000	0.017620
1732.000000	0.016799
1731.000000	0.015990
1730.000000	0.015091
1729.000000	0.014135
1728.000000	0.013192
1727.000000	0.012281
1726.000000	0.011392
1725.000000	0.010538
1724.000000	0.009739
1723.000000	0.009006
1722.000000	0.008353
1721.000000	0.007772
1720.000000	0.007218
1719.000000	0.006650
1718.000000	0.006106
1717.000000	0.005664
1716.000000	0.005329
1715.000000	0.005048
1714.000000	0.004806
1713.000000	0.004614
1712.000000	0.004460
1711.000000	0.004315
1710.000000	0.004177
1709.000000	0.004065
1708.000000	0.003971
1707.000000	0.003878
1706.000000	0.003795
1705.000000	0.003748
1704.000000	0.003734
1703.000000	0.003736
1702.000000	0.003748
1701.000000	0.003780
1700.000000	0.003825
1699.000000	0.003862
1698.000000	0.003901
1697.000000	0.003955
1696.000000	0.004010
1695.000000	0.004059
1694.000000	0.004123
1693.000000	0.004200
1692.000000	0.004274
1691.000000	0.004328
1690.000000	0.004378
1689.000000	0.004445
1688.000000	0.004520
1687.000000	0.004578
1686.000000	0.004607
1685.000000	0.004646
1684.000000	0.004726
1683.000000	0.004806
1682.000000	0.004888
1681.000000	0.004994
1680.000000	0.005102
1679.000000	0.005189
1678.000000	0.005264
1677.000000	0.005351
1676.000000	0.005457
1675.000000	0.005554
1674.000000	0.005630
1673.000000	0.005717
1672.000000	0.005833
1671.000000	0.005966
1670.000000	0.006105
1669.000000	0.006245
1668.000000	0.006373
1667.000000	0.006476
1666.000000	0.006566
1665.000000	0.006666
1664.000000	0.006781
1663.000000	0.006900
1662.000000	0.007016
1661.000000	0.007130
1660.000000	0.007232
1659.000000	0.007294
1658.000000	0.007317
1657.000000	0.007341
1656.000000	0.007412
1655.000000	0.007533
1654.000000	0.007671
1653.000000	0.007751
1652.000000	0.007785
1651.000000	0.007809
1650.000000	0.007844
1649.000000	0.007900
1648.000000	0.007961
1647.000000	0.007970
1646.000000	0.007922
1645.000000	0.007900
1644.000000	0.007925
1643.000000	0.007958
1642.000000	0.007977
1641.000000	0.007979
1640.000000	0.007975
1639.000000	0.007976
1638.000000	0.008000
1637.000000	0.008040
1636.000000	0.008035
1635.000000	0.007942
1634.000000	0.007843
1633.000000	0.007811
1632.000000	0.007824
1631.000000	0.007827
1630.000000	0.007790
1629.000000	0.007724
1628.000000	0.007661
1627.000000	0.007618
1626.000000	0.007595
1625.000000	0.007581
1624.000000	0.007537
1623.000000	0.007428
1622.000000	0.007284
1621.000000	0.007179
1620.000000	0.007134
1619.000000	0.007114
1618.000000	0.007055
1617.000000	0.006911
1616.000000	0.006691
1615.000000	0.006463
1614.000000	0.006286
1613.000000	0.006173
1612.000000	0.006094
1611.000000	0.006010
1610.000000	0.005907
1609.000000	0.005793
1608.000000	0.005674
1607.000000	0.005542
1606.000000	0.005413
1605.000000	0.005312
1604.000000	0.005239
1603.000000	0.005170
1602.000000	0.005095
1601.000000	0.005027
1600.000000	0.004972
1599.000000	0.004914
1598.000000	0.004850
1597.000000	0.004798
1596.000000	0.004766
1595.000000	0.004750
1594.000000	0.004745
1593.000000	0.004750
1592.000000	0.004757
1591.000000	0.004756
1590.000000	0.004749
1589.000000	0.004750
1588.000000	0.004756
1587.000000	0.004749
1586.000000	0.004730
1585.000000	0.004718
1584.000000	0.004717
1583.000000	0.004708
1582.000000	0.004681
1581.000000	0.004654
1580.000000	0.004655
1579.000000	0.004699
1578.000000	0.004783
1577.000000	0.004879
1576.000000	0.004936
1575.000000	0.004940
1574.000000	0.004950
1573.000000	0.005012
1572.000000	0.005106
1571.000000	0.005181
1570.000000	0.005218
1569.000000	0.005252
1568.000000	0.005315
1567.000000	0.005401
1566.000000	0.005498
1565.000000	0.005603
1564.000000	0.005701
1563.000000	0.005779
1562.000000	0.005845
1561.000000	0.005932
1560.000000	0.006083
1559.000000	0.006242
1558.000000	0.006275
1557.000000	0.006334
1556.000000	0.006454
1555.000000	0.006590
1554.000000	0.006739
1553.000000	0.006899
1552.000000	0.007055
1551.000000	0.007208
1550.000000	0.007384
1549.000000	0.007588
1548.000000	0.007771
1547.000000	0.007900
1546.000000	0.008011
1545.000000	0.008183
1544.000000	0.008426
1543.000000	0.008680
1542.000000	0.008924
1541.000000	0.009189
1540.000000	0.009450
1539.000000	0.009634
1538.000000	0.009771
1537.000000	0.009915
1536.000000	0.010074
1535.000000	0.010241
1534.000000	0.010420
1533.000000	0.010615
1532.000000	0.010809
1531.000000	0.010988
1530.000000	0.011139
1529.000000	0.011265
1528.000000	0.011383
1527.000000	0.011515
1526.000000	0.011681
1525.000000	0.011872
1524.000000	0.012053
1523.000000	0.012190
1522.000000	0.012301
1521.000000	0.012420
1520.000000	0.012563
1519.000000	0.012723
1518.000000	0.012900
1517.000000	0.013096
1516.000000	0.013278
1515.000000	0.013429
1514.000000	0.013574
1513.000000	0.013730
1512.000000	0.013884
1511.000000	0.014010
1510.000000	0.014125
1509.000000	0.014292
1508.000000	0.014545
1507.000000	0.014784
1506.000000	0.014955
1505.000000	0.015172
1504.000000	0.015394
1503.000000	0.015582
1502.000000	0.015763
1501.000000	0.015964
1500.000000	0.016166
1499.000000	0.016341
1498.000000	0.016528
1497.000000	0.016795
1496.000000	0.017108
1495.000000	0.017377
1494.000000	0.017594
1493.000000	0.017794
1492.000000	0.018001
1491.000000	0.018237
1490.000000	0.018537
1489.000000	0.018892
1488.000000	0.019258
1487.000000	0.019603
1486.000000	0.019935
1485.000000	0.020275
1484.000000	0.020622
1483.000000	0.020965
1482.000000	0.021328
1481.000000	0.021726
1480.000000	0.022118
1479.000000	0.022461
1478.000000	0.022785
1477.000000	0.023155
1476.000000	0.023575
1475.000000	0.024013
1474.000000	0.024504
1473.000000	0.025110
1472.000000	0.025756
1471.000000	0.026333
1470.000000	0.026858
1469.000000	0.027374
1468.000000	0.027869
1467.000000	0.028320
1466.000000	0.028746
1465.000000	0.029164
1464.000000	0.029532
1463.000000	0.029824
1462.000000	0.030083
1461.000000	0.030349
1460.000000	0.030622
1459.000000	0.030912
1458.000000	0.031312
1457.000000	0.031851
1456.000000	0.032333
1455.000000	0.032666
1454.000000	0.032946
1453.000000	0.033239
1452.000000	0.033522
1451.000000	0.033757
1450.000000	0.033975
1449.000000	0.034238
1448.000000	0.034545
1447.000000	0.034845
1446.000000	0.035137
1445.000000	0.035444
1444.000000	0.035752
1443.000000	0.036044
1442.000000	0.036351
1441.000000	0.036693
1440.000000	0.037028
1439.000000	0.037314
1438.000000	0.037623
1437.000000	0.038084
1436.000000	0.038647
1435.000000	0.039139
1434.000000	0.039541
1433.000000	0.039909
1432.000000	0.040243
1431.000000	0.040534
1430.000000	0.040843
1429.000000	0.041246
1428.000000	0.041703
1427.000000	0.042120
1426.000000	0.042479
1425.000000	0.042811
1424.000000	0.043078
1423.000000	0.043226
1422.000000	0.043314
1421.000000	0.043439
1420.000000	0.043604
1419.000000	0.043725
1418.000000	0.043788
1417.000000	0.043868
1416.000000	0.043941
1415.000000	0.043929
1414.000000	0.043828
1413.000000	0.043678
1412.000000	0.043465
1411.000000	0.043151
1410.000000	0.042767
1409.000000	0.042366
1408.000000	0.041936
1407.000000	0.041447
1406.000000	0.040935
1405.000000	0.040462
1404.000000	0.040038
1403.000000	0.039663
1402.000000	0.039361
1401.000000	0.039130
1400.000000	0.038917
1399.000000	0.038674
1398.000000	0.038435
1397.000000	0.038250
1396.000000	0.038079
1395.000000	0.037857
1394.000000	0.037613
1393.000000	0.037420
1392.000000	0.037253
1391.000000	0.037044
1390.000000	0.036775
1389.000000	0.036466
1388.000000	0.036122
1387.000000	0.035747
1386.000000	0.035392
1385.000000	0.035099
1384.000000	0.034831
1383.000000	0.034542
1382.000000	0.034235
1381.000000	0.033921
1380.000000	0.033578
1379.000000	0.033189
1378.000000	0.032772
1377.000000	0.032346
1376.000000	0.031882
1375.000000	0.031350
1374.000000	0.030786
1373.000000	0.030270
1372.000000	0.029839
1371.000000	0.029459
1370.000000	0.029100
1369.000000	0.028760
1368.000000	0.028440
1367.000000	0.028133
1366.000000	0.027832
1365.000000	0.027517
1364.000000	0.027174
1363.000000	0.026828
1362.000000	0.026534
1361.000000	0.026333
1360.000000	0.026202
1359.000000	0.026091
1358.000000	0.025969
1357.000000	0.025822
1356.000000	0.025648
1355.000000	0.025455
1354.000000	0.025260
1353.000000	0.025059
1352.000000	0.024834
1351.000000	0.024592
1350.000000	0.024354
1349.000000	0.024139
1348.000000	0.023952
1347.000000	0.023800
1346.000000	0.023693
1345.000000	0.023622
1344.000000	0.023562
1343.000000	0.023496
1342.000000	0.023433
1341.000000	0.023397
1340.000000	0.023406
1339.000000	0.023457
1338.000000	0.023537
1337.000000	0.023619
1336.000000	0.023667
1335.000000	0.023662
1334.000000	0.023605
1333.000000	0.023498
1332.000000	0.023341
1331.000000	0.023154
1330.000000	0.022960
1329.000000	0.022754
1328.000000	0.022519
1327.000000	0.022261
1326.000000	0.022011
1325.000000	0.021792
1324.000000	0.021592
1323.000000	0.021389
1322.000000	0.021185
1321.000000	0.020990
1320.000000	0.020799
1319.000000	0.020601
1318.000000	0.020395
1317.000000	0.020181
1316.000000	0.019951
1315.000000	0.019701
1314.000000	0.019450
1313.000000	0.019216
1312.000000	0.019000
1311.000000	0.018798
1310.000000	0.018614
1309.000000	0.018449
1308.000000	0.018291
1307.000000	0.018121
1306.000000	0.017923
1305.000000	0.017696
1304.000000	0.017450
1303.000000	0.017202
1302.000000	0.016967
1301.000000	0.016743
1300.000000	0.016523
1299.000000	0.016310
1298.000000	0.016112
1297.000000	0.015928
1296.000000	0.015740
1295.000000	0.015549
1294.000000	0.015375
1293.000000	0.015242
1292.000000	0.015157
1291.000000	0.015106
1290.000000	0.015059
1289.000000	0.014991
1288.000000	0.014896
1287.000000	0.014789
1286.000000	0.014689
1285.000000	0.014597
1284.000000	0.014505
1283.000000	0.014411
1282.000000	0.014321
1281.000000	0.014236
1280.000000	0.014164
1279.000000	0.014125
1278.000000	0.014135
1277.000000	0.014190
1276.000000	0.014275
1275.000000	0.014388
1274.000000	0.014540
1273.000000	0.014734
1272.000000	0.014965
1271.000000	0.015234
1270.000000	0.015545
1269.000000	0.015889
1268.000000	0.016251
1267.000000	0.016623
1266.000000	0.017007
1265.000000	0.017398
1264.000000	0.017781
1263.000000	0.018146
1262.000000	0.018499
1261.000000	0.018849
1260.000000	0.019198
1259.000000	0.019545
1258.000000	0.019889
1257.000000	0.020213
1256.000000	0.020480
1255.000000	0.020658
1254.000000	0.020744
1253.000000	0.020766
1252.000000	0.020758
1251.000000	0.020742
1250.000000	0.020734
1249.000000	0.020737
1248.000000	0.020751
1247.000000	0.020775
1246.000000	0.020807
1245.000000	0.020838
1244.000000	0.020861
1243.000000	0.020875
1242.000000	0.020879
1241.000000	0.020862
1240.000000	0.020809
1239.000000	0.020720
1238.000000	0.020603
1237.000000	0.020459
1236.000000	0.020277
1235.000000	0.020060
1234.000000	0.019821
1233.000000	0.019573
1232.000000	0.019312
1231.000000	0.019038
1230.000000	0.018748
1229.000000	0.018425
1228.000000	0.018043
1227.000000	0.017591
1226.000000	0.017090
1225.000000	0.016569
1224.000000	0.016048
1223.000000	0.015549
1222.000000	0.015094
1221.000000	0.014691
1220.000000	0.014333
1219.000000	0.014013
1218.000000	0.013732
1217.000000	0.013484
1216.000000	0.013261
1215.000000	0.013057
1214.000000	0.012872
1213.000000	0.012707
1212.000000	0.012566
1211.000000	0.012464
1210.000000	0.012415
1209.000000	0.012408
1208.000000	0.012414
1207.000000	0.012423
1206.000000	0.012444
1205.000000	0.012493
1204.000000	0.012572
1203.000000	0.012680
1202.000000	0.012809
1201.000000	0.012944
1200.000000	0.013070
1199.000000	0.013190
1198.000000	0.013323
1197.000000	0.013480
1196.000000	0.013654
1195.000000	0.013831
1194.000000	0.014004
1193.000000	0.014172
1192.000000	0.014345
1191.000000	0.014537
1190.000000	0.014755
1189.000000	0.014984
1188.000000	0.015206
1187.000000	0.015428
1186.000000	0.015676
1185.000000	0.015960
1184.000000	0.016266
1183.000000	0.016581
1182.000000	0.016921
1181.000000	0.017313
1180.000000	0.017761
1179.000000	0.018238
1178.000000	0.018709
1177.000000	0.019154
1176.000000	0.019569
1175.000000	0.019968
1174.000000	0.020366
1173.000000	0.020766
1172.000000	0.021165
1171.000000	0.021561
1170.000000	0.021958
1169.000000	0.022350
1168.000000	0.022714
1167.000000	0.023032
1166.000000	0.023308
1165.000000	0.023552
1164.000000	0.023757
1163.000000	0.023911
1162.000000	0.024008
1161.000000	0.024051
1160.000000	0.024036
1159.000000	0.023958
1158.000000	0.023822
1157.000000	0.023634
1156.000000	0.023386
1155.000000	0.023069
1154.000000	0.022695
1153.000000	0.022279
1152.000000	0.021827
1151.000000	0.021337
1150.000000	0.020808
1149.000000	0.020240
1148.000000	0.019626
1147.000000	0.018967
1146.000000	0.018290
1145.000000	0.017624
1144.000000	0.016982
1143.000000	0.016363
1142.000000	0.015763
1141.000000	0.015182
1140.000000	0.014629
1139.000000	0.014113
1138.000000	0.013636
1137.000000	0.013186
1136.000000	0.012748
1135.000000	0.012335
1134.000000	0.011966
1133.000000	0.011647
1132.000000	0.011360
1131.000000	0.011094
1130.000000	0.010867
1129.000000	0.010694
1128.000000	0.010575
1127.000000	0.010499
1126.000000	0.010463
1125.000000	0.010474
1124.000000	0.010536
1123.000000	0.010649
1122.000000	0.010803
1121.000000	0.010985
1120.000000	0.011190
1119.000000	0.011422
1118.000000	0.011687
1117.000000	0.011996
1116.000000	0.012368
1115.000000	0.012823
1114.000000	0.013354
1113.000000	0.013913
1112.000000	0.014433
1111.000000	0.014873
1110.000000	0.015219
1109.000000	0.015467
1108.000000	0.015614
1107.000000	0.015669
1106.000000	0.015659
1105.000000	0.015618
1104.000000	0.015572
1103.000000	0.015542
1102.000000	0.015547
1101.000000	0.015603
1100.000000	0.015716
1099.000000	0.015890
1098.000000	0.016113
1097.000000	0.016349
1096.000000	0.016556
1095.000000	0.016715
1094.000000	0.016823
1093.000000	0.016873
1092.000000	0.016849
1091.000000	0.016740
1090.000000	0.016551
1089.000000	0.016286
1088.000000	0.015941
1087.000000	0.015521
1086.000000	0.015050
1085.000000	0.014549
1084.000000	0.014035
1083.000000	0.013532
1082.000000	0.013066
1081.000000	0.012641
1080.000000	0.012239
1079.000000	0.011862
1078.000000	0.011529
1077.000000	0.011246
1076.000000	0.010986
1075.000000	0.010723
1074.000000	0.010472
1073.000000	0.010264
1072.000000	0.010116
1071.000000	0.010022
1070.000000	0.009971
1069.000000	0.009953
1068.000000	0.009957
1067.000000	0.009978
1066.000000	0.010011
1065.000000	0.010051
1064.000000	0.010087
1063.000000	0.010112
1062.000000	0.010130
1061.000000	0.010147
1060.000000	0.010164
1059.000000	0.010169
1058.000000	0.010147
1057.000000	0.010096
1056.000000	0.010026
1055.000000	0.009959
1054.000000	0.009909
1053.000000	0.009873
1052.000000	0.009834
1051.000000	0.009780
1050.000000	0.009712
1049.000000	0.009646
1048.000000	0.009609
1047.000000	0.009621
1046.000000	0.009684
1045.000000	0.009781
1044.000000	0.009896
1043.000000	0.010023
1042.000000	0.010151
1041.000000	0.010262
1040.000000	0.010360
1039.000000	0.010475
1038.000000	0.010626
1037.000000	0.010789
1036.000000	0.010924
1035.000000	0.011022
1034.000000	0.011103
1033.000000	0.011181
1032.000000	0.011252
1031.000000	0.011307
1030.000000	0.011356
1029.000000	0.011413
1028.000000	0.011483
1027.000000	0.011564
1026.000000	0.011653
1025.000000	0.011734
1024.000000	0.011790
1023.000000	0.011810
1022.000000	0.011797
1021.000000	0.011755
1020.000000	0.011684
1019.000000	0.011598
1018.000000	0.011516
1017.000000	0.011443
1016.000000	0.011365
1015.000000	0.011269
1014.000000	0.011165
1013.000000	0.011070
1012.000000	0.010983
1011.000000	0.010877
1010.000000	0.010733
1009.000000	0.010550
1008.000000	0.010347
1007.000000	0.010144
1006.000000	0.009946
1005.000000	0.009752
1004.000000	0.009560
1003.000000	0.009372
1002.000000	0.009191
1001.000000	0.009017
1000.000000	0.008864
999.000000	0.008743
998.000000	0.008651
997.000000	0.008574
996.000000	0.008502
995.000000	0.008438
994.000000	0.008377
993.000000	0.008305
992.000000	0.008217
991.000000	0.008134
990.000000	0.008078
989.000000	0.008044
988.000000	0.008012
987.000000	0.007977
986.000000	0.007955
985.000000	0.007952
984.000000	0.007957
983.000000	0.007956
982.000000	0.007945
981.000000	0.007928
980.000000	0.007920
979.000000	0.007937
978.000000	0.007991
977.000000	0.008074
976.000000	0.008168
975.000000	0.008257
974.000000	0.008335
973.000000	0.008396
972.000000	0.008441
971.000000	0.008475
970.000000	0.008503
969.000000	0.008520
968.000000	0.008524
967.000000	0.008519
966.000000	0.008500
965.000000	0.008458
964.000000	0.008387
963.000000	0.008303
962.000000	0.008221
961.000000	0.008141
960.000000	0.008053
959.000000	0.007956
958.000000	0.007844
957.000000	0.007707
956.000000	0.007544
955.000000	0.007378
954.000000	0.007231
953.000000	0.007088
952.000000	0.006924
951.000000	0.006744
950.000000	0.006584
949.000000	0.006462
948.000000	0.006348
947.000000	0.006210
946.000000	0.006049
945.000000	0.005889
944.000000	0.005745
943.000000	0.005614
942.000000	0.005484
941.000000	0.005357
940.000000	0.005237
939.000000	0.005124
938.000000	0.005004
937.000000	0.004870
936.000000	0.004730
935.000000	0.004608
934.000000	0.004515
933.000000	0.004441
932.000000	0.004377
931.000000	0.004328
930.000000	0.004295
929.000000	0.004258
928.000000	0.004199
927.000000	0.004125
926.000000	0.004055
925.000000	0.003995
924.000000	0.003937
923.000000	0.003879
922.000000	0.003821
921.000000	0.003754
920.000000	0.003670
919.000000	0.003579
918.000000	0.003496
917.000000	0.003417
916.000000	0.003324
915.000000	0.003215
914.000000	0.003115
913.000000	0.003044
912.000000	0.003000
911.000000	0.002963
910.000000	0.002911
909.000000	0.002836
908.000000	0.002741
907.000000	0.002643
906.000000	0.002550
905.000000	0.002454
904.000000	0.002347
903.000000	0.002242
902.000000	0.002156
901.000000	0.002089
900.000000	0.002032
899.000000	0.001986
898.000000	0.001968
897.000000	0.001985
896.000000	0.002027
895.000000	0.002069
894.000000	0.002097
893.000000	0.002117
892.000000	0.002164
891.000000	0.002272
890.000000	0.002477
889.000000	0.002842
888.000000	0.003498
887.000000	0.004593
886.000000	0.006159
885.000000	0.008033
884.000000	0.009950
883.000000	0.011733
882.000000	0.013421
881.000000	0.015216
880.000000	0.017305
879.000000	0.019706
878.000000	0.022237
877.000000	0.024622
876.000000	0.026604
875.000000	0.027996
874.000000	0.028647
873.000000	0.028445
872.000000	0.027362
871.000000	0.025528
870.000000	0.023223
869.000000	0.020768
868.000000	0.018409
867.000000	0.016282
866.000000	0.014438
865.000000	0.012876
864.000000	0.011577
863.000000	0.010509
862.000000	0.009610
861.000000	0.008796
860.000000	0.008016
859.000000	0.007288
858.000000	0.006653
857.000000	0.006118
856.000000	0.005672
855.000000	0.005319
854.000000	0.005056
853.000000	0.004850
852.000000	0.004692
851.000000	0.004648
850.000000	0.004787
849.000000	0.005033
848.000000	0.005170
847.000000	0.005022
846.000000	0.004613
845.000000	0.004104
844.000000	0.003648
843.000000	0.003315
842.000000	0.003119
841.000000	0.003034
840.000000	0.003001
839.000000	0.002959
838.000000	0.002898
837.000000	0.002849
836.000000	0.002831
835.000000	0.002819
834.000000	0.002780
833.000000	0.002713
832.000000	0.002648
831.000000	0.002610
830.000000	0.002591
829.000000	0.002558
828.000000	0.002484
827.000000	0.002366
826.000000	0.002225
825.000000	0.002093
824.000000	0.002002
823.000000	0.001982
822.000000	0.002048
821.000000	0.002178
820.000000	0.002336
819.000000	0.002495
818.000000	0.002649
817.000000	0.002793
816.000000	0.002898
815.000000	0.002931
814.000000	0.002876
813.000000	0.002750
812.000000	0.002585
811.000000	0.002415
810.000000	0.002260
809.000000	0.002129
808.000000	0.002028
807.000000	0.001967
806.000000	0.001948
805.000000	0.001952
804.000000	0.001962
803.000000	0.001983
802.000000	0.002040
801.000000	0.002134
800.000000	0.002227
799.000000	0.002269
798.000000	0.002247
797.000000	0.002191
796.000000	0.002135
795.000000	0.002098
794.000000	0.002081
793.000000	0.002086
792.000000	0.002116
791.000000	0.002159
790.000000	0.002194
789.000000	0.002207
788.000000	0.002202
787.000000	0.002200
786.000000	0.002229
785.000000	0.002304
784.000000	0.002413
783.000000	0.002516
782.000000	0.002570
781.000000	0.002573
780.000000	0.002566
779.000000	0.002591
778.000000	0.002652
777.000000	0.002717
776.000000	0.002760
775.000000	0.002776
774.000000	0.002781
773.000000	0.002800
772.000000	0.002846
771.000000	0.002914
770.000000	0.002975
769.000000	0.003017
768.000000	0.003052
767.000000	0.003103
766.000000	0.003163
765.000000	0.003203
764.000000	0.003214
763.000000	0.003231
762.000000	0.003299
761.000000	0.003431
760.000000	0.003595
759.000000	0.003735
758.000000	0.003817
757.000000	0.003858
756.000000	0.003918
755.000000	0.004035
754.000000	0.004184
753.000000	0.004305
752.000000	0.004371
751.000000	0.004400
750.000000	0.004421
749.000000	0.004445
748.000000	0.004467
747.000000	0.004488
746.000000	0.004500
745.000000	0.004493
744.000000	0.004469
743.000000	0.004443
742.000000	0.004424
741.000000	0.004409
740.000000	0.004394
739.000000	0.004377
738.000000	0.004361
737.000000	0.004366
736.000000	0.004421
735.000000	0.004542
734.000000	0.004696
733.000000	0.004835
732.000000	0.004941
731.000000	0.005033
730.000000	0.005115
729.000000	0.005171
728.000000	0.005193
727.000000	0.005192
726.000000	0.005172
725.000000	0.005128
724.000000	0.005069
723.000000	0.005029
722.000000	0.005039
721.000000	0.005121
720.000000	0.005313
719.000000	0.005692
718.000000	0.006358
717.000000	0.007411
716.000000	0.008918
715.000000	0.010802
714.000000	0.012728
713.000000	0.014159
712.000000	0.014647
711.000000	0.014140
710.000000	0.012998
709.000000	0.011724
708.000000	0.010676
707.000000	0.009958
706.000000	0.009504
705.000000	0.009221
704.000000	0.009039
703.000000	0.008921
702.000000	0.008845
701.000000	0.008805
700.000000	0.008824
699.000000	0.008908
698.000000	0.009022
697.000000	0.009106
696.000000	0.009134
695.000000	0.009135
694.000000	0.009143
693.000000	0.009160
692.000000	0.009179
691.000000	0.009189
690.000000	0.009161
689.000000	0.009067
688.000000	0.008922
687.000000	0.008789
686.000000	0.008701
685.000000	0.008631
684.000000	0.008568
683.000000	0.008540
682.000000	0.008542
681.000000	0.008519
680.000000	0.008442
679.000000	0.008358
678.000000	0.008300
677.000000	0.008263
676.000000	0.008230
675.000000	0.008191
674.000000	0.008115
673.000000	0.007944
672.000000	0.007650
671.000000	0.007244
670.000000	0.006715
669.000000	0.006080
668.000000	0.005657
667.000000	0.005735
666.000000	0.005915
665.000000	0.006034
664.000000	0.006082
663.000000	0.006015
662.000000	0.005851
661.000000	0.005665
660.000000	0.005504
659.000000	0.005368
658.000000	0.005274
657.000000	0.005288
656.000000	0.005427
655.000000	0.005625
654.000000	0.005830
653.000000	0.006050
652.000000	0.006277
651.000000	0.006466
650.000000	0.006619
649.000000	0.006810
648.000000	0.007080
647.000000	0.007378
646.000000	0.007664
645.000000	0.007961
644.000000	0.008275
643.000000	0.008552
642.000000	0.008744
641.000000	0.008887
640.000000	0.009044
639.000000	0.009214
638.000000	0.009351
637.000000	0.009425
636.000000	0.009424
635.000000	0.009342
634.000000	0.009210
633.000000	0.009093
632.000000	0.009031
631.000000	0.009008
630.000000	0.008990
629.000000	0.008964
628.000000	0.008922
627.000000	0.008859
626.000000	0.008801
625.000000	0.008793
624.000000	0.008838
623.000000	0.008884
622.000000	0.008895
621.000000	0.008898
620.000000	0.008952
619.000000	0.009092
618.000000	0.009305
617.000000	0.009544
616.000000	0.009746
615.000000	0.009877
614.000000	0.009962
613.000000	0.010045
612.000000	0.010136
611.000000	0.010203
610.000000	0.010228
609.000000	0.010234
608.000000	0.010265
607.000000	0.010333
606.000000	0.010423
605.000000	0.010476
604.000000	0.010414
603.000000	0.010194
602.000000	0.009848
601.000000	0.009436
600.000000	0.008987
599.000000	0.008502
598.000000	0.007995
597.000000	0.007506
596.000000	0.007068
595.000000	0.006704
594.000000	0.006431
593.000000	0.006247
592.000000	0.006127
591.000000	0.006059
590.000000	0.006051
589.000000	0.006079
588.000000	0.006064
587.000000	0.005960
586.000000	0.005845
585.000000	0.005843
584.000000	0.005954
583.000000	0.006037
582.000000	0.005978
581.000000	0.005810
580.000000	0.005635
579.000000	0.005506
578.000000	0.005420
577.000000	0.005369
576.000000	0.005345
575.000000	0.005321
574.000000	0.005277
573.000000	0.005223
572.000000	0.005161
571.000000	0.005086
570.000000	0.005034
569.000000	0.005061
568.000000	0.005143
567.000000	0.005164
566.000000	0.005043
565.000000	0.004825
564.000000	0.004608
563.000000	0.004444
562.000000	0.004349
561.000000	0.004337
560.000000	0.004389
559.000000	0.004447
558.000000	0.004471
557.000000	0.004480
556.000000	0.004475
555.000000	0.004411
554.000000	0.004277
553.000000	0.004150
552.000000	0.004104
551.000000	0.004110
550.000000	0.004108
549.000000	0.004119
548.000000	0.004192
547.000000	0.004277
546.000000	0.004251
545.000000	0.004079
544.000000	0.003856
543.000000	0.003687
542.000000	0.003604
541.000000	0.003597
540.000000	0.003655
539.000000	0.003748
538.000000	0.003831
537.000000	0.003890
536.000000	0.003944
535.000000	0.003997
534.000000	0.004031
533.000000	0.004057
532.000000	0.004131
531.000000	0.004288
530.000000	0.004479
529.000000	0.004619
528.000000	0.004667
527.000000	0.004645
526.000000	0.004597
525.000000	0.004575
524.000000	0.004619
523.000000	0.004744
522.000000	0.004933
521.000000	0.005109
520.000000	0.005154
519.000000	0.005002
518.000000	0.004757
517.000000	0.004644
516.000000	0.004767
515.000000	0.005001
514.000000	0.005159
513.000000	0.005188
512.000000	0.005167
511.000000	0.005158
510.000000	0.005142
509.000000	0.005083
508.000000	0.005013
507.000000	0.004985
506.000000	0.005006
505.000000	0.005038
504.000000	0.005071
503.000000	0.005142
502.000000	0.005277
501.000000	0.005432
500.000000	0.005517
499.000000	0.005485
498.000000	0.005395
497.000000	0.005355
496.000000	0.005390
495.000000	0.005394
494.000000	0.005262
493.000000	0.005027
492.000000	0.004833
491.000000	0.004787
490.000000	0.004884
489.000000	0.005037
488.000000	0.005137
487.000000	0.005080
486.000000	0.004841
485.000000	0.004530
484.000000	0.004316
483.000000	0.004268
482.000000	0.004343
481.000000	0.004511
480.000000	0.004769
479.000000	0.005051
478.000000	0.005235
477.000000	0.005255
476.000000	0.005131
475.000000	0.004871
474.000000	0.004487
473.000000	0.004086
472.000000	0.003847
471.000000	0.003827
470.000000	0.003943
469.000000	0.004110
468.000000	0.004252
467.000000	0.004234
466.000000	0.003994
465.000000	0.003680
464.000000	0.003507
463.000000	0.003511
462.000000	0.003507
461.000000	0.003335
460.000000	0.003007
459.000000	0.002592
458.000000	0.002154
457.000000	0.001836
456.000000	0.001776
455.000000	0.002379
454.000000	0.002499
453.000000	0.002570
452.000000	0.002463
451.000000	0.002223
450.000000	0.001940
