PE IR       SUBTECH     SPECTRUM    ASCII       PEDS        4.00        
   -1
P12-Vert050_1.ASC
23/06/09
11:21:08.00
23/06/09
11:23:17.00
uco
Sample 050 By uco Date Friday, June 09 2023
450.000000
#HDR
-1
-1
#GR
cm-1
A
1.0
0.0
4000.000000
-1.000000
3551
8
0.007425
0.000263
#DATA
4000.000000	0.000740
3999.000000	0.000745
3998.000000	0.000750
3997.000000	0.000760
3996.000000	0.000767
3995.000000	0.000764
3994.000000	0.000754
3993.000000	0.000748
3992.000000	0.000753
3991.000000	0.000764
3990.000000	0.000771
3989.000000	0.000764
3988.000000	0.000748
3987.000000	0.000735
3986.000000	0.000735
3985.000000	0.000752
3984.000000	0.000782
3983.000000	0.000816
3982.000000	0.000842
3981.000000	0.000851
3980.000000	0.000844
3979.000000	0.000826
3978.000000	0.000804
3977.000000	0.000782
3976.000000	0.000763
3975.000000	0.000751
3974.000000	0.000750
3973.000000	0.000759
3972.000000	0.000770
3971.000000	0.000771
3970.000000	0.000763
3969.000000	0.000755
3968.000000	0.000755
3967.000000	0.000768
3966.000000	0.000786
3965.000000	0.000804
3964.000000	0.000812
3963.000000	0.000808
3962.000000	0.000794
3961.000000	0.000778
3960.000000	0.000768
3959.000000	0.000771
3958.000000	0.000785
3957.000000	0.000803
3956.000000	0.000815
3955.000000	0.000816
3954.000000	0.000809
3953.000000	0.000801
3952.000000	0.000801
3951.000000	0.000806
3950.000000	0.000806
3949.000000	0.000796
3948.000000	0.000782
3947.000000	0.000780
3946.000000	0.000796
3945.000000	0.000823
3944.000000	0.000845
3943.000000	0.000849
3942.000000	0.000839
3941.000000	0.000827
3940.000000	0.000823
3939.000000	0.000828
3938.000000	0.000835
3937.000000	0.000837
3936.000000	0.000831
3935.000000	0.000818
3934.000000	0.000802
3933.000000	0.000791
3932.000000	0.000787
3931.000000	0.000786
3930.000000	0.000786
3929.000000	0.000786
3928.000000	0.000790
3927.000000	0.000800
3926.000000	0.000818
3925.000000	0.000842
3924.000000	0.000868
3923.000000	0.000891
3922.000000	0.000904
3921.000000	0.000903
3920.000000	0.000892
3919.000000	0.000877
3918.000000	0.000857
3917.000000	0.000834
3916.000000	0.000814
3915.000000	0.000807
3914.000000	0.000813
3913.000000	0.000828
3912.000000	0.000844
3911.000000	0.000860
3910.000000	0.000872
3909.000000	0.000874
3908.000000	0.000864
3907.000000	0.000840
3906.000000	0.000808
3905.000000	0.000780
3904.000000	0.000768
3903.000000	0.000785
3902.000000	0.000825
3901.000000	0.000865
3900.000000	0.000881
3899.000000	0.000869
3898.000000	0.000839
3897.000000	0.000809
3896.000000	0.000787
3895.000000	0.000777
3894.000000	0.000779
3893.000000	0.000786
3892.000000	0.000782
3891.000000	0.000766
3890.000000	0.000758
3889.000000	0.000771
3888.000000	0.000799
3887.000000	0.000824
3886.000000	0.000835
3885.000000	0.000829
3884.000000	0.000820
3883.000000	0.000815
3882.000000	0.000803
3881.000000	0.000782
3880.000000	0.000757
3879.000000	0.000749
3878.000000	0.000767
3877.000000	0.000799
3876.000000	0.000829
3875.000000	0.000846
3874.000000	0.000848
3873.000000	0.000849
3872.000000	0.000858
3871.000000	0.000868
3870.000000	0.000868
3869.000000	0.000864
3868.000000	0.000874
3867.000000	0.000895
3866.000000	0.000915
3865.000000	0.000928
3864.000000	0.000924
3863.000000	0.000899
3862.000000	0.000863
3861.000000	0.000833
3860.000000	0.000824
3859.000000	0.000830
3858.000000	0.000841
3857.000000	0.000851
3856.000000	0.000866
3855.000000	0.000892
3854.000000	0.000925
3853.000000	0.000946
3852.000000	0.000962
3851.000000	0.000978
3850.000000	0.000972
3849.000000	0.000947
3848.000000	0.000921
3847.000000	0.000903
3846.000000	0.000890
3845.000000	0.000879
3844.000000	0.000869
3843.000000	0.000864
3842.000000	0.000871
3841.000000	0.000889
3840.000000	0.000905
3839.000000	0.000908
3838.000000	0.000901
3837.000000	0.000897
3836.000000	0.000900
3835.000000	0.000900
3834.000000	0.000888
3833.000000	0.000868
3832.000000	0.000849
3831.000000	0.000840
3830.000000	0.000840
3829.000000	0.000843
3828.000000	0.000847
3827.000000	0.000853
3826.000000	0.000866
3825.000000	0.000889
3824.000000	0.000920
3823.000000	0.000947
3822.000000	0.000953
3821.000000	0.000932
3820.000000	0.000907
3819.000000	0.000901
3818.000000	0.000897
3817.000000	0.000874
3816.000000	0.000836
3815.000000	0.000808
3814.000000	0.000806
3813.000000	0.000813
3812.000000	0.000816
3811.000000	0.000821
3810.000000	0.000836
3809.000000	0.000858
3808.000000	0.000872
3807.000000	0.000865
3806.000000	0.000852
3805.000000	0.000857
3804.000000	0.000880
3803.000000	0.000909
3802.000000	0.000923
3801.000000	0.000915
3800.000000	0.000903
3799.000000	0.000898
3798.000000	0.000889
3797.000000	0.000870
3796.000000	0.000851
3795.000000	0.000839
3794.000000	0.000835
3793.000000	0.000831
3792.000000	0.000823
3791.000000	0.000817
3790.000000	0.000820
3789.000000	0.000834
3788.000000	0.000859
3787.000000	0.000885
3786.000000	0.000893
3785.000000	0.000875
3784.000000	0.000844
3783.000000	0.000823
3782.000000	0.000821
3781.000000	0.000828
3780.000000	0.000823
3779.000000	0.000801
3778.000000	0.000778
3777.000000	0.000769
3776.000000	0.000773
3775.000000	0.000783
3774.000000	0.000795
3773.000000	0.000809
3772.000000	0.000822
3771.000000	0.000834
3770.000000	0.000850
3769.000000	0.000874
3768.000000	0.000902
3767.000000	0.000919
3766.000000	0.000919
3765.000000	0.000909
3764.000000	0.000899
3763.000000	0.000891
3762.000000	0.000878
3761.000000	0.000858
3760.000000	0.000840
3759.000000	0.000829
3758.000000	0.000824
3757.000000	0.000825
3756.000000	0.000834
3755.000000	0.000848
3754.000000	0.000860
3753.000000	0.000865
3752.000000	0.000871
3751.000000	0.000891
3750.000000	0.000922
3749.000000	0.000949
3748.000000	0.000956
3747.000000	0.000940
3746.000000	0.000911
3745.000000	0.000884
3744.000000	0.000865
3743.000000	0.000855
3742.000000	0.000839
3741.000000	0.000801
3740.000000	0.000760
3739.000000	0.000743
3738.000000	0.000761
3737.000000	0.000797
3736.000000	0.000825
3735.000000	0.000827
3734.000000	0.000814
3733.000000	0.000806
3732.000000	0.000810
3731.000000	0.000821
3730.000000	0.000837
3729.000000	0.000854
3728.000000	0.000866
3727.000000	0.000868
3726.000000	0.000860
3725.000000	0.000848
3724.000000	0.000833
3723.000000	0.000811
3722.000000	0.000780
3721.000000	0.000749
3720.000000	0.000736
3719.000000	0.000746
3718.000000	0.000770
3717.000000	0.000793
3716.000000	0.000805
3715.000000	0.000805
3714.000000	0.000805
3713.000000	0.000825
3712.000000	0.000866
3711.000000	0.000903
3710.000000	0.000918
3709.000000	0.000914
3708.000000	0.000897
3707.000000	0.000871
3706.000000	0.000842
3705.000000	0.000811
3704.000000	0.000779
3703.000000	0.000745
3702.000000	0.000712
3701.000000	0.000693
3700.000000	0.000700
3699.000000	0.000732
3698.000000	0.000771
3697.000000	0.000805
3696.000000	0.000835
3695.000000	0.000870
3694.000000	0.000920
3693.000000	0.000978
3692.000000	0.001026
3691.000000	0.001033
3690.000000	0.000981
3689.000000	0.000892
3688.000000	0.000816
3687.000000	0.000778
3686.000000	0.000757
3685.000000	0.000732
3684.000000	0.000713
3683.000000	0.000725
3682.000000	0.000779
3681.000000	0.000854
3680.000000	0.000916
3679.000000	0.000949
3678.000000	0.000950
3677.000000	0.000912
3676.000000	0.000829
3675.000000	0.000731
3674.000000	0.000681
3673.000000	0.000690
3672.000000	0.000715
3671.000000	0.000732
3670.000000	0.000738
3669.000000	0.000747
3668.000000	0.000773
3667.000000	0.000804
3666.000000	0.000822
3665.000000	0.000825
3664.000000	0.000824
3663.000000	0.000823
3662.000000	0.000822
3661.000000	0.000818
3660.000000	0.000814
3659.000000	0.000817
3658.000000	0.000829
3657.000000	0.000844
3656.000000	0.000852
3655.000000	0.000850
3654.000000	0.000839
3653.000000	0.000818
3652.000000	0.000800
3651.000000	0.000807
3650.000000	0.000835
3649.000000	0.000847
3648.000000	0.000819
3647.000000	0.000777
3646.000000	0.000751
3645.000000	0.000750
3644.000000	0.000765
3643.000000	0.000779
3642.000000	0.000781
3641.000000	0.000766
3640.000000	0.000746
3639.000000	0.000735
3638.000000	0.000747
3637.000000	0.000778
3636.000000	0.000807
3635.000000	0.000812
3634.000000	0.000790
3633.000000	0.000770
3632.000000	0.000781
3631.000000	0.000828
3630.000000	0.000880
3629.000000	0.000893
3628.000000	0.000860
3627.000000	0.000827
3626.000000	0.000806
3625.000000	0.000784
3624.000000	0.000757
3623.000000	0.000730
3622.000000	0.000701
3621.000000	0.000678
3620.000000	0.000678
3619.000000	0.000717
3618.000000	0.000791
3617.000000	0.000877
3616.000000	0.000943
3615.000000	0.000974
3614.000000	0.000974
3613.000000	0.000960
3612.000000	0.000959
3611.000000	0.000982
3610.000000	0.001022
3609.000000	0.001056
3608.000000	0.001061
3607.000000	0.001031
3606.000000	0.000986
3605.000000	0.000948
3604.000000	0.000927
3603.000000	0.000920
3602.000000	0.000919
3601.000000	0.000917
3600.000000	0.000913
3599.000000	0.000914
3598.000000	0.000919
3597.000000	0.000927
3596.000000	0.000935
3595.000000	0.000945
3594.000000	0.000965
3593.000000	0.000995
3592.000000	0.001029
3591.000000	0.001059
3590.000000	0.001074
3589.000000	0.001071
3588.000000	0.001046
3587.000000	0.001006
3586.000000	0.000973
3585.000000	0.000963
3584.000000	0.000972
3583.000000	0.000991
3582.000000	0.001016
3581.000000	0.001041
3580.000000	0.001062
3579.000000	0.001078
3578.000000	0.001094
3577.000000	0.001116
3576.000000	0.001141
3575.000000	0.001165
3574.000000	0.001183
3573.000000	0.001194
3572.000000	0.001198
3571.000000	0.001194
3570.000000	0.001181
3569.000000	0.001158
3568.000000	0.001124
3567.000000	0.001087
3566.000000	0.001068
3565.000000	0.001087
3564.000000	0.001133
3563.000000	0.001180
3562.000000	0.001208
3561.000000	0.001215
3560.000000	0.001209
3559.000000	0.001205
3558.000000	0.001208
3557.000000	0.001215
3556.000000	0.001219
3555.000000	0.001220
3554.000000	0.001219
3553.000000	0.001227
3552.000000	0.001250
3551.000000	0.001285
3550.000000	0.001322
3549.000000	0.001348
3548.000000	0.001354
3547.000000	0.001344
3546.000000	0.001330
3545.000000	0.001324
3544.000000	0.001337
3543.000000	0.001364
3542.000000	0.001390
3541.000000	0.001404
3540.000000	0.001406
3539.000000	0.001403
3538.000000	0.001400
3537.000000	0.001400
3536.000000	0.001406
3535.000000	0.001423
3534.000000	0.001451
3533.000000	0.001481
3532.000000	0.001497
3531.000000	0.001491
3530.000000	0.001469
3529.000000	0.001449
3528.000000	0.001449
3527.000000	0.001475
3526.000000	0.001513
3525.000000	0.001539
3524.000000	0.001541
3523.000000	0.001525
3522.000000	0.001508
3521.000000	0.001504
3520.000000	0.001512
3519.000000	0.001527
3518.000000	0.001544
3517.000000	0.001561
3516.000000	0.001579
3515.000000	0.001594
3514.000000	0.001600
3513.000000	0.001597
3512.000000	0.001588
3511.000000	0.001581
3510.000000	0.001582
3509.000000	0.001587
3508.000000	0.001593
3507.000000	0.001598
3506.000000	0.001605
3505.000000	0.001611
3504.000000	0.001612
3503.000000	0.001604
3502.000000	0.001591
3501.000000	0.001584
3500.000000	0.001590
3499.000000	0.001605
3498.000000	0.001620
3497.000000	0.001631
3496.000000	0.001639
3495.000000	0.001642
3494.000000	0.001641
3493.000000	0.001639
3492.000000	0.001637
3491.000000	0.001639
3490.000000	0.001644
3489.000000	0.001648
3488.000000	0.001655
3487.000000	0.001668
3486.000000	0.001690
3485.000000	0.001716
3484.000000	0.001739
3483.000000	0.001755
3482.000000	0.001765
3481.000000	0.001769
3480.000000	0.001770
3479.000000	0.001768
3478.000000	0.001765
3477.000000	0.001762
3476.000000	0.001763
3475.000000	0.001765
3474.000000	0.001765
3473.000000	0.001759
3472.000000	0.001746
3471.000000	0.001732
3470.000000	0.001725
3469.000000	0.001732
3468.000000	0.001752
3467.000000	0.001777
3466.000000	0.001795
3465.000000	0.001799
3464.000000	0.001790
3463.000000	0.001778
3462.000000	0.001774
3461.000000	0.001780
3460.000000	0.001790
3459.000000	0.001794
3458.000000	0.001788
3457.000000	0.001777
3456.000000	0.001770
3455.000000	0.001772
3454.000000	0.001785
3453.000000	0.001804
3452.000000	0.001825
3451.000000	0.001846
3450.000000	0.001870
3449.000000	0.001893
3448.000000	0.001911
3447.000000	0.001922
3446.000000	0.001932
3445.000000	0.001950
3444.000000	0.001974
3443.000000	0.001998
3442.000000	0.002013
3441.000000	0.002012
3440.000000	0.001997
3439.000000	0.001976
3438.000000	0.001959
3437.000000	0.001955
3436.000000	0.001967
3435.000000	0.001988
3434.000000	0.002006
3433.000000	0.002011
3432.000000	0.002001
3431.000000	0.001984
3430.000000	0.001973
3429.000000	0.001977
3428.000000	0.001999
3427.000000	0.002033
3426.000000	0.002075
3425.000000	0.002115
3424.000000	0.002143
3423.000000	0.002153
3422.000000	0.002148
3421.000000	0.002142
3420.000000	0.002150
3419.000000	0.002176
3418.000000	0.002211
3417.000000	0.002242
3416.000000	0.002263
3415.000000	0.002276
3414.000000	0.002287
3413.000000	0.002303
3412.000000	0.002324
3411.000000	0.002347
3410.000000	0.002366
3409.000000	0.002381
3408.000000	0.002401
3407.000000	0.002429
3406.000000	0.002458
3405.000000	0.002475
3404.000000	0.002470
3403.000000	0.002444
3402.000000	0.002408
3401.000000	0.002376
3400.000000	0.002362
3399.000000	0.002368
3398.000000	0.002386
3397.000000	0.002404
3396.000000	0.002415
3395.000000	0.002421
3394.000000	0.002429
3393.000000	0.002442
3392.000000	0.002456
3391.000000	0.002469
3390.000000	0.002480
3389.000000	0.002486
3388.000000	0.002489
3387.000000	0.002490
3386.000000	0.002494
3385.000000	0.002501
3384.000000	0.002511
3383.000000	0.002518
3382.000000	0.002521
3381.000000	0.002521
3380.000000	0.002521
3379.000000	0.002521
3378.000000	0.002524
3377.000000	0.002529
3376.000000	0.002538
3375.000000	0.002549
3374.000000	0.002562
3373.000000	0.002572
3372.000000	0.002578
3371.000000	0.002579
3370.000000	0.002576
3369.000000	0.002573
3368.000000	0.002570
3367.000000	0.002567
3366.000000	0.002564
3365.000000	0.002564
3364.000000	0.002571
3363.000000	0.002583
3362.000000	0.002594
3361.000000	0.002596
3360.000000	0.002587
3359.000000	0.002573
3358.000000	0.002567
3357.000000	0.002576
3356.000000	0.002599
3355.000000	0.002624
3354.000000	0.002641
3353.000000	0.002652
3352.000000	0.002662
3351.000000	0.002669
3350.000000	0.002667
3349.000000	0.002654
3348.000000	0.002644
3347.000000	0.002648
3346.000000	0.002667
3345.000000	0.002687
3344.000000	0.002690
3343.000000	0.002670
3342.000000	0.002638
3341.000000	0.002615
3340.000000	0.002619
3339.000000	0.002654
3338.000000	0.002705
3337.000000	0.002752
3336.000000	0.002781
3335.000000	0.002792
3334.000000	0.002794
3333.000000	0.002801
3332.000000	0.002819
3331.000000	0.002845
3330.000000	0.002872
3329.000000	0.002892
3328.000000	0.002900
3327.000000	0.002897
3326.000000	0.002885
3325.000000	0.002872
3324.000000	0.002865
3323.000000	0.002867
3322.000000	0.002873
3321.000000	0.002876
3320.000000	0.002879
3319.000000	0.002886
3318.000000	0.002900
3317.000000	0.002918
3316.000000	0.002932
3315.000000	0.002938
3314.000000	0.002932
3313.000000	0.002919
3312.000000	0.002905
3311.000000	0.002896
3310.000000	0.002891
3309.000000	0.002886
3308.000000	0.002880
3307.000000	0.002876
3306.000000	0.002876
3305.000000	0.002879
3304.000000	0.002881
3303.000000	0.002883
3302.000000	0.002888
3301.000000	0.002898
3300.000000	0.002913
3299.000000	0.002925
3298.000000	0.002927
3297.000000	0.002917
3296.000000	0.002902
3295.000000	0.002898
3294.000000	0.002913
3293.000000	0.002941
3292.000000	0.002962
3291.000000	0.002962
3290.000000	0.002942
3289.000000	0.002919
3288.000000	0.002914
3287.000000	0.002935
3286.000000	0.002971
3285.000000	0.003004
3284.000000	0.003019
3283.000000	0.003020
3282.000000	0.003018
3281.000000	0.003021
3280.000000	0.003028
3279.000000	0.003029
3278.000000	0.003020
3277.000000	0.003004
3276.000000	0.002994
3275.000000	0.002997
3274.000000	0.003009
3273.000000	0.003018
3272.000000	0.003009
3271.000000	0.002984
3270.000000	0.002954
3269.000000	0.002934
3268.000000	0.002931
3267.000000	0.002943
3266.000000	0.002964
3265.000000	0.002987
3264.000000	0.003005
3263.000000	0.003014
3262.000000	0.003016
3261.000000	0.003014
3260.000000	0.003008
3259.000000	0.002994
3258.000000	0.002971
3257.000000	0.002944
3256.000000	0.002922
3255.000000	0.002908
3254.000000	0.002899
3253.000000	0.002896
3252.000000	0.002900
3251.000000	0.002906
3250.000000	0.002906
3249.000000	0.002895
3248.000000	0.002878
3247.000000	0.002869
3246.000000	0.002876
3245.000000	0.002895
3244.000000	0.002911
3243.000000	0.002914
3242.000000	0.002907
3241.000000	0.002897
3240.000000	0.002887
3239.000000	0.002875
3238.000000	0.002862
3237.000000	0.002859
3236.000000	0.002870
3235.000000	0.002885
3234.000000	0.002887
3233.000000	0.002873
3232.000000	0.002851
3231.000000	0.002834
3230.000000	0.002828
3229.000000	0.002834
3228.000000	0.002848
3227.000000	0.002863
3226.000000	0.002876
3225.000000	0.002887
3224.000000	0.002897
3223.000000	0.002900
3222.000000	0.002890
3221.000000	0.002869
3220.000000	0.002850
3219.000000	0.002841
3218.000000	0.002838
3217.000000	0.002828
3216.000000	0.002804
3215.000000	0.002769
3214.000000	0.002736
3213.000000	0.002717
3212.000000	0.002723
3211.000000	0.002748
3210.000000	0.002775
3209.000000	0.002791
3208.000000	0.002799
3207.000000	0.002809
3206.000000	0.002824
3205.000000	0.002831
3204.000000	0.002825
3203.000000	0.002809
3202.000000	0.002789
3201.000000	0.002770
3200.000000	0.002752
3199.000000	0.002742
3198.000000	0.002747
3197.000000	0.002764
3196.000000	0.002783
3195.000000	0.002795
3194.000000	0.002797
3193.000000	0.002791
3192.000000	0.002779
3191.000000	0.002769
3190.000000	0.002772
3189.000000	0.002794
3188.000000	0.002821
3187.000000	0.002832
3186.000000	0.002813
3185.000000	0.002770
3184.000000	0.002726
3183.000000	0.002702
3182.000000	0.002706
3181.000000	0.002730
3180.000000	0.002761
3179.000000	0.002786
3178.000000	0.002799
3177.000000	0.002797
3176.000000	0.002782
3175.000000	0.002758
3174.000000	0.002732
3173.000000	0.002711
3172.000000	0.002702
3171.000000	0.002707
3170.000000	0.002722
3169.000000	0.002743
3168.000000	0.002762
3167.000000	0.002773
3166.000000	0.002770
3165.000000	0.002751
3164.000000	0.002721
3163.000000	0.002693
3162.000000	0.002678
3161.000000	0.002675
3160.000000	0.002673
3159.000000	0.002665
3158.000000	0.002654
3157.000000	0.002648
3156.000000	0.002652
3155.000000	0.002661
3154.000000	0.002669
3153.000000	0.002673
3152.000000	0.002675
3151.000000	0.002680
3150.000000	0.002688
3149.000000	0.002692
3148.000000	0.002684
3147.000000	0.002663
3146.000000	0.002636
3145.000000	0.002611
3144.000000	0.002588
3143.000000	0.002568
3142.000000	0.002555
3141.000000	0.002555
3140.000000	0.002570
3139.000000	0.002593
3138.000000	0.002614
3137.000000	0.002630
3136.000000	0.002637
3135.000000	0.002636
3134.000000	0.002630
3133.000000	0.002629
3132.000000	0.002636
3131.000000	0.002648
3130.000000	0.002652
3129.000000	0.002645
3128.000000	0.002632
3127.000000	0.002626
3126.000000	0.002627
3125.000000	0.002628
3124.000000	0.002623
3123.000000	0.002612
3122.000000	0.002605
3121.000000	0.002609
3120.000000	0.002620
3119.000000	0.002628
3118.000000	0.002629
3117.000000	0.002625
3116.000000	0.002622
3115.000000	0.002617
3114.000000	0.002607
3113.000000	0.002588
3112.000000	0.002565
3111.000000	0.002542
3110.000000	0.002527
3109.000000	0.002521
3108.000000	0.002523
3107.000000	0.002531
3106.000000	0.002541
3105.000000	0.002548
3104.000000	0.002545
3103.000000	0.002526
3102.000000	0.002495
3101.000000	0.002472
3100.000000	0.002471
3099.000000	0.002488
3098.000000	0.002500
3097.000000	0.002494
3096.000000	0.002481
3095.000000	0.002488
3094.000000	0.002524
3093.000000	0.002576
3092.000000	0.002620
3091.000000	0.002638
3090.000000	0.002628
3089.000000	0.002599
3088.000000	0.002570
3087.000000	0.002555
3086.000000	0.002559
3085.000000	0.002575
3084.000000	0.002588
3083.000000	0.002586
3082.000000	0.002561
3081.000000	0.002521
3080.000000	0.002477
3079.000000	0.002447
3078.000000	0.002436
3077.000000	0.002446
3076.000000	0.002471
3075.000000	0.002508
3074.000000	0.002550
3073.000000	0.002585
3072.000000	0.002602
3071.000000	0.002598
3070.000000	0.002579
3069.000000	0.002556
3068.000000	0.002542
3067.000000	0.002541
3066.000000	0.002551
3065.000000	0.002562
3064.000000	0.002563
3063.000000	0.002559
3062.000000	0.002557
3061.000000	0.002563
3060.000000	0.002572
3059.000000	0.002580
3058.000000	0.002588
3057.000000	0.002596
3056.000000	0.002599
3055.000000	0.002587
3054.000000	0.002558
3053.000000	0.002521
3052.000000	0.002493
3051.000000	0.002483
3050.000000	0.002490
3049.000000	0.002509
3048.000000	0.002528
3047.000000	0.002537
3046.000000	0.002530
3045.000000	0.002511
3044.000000	0.002494
3043.000000	0.002490
3042.000000	0.002504
3041.000000	0.002528
3040.000000	0.002557
3039.000000	0.002586
3038.000000	0.002605
3037.000000	0.002606
3036.000000	0.002582
3035.000000	0.002542
3034.000000	0.002504
3033.000000	0.002484
3032.000000	0.002488
3031.000000	0.002507
3030.000000	0.002527
3029.000000	0.002536
3028.000000	0.002530
3027.000000	0.002513
3026.000000	0.002498
3025.000000	0.002493
3024.000000	0.002503
3023.000000	0.002519
3022.000000	0.002535
3021.000000	0.002546
3020.000000	0.002549
3019.000000	0.002548
3018.000000	0.002544
3017.000000	0.002545
3016.000000	0.002555
3015.000000	0.002569
3014.000000	0.002576
3013.000000	0.002571
3012.000000	0.002559
3011.000000	0.002549
3010.000000	0.002546
3009.000000	0.002553
3008.000000	0.002569
3007.000000	0.002592
3006.000000	0.002610
3005.000000	0.002617
3004.000000	0.002612
3003.000000	0.002605
3002.000000	0.002606
3001.000000	0.002617
3000.000000	0.002631
2999.000000	0.002645
2998.000000	0.002659
2997.000000	0.002673
2996.000000	0.002685
2995.000000	0.002692
2994.000000	0.002700
2993.000000	0.002716
2992.000000	0.002742
2991.000000	0.002767
2990.000000	0.002778
2989.000000	0.002770
2988.000000	0.002759
2987.000000	0.002764
2986.000000	0.002795
2985.000000	0.002841
2984.000000	0.002884
2983.000000	0.002915
2982.000000	0.002932
2981.000000	0.002936
2980.000000	0.002931
2979.000000	0.002927
2978.000000	0.002942
2977.000000	0.002987
2976.000000	0.003058
2975.000000	0.003138
2974.000000	0.003208
2973.000000	0.003256
2972.000000	0.003285
2971.000000	0.003302
2970.000000	0.003321
2969.000000	0.003355
2968.000000	0.003406
2967.000000	0.003462
2966.000000	0.003508
2965.000000	0.003539
2964.000000	0.003555
2963.000000	0.003563
2962.000000	0.003572
2961.000000	0.003589
2960.000000	0.003614
2959.000000	0.003640
2958.000000	0.003656
2957.000000	0.003660
2956.000000	0.003657
2955.000000	0.003650
2954.000000	0.003634
2953.000000	0.003605
2952.000000	0.003569
2951.000000	0.003538
2950.000000	0.003521
2949.000000	0.003517
2948.000000	0.003521
2947.000000	0.003528
2946.000000	0.003536
2945.000000	0.003548
2944.000000	0.003569
2943.000000	0.003602
2942.000000	0.003644
2941.000000	0.003690
2940.000000	0.003738
2939.000000	0.003793
2938.000000	0.003858
2937.000000	0.003923
2936.000000	0.003978
2935.000000	0.004017
2934.000000	0.004042
2933.000000	0.004054
2932.000000	0.004057
2931.000000	0.004060
2930.000000	0.004073
2929.000000	0.004098
2928.000000	0.004128
2927.000000	0.004151
2926.000000	0.004160
2925.000000	0.004154
2924.000000	0.004139
2923.000000	0.004121
2922.000000	0.004103
2921.000000	0.004084
2920.000000	0.004062
2919.000000	0.004035
2918.000000	0.004003
2917.000000	0.003975
2916.000000	0.003954
2915.000000	0.003939
2914.000000	0.003923
2913.000000	0.003901
2912.000000	0.003877
2911.000000	0.003858
2910.000000	0.003843
2909.000000	0.003826
2908.000000	0.003802
2907.000000	0.003769
2906.000000	0.003724
2905.000000	0.003665
2904.000000	0.003600
2903.000000	0.003544
2902.000000	0.003509
2901.000000	0.003494
2900.000000	0.003484
2899.000000	0.003470
2898.000000	0.003449
2897.000000	0.003426
2896.000000	0.003401
2895.000000	0.003375
2894.000000	0.003349
2893.000000	0.003322
2892.000000	0.003294
2891.000000	0.003264
2890.000000	0.003232
2889.000000	0.003199
2888.000000	0.003161
2887.000000	0.003121
2886.000000	0.003086
2885.000000	0.003066
2884.000000	0.003068
2883.000000	0.003087
2882.000000	0.003120
2881.000000	0.003165
2880.000000	0.003221
2879.000000	0.003277
2878.000000	0.003318
2877.000000	0.003338
2876.000000	0.003347
2875.000000	0.003357
2874.000000	0.003371
2873.000000	0.003380
2872.000000	0.003379
2871.000000	0.003370
2870.000000	0.003362
2869.000000	0.003362
2868.000000	0.003372
2867.000000	0.003385
2866.000000	0.003397
2865.000000	0.003405
2864.000000	0.003411
2863.000000	0.003418
2862.000000	0.003433
2861.000000	0.003457
2860.000000	0.003487
2859.000000	0.003513
2858.000000	0.003528
2857.000000	0.003531
2856.000000	0.003527
2855.000000	0.003519
2854.000000	0.003509
2853.000000	0.003497
2852.000000	0.003478
2851.000000	0.003447
2850.000000	0.003394
2849.000000	0.003322
2848.000000	0.003243
2847.000000	0.003179
2846.000000	0.003137
2845.000000	0.003106
2844.000000	0.003071
2843.000000	0.003028
2842.000000	0.002986
2841.000000	0.002955
2840.000000	0.002935
2839.000000	0.002920
2838.000000	0.002905
2837.000000	0.002889
2836.000000	0.002872
2835.000000	0.002854
2834.000000	0.002836
2833.000000	0.002821
2832.000000	0.002810
2831.000000	0.002800
2830.000000	0.002791
2829.000000	0.002783
2828.000000	0.002777
2827.000000	0.002774
2826.000000	0.002773
2825.000000	0.002772
2824.000000	0.002776
2823.000000	0.002784
2822.000000	0.002794
2821.000000	0.002801
2820.000000	0.002803
2819.000000	0.002799
2818.000000	0.002789
2817.000000	0.002778
2816.000000	0.002769
2815.000000	0.002763
2814.000000	0.002761
2813.000000	0.002757
2812.000000	0.002747
2811.000000	0.002730
2810.000000	0.002713
2809.000000	0.002703
2808.000000	0.002702
2807.000000	0.002700
2806.000000	0.002693
2805.000000	0.002684
2804.000000	0.002682
2803.000000	0.002692
2802.000000	0.002709
2801.000000	0.002723
2800.000000	0.002722
2799.000000	0.002700
2798.000000	0.002669
2797.000000	0.002642
2796.000000	0.002624
2795.000000	0.002612
2794.000000	0.002598
2793.000000	0.002590
2792.000000	0.002592
2791.000000	0.002599
2790.000000	0.002601
2789.000000	0.002597
2788.000000	0.002597
2787.000000	0.002607
2786.000000	0.002622
2785.000000	0.002631
2784.000000	0.002635
2783.000000	0.002639
2782.000000	0.002646
2781.000000	0.002652
2780.000000	0.002653
2779.000000	0.002652
2778.000000	0.002659
2777.000000	0.002676
2776.000000	0.002699
2775.000000	0.002712
2774.000000	0.002703
2773.000000	0.002675
2772.000000	0.002648
2771.000000	0.002635
2770.000000	0.002634
2769.000000	0.002634
2768.000000	0.002632
2767.000000	0.002632
2766.000000	0.002636
2765.000000	0.002638
2764.000000	0.002629
2763.000000	0.002615
2762.000000	0.002608
2761.000000	0.002617
2760.000000	0.002632
2759.000000	0.002638
2758.000000	0.002627
2757.000000	0.002608
2756.000000	0.002594
2755.000000	0.002593
2754.000000	0.002597
2753.000000	0.002602
2752.000000	0.002606
2751.000000	0.002613
2750.000000	0.002623
2749.000000	0.002629
2748.000000	0.002625
2747.000000	0.002614
2746.000000	0.002599
2745.000000	0.002589
2744.000000	0.002586
2743.000000	0.002590
2742.000000	0.002595
2741.000000	0.002601
2740.000000	0.002607
2739.000000	0.002615
2738.000000	0.002621
2737.000000	0.002624
2736.000000	0.002621
2735.000000	0.002616
2734.000000	0.002610
2733.000000	0.002606
2732.000000	0.002608
2731.000000	0.002614
2730.000000	0.002618
2729.000000	0.002614
2728.000000	0.002603
2727.000000	0.002591
2726.000000	0.002584
2725.000000	0.002589
2724.000000	0.002603
2723.000000	0.002619
2722.000000	0.002629
2721.000000	0.002627
2720.000000	0.002617
2719.000000	0.002606
2718.000000	0.002598
2717.000000	0.002591
2716.000000	0.002580
2715.000000	0.002565
2714.000000	0.002555
2713.000000	0.002557
2712.000000	0.002575
2711.000000	0.002597
2710.000000	0.002605
2709.000000	0.002592
2708.000000	0.002570
2707.000000	0.002553
2706.000000	0.002547
2705.000000	0.002548
2704.000000	0.002551
2703.000000	0.002558
2702.000000	0.002568
2701.000000	0.002578
2700.000000	0.002584
2699.000000	0.002584
2698.000000	0.002581
2697.000000	0.002578
2696.000000	0.002575
2695.000000	0.002567
2694.000000	0.002552
2693.000000	0.002534
2692.000000	0.002521
2691.000000	0.002521
2690.000000	0.002533
2689.000000	0.002552
2688.000000	0.002571
2687.000000	0.002585
2686.000000	0.002596
2685.000000	0.002603
2684.000000	0.002609
2683.000000	0.002611
2682.000000	0.002609
2681.000000	0.002602
2680.000000	0.002595
2679.000000	0.002593
2678.000000	0.002595
2677.000000	0.002595
2676.000000	0.002590
2675.000000	0.002584
2674.000000	0.002581
2673.000000	0.002582
2672.000000	0.002584
2671.000000	0.002583
2670.000000	0.002583
2669.000000	0.002588
2668.000000	0.002593
2667.000000	0.002594
2666.000000	0.002594
2665.000000	0.002597
2664.000000	0.002608
2663.000000	0.002620
2662.000000	0.002628
2661.000000	0.002635
2660.000000	0.002645
2659.000000	0.002660
2658.000000	0.002669
2657.000000	0.002667
2656.000000	0.002657
2655.000000	0.002643
2654.000000	0.002630
2653.000000	0.002619
2652.000000	0.002613
2651.000000	0.002615
2650.000000	0.002620
2649.000000	0.002625
2648.000000	0.002626
2647.000000	0.002625
2646.000000	0.002622
2645.000000	0.002610
2644.000000	0.002587
2643.000000	0.002562
2642.000000	0.002544
2641.000000	0.002536
2640.000000	0.002535
2639.000000	0.002537
2638.000000	0.002541
2637.000000	0.002547
2636.000000	0.002549
2635.000000	0.002540
2634.000000	0.002522
2633.000000	0.002507
2632.000000	0.002500
2631.000000	0.002495
2630.000000	0.002478
2629.000000	0.002447
2628.000000	0.002420
2627.000000	0.002417
2626.000000	0.002435
2625.000000	0.002454
2624.000000	0.002454
2623.000000	0.002436
2622.000000	0.002416
2621.000000	0.002403
2620.000000	0.002387
2619.000000	0.002360
2618.000000	0.002328
2617.000000	0.002310
2616.000000	0.002319
2615.000000	0.002347
2614.000000	0.002374
2613.000000	0.002385
2612.000000	0.002381
2611.000000	0.002368
2610.000000	0.002355
2609.000000	0.002341
2608.000000	0.002324
2607.000000	0.002307
2606.000000	0.002299
2605.000000	0.002301
2604.000000	0.002307
2603.000000	0.002304
2602.000000	0.002287
2601.000000	0.002267
2600.000000	0.002260
2599.000000	0.002276
2598.000000	0.002303
2597.000000	0.002323
2596.000000	0.002319
2595.000000	0.002287
2594.000000	0.002240
2593.000000	0.002196
2592.000000	0.002165
2591.000000	0.002151
2590.000000	0.002148
2589.000000	0.002155
2588.000000	0.002172
2587.000000	0.002202
2586.000000	0.002241
2585.000000	0.002273
2584.000000	0.002281
2583.000000	0.002257
2582.000000	0.002212
2581.000000	0.002168
2580.000000	0.002141
2579.000000	0.002130
2578.000000	0.002132
2577.000000	0.002144
2576.000000	0.002163
2575.000000	0.002179
2574.000000	0.002184
2573.000000	0.002188
2572.000000	0.002205
2571.000000	0.002234
2570.000000	0.002251
2569.000000	0.002243
2568.000000	0.002223
2567.000000	0.002222
2566.000000	0.002245
2565.000000	0.002269
2564.000000	0.002269
2563.000000	0.002247
2562.000000	0.002222
2561.000000	0.002211
2560.000000	0.002208
2559.000000	0.002199
2558.000000	0.002180
2557.000000	0.002163
2556.000000	0.002165
2555.000000	0.002180
2554.000000	0.002184
2553.000000	0.002161
2552.000000	0.002121
2551.000000	0.002096
2550.000000	0.002109
2549.000000	0.002145
2548.000000	0.002169
2547.000000	0.002155
2546.000000	0.002114
2545.000000	0.002078
2544.000000	0.002075
2543.000000	0.002106
2542.000000	0.002150
2541.000000	0.002185
2540.000000	0.002196
2539.000000	0.002187
2538.000000	0.002175
2537.000000	0.002178
2536.000000	0.002191
2535.000000	0.002192
2534.000000	0.002165
2533.000000	0.002130
2532.000000	0.002132
2531.000000	0.002188
2530.000000	0.002274
2529.000000	0.002342
2528.000000	0.002366
2527.000000	0.002350
2526.000000	0.002314
2525.000000	0.002274
2524.000000	0.002242
2523.000000	0.002224
2522.000000	0.002216
2521.000000	0.002214
2520.000000	0.002216
2519.000000	0.002216
2518.000000	0.002206
2517.000000	0.002179
2516.000000	0.002147
2515.000000	0.002134
2514.000000	0.002152
2513.000000	0.002189
2512.000000	0.002217
2511.000000	0.002215
2510.000000	0.002184
2509.000000	0.002148
2508.000000	0.002134
2507.000000	0.002144
2506.000000	0.002162
2505.000000	0.002168
2504.000000	0.002160
2503.000000	0.002151
2502.000000	0.002147
2501.000000	0.002146
2500.000000	0.002149
2499.000000	0.002160
2498.000000	0.002172
2497.000000	0.002165
2496.000000	0.002136
2495.000000	0.002100
2494.000000	0.002078
2493.000000	0.002078
2492.000000	0.002095
2491.000000	0.002125
2490.000000	0.002159
2489.000000	0.002183
2488.000000	0.002181
2487.000000	0.002151
2486.000000	0.002099
2485.000000	0.002043
2484.000000	0.002002
2483.000000	0.001995
2482.000000	0.002025
2481.000000	0.002073
2480.000000	0.002117
2479.000000	0.002149
2478.000000	0.002172
2477.000000	0.002186
2476.000000	0.002186
2475.000000	0.002170
2474.000000	0.002142
2473.000000	0.002108
2472.000000	0.002073
2471.000000	0.002042
2470.000000	0.002021
2469.000000	0.002015
2468.000000	0.002019
2467.000000	0.002026
2466.000000	0.002028
2465.000000	0.002025
2464.000000	0.002024
2463.000000	0.002036
2462.000000	0.002068
2461.000000	0.002113
2460.000000	0.002155
2459.000000	0.002183
2458.000000	0.002199
2457.000000	0.002208
2456.000000	0.002218
2455.000000	0.002233
2454.000000	0.002248
2453.000000	0.002253
2452.000000	0.002240
2451.000000	0.002211
2450.000000	0.002180
2449.000000	0.002154
2448.000000	0.002133
2447.000000	0.002115
2446.000000	0.002104
2445.000000	0.002105
2444.000000	0.002113
2443.000000	0.002123
2442.000000	0.002135
2441.000000	0.002151
2440.000000	0.002171
2439.000000	0.002194
2438.000000	0.002216
2437.000000	0.002228
2436.000000	0.002214
2435.000000	0.002168
2434.000000	0.002104
2433.000000	0.002053
2432.000000	0.002033
2431.000000	0.002039
2430.000000	0.002050
2429.000000	0.002053
2428.000000	0.002044
2427.000000	0.002025
2426.000000	0.002002
2425.000000	0.001987
2424.000000	0.001997
2423.000000	0.002031
2422.000000	0.002071
2421.000000	0.002094
2420.000000	0.002101
2419.000000	0.002112
2418.000000	0.002140
2417.000000	0.002170
2416.000000	0.002169
2415.000000	0.002119
2414.000000	0.002038
2413.000000	0.001959
2412.000000	0.001910
2411.000000	0.001902
2410.000000	0.001933
2409.000000	0.001988
2408.000000	0.002042
2407.000000	0.002077
2406.000000	0.002087
2405.000000	0.002078
2404.000000	0.002062
2403.000000	0.002047
2402.000000	0.002042
2401.000000	0.002051
2400.000000	0.002072
2399.000000	0.002094
2398.000000	0.002106
2397.000000	0.002103
2396.000000	0.002089
2395.000000	0.002076
2394.000000	0.002072
2393.000000	0.002073
2392.000000	0.002069
2391.000000	0.002051
2390.000000	0.002028
2389.000000	0.002016
2388.000000	0.002027
2387.000000	0.002055
2386.000000	0.002085
2385.000000	0.002104
2384.000000	0.002097
2383.000000	0.002055
2382.000000	0.001985
2381.000000	0.001915
2380.000000	0.001877
2379.000000	0.001887
2378.000000	0.001932
2377.000000	0.001985
2376.000000	0.002024
2375.000000	0.002046
2374.000000	0.002052
2373.000000	0.002034
2372.000000	0.001992
2371.000000	0.001946
2370.000000	0.001918
2369.000000	0.001904
2368.000000	0.001887
2367.000000	0.001879
2366.000000	0.001916
2365.000000	0.001994
2364.000000	0.002068
2363.000000	0.002108
2362.000000	0.002124
2361.000000	0.002132
2360.000000	0.002133
2359.000000	0.002118
2358.000000	0.002085
2357.000000	0.002050
2356.000000	0.002056
2355.000000	0.002134
2354.000000	0.002220
2353.000000	0.002217
2352.000000	0.002134
2351.000000	0.002072
2350.000000	0.002091
2349.000000	0.002165
2348.000000	0.002240
2347.000000	0.002269
2346.000000	0.002248
2345.000000	0.002228
2344.000000	0.002248
2343.000000	0.002294
2342.000000	0.002332
2341.000000	0.002349
2340.000000	0.002362
2339.000000	0.002394
2338.000000	0.002424
2337.000000	0.002414
2336.000000	0.002357
2335.000000	0.002288
2334.000000	0.002229
2333.000000	0.002175
2332.000000	0.002135
2331.000000	0.002131
2330.000000	0.002166
2329.000000	0.002226
2328.000000	0.002320
2327.000000	0.002460
2326.000000	0.002621
2325.000000	0.002749
2324.000000	0.002802
2323.000000	0.002784
2322.000000	0.002731
2321.000000	0.002690
2320.000000	0.002696
2319.000000	0.002749
2318.000000	0.002814
2317.000000	0.002851
2316.000000	0.002842
2315.000000	0.002794
2314.000000	0.002727
2313.000000	0.002659
2312.000000	0.002605
2311.000000	0.002564
2310.000000	0.002527
2309.000000	0.002483
2308.000000	0.002437
2307.000000	0.002400
2306.000000	0.002376
2305.000000	0.002365
2304.000000	0.002365
2303.000000	0.002375
2302.000000	0.002389
2301.000000	0.002396
2300.000000	0.002389
2299.000000	0.002366
2298.000000	0.002338
2297.000000	0.002317
2296.000000	0.002317
2295.000000	0.002338
2294.000000	0.002367
2293.000000	0.002385
2292.000000	0.002388
2291.000000	0.002381
2290.000000	0.002373
2289.000000	0.002368
2288.000000	0.002375
2287.000000	0.002394
2286.000000	0.002409
2285.000000	0.002388
2284.000000	0.002318
2283.000000	0.002224
2282.000000	0.002149
2281.000000	0.002121
2280.000000	0.002131
2279.000000	0.002146
2278.000000	0.002143
2277.000000	0.002131
2276.000000	0.002128
2275.000000	0.002138
2274.000000	0.002143
2273.000000	0.002124
2272.000000	0.002085
2271.000000	0.002048
2270.000000	0.002030
2269.000000	0.002036
2268.000000	0.002075
2267.000000	0.002144
2266.000000	0.002212
2265.000000	0.002223
2264.000000	0.002166
2263.000000	0.002096
2262.000000	0.002079
2261.000000	0.002122
2260.000000	0.002169
2259.000000	0.002164
2258.000000	0.002101
2257.000000	0.002009
2256.000000	0.001926
2255.000000	0.001887
2254.000000	0.001907
2253.000000	0.001971
2252.000000	0.002051
2251.000000	0.002126
2250.000000	0.002183
2249.000000	0.002193
2248.000000	0.002139
2247.000000	0.002065
2246.000000	0.002055
2245.000000	0.002140
2244.000000	0.002250
2243.000000	0.002295
2242.000000	0.002265
2241.000000	0.002214
2240.000000	0.002180
2239.000000	0.002159
2238.000000	0.002154
2237.000000	0.002192
2236.000000	0.002277
2235.000000	0.002372
2234.000000	0.002436
2233.000000	0.002469
2232.000000	0.002476
2231.000000	0.002444
2230.000000	0.002370
2229.000000	0.002290
2228.000000	0.002245
2227.000000	0.002222
2226.000000	0.002170
2225.000000	0.002067
2224.000000	0.001955
2223.000000	0.001895
2222.000000	0.001906
2221.000000	0.001956
2220.000000	0.002006
2219.000000	0.002040
2218.000000	0.002075
2217.000000	0.002115
2216.000000	0.002126
2215.000000	0.002057
2214.000000	0.001907
2213.000000	0.001750
2212.000000	0.001675
2211.000000	0.001699
2210.000000	0.001759
2209.000000	0.001796
2208.000000	0.001821
2207.000000	0.001887
2206.000000	0.001997
2205.000000	0.002078
2204.000000	0.002062
2203.000000	0.001971
2202.000000	0.001898
2201.000000	0.001893
2200.000000	0.001907
2199.000000	0.001870
2198.000000	0.001786
2197.000000	0.001712
2196.000000	0.001680
2195.000000	0.001665
2194.000000	0.001653
2193.000000	0.001662
2192.000000	0.001689
2191.000000	0.001686
2190.000000	0.001638
2189.000000	0.001610
2188.000000	0.001681
2187.000000	0.001841
2186.000000	0.002002
2185.000000	0.002098
2184.000000	0.002114
2183.000000	0.002050
2182.000000	0.001910
2181.000000	0.001751
2180.000000	0.001663
2179.000000	0.001680
2178.000000	0.001739
2177.000000	0.001755
2176.000000	0.001709
2175.000000	0.001643
2174.000000	0.001598
2173.000000	0.001595
2172.000000	0.001651
2171.000000	0.001761
2170.000000	0.001886
2169.000000	0.001980
2168.000000	0.002034
2167.000000	0.002091
2166.000000	0.002192
2165.000000	0.002335
2164.000000	0.002481
2163.000000	0.002587
2162.000000	0.002598
2161.000000	0.002428
2160.000000	0.001988
2159.000000	0.001313
2158.000000	0.000641
2157.000000	0.000266
2156.000000	0.000272
2155.000000	0.000492
2154.000000	0.000706
2153.000000	0.000815
2152.000000	0.000844
2151.000000	0.000837
2150.000000	0.000801
2149.000000	0.000749
2148.000000	0.000740
2147.000000	0.000834
2146.000000	0.001008
2145.000000	0.001179
2144.000000	0.001286
2143.000000	0.001344
2142.000000	0.001407
2141.000000	0.001485
2140.000000	0.001540
2139.000000	0.001534
2138.000000	0.001488
2137.000000	0.001459
2136.000000	0.001466
2135.000000	0.001462
2134.000000	0.001396
2133.000000	0.001291
2132.000000	0.001226
2131.000000	0.001237
2130.000000	0.001276
2129.000000	0.001287
2128.000000	0.001277
2127.000000	0.001296
2126.000000	0.001358
2125.000000	0.001419
2124.000000	0.001444
2123.000000	0.001454
2122.000000	0.001484
2121.000000	0.001529
2120.000000	0.001551
2119.000000	0.001531
2118.000000	0.001493
2117.000000	0.001474
2116.000000	0.001498
2115.000000	0.001570
2114.000000	0.001681
2113.000000	0.001794
2112.000000	0.001860
2111.000000	0.001851
2110.000000	0.001788
2109.000000	0.001731
2108.000000	0.001725
2107.000000	0.001765
2106.000000	0.001806
2105.000000	0.001817
2104.000000	0.001803
2103.000000	0.001799
2102.000000	0.001823
2101.000000	0.001858
2100.000000	0.001870
2099.000000	0.001834
2098.000000	0.001736
2097.000000	0.001572
2096.000000	0.001365
2095.000000	0.001183
2094.000000	0.001102
2093.000000	0.001155
2092.000000	0.001305
2091.000000	0.001476
2090.000000	0.001603
2089.000000	0.001653
2088.000000	0.001647
2087.000000	0.001643
2086.000000	0.001688
2085.000000	0.001764
2084.000000	0.001807
2083.000000	0.001783
2082.000000	0.001730
2081.000000	0.001715
2080.000000	0.001764
2079.000000	0.001849
2078.000000	0.001922
2077.000000	0.001942
2076.000000	0.001881
2075.000000	0.001740
2074.000000	0.001560
2073.000000	0.001396
2072.000000	0.001285
2071.000000	0.001233
2070.000000	0.001242
2069.000000	0.001314
2068.000000	0.001428
2067.000000	0.001539
2066.000000	0.001615
2065.000000	0.001662
2064.000000	0.001699
2063.000000	0.001736
2062.000000	0.001761
2061.000000	0.001776
2060.000000	0.001794
2059.000000	0.001820
2058.000000	0.001820
2057.000000	0.001742
2056.000000	0.001580
2055.000000	0.001425
2054.000000	0.001397
2053.000000	0.001547
2052.000000	0.001814
2051.000000	0.002100
2050.000000	0.002328
2049.000000	0.002414
2048.000000	0.002262
2047.000000	0.001870
2046.000000	0.001417
2045.000000	0.001147
2044.000000	0.001154
2043.000000	0.001310
2042.000000	0.001430
2041.000000	0.001450
2040.000000	0.001416
2039.000000	0.001362
2038.000000	0.001265
2037.000000	0.001112
2036.000000	0.000968
2035.000000	0.000927
2034.000000	0.001000
2033.000000	0.001057
2032.000000	0.000941
2031.000000	0.000657
2030.000000	0.000421
2029.000000	0.000465
2028.000000	0.000793
2027.000000	0.001174
2026.000000	0.001366
2025.000000	0.001311
2024.000000	0.001148
2023.000000	0.001078
2022.000000	0.001204
2021.000000	0.001459
2020.000000	0.001644
2019.000000	0.001597
2018.000000	0.001334
2017.000000	0.001029
2016.000000	0.000848
2015.000000	0.000843
2014.000000	0.000984
2013.000000	0.001213
2012.000000	0.001427
2011.000000	0.001510
2010.000000	0.001410
2009.000000	0.001184
2008.000000	0.000944
2007.000000	0.000774
2006.000000	0.000700
2005.000000	0.000708
2004.000000	0.000744
2003.000000	0.000759
2002.000000	0.000750
2001.000000	0.000752
2000.000000	0.000769
1999.000000	0.000762
1998.000000	0.000705
1997.000000	0.000643
1996.000000	0.000652
1995.000000	0.000766
1994.000000	0.000954
1993.000000	0.001138
1992.000000	0.001244
1991.000000	0.001249
1990.000000	0.001208
1989.000000	0.001189
1988.000000	0.001211
1987.000000	0.001247
1986.000000	0.001295
1985.000000	0.001397
1984.000000	0.001572
1983.000000	0.001760
1982.000000	0.001857
1981.000000	0.001797
1980.000000	0.001585
1979.000000	0.001297
1978.000000	0.001057
1977.000000	0.000976
1976.000000	0.001047
1975.000000	0.001146
1974.000000	0.001157
1973.000000	0.001058
1972.000000	0.000893
1971.000000	0.000719
1970.000000	0.000604
1969.000000	0.000626
1968.000000	0.000807
1967.000000	0.001074
1966.000000	0.001322
1965.000000	0.001501
1964.000000	0.001614
1963.000000	0.001671
1962.000000	0.001668
1961.000000	0.001589
1960.000000	0.001411
1959.000000	0.001123
1958.000000	0.000780
1957.000000	0.000502
1956.000000	0.000386
1955.000000	0.000431
1954.000000	0.000558
1953.000000	0.000689
1952.000000	0.000794
1951.000000	0.000886
1950.000000	0.000991
1949.000000	0.001110
1948.000000	0.001204
1947.000000	0.001220
1946.000000	0.001148
1945.000000	0.001031
1944.000000	0.000928
1943.000000	0.000882
1942.000000	0.000913
1941.000000	0.001008
1940.000000	0.001114
1939.000000	0.001176
1938.000000	0.001187
1937.000000	0.001190
1936.000000	0.001213
1935.000000	0.001233
1934.000000	0.001224
1933.000000	0.001194
1932.000000	0.001164
1931.000000	0.001132
1930.000000	0.001104
1929.000000	0.001126
1928.000000	0.001240
1927.000000	0.001406
1926.000000	0.001528
1925.000000	0.001537
1924.000000	0.001442
1923.000000	0.001292
1922.000000	0.001136
1921.000000	0.001013
1920.000000	0.000950
1919.000000	0.000946
1918.000000	0.000968
1917.000000	0.000980
1916.000000	0.000975
1915.000000	0.000978
1914.000000	0.001006
1913.000000	0.001063
1912.000000	0.001134
1911.000000	0.001192
1910.000000	0.001206
1909.000000	0.001166
1908.000000	0.001109
1907.000000	0.001086
1906.000000	0.001120
1905.000000	0.001194
1904.000000	0.001272
1903.000000	0.001327
1902.000000	0.001349
1901.000000	0.001342
1900.000000	0.001318
1899.000000	0.001290
1898.000000	0.001259
1897.000000	0.001222
1896.000000	0.001188
1895.000000	0.001166
1894.000000	0.001149
1893.000000	0.001115
1892.000000	0.001056
1891.000000	0.001001
1890.000000	0.000996
1889.000000	0.001058
1888.000000	0.001149
1887.000000	0.001221
1886.000000	0.001253
1885.000000	0.001241
1884.000000	0.001200
1883.000000	0.001154
1882.000000	0.001127
1881.000000	0.001119
1880.000000	0.001111
1879.000000	0.001089
1878.000000	0.001062
1877.000000	0.001051
1876.000000	0.001055
1875.000000	0.001058
1874.000000	0.001049
1873.000000	0.001026
1872.000000	0.000989
1871.000000	0.000940
1870.000000	0.000905
1869.000000	0.000929
1868.000000	0.001010
1867.000000	0.001088
1866.000000	0.001115
1865.000000	0.001097
1864.000000	0.001073
1863.000000	0.001071
1862.000000	0.001090
1861.000000	0.001112
1860.000000	0.001113
1859.000000	0.001084
1858.000000	0.001036
1857.000000	0.001005
1856.000000	0.001015
1855.000000	0.001048
1854.000000	0.001065
1853.000000	0.001043
1852.000000	0.000998
1851.000000	0.000956
1850.000000	0.000925
1849.000000	0.000910
1848.000000	0.000918
1847.000000	0.000946
1846.000000	0.000982
1845.000000	0.001013
1844.000000	0.001038
1843.000000	0.001059
1842.000000	0.001068
1841.000000	0.001061
1840.000000	0.001054
1839.000000	0.001059
1838.000000	0.001071
1837.000000	0.001066
1836.000000	0.001038
1835.000000	0.001000
1834.000000	0.000970
1833.000000	0.000946
1832.000000	0.000922
1831.000000	0.000897
1830.000000	0.000883
1829.000000	0.000882
1828.000000	0.000881
1827.000000	0.000856
1826.000000	0.000810
1825.000000	0.000770
1824.000000	0.000762
1823.000000	0.000783
1822.000000	0.000816
1821.000000	0.000846
1820.000000	0.000862
1819.000000	0.000849
1818.000000	0.000817
1817.000000	0.000792
1816.000000	0.000797
1815.000000	0.000820
1814.000000	0.000833
1813.000000	0.000819
1812.000000	0.000793
1811.000000	0.000782
1810.000000	0.000800
1809.000000	0.000838
1808.000000	0.000875
1807.000000	0.000902
1806.000000	0.000920
1805.000000	0.000925
1804.000000	0.000914
1803.000000	0.000893
1802.000000	0.000877
1801.000000	0.000881
1800.000000	0.000905
1799.000000	0.000939
1798.000000	0.000972
1797.000000	0.000996
1796.000000	0.001012
1795.000000	0.001032
1794.000000	0.001064
1793.000000	0.001099
1792.000000	0.001111
1791.000000	0.001084
1790.000000	0.001038
1789.000000	0.000992
1788.000000	0.000952
1787.000000	0.000919
1786.000000	0.000899
1785.000000	0.000893
1784.000000	0.000893
1783.000000	0.000878
1782.000000	0.000837
1781.000000	0.000789
1780.000000	0.000767
1779.000000	0.000770
1778.000000	0.000764
1777.000000	0.000727
1776.000000	0.000680
1775.000000	0.000662
1774.000000	0.000690
1773.000000	0.000758
1772.000000	0.000834
1771.000000	0.000876
1770.000000	0.000873
1769.000000	0.000843
1768.000000	0.000817
1767.000000	0.000824
1766.000000	0.000862
1765.000000	0.000905
1764.000000	0.000935
1763.000000	0.000960
1762.000000	0.001001
1761.000000	0.001068
1760.000000	0.001144
1759.000000	0.001207
1758.000000	0.001273
1757.000000	0.001374
1756.000000	0.001519
1755.000000	0.001666
1754.000000	0.001786
1753.000000	0.001896
1752.000000	0.002046
1751.000000	0.002255
1750.000000	0.002497
1749.000000	0.002738
1748.000000	0.002952
1747.000000	0.003121
1746.000000	0.003241
1745.000000	0.003333
1744.000000	0.003420
1743.000000	0.003499
1742.000000	0.003556
1741.000000	0.003591
1740.000000	0.003606
1739.000000	0.003597
1738.000000	0.003550
1737.000000	0.003455
1736.000000	0.003312
1735.000000	0.003146
1734.000000	0.003004
1733.000000	0.002896
1732.000000	0.002776
1731.000000	0.002607
1730.000000	0.002419
1729.000000	0.002256
1728.000000	0.002128
1727.000000	0.002012
1726.000000	0.001886
1725.000000	0.001751
1724.000000	0.001608
1723.000000	0.001461
1722.000000	0.001328
1721.000000	0.001218
1720.000000	0.001126
1719.000000	0.001049
1718.000000	0.001003
1717.000000	0.000994
1716.000000	0.000982
1715.000000	0.000935
1714.000000	0.000866
1713.000000	0.000807
1712.000000	0.000771
1711.000000	0.000753
1710.000000	0.000742
1709.000000	0.000733
1708.000000	0.000725
1707.000000	0.000721
1706.000000	0.000731
1705.000000	0.000754
1704.000000	0.000771
1703.000000	0.000766
1702.000000	0.000736
1701.000000	0.000719
1700.000000	0.000755
1699.000000	0.000838
1698.000000	0.000915
1697.000000	0.000953
1696.000000	0.000962
1695.000000	0.000969
1694.000000	0.000988
1693.000000	0.000997
1692.000000	0.000982
1691.000000	0.000954
1690.000000	0.000930
1689.000000	0.000919
1688.000000	0.000927
1687.000000	0.000950
1686.000000	0.000987
1685.000000	0.001044
1684.000000	0.001098
1683.000000	0.001130
1682.000000	0.001142
1681.000000	0.001137
1680.000000	0.001136
1679.000000	0.001157
1678.000000	0.001189
1677.000000	0.001216
1676.000000	0.001235
1675.000000	0.001262
1674.000000	0.001307
1673.000000	0.001364
1672.000000	0.001410
1671.000000	0.001431
1670.000000	0.001429
1669.000000	0.001416
1668.000000	0.001416
1667.000000	0.001431
1666.000000	0.001450
1665.000000	0.001470
1664.000000	0.001489
1663.000000	0.001511
1662.000000	0.001542
1661.000000	0.001584
1660.000000	0.001624
1659.000000	0.001653
1658.000000	0.001681
1657.000000	0.001733
1656.000000	0.001817
1655.000000	0.001908
1654.000000	0.001950
1653.000000	0.001900
1652.000000	0.001865
1651.000000	0.001891
1650.000000	0.001906
1649.000000	0.001913
1648.000000	0.001942
1647.000000	0.001986
1646.000000	0.002015
1645.000000	0.002012
1644.000000	0.001981
1643.000000	0.001934
1642.000000	0.001884
1641.000000	0.001845
1640.000000	0.001824
1639.000000	0.001820
1638.000000	0.001815
1637.000000	0.001788
1636.000000	0.001734
1635.000000	0.001689
1634.000000	0.001685
1633.000000	0.001691
1632.000000	0.001677
1631.000000	0.001654
1630.000000	0.001636
1629.000000	0.001628
1628.000000	0.001624
1627.000000	0.001622
1626.000000	0.001614
1625.000000	0.001588
1624.000000	0.001527
1623.000000	0.001442
1622.000000	0.001381
1621.000000	0.001370
1620.000000	0.001389
1619.000000	0.001398
1618.000000	0.001370
1617.000000	0.001309
1616.000000	0.001263
1615.000000	0.001261
1614.000000	0.001268
1613.000000	0.001254
1612.000000	0.001218
1611.000000	0.001181
1610.000000	0.001158
1609.000000	0.001143
1608.000000	0.001126
1607.000000	0.001103
1606.000000	0.001076
1605.000000	0.001047
1604.000000	0.001017
1603.000000	0.000989
1602.000000	0.000966
1601.000000	0.000945
1600.000000	0.000913
1599.000000	0.000866
1598.000000	0.000818
1597.000000	0.000788
1596.000000	0.000784
1595.000000	0.000795
1594.000000	0.000803
1593.000000	0.000797
1592.000000	0.000778
1591.000000	0.000757
1590.000000	0.000751
1589.000000	0.000762
1588.000000	0.000777
1587.000000	0.000776
1586.000000	0.000765
1585.000000	0.000758
1584.000000	0.000766
1583.000000	0.000781
1582.000000	0.000792
1581.000000	0.000798
1580.000000	0.000805
1579.000000	0.000807
1578.000000	0.000799
1577.000000	0.000783
1576.000000	0.000761
1575.000000	0.000738
1574.000000	0.000723
1573.000000	0.000718
1572.000000	0.000729
1571.000000	0.000751
1570.000000	0.000763
1569.000000	0.000754
1568.000000	0.000743
1567.000000	0.000741
1566.000000	0.000747
1565.000000	0.000768
1564.000000	0.000812
1563.000000	0.000868
1562.000000	0.000928
1561.000000	0.000982
1560.000000	0.001046
1559.000000	0.001080
1558.000000	0.001087
1557.000000	0.001127
1556.000000	0.001162
1555.000000	0.001176
1554.000000	0.001189
1553.000000	0.001210
1552.000000	0.001234
1551.000000	0.001255
1550.000000	0.001297
1549.000000	0.001386
1548.000000	0.001507
1547.000000	0.001625
1546.000000	0.001723
1545.000000	0.001810
1544.000000	0.001889
1543.000000	0.001953
1542.000000	0.002004
1541.000000	0.002057
1540.000000	0.002120
1539.000000	0.002186
1538.000000	0.002248
1537.000000	0.002294
1536.000000	0.002331
1535.000000	0.002380
1534.000000	0.002450
1533.000000	0.002534
1532.000000	0.002616
1531.000000	0.002689
1530.000000	0.002752
1529.000000	0.002802
1528.000000	0.002832
1527.000000	0.002852
1526.000000	0.002890
1525.000000	0.002964
1524.000000	0.003055
1523.000000	0.003124
1522.000000	0.003161
1521.000000	0.003186
1520.000000	0.003235
1519.000000	0.003301
1518.000000	0.003361
1517.000000	0.003416
1516.000000	0.003466
1515.000000	0.003516
1514.000000	0.003563
1513.000000	0.003606
1512.000000	0.003647
1511.000000	0.003687
1510.000000	0.003728
1509.000000	0.003765
1508.000000	0.003787
1507.000000	0.003789
1506.000000	0.003832
1505.000000	0.003937
1504.000000	0.004030
1503.000000	0.004081
1502.000000	0.004113
1501.000000	0.004140
1500.000000	0.004159
1499.000000	0.004169
1498.000000	0.004196
1497.000000	0.004266
1496.000000	0.004358
1495.000000	0.004431
1494.000000	0.004474
1493.000000	0.004500
1492.000000	0.004516
1491.000000	0.004526
1490.000000	0.004532
1489.000000	0.004544
1488.000000	0.004566
1487.000000	0.004593
1486.000000	0.004622
1485.000000	0.004645
1484.000000	0.004666
1483.000000	0.004694
1482.000000	0.004729
1481.000000	0.004765
1480.000000	0.004785
1479.000000	0.004794
1478.000000	0.004810
1477.000000	0.004842
1476.000000	0.004874
1475.000000	0.004892
1474.000000	0.004912
1473.000000	0.004961
1472.000000	0.005029
1471.000000	0.005085
1470.000000	0.005121
1469.000000	0.005144
1468.000000	0.005155
1467.000000	0.005152
1466.000000	0.005139
1465.000000	0.005135
1464.000000	0.005148
1463.000000	0.005164
1462.000000	0.005170
1461.000000	0.005169
1460.000000	0.005172
1459.000000	0.005191
1458.000000	0.005245
1457.000000	0.005326
1456.000000	0.005385
1455.000000	0.005391
1454.000000	0.005361
1453.000000	0.005331
1452.000000	0.005315
1451.000000	0.005301
1450.000000	0.005276
1449.000000	0.005252
1448.000000	0.005243
1447.000000	0.005255
1446.000000	0.005279
1445.000000	0.005318
1444.000000	0.005373
1443.000000	0.005434
1442.000000	0.005493
1441.000000	0.005546
1440.000000	0.005594
1439.000000	0.005633
1438.000000	0.005677
1437.000000	0.005765
1436.000000	0.005900
1435.000000	0.006032
1434.000000	0.006127
1433.000000	0.006196
1432.000000	0.006264
1431.000000	0.006346
1430.000000	0.006446
1429.000000	0.006560
1428.000000	0.006672
1427.000000	0.006763
1426.000000	0.006834
1425.000000	0.006904
1424.000000	0.006976
1423.000000	0.007023
1422.000000	0.007037
1421.000000	0.007042
1420.000000	0.007066
1419.000000	0.007111
1418.000000	0.007155
1417.000000	0.007191
1416.000000	0.007220
1415.000000	0.007245
1414.000000	0.007266
1413.000000	0.007284
1412.000000	0.007296
1411.000000	0.007297
1410.000000	0.007291
1409.000000	0.007278
1408.000000	0.007250
1407.000000	0.007203
1406.000000	0.007157
1405.000000	0.007139
1404.000000	0.007145
1403.000000	0.007152
1402.000000	0.007151
1401.000000	0.007155
1400.000000	0.007174
1399.000000	0.007203
1398.000000	0.007236
1397.000000	0.007277
1396.000000	0.007328
1395.000000	0.007376
1394.000000	0.007406
1393.000000	0.007422
1392.000000	0.007425
1391.000000	0.007414
1390.000000	0.007394
1389.000000	0.007380
1388.000000	0.007382
1387.000000	0.007391
1386.000000	0.007392
1385.000000	0.007377
1384.000000	0.007346
1383.000000	0.007307
1382.000000	0.007278
1381.000000	0.007263
1380.000000	0.007250
1379.000000	0.007221
1378.000000	0.007174
1377.000000	0.007115
1376.000000	0.007049
1375.000000	0.006977
1374.000000	0.006912
1373.000000	0.006865
1372.000000	0.006827
1371.000000	0.006784
1370.000000	0.006732
1369.000000	0.006683
1368.000000	0.006641
1367.000000	0.006597
1366.000000	0.006547
1365.000000	0.006492
1364.000000	0.006428
1363.000000	0.006346
1362.000000	0.006258
1361.000000	0.006193
1360.000000	0.006160
1359.000000	0.006139
1358.000000	0.006109
1357.000000	0.006069
1356.000000	0.006025
1355.000000	0.005982
1354.000000	0.005937
1353.000000	0.005889
1352.000000	0.005836
1351.000000	0.005778
1350.000000	0.005720
1349.000000	0.005670
1348.000000	0.005629
1347.000000	0.005588
1346.000000	0.005538
1345.000000	0.005486
1344.000000	0.005444
1343.000000	0.005416
1342.000000	0.005396
1341.000000	0.005369
1340.000000	0.005329
1339.000000	0.005279
1338.000000	0.005241
1337.000000	0.005233
1336.000000	0.005250
1335.000000	0.005270
1334.000000	0.005268
1333.000000	0.005242
1332.000000	0.005202
1331.000000	0.005159
1330.000000	0.005112
1329.000000	0.005053
1328.000000	0.004978
1327.000000	0.004897
1326.000000	0.004827
1325.000000	0.004779
1324.000000	0.004745
1323.000000	0.004709
1322.000000	0.004663
1321.000000	0.004607
1320.000000	0.004549
1319.000000	0.004494
1318.000000	0.004446
1317.000000	0.004406
1316.000000	0.004364
1315.000000	0.004312
1314.000000	0.004258
1313.000000	0.004217
1312.000000	0.004183
1311.000000	0.004133
1310.000000	0.004061
1309.000000	0.003986
1308.000000	0.003935
1307.000000	0.003901
1306.000000	0.003855
1305.000000	0.003782
1304.000000	0.003698
1303.000000	0.003623
1302.000000	0.003564
1301.000000	0.003514
1300.000000	0.003467
1299.000000	0.003425
1298.000000	0.003385
1297.000000	0.003340
1296.000000	0.003286
1295.000000	0.003223
1294.000000	0.003163
1293.000000	0.003118
1292.000000	0.003091
1291.000000	0.003074
1290.000000	0.003057
1289.000000	0.003039
1288.000000	0.003017
1287.000000	0.002989
1286.000000	0.002950
1285.000000	0.002904
1284.000000	0.002862
1283.000000	0.002824
1282.000000	0.002779
1281.000000	0.002723
1280.000000	0.002669
1279.000000	0.002631
1278.000000	0.002610
1277.000000	0.002603
1276.000000	0.002604
1275.000000	0.002610
1274.000000	0.002611
1273.000000	0.002605
1272.000000	0.002601
1271.000000	0.002617
1270.000000	0.002655
1269.000000	0.002701
1268.000000	0.002735
1267.000000	0.002754
1266.000000	0.002770
1265.000000	0.002799
1264.000000	0.002849
1263.000000	0.002907
1262.000000	0.002949
1261.000000	0.002966
1260.000000	0.002969
1259.000000	0.002979
1258.000000	0.003003
1257.000000	0.003034
1256.000000	0.003058
1255.000000	0.003067
1254.000000	0.003057
1253.000000	0.003030
1252.000000	0.002997
1251.000000	0.002970
1250.000000	0.002953
1249.000000	0.002940
1248.000000	0.002933
1247.000000	0.002942
1246.000000	0.002971
1245.000000	0.003000
1244.000000	0.003004
1243.000000	0.002974
1242.000000	0.002927
1241.000000	0.002885
1240.000000	0.002857
1239.000000	0.002834
1238.000000	0.002807
1237.000000	0.002774
1236.000000	0.002737
1235.000000	0.002698
1234.000000	0.002657
1233.000000	0.002609
1232.000000	0.002559
1231.000000	0.002512
1230.000000	0.002472
1229.000000	0.002434
1228.000000	0.002390
1227.000000	0.002336
1226.000000	0.002269
1225.000000	0.002183
1224.000000	0.002073
1223.000000	0.001950
1222.000000	0.001835
1221.000000	0.001741
1220.000000	0.001667
1219.000000	0.001604
1218.000000	0.001550
1217.000000	0.001505
1216.000000	0.001466
1215.000000	0.001431
1214.000000	0.001402
1213.000000	0.001381
1212.000000	0.001362
1211.000000	0.001337
1210.000000	0.001307
1209.000000	0.001277
1208.000000	0.001252
1207.000000	0.001231
1206.000000	0.001214
1205.000000	0.001198
1204.000000	0.001184
1203.000000	0.001176
1202.000000	0.001182
1201.000000	0.001200
1200.000000	0.001220
1199.000000	0.001227
1198.000000	0.001220
1197.000000	0.001215
1196.000000	0.001227
1195.000000	0.001261
1194.000000	0.001309
1193.000000	0.001355
1192.000000	0.001388
1191.000000	0.001410
1190.000000	0.001434
1189.000000	0.001468
1188.000000	0.001505
1187.000000	0.001538
1186.000000	0.001571
1185.000000	0.001615
1184.000000	0.001667
1183.000000	0.001715
1182.000000	0.001759
1181.000000	0.001813
1180.000000	0.001889
1179.000000	0.001984
1178.000000	0.002087
1177.000000	0.002193
1176.000000	0.002296
1175.000000	0.002383
1174.000000	0.002449
1173.000000	0.002507
1172.000000	0.002580
1171.000000	0.002668
1170.000000	0.002755
1169.000000	0.002826
1168.000000	0.002881
1167.000000	0.002932
1166.000000	0.002987
1165.000000	0.003044
1164.000000	0.003088
1163.000000	0.003103
1162.000000	0.003084
1161.000000	0.003037
1160.000000	0.002980
1159.000000	0.002921
1158.000000	0.002867
1157.000000	0.002826
1156.000000	0.002808
1155.000000	0.002811
1154.000000	0.002816
1153.000000	0.002796
1152.000000	0.002737
1151.000000	0.002650
1150.000000	0.002558
1149.000000	0.002474
1148.000000	0.002395
1147.000000	0.002313
1146.000000	0.002233
1145.000000	0.002163
1144.000000	0.002100
1143.000000	0.002031
1142.000000	0.001950
1141.000000	0.001866
1140.000000	0.001792
1139.000000	0.001727
1138.000000	0.001664
1137.000000	0.001602
1136.000000	0.001545
1135.000000	0.001503
1134.000000	0.001474
1133.000000	0.001454
1132.000000	0.001443
1131.000000	0.001447
1130.000000	0.001469
1129.000000	0.001500
1128.000000	0.001526
1127.000000	0.001543
1126.000000	0.001560
1125.000000	0.001580
1124.000000	0.001592
1123.000000	0.001590
1122.000000	0.001580
1121.000000	0.001581
1120.000000	0.001613
1119.000000	0.001680
1118.000000	0.001771
1117.000000	0.001870
1116.000000	0.001965
1115.000000	0.002059
1114.000000	0.002164
1113.000000	0.002283
1112.000000	0.002399
1111.000000	0.002490
1110.000000	0.002552
1109.000000	0.002596
1108.000000	0.002642
1107.000000	0.002703
1106.000000	0.002782
1105.000000	0.002872
1104.000000	0.002954
1103.000000	0.003019
1102.000000	0.003078
1101.000000	0.003148
1100.000000	0.003229
1099.000000	0.003304
1098.000000	0.003362
1097.000000	0.003402
1096.000000	0.003430
1095.000000	0.003445
1094.000000	0.003437
1093.000000	0.003398
1092.000000	0.003323
1091.000000	0.003216
1090.000000	0.003094
1089.000000	0.002979
1088.000000	0.002879
1087.000000	0.002796
1086.000000	0.002723
1085.000000	0.002640
1084.000000	0.002522
1083.000000	0.002376
1082.000000	0.002244
1081.000000	0.002169
1080.000000	0.002146
1079.000000	0.002136
1078.000000	0.002110
1077.000000	0.002082
1076.000000	0.002071
1075.000000	0.002082
1074.000000	0.002106
1073.000000	0.002133
1072.000000	0.002157
1071.000000	0.002172
1070.000000	0.002197
1069.000000	0.002255
1068.000000	0.002354
1067.000000	0.002467
1066.000000	0.002574
1065.000000	0.002690
1064.000000	0.002840
1063.000000	0.003027
1062.000000	0.003216
1061.000000	0.003375
1060.000000	0.003495
1059.000000	0.003589
1058.000000	0.003676
1057.000000	0.003775
1056.000000	0.003899
1055.000000	0.004042
1054.000000	0.004182
1053.000000	0.004304
1052.000000	0.004409
1051.000000	0.004511
1050.000000	0.004620
1049.000000	0.004733
1048.000000	0.004846
1047.000000	0.004958
1046.000000	0.005072
1045.000000	0.005179
1044.000000	0.005264
1043.000000	0.005330
1042.000000	0.005393
1041.000000	0.005463
1040.000000	0.005532
1039.000000	0.005584
1038.000000	0.005617
1037.000000	0.005633
1036.000000	0.005624
1035.000000	0.005596
1034.000000	0.005578
1033.000000	0.005594
1032.000000	0.005630
1031.000000	0.005648
1030.000000	0.005633
1029.000000	0.005610
1028.000000	0.005596
1027.000000	0.005588
1026.000000	0.005581
1025.000000	0.005583
1024.000000	0.005599
1023.000000	0.005615
1022.000000	0.005613
1021.000000	0.005590
1020.000000	0.005548
1019.000000	0.005487
1018.000000	0.005407
1017.000000	0.005320
1016.000000	0.005230
1015.000000	0.005135
1014.000000	0.005040
1013.000000	0.004963
1012.000000	0.004918
1011.000000	0.004896
1010.000000	0.004878
1009.000000	0.004842
1008.000000	0.004776
1007.000000	0.004679
1006.000000	0.004578
1005.000000	0.004506
1004.000000	0.004473
1003.000000	0.004454
1002.000000	0.004424
1001.000000	0.004379
1000.000000	0.004328
999.000000	0.004270
998.000000	0.004204
997.000000	0.004137
996.000000	0.004080
995.000000	0.004033
994.000000	0.003985
993.000000	0.003933
992.000000	0.003882
991.000000	0.003829
990.000000	0.003771
989.000000	0.003712
988.000000	0.003664
987.000000	0.003624
986.000000	0.003578
985.000000	0.003510
984.000000	0.003428
983.000000	0.003359
982.000000	0.003332
981.000000	0.003344
980.000000	0.003360
979.000000	0.003342
978.000000	0.003291
977.000000	0.003235
976.000000	0.003196
975.000000	0.003166
974.000000	0.003131
973.000000	0.003097
972.000000	0.003071
971.000000	0.003050
970.000000	0.003020
969.000000	0.002983
968.000000	0.002942
967.000000	0.002892
966.000000	0.002831
965.000000	0.002767
964.000000	0.002707
963.000000	0.002647
962.000000	0.002579
961.000000	0.002505
960.000000	0.002439
959.000000	0.002383
958.000000	0.002331
957.000000	0.002280
956.000000	0.002233
955.000000	0.002183
954.000000	0.002120
953.000000	0.002048
952.000000	0.001977
951.000000	0.001912
950.000000	0.001846
949.000000	0.001781
948.000000	0.001730
947.000000	0.001700
946.000000	0.001678
945.000000	0.001646
944.000000	0.001594
943.000000	0.001525
942.000000	0.001450
941.000000	0.001385
940.000000	0.001341
939.000000	0.001320
938.000000	0.001318
937.000000	0.001329
936.000000	0.001346
935.000000	0.001355
934.000000	0.001341
933.000000	0.001298
932.000000	0.001239
931.000000	0.001186
930.000000	0.001161
929.000000	0.001170
928.000000	0.001195
927.000000	0.001211
926.000000	0.001210
925.000000	0.001200
924.000000	0.001189
923.000000	0.001167
922.000000	0.001126
921.000000	0.001078
920.000000	0.001060
919.000000	0.001090
918.000000	0.001145
917.000000	0.001179
916.000000	0.001167
915.000000	0.001125
914.000000	0.001092
913.000000	0.001089
912.000000	0.001107
911.000000	0.001121
910.000000	0.001119
909.000000	0.001112
908.000000	0.001115
907.000000	0.001135
906.000000	0.001176
905.000000	0.001236
904.000000	0.001300
903.000000	0.001345
902.000000	0.001356
901.000000	0.001341
900.000000	0.001313
899.000000	0.001283
898.000000	0.001256
897.000000	0.001242
896.000000	0.001245
895.000000	0.001258
894.000000	0.001272
893.000000	0.001292
892.000000	0.001325
891.000000	0.001369
890.000000	0.001424
889.000000	0.001508
888.000000	0.001649
887.000000	0.001859
886.000000	0.002122
885.000000	0.002410
884.000000	0.002702
883.000000	0.002985
882.000000	0.003260
881.000000	0.003543
880.000000	0.003856
879.000000	0.004206
878.000000	0.004577
877.000000	0.004933
876.000000	0.005232
875.000000	0.005437
874.000000	0.005529
873.000000	0.005513
872.000000	0.005405
871.000000	0.005211
870.000000	0.004933
869.000000	0.004592
868.000000	0.004234
867.000000	0.003913
866.000000	0.003654
865.000000	0.003448
864.000000	0.003275
863.000000	0.003123
862.000000	0.002986
861.000000	0.002850
860.000000	0.002696
859.000000	0.002523
858.000000	0.002359
857.000000	0.002233
856.000000	0.002147
855.000000	0.002075
854.000000	0.001996
853.000000	0.001906
852.000000	0.001817
851.000000	0.001746
850.000000	0.001705
849.000000	0.001685
848.000000	0.001648
847.000000	0.001555
846.000000	0.001410
845.000000	0.001263
844.000000	0.001155
843.000000	0.001086
842.000000	0.001031
841.000000	0.000977
840.000000	0.000920
839.000000	0.000859
838.000000	0.000798
837.000000	0.000753
836.000000	0.000730
835.000000	0.000708
834.000000	0.000672
833.000000	0.000648
832.000000	0.000675
831.000000	0.000748
830.000000	0.000811
829.000000	0.000827
828.000000	0.000815
827.000000	0.000817
826.000000	0.000851
825.000000	0.000913
824.000000	0.001006
823.000000	0.001153
822.000000	0.001369
821.000000	0.001653
820.000000	0.001997
819.000000	0.002389
818.000000	0.002794
817.000000	0.003154
816.000000	0.003402
815.000000	0.003503
814.000000	0.003465
813.000000	0.003328
812.000000	0.003127
811.000000	0.002887
810.000000	0.002650
809.000000	0.002464
808.000000	0.002350
807.000000	0.002275
806.000000	0.002187
805.000000	0.002066
804.000000	0.001938
803.000000	0.001840
802.000000	0.001793
801.000000	0.001801
800.000000	0.001843
799.000000	0.001882
798.000000	0.001890
797.000000	0.001873
796.000000	0.001866
795.000000	0.001889
794.000000	0.001924
793.000000	0.001944
792.000000	0.001941
791.000000	0.001929
790.000000	0.001919
789.000000	0.001915
788.000000	0.001915
787.000000	0.001910
786.000000	0.001896
785.000000	0.001891
784.000000	0.001922
783.000000	0.001995
782.000000	0.002077
781.000000	0.002125
780.000000	0.002122
779.000000	0.002099
778.000000	0.002111
777.000000	0.002188
776.000000	0.002297
775.000000	0.002353
774.000000	0.002296
773.000000	0.002159
772.000000	0.002033
771.000000	0.001984
770.000000	0.002002
769.000000	0.002036
768.000000	0.002049
767.000000	0.002020
766.000000	0.001938
765.000000	0.001822
764.000000	0.001731
763.000000	0.001717
762.000000	0.001776
761.000000	0.001859
760.000000	0.001926
759.000000	0.001977
758.000000	0.002035
757.000000	0.002125
756.000000	0.002258
755.000000	0.002427
754.000000	0.002604
753.000000	0.002756
752.000000	0.002866
751.000000	0.002929
750.000000	0.002945
749.000000	0.002929
748.000000	0.002916
747.000000	0.002935
746.000000	0.002972
745.000000	0.002989
744.000000	0.002963
743.000000	0.002905
742.000000	0.002837
741.000000	0.002780
740.000000	0.002754
739.000000	0.002759
738.000000	0.002762
737.000000	0.002728
736.000000	0.002660
735.000000	0.002587
734.000000	0.002525
733.000000	0.002473
732.000000	0.002432
731.000000	0.002411
730.000000	0.002395
729.000000	0.002366
728.000000	0.002325
727.000000	0.002279
726.000000	0.002229
725.000000	0.002170
724.000000	0.002119
723.000000	0.002089
722.000000	0.002065
721.000000	0.002021
720.000000	0.001967
719.000000	0.001950
718.000000	0.002005
717.000000	0.002140
716.000000	0.002357
715.000000	0.002657
714.000000	0.002982
713.000000	0.003220
712.000000	0.003297
711.000000	0.003239
710.000000	0.003128
709.000000	0.003027
708.000000	0.002953
707.000000	0.002887
706.000000	0.002797
705.000000	0.002662
704.000000	0.002505
703.000000	0.002392
702.000000	0.002373
701.000000	0.002426
700.000000	0.002489
699.000000	0.002530
698.000000	0.002567
697.000000	0.002633
696.000000	0.002729
695.000000	0.002828
694.000000	0.002881
693.000000	0.002841
692.000000	0.002715
691.000000	0.002556
690.000000	0.002415
689.000000	0.002307
688.000000	0.002219
687.000000	0.002145
686.000000	0.002068
685.000000	0.001967
684.000000	0.001868
683.000000	0.001827
682.000000	0.001855
681.000000	0.001887
680.000000	0.001879
679.000000	0.001847
678.000000	0.001815
677.000000	0.001790
676.000000	0.001781
675.000000	0.001788
674.000000	0.001787
673.000000	0.001746
672.000000	0.001652
671.000000	0.001476
670.000000	0.001153
669.000000	0.000648
668.000000	0.000263
667.000000	0.000372
666.000000	0.000658
665.000000	0.000939
664.000000	0.001200
663.000000	0.001358
662.000000	0.001378
661.000000	0.001300
660.000000	0.001198
659.000000	0.001098
658.000000	0.000996
657.000000	0.000930
656.000000	0.000927
655.000000	0.000950
654.000000	0.000968
653.000000	0.001004
652.000000	0.001063
651.000000	0.001104
650.000000	0.001099
649.000000	0.001081
648.000000	0.001069
647.000000	0.001041
646.000000	0.001000
645.000000	0.000984
644.000000	0.000993
643.000000	0.000999
642.000000	0.001008
641.000000	0.001067
640.000000	0.001170
639.000000	0.001232
638.000000	0.001190
637.000000	0.001076
636.000000	0.000947
635.000000	0.000839
634.000000	0.000786
633.000000	0.000814
632.000000	0.000891
631.000000	0.000942
630.000000	0.000936
629.000000	0.000904
628.000000	0.000868
627.000000	0.000812
626.000000	0.000750
625.000000	0.000740
624.000000	0.000793
623.000000	0.000834
622.000000	0.000796
621.000000	0.000701
620.000000	0.000622
619.000000	0.000614
618.000000	0.000691
617.000000	0.000824
616.000000	0.000943
615.000000	0.000983
614.000000	0.000940
613.000000	0.000881
612.000000	0.000855
611.000000	0.000849
610.000000	0.000824
609.000000	0.000773
608.000000	0.000717
607.000000	0.000687
606.000000	0.000723
605.000000	0.000826
604.000000	0.000919
603.000000	0.000904
602.000000	0.000772
601.000000	0.000618
600.000000	0.000538
599.000000	0.000559
598.000000	0.000654
597.000000	0.000785
596.000000	0.000895
595.000000	0.000934
594.000000	0.000917
593.000000	0.000921
592.000000	0.000995
591.000000	0.001095
590.000000	0.001166
589.000000	0.001226
588.000000	0.001335
587.000000	0.001508
586.000000	0.001703
585.000000	0.001866
584.000000	0.001945
583.000000	0.001909
582.000000	0.001788
581.000000	0.001687
580.000000	0.001713
579.000000	0.001879
578.000000	0.002104
577.000000	0.002292
576.000000	0.002389
575.000000	0.002411
574.000000	0.002422
573.000000	0.002483
572.000000	0.002582
571.000000	0.002642
570.000000	0.002602
569.000000	0.002487
568.000000	0.002371
567.000000	0.002313
566.000000	0.002315
565.000000	0.002324
564.000000	0.002241
563.000000	0.001996
562.000000	0.001634
561.000000	0.001298
560.000000	0.001101
559.000000	0.001043
558.000000	0.001068
557.000000	0.001141
556.000000	0.001231
555.000000	0.001271
554.000000	0.001187
553.000000	0.000978
552.000000	0.000736
551.000000	0.000581
550.000000	0.000574
549.000000	0.000670
548.000000	0.000761
547.000000	0.000767
546.000000	0.000704
545.000000	0.000651
544.000000	0.000661
543.000000	0.000721
542.000000	0.000788
541.000000	0.000821
540.000000	0.000795
539.000000	0.000711
538.000000	0.000610
537.000000	0.000535
536.000000	0.000487
535.000000	0.000454
534.000000	0.000462
533.000000	0.000555
532.000000	0.000736
531.000000	0.000966
530.000000	0.001209
529.000000	0.001423
528.000000	0.001553
527.000000	0.001593
526.000000	0.001668
525.000000	0.001910
524.000000	0.002246
523.000000	0.002448
522.000000	0.002412
521.000000	0.002269
520.000000	0.002210
519.000000	0.002280
518.000000	0.002388
517.000000	0.002463
516.000000	0.002489
515.000000	0.002466
514.000000	0.002408
513.000000	0.002359
512.000000	0.002330
511.000000	0.002263
510.000000	0.002105
509.000000	0.001912
508.000000	0.001826
507.000000	0.001965
506.000000	0.002323
505.000000	0.002771
504.000000	0.003128
503.000000	0.003279
502.000000	0.003257
501.000000	0.003195
500.000000	0.003145
499.000000	0.003041
498.000000	0.002858
497.000000	0.002683
496.000000	0.002592
495.000000	0.002568
494.000000	0.002583
493.000000	0.002643
492.000000	0.002690
491.000000	0.002593
490.000000	0.002343
489.000000	0.002144
488.000000	0.002181
487.000000	0.002384
486.000000	0.002522
485.000000	0.002464
484.000000	0.002251
483.000000	0.001985
482.000000	0.001770
481.000000	0.001727
480.000000	0.001898
479.000000	0.002163
478.000000	0.002355
477.000000	0.002431
476.000000	0.002424
475.000000	0.002282
474.000000	0.001927
473.000000	0.001479
472.000000	0.001225
471.000000	0.001251
470.000000	0.001361
469.000000	0.001405
468.000000	0.001412
467.000000	0.001426
466.000000	0.001395
465.000000	0.001274
464.000000	0.001108
463.000000	0.000948
462.000000	0.000801
461.000000	0.000669
460.000000	0.000564
459.000000	0.000464
458.000000	0.000352
457.000000	0.000325
456.000000	0.000493
455.000000	0.000776
454.000000	0.000974
453.000000	0.000980
452.000000	0.000838
451.000000	0.000706
450.000000	0.000508
