PE IR       SUBTECH     SPECTRUM    ASCII       PEDS        4.00        
   -1
P12-Vert048_1.ASC
23/06/09
11:19:28.00
23/06/09
11:23:17.00
uco
Sample 048 By uco Date Friday, June 09 2023
450.000000
#HDR
-1
-1
#GR
cm-1
A
1.0
0.0
4000.000000
-1.000000
3551
8
0.007534
-0.000541
#DATA
4000.000000	0.000771
3999.000000	0.000763
3998.000000	0.000755
3997.000000	0.000749
3996.000000	0.000748
3995.000000	0.000743
3994.000000	0.000745
3993.000000	0.000748
3992.000000	0.000756
3991.000000	0.000764
3990.000000	0.000769
3989.000000	0.000768
3988.000000	0.000764
3987.000000	0.000762
3986.000000	0.000768
3985.000000	0.000785
3984.000000	0.000811
3983.000000	0.000836
3982.000000	0.000847
3981.000000	0.000837
3980.000000	0.000812
3979.000000	0.000784
3978.000000	0.000762
3977.000000	0.000751
3976.000000	0.000750
3975.000000	0.000760
3974.000000	0.000780
3973.000000	0.000804
3972.000000	0.000822
3971.000000	0.000825
3970.000000	0.000815
3969.000000	0.000802
3968.000000	0.000799
3967.000000	0.000809
3966.000000	0.000827
3965.000000	0.000846
3964.000000	0.000863
3963.000000	0.000876
3962.000000	0.000881
3961.000000	0.000876
3960.000000	0.000863
3959.000000	0.000852
3958.000000	0.000849
3957.000000	0.000856
3956.000000	0.000864
3955.000000	0.000866
3954.000000	0.000863
3953.000000	0.000863
3952.000000	0.000870
3951.000000	0.000876
3950.000000	0.000869
3949.000000	0.000848
3948.000000	0.000824
3947.000000	0.000816
3946.000000	0.000831
3945.000000	0.000857
3944.000000	0.000876
3943.000000	0.000880
3942.000000	0.000874
3941.000000	0.000872
3940.000000	0.000878
3939.000000	0.000888
3938.000000	0.000893
3937.000000	0.000893
3936.000000	0.000894
3935.000000	0.000902
3934.000000	0.000915
3933.000000	0.000931
3932.000000	0.000942
3931.000000	0.000942
3930.000000	0.000929
3929.000000	0.000904
3928.000000	0.000877
3927.000000	0.000861
3926.000000	0.000867
3925.000000	0.000897
3924.000000	0.000941
3923.000000	0.000981
3922.000000	0.001002
3921.000000	0.000993
3920.000000	0.000964
3919.000000	0.000929
3918.000000	0.000901
3917.000000	0.000880
3916.000000	0.000864
3915.000000	0.000852
3914.000000	0.000847
3913.000000	0.000849
3912.000000	0.000860
3911.000000	0.000874
3910.000000	0.000883
3909.000000	0.000880
3908.000000	0.000866
3907.000000	0.000851
3906.000000	0.000845
3905.000000	0.000851
3904.000000	0.000868
3903.000000	0.000892
3902.000000	0.000922
3901.000000	0.000950
3900.000000	0.000961
3899.000000	0.000952
3898.000000	0.000931
3897.000000	0.000911
3896.000000	0.000895
3895.000000	0.000882
3894.000000	0.000873
3893.000000	0.000862
3892.000000	0.000843
3891.000000	0.000814
3890.000000	0.000797
3889.000000	0.000806
3888.000000	0.000833
3887.000000	0.000862
3886.000000	0.000881
3885.000000	0.000888
3884.000000	0.000894
3883.000000	0.000901
3882.000000	0.000895
3881.000000	0.000871
3880.000000	0.000839
3879.000000	0.000820
3878.000000	0.000829
3877.000000	0.000856
3876.000000	0.000882
3875.000000	0.000901
3874.000000	0.000914
3873.000000	0.000933
3872.000000	0.000965
3871.000000	0.000992
3870.000000	0.000991
3869.000000	0.000967
3868.000000	0.000952
3867.000000	0.000960
3866.000000	0.000976
3865.000000	0.000984
3864.000000	0.000973
3863.000000	0.000943
3862.000000	0.000911
3861.000000	0.000897
3860.000000	0.000909
3859.000000	0.000933
3858.000000	0.000951
3857.000000	0.000961
3856.000000	0.000978
3855.000000	0.001015
3854.000000	0.001061
3853.000000	0.001090
3852.000000	0.001109
3851.000000	0.001127
3850.000000	0.001109
3849.000000	0.001047
3848.000000	0.000969
3847.000000	0.000902
3846.000000	0.000859
3845.000000	0.000843
3844.000000	0.000852
3843.000000	0.000879
3842.000000	0.000916
3841.000000	0.000950
3840.000000	0.000971
3839.000000	0.000971
3838.000000	0.000957
3837.000000	0.000940
3836.000000	0.000931
3835.000000	0.000926
3834.000000	0.000924
3833.000000	0.000923
3832.000000	0.000920
3831.000000	0.000915
3830.000000	0.000911
3829.000000	0.000910
3828.000000	0.000907
3827.000000	0.000894
3826.000000	0.000878
3825.000000	0.000873
3824.000000	0.000890
3823.000000	0.000924
3822.000000	0.000956
3821.000000	0.000963
3820.000000	0.000960
3819.000000	0.000984
3818.000000	0.001030
3817.000000	0.001074
3816.000000	0.001098
3815.000000	0.001101
3814.000000	0.001089
3813.000000	0.001056
3812.000000	0.000996
3811.000000	0.000927
3810.000000	0.000872
3809.000000	0.000840
3808.000000	0.000828
3807.000000	0.000829
3806.000000	0.000846
3805.000000	0.000881
3804.000000	0.000926
3803.000000	0.000967
3802.000000	0.000994
3801.000000	0.000999
3800.000000	0.000993
3799.000000	0.000984
3798.000000	0.000962
3797.000000	0.000928
3796.000000	0.000904
3795.000000	0.000904
3794.000000	0.000920
3793.000000	0.000932
3792.000000	0.000927
3791.000000	0.000911
3790.000000	0.000895
3789.000000	0.000891
3788.000000	0.000902
3787.000000	0.000921
3786.000000	0.000935
3785.000000	0.000936
3784.000000	0.000927
3783.000000	0.000922
3782.000000	0.000925
3781.000000	0.000924
3780.000000	0.000908
3779.000000	0.000879
3778.000000	0.000855
3777.000000	0.000848
3776.000000	0.000850
3775.000000	0.000853
3774.000000	0.000858
3773.000000	0.000872
3772.000000	0.000896
3771.000000	0.000922
3770.000000	0.000943
3769.000000	0.000957
3768.000000	0.000971
3767.000000	0.000980
3766.000000	0.000979
3765.000000	0.000970
3764.000000	0.000958
3763.000000	0.000946
3762.000000	0.000931
3761.000000	0.000914
3760.000000	0.000901
3759.000000	0.000895
3758.000000	0.000892
3757.000000	0.000894
3756.000000	0.000907
3755.000000	0.000931
3754.000000	0.000961
3753.000000	0.000988
3752.000000	0.001009
3751.000000	0.001032
3750.000000	0.001060
3749.000000	0.001088
3748.000000	0.001105
3747.000000	0.001106
3746.000000	0.001098
3745.000000	0.001086
3744.000000	0.001065
3743.000000	0.001050
3742.000000	0.001039
3741.000000	0.001001
3740.000000	0.000944
3739.000000	0.000913
3738.000000	0.000927
3737.000000	0.000964
3736.000000	0.000979
3735.000000	0.000951
3734.000000	0.000906
3733.000000	0.000883
3732.000000	0.000888
3731.000000	0.000908
3730.000000	0.000928
3729.000000	0.000936
3728.000000	0.000931
3727.000000	0.000920
3726.000000	0.000911
3725.000000	0.000905
3724.000000	0.000892
3723.000000	0.000864
3722.000000	0.000821
3721.000000	0.000778
3720.000000	0.000747
3719.000000	0.000731
3718.000000	0.000726
3717.000000	0.000727
3716.000000	0.000731
3715.000000	0.000739
3714.000000	0.000757
3713.000000	0.000798
3712.000000	0.000862
3711.000000	0.000926
3710.000000	0.000969
3709.000000	0.000984
3708.000000	0.000974
3707.000000	0.000945
3706.000000	0.000909
3705.000000	0.000871
3704.000000	0.000836
3703.000000	0.000801
3702.000000	0.000770
3701.000000	0.000754
3700.000000	0.000765
3699.000000	0.000801
3698.000000	0.000836
3697.000000	0.000854
3696.000000	0.000858
3695.000000	0.000868
3694.000000	0.000901
3693.000000	0.000951
3692.000000	0.000997
3691.000000	0.001010
3690.000000	0.000974
3689.000000	0.000915
3688.000000	0.000883
3687.000000	0.000894
3686.000000	0.000915
3685.000000	0.000908
3684.000000	0.000877
3683.000000	0.000849
3682.000000	0.000843
3681.000000	0.000847
3680.000000	0.000835
3679.000000	0.000801
3678.000000	0.000759
3677.000000	0.000725
3676.000000	0.000704
3675.000000	0.000703
3674.000000	0.000740
3673.000000	0.000805
3672.000000	0.000855
3671.000000	0.000868
3670.000000	0.000857
3669.000000	0.000844
3668.000000	0.000850
3667.000000	0.000863
3666.000000	0.000864
3665.000000	0.000853
3664.000000	0.000839
3663.000000	0.000828
3662.000000	0.000818
3661.000000	0.000807
3660.000000	0.000798
3659.000000	0.000799
3658.000000	0.000812
3657.000000	0.000828
3656.000000	0.000830
3655.000000	0.000817
3654.000000	0.000804
3653.000000	0.000803
3652.000000	0.000822
3651.000000	0.000871
3650.000000	0.000929
3649.000000	0.000957
3648.000000	0.000945
3647.000000	0.000919
3646.000000	0.000900
3645.000000	0.000891
3644.000000	0.000886
3643.000000	0.000877
3642.000000	0.000863
3641.000000	0.000843
3640.000000	0.000824
3639.000000	0.000810
3638.000000	0.000807
3637.000000	0.000817
3636.000000	0.000835
3635.000000	0.000848
3634.000000	0.000849
3633.000000	0.000849
3632.000000	0.000864
3631.000000	0.000896
3630.000000	0.000927
3629.000000	0.000923
3628.000000	0.000887
3627.000000	0.000867
3626.000000	0.000870
3625.000000	0.000868
3624.000000	0.000847
3623.000000	0.000811
3622.000000	0.000764
3621.000000	0.000714
3620.000000	0.000681
3619.000000	0.000683
3618.000000	0.000722
3617.000000	0.000782
3616.000000	0.000840
3615.000000	0.000887
3614.000000	0.000924
3613.000000	0.000956
3612.000000	0.000984
3611.000000	0.001010
3610.000000	0.001041
3609.000000	0.001073
3608.000000	0.001093
3607.000000	0.001084
3606.000000	0.001049
3605.000000	0.001005
3604.000000	0.000968
3603.000000	0.000947
3602.000000	0.000939
3601.000000	0.000933
3600.000000	0.000926
3599.000000	0.000915
3598.000000	0.000900
3597.000000	0.000885
3596.000000	0.000878
3595.000000	0.000891
3594.000000	0.000925
3593.000000	0.000968
3592.000000	0.001000
3591.000000	0.001010
3590.000000	0.001003
3589.000000	0.000988
3588.000000	0.000974
3587.000000	0.000971
3586.000000	0.000987
3585.000000	0.001024
3584.000000	0.001070
3583.000000	0.001108
3582.000000	0.001131
3581.000000	0.001139
3580.000000	0.001137
3579.000000	0.001131
3578.000000	0.001127
3577.000000	0.001124
3576.000000	0.001121
3575.000000	0.001116
3574.000000	0.001107
3573.000000	0.001095
3572.000000	0.001079
3571.000000	0.001061
3570.000000	0.001047
3569.000000	0.001044
3568.000000	0.001054
3567.000000	0.001071
3566.000000	0.001093
3565.000000	0.001124
3564.000000	0.001158
3563.000000	0.001181
3562.000000	0.001184
3561.000000	0.001169
3560.000000	0.001153
3559.000000	0.001148
3558.000000	0.001156
3557.000000	0.001166
3556.000000	0.001169
3555.000000	0.001165
3554.000000	0.001163
3553.000000	0.001177
3552.000000	0.001207
3551.000000	0.001245
3550.000000	0.001278
3549.000000	0.001297
3548.000000	0.001305
3547.000000	0.001309
3546.000000	0.001318
3545.000000	0.001331
3544.000000	0.001341
3543.000000	0.001344
3542.000000	0.001340
3541.000000	0.001332
3540.000000	0.001324
3539.000000	0.001322
3538.000000	0.001328
3537.000000	0.001336
3536.000000	0.001343
3535.000000	0.001346
3534.000000	0.001348
3533.000000	0.001348
3532.000000	0.001346
3531.000000	0.001343
3530.000000	0.001346
3529.000000	0.001363
3528.000000	0.001392
3527.000000	0.001425
3526.000000	0.001451
3525.000000	0.001465
3524.000000	0.001464
3523.000000	0.001453
3522.000000	0.001444
3521.000000	0.001449
3520.000000	0.001470
3519.000000	0.001499
3518.000000	0.001523
3517.000000	0.001532
3516.000000	0.001525
3515.000000	0.001509
3514.000000	0.001492
3513.000000	0.001480
3512.000000	0.001481
3511.000000	0.001500
3510.000000	0.001534
3509.000000	0.001566
3508.000000	0.001577
3507.000000	0.001564
3506.000000	0.001541
3505.000000	0.001529
3504.000000	0.001535
3503.000000	0.001550
3502.000000	0.001561
3501.000000	0.001562
3500.000000	0.001561
3499.000000	0.001564
3498.000000	0.001573
3497.000000	0.001583
3496.000000	0.001585
3495.000000	0.001572
3494.000000	0.001547
3493.000000	0.001524
3492.000000	0.001515
3491.000000	0.001527
3490.000000	0.001551
3489.000000	0.001575
3488.000000	0.001593
3487.000000	0.001606
3486.000000	0.001620
3485.000000	0.001638
3484.000000	0.001656
3483.000000	0.001673
3482.000000	0.001684
3481.000000	0.001685
3480.000000	0.001675
3479.000000	0.001657
3478.000000	0.001640
3477.000000	0.001636
3476.000000	0.001646
3475.000000	0.001661
3474.000000	0.001669
3473.000000	0.001665
3472.000000	0.001658
3471.000000	0.001657
3470.000000	0.001665
3469.000000	0.001677
3468.000000	0.001687
3467.000000	0.001697
3466.000000	0.001712
3465.000000	0.001735
3464.000000	0.001763
3463.000000	0.001792
3462.000000	0.001814
3461.000000	0.001826
3460.000000	0.001826
3459.000000	0.001818
3458.000000	0.001805
3457.000000	0.001792
3456.000000	0.001779
3455.000000	0.001769
3454.000000	0.001761
3453.000000	0.001756
3452.000000	0.001756
3451.000000	0.001766
3450.000000	0.001790
3449.000000	0.001821
3448.000000	0.001848
3447.000000	0.001861
3446.000000	0.001864
3445.000000	0.001870
3444.000000	0.001882
3443.000000	0.001896
3442.000000	0.001905
3441.000000	0.001909
3440.000000	0.001912
3439.000000	0.001911
3438.000000	0.001902
3437.000000	0.001888
3436.000000	0.001874
3435.000000	0.001868
3434.000000	0.001870
3433.000000	0.001882
3432.000000	0.001900
3431.000000	0.001923
3430.000000	0.001945
3429.000000	0.001963
3428.000000	0.001975
3427.000000	0.001989
3426.000000	0.002009
3425.000000	0.002037
3424.000000	0.002066
3423.000000	0.002089
3422.000000	0.002102
3421.000000	0.002106
3420.000000	0.002106
3419.000000	0.002101
3418.000000	0.002094
3417.000000	0.002088
3416.000000	0.002088
3415.000000	0.002102
3414.000000	0.002127
3413.000000	0.002156
3412.000000	0.002178
3411.000000	0.002194
3410.000000	0.002212
3409.000000	0.002246
3408.000000	0.002298
3407.000000	0.002352
3406.000000	0.002388
3405.000000	0.002390
3404.000000	0.002366
3403.000000	0.002335
3402.000000	0.002314
3401.000000	0.002311
3400.000000	0.002322
3399.000000	0.002339
3398.000000	0.002356
3397.000000	0.002372
3396.000000	0.002387
3395.000000	0.002404
3394.000000	0.002418
3393.000000	0.002423
3392.000000	0.002413
3391.000000	0.002390
3390.000000	0.002366
3389.000000	0.002351
3388.000000	0.002351
3387.000000	0.002360
3386.000000	0.002372
3385.000000	0.002384
3384.000000	0.002393
3383.000000	0.002396
3382.000000	0.002388
3381.000000	0.002369
3380.000000	0.002350
3379.000000	0.002344
3378.000000	0.002359
3377.000000	0.002393
3376.000000	0.002436
3375.000000	0.002478
3374.000000	0.002511
3373.000000	0.002533
3372.000000	0.002538
3371.000000	0.002527
3370.000000	0.002505
3369.000000	0.002481
3368.000000	0.002463
3367.000000	0.002454
3366.000000	0.002455
3365.000000	0.002460
3364.000000	0.002466
3363.000000	0.002470
3362.000000	0.002476
3361.000000	0.002484
3360.000000	0.002497
3359.000000	0.002508
3358.000000	0.002515
3357.000000	0.002518
3356.000000	0.002520
3355.000000	0.002520
3354.000000	0.002516
3353.000000	0.002513
3352.000000	0.002520
3351.000000	0.002538
3350.000000	0.002560
3349.000000	0.002575
3348.000000	0.002580
3347.000000	0.002577
3346.000000	0.002573
3345.000000	0.002572
3344.000000	0.002577
3343.000000	0.002587
3342.000000	0.002599
3341.000000	0.002608
3340.000000	0.002615
3339.000000	0.002623
3338.000000	0.002635
3337.000000	0.002647
3336.000000	0.002655
3335.000000	0.002658
3334.000000	0.002658
3333.000000	0.002661
3332.000000	0.002672
3331.000000	0.002690
3330.000000	0.002708
3329.000000	0.002717
3328.000000	0.002719
3327.000000	0.002723
3326.000000	0.002735
3325.000000	0.002750
3324.000000	0.002758
3323.000000	0.002756
3322.000000	0.002747
3321.000000	0.002741
3320.000000	0.002742
3319.000000	0.002753
3318.000000	0.002771
3317.000000	0.002792
3316.000000	0.002812
3315.000000	0.002825
3314.000000	0.002830
3313.000000	0.002828
3312.000000	0.002825
3311.000000	0.002825
3310.000000	0.002829
3309.000000	0.002833
3308.000000	0.002831
3307.000000	0.002828
3306.000000	0.002824
3305.000000	0.002815
3304.000000	0.002797
3303.000000	0.002779
3302.000000	0.002779
3301.000000	0.002806
3300.000000	0.002850
3299.000000	0.002884
3298.000000	0.002892
3297.000000	0.002878
3296.000000	0.002858
3295.000000	0.002848
3294.000000	0.002850
3293.000000	0.002856
3292.000000	0.002855
3291.000000	0.002845
3290.000000	0.002833
3289.000000	0.002829
3288.000000	0.002840
3287.000000	0.002862
3286.000000	0.002885
3285.000000	0.002894
3284.000000	0.002886
3283.000000	0.002865
3282.000000	0.002843
3281.000000	0.002829
3280.000000	0.002825
3279.000000	0.002828
3278.000000	0.002834
3277.000000	0.002837
3276.000000	0.002840
3275.000000	0.002848
3274.000000	0.002865
3273.000000	0.002882
3272.000000	0.002886
3271.000000	0.002870
3270.000000	0.002842
3269.000000	0.002819
3268.000000	0.002808
3267.000000	0.002809
3266.000000	0.002820
3265.000000	0.002837
3264.000000	0.002852
3263.000000	0.002854
3262.000000	0.002844
3261.000000	0.002833
3260.000000	0.002833
3259.000000	0.002841
3258.000000	0.002848
3257.000000	0.002851
3256.000000	0.002852
3255.000000	0.002853
3254.000000	0.002851
3253.000000	0.002847
3252.000000	0.002840
3251.000000	0.002826
3250.000000	0.002795
3249.000000	0.002751
3248.000000	0.002708
3247.000000	0.002685
3246.000000	0.002687
3245.000000	0.002706
3244.000000	0.002726
3243.000000	0.002741
3242.000000	0.002750
3241.000000	0.002755
3240.000000	0.002755
3239.000000	0.002750
3238.000000	0.002749
3237.000000	0.002759
3236.000000	0.002775
3235.000000	0.002787
3234.000000	0.002785
3233.000000	0.002775
3232.000000	0.002769
3231.000000	0.002774
3230.000000	0.002785
3229.000000	0.002792
3228.000000	0.002791
3227.000000	0.002784
3226.000000	0.002777
3225.000000	0.002773
3224.000000	0.002772
3223.000000	0.002771
3222.000000	0.002767
3221.000000	0.002764
3220.000000	0.002763
3219.000000	0.002762
3218.000000	0.002754
3217.000000	0.002733
3216.000000	0.002704
3215.000000	0.002679
3214.000000	0.002664
3213.000000	0.002658
3212.000000	0.002655
3211.000000	0.002654
3210.000000	0.002656
3209.000000	0.002666
3208.000000	0.002685
3207.000000	0.002708
3206.000000	0.002724
3205.000000	0.002725
3204.000000	0.002713
3203.000000	0.002695
3202.000000	0.002673
3201.000000	0.002644
3200.000000	0.002609
3199.000000	0.002581
3198.000000	0.002574
3197.000000	0.002591
3196.000000	0.002622
3195.000000	0.002651
3194.000000	0.002670
3193.000000	0.002678
3192.000000	0.002679
3191.000000	0.002681
3190.000000	0.002692
3189.000000	0.002712
3188.000000	0.002731
3187.000000	0.002735
3186.000000	0.002714
3185.000000	0.002671
3184.000000	0.002626
3183.000000	0.002600
3182.000000	0.002595
3181.000000	0.002604
3180.000000	0.002617
3179.000000	0.002632
3178.000000	0.002649
3177.000000	0.002660
3176.000000	0.002660
3175.000000	0.002649
3174.000000	0.002634
3173.000000	0.002623
3172.000000	0.002620
3171.000000	0.002624
3170.000000	0.002633
3169.000000	0.002643
3168.000000	0.002651
3167.000000	0.002654
3166.000000	0.002649
3165.000000	0.002634
3164.000000	0.002616
3163.000000	0.002603
3162.000000	0.002602
3161.000000	0.002608
3160.000000	0.002610
3159.000000	0.002600
3158.000000	0.002584
3157.000000	0.002570
3156.000000	0.002563
3155.000000	0.002563
3154.000000	0.002565
3153.000000	0.002568
3152.000000	0.002573
3151.000000	0.002580
3150.000000	0.002585
3149.000000	0.002582
3148.000000	0.002571
3147.000000	0.002558
3146.000000	0.002549
3145.000000	0.002541
3144.000000	0.002527
3143.000000	0.002503
3142.000000	0.002471
3141.000000	0.002443
3140.000000	0.002429
3139.000000	0.002433
3138.000000	0.002450
3137.000000	0.002467
3136.000000	0.002473
3135.000000	0.002467
3134.000000	0.002460
3133.000000	0.002465
3132.000000	0.002487
3131.000000	0.002516
3130.000000	0.002536
3129.000000	0.002538
3128.000000	0.002525
3127.000000	0.002509
3126.000000	0.002495
3125.000000	0.002484
3124.000000	0.002475
3123.000000	0.002470
3122.000000	0.002471
3121.000000	0.002475
3120.000000	0.002478
3119.000000	0.002477
3118.000000	0.002472
3117.000000	0.002465
3116.000000	0.002459
3115.000000	0.002456
3114.000000	0.002452
3113.000000	0.002442
3112.000000	0.002421
3111.000000	0.002399
3110.000000	0.002391
3109.000000	0.002400
3108.000000	0.002415
3107.000000	0.002422
3106.000000	0.002422
3105.000000	0.002426
3104.000000	0.002437
3103.000000	0.002447
3102.000000	0.002446
3101.000000	0.002432
3100.000000	0.002418
3099.000000	0.002415
3098.000000	0.002424
3097.000000	0.002435
3096.000000	0.002440
3095.000000	0.002442
3094.000000	0.002445
3093.000000	0.002451
3092.000000	0.002455
3091.000000	0.002452
3090.000000	0.002441
3089.000000	0.002423
3088.000000	0.002405
3087.000000	0.002395
3086.000000	0.002395
3085.000000	0.002402
3084.000000	0.002408
3083.000000	0.002411
3082.000000	0.002411
3081.000000	0.002406
3080.000000	0.002394
3079.000000	0.002374
3078.000000	0.002355
3077.000000	0.002353
3076.000000	0.002375
3075.000000	0.002416
3074.000000	0.002461
3073.000000	0.002488
3072.000000	0.002483
3071.000000	0.002452
3070.000000	0.002413
3069.000000	0.002386
3068.000000	0.002379
3067.000000	0.002387
3066.000000	0.002402
3065.000000	0.002416
3064.000000	0.002424
3063.000000	0.002429
3062.000000	0.002432
3061.000000	0.002432
3060.000000	0.002426
3059.000000	0.002417
3058.000000	0.002412
3057.000000	0.002414
3056.000000	0.002419
3055.000000	0.002419
3054.000000	0.002412
3053.000000	0.002403
3052.000000	0.002397
3051.000000	0.002401
3050.000000	0.002415
3049.000000	0.002431
3048.000000	0.002441
3047.000000	0.002437
3046.000000	0.002420
3045.000000	0.002395
3044.000000	0.002373
3043.000000	0.002360
3042.000000	0.002359
3041.000000	0.002371
3040.000000	0.002392
3039.000000	0.002414
3038.000000	0.002432
3037.000000	0.002436
3036.000000	0.002426
3035.000000	0.002411
3034.000000	0.002403
3033.000000	0.002405
3032.000000	0.002407
3031.000000	0.002401
3030.000000	0.002392
3029.000000	0.002388
3028.000000	0.002391
3027.000000	0.002395
3026.000000	0.002397
3025.000000	0.002402
3024.000000	0.002413
3023.000000	0.002424
3022.000000	0.002427
3021.000000	0.002419
3020.000000	0.002409
3019.000000	0.002407
3018.000000	0.002415
3017.000000	0.002423
3016.000000	0.002419
3015.000000	0.002399
3014.000000	0.002375
3013.000000	0.002360
3012.000000	0.002361
3011.000000	0.002380
3010.000000	0.002412
3009.000000	0.002448
3008.000000	0.002479
3007.000000	0.002493
3006.000000	0.002487
3005.000000	0.002469
3004.000000	0.002454
3003.000000	0.002454
3002.000000	0.002472
3001.000000	0.002501
3000.000000	0.002527
2999.000000	0.002543
2998.000000	0.002552
2997.000000	0.002559
2996.000000	0.002572
2995.000000	0.002592
2994.000000	0.002620
2993.000000	0.002652
2992.000000	0.002681
2991.000000	0.002699
2990.000000	0.002704
2989.000000	0.002701
2988.000000	0.002698
2987.000000	0.002703
2986.000000	0.002716
2985.000000	0.002736
2984.000000	0.002758
2983.000000	0.002779
2982.000000	0.002801
2981.000000	0.002827
2980.000000	0.002853
2979.000000	0.002879
2978.000000	0.002908
2977.000000	0.002949
2976.000000	0.003007
2975.000000	0.003075
2974.000000	0.003139
2973.000000	0.003189
2972.000000	0.003223
2971.000000	0.003247
2970.000000	0.003269
2969.000000	0.003296
2968.000000	0.003332
2967.000000	0.003374
2966.000000	0.003419
2965.000000	0.003456
2964.000000	0.003476
2963.000000	0.003478
2962.000000	0.003475
2961.000000	0.003484
2960.000000	0.003509
2959.000000	0.003540
2958.000000	0.003561
2957.000000	0.003562
2956.000000	0.003549
2955.000000	0.003535
2954.000000	0.003529
2953.000000	0.003528
2952.000000	0.003518
2951.000000	0.003497
2950.000000	0.003473
2949.000000	0.003460
2948.000000	0.003458
2947.000000	0.003460
2946.000000	0.003458
2945.000000	0.003465
2944.000000	0.003496
2943.000000	0.003556
2942.000000	0.003628
2941.000000	0.003693
2940.000000	0.003743
2939.000000	0.003789
2938.000000	0.003845
2937.000000	0.003912
2936.000000	0.003976
2935.000000	0.004019
2934.000000	0.004036
2933.000000	0.004032
2932.000000	0.004019
2931.000000	0.004007
2930.000000	0.004004
2929.000000	0.004020
2928.000000	0.004052
2927.000000	0.004082
2926.000000	0.004090
2925.000000	0.004071
2924.000000	0.004044
2923.000000	0.004034
2922.000000	0.004042
2921.000000	0.004051
2920.000000	0.004040
2919.000000	0.004009
2918.000000	0.003968
2917.000000	0.003927
2916.000000	0.003888
2915.000000	0.003847
2914.000000	0.003805
2913.000000	0.003766
2912.000000	0.003730
2911.000000	0.003703
2910.000000	0.003685
2909.000000	0.003672
2908.000000	0.003657
2907.000000	0.003633
2906.000000	0.003597
2905.000000	0.003550
2904.000000	0.003490
2903.000000	0.003421
2902.000000	0.003351
2901.000000	0.003294
2900.000000	0.003257
2899.000000	0.003240
2898.000000	0.003235
2897.000000	0.003234
2896.000000	0.003233
2895.000000	0.003233
2894.000000	0.003228
2893.000000	0.003212
2892.000000	0.003185
2891.000000	0.003155
2890.000000	0.003130
2889.000000	0.003113
2888.000000	0.003094
2887.000000	0.003066
2886.000000	0.003033
2885.000000	0.003003
2884.000000	0.002986
2883.000000	0.002985
2882.000000	0.003004
2881.000000	0.003046
2880.000000	0.003106
2879.000000	0.003169
2878.000000	0.003218
2877.000000	0.003247
2876.000000	0.003260
2875.000000	0.003264
2874.000000	0.003263
2873.000000	0.003257
2872.000000	0.003244
2871.000000	0.003227
2870.000000	0.003210
2869.000000	0.003198
2868.000000	0.003195
2867.000000	0.003202
2866.000000	0.003215
2865.000000	0.003231
2864.000000	0.003249
2863.000000	0.003271
2862.000000	0.003301
2861.000000	0.003332
2860.000000	0.003356
2859.000000	0.003369
2858.000000	0.003375
2857.000000	0.003378
2856.000000	0.003381
2855.000000	0.003381
2854.000000	0.003376
2853.000000	0.003362
2852.000000	0.003336
2851.000000	0.003296
2850.000000	0.003245
2849.000000	0.003184
2848.000000	0.003120
2847.000000	0.003066
2846.000000	0.003027
2845.000000	0.002999
2844.000000	0.002969
2843.000000	0.002932
2842.000000	0.002892
2841.000000	0.002856
2840.000000	0.002826
2839.000000	0.002802
2838.000000	0.002785
2837.000000	0.002778
2836.000000	0.002772
2835.000000	0.002757
2834.000000	0.002734
2833.000000	0.002714
2832.000000	0.002701
2831.000000	0.002687
2830.000000	0.002665
2829.000000	0.002637
2828.000000	0.002614
2827.000000	0.002606
2826.000000	0.002610
2825.000000	0.002621
2824.000000	0.002636
2823.000000	0.002655
2822.000000	0.002672
2821.000000	0.002677
2820.000000	0.002663
2819.000000	0.002635
2818.000000	0.002606
2817.000000	0.002588
2816.000000	0.002583
2815.000000	0.002586
2814.000000	0.002589
2813.000000	0.002587
2812.000000	0.002578
2811.000000	0.002560
2810.000000	0.002541
2809.000000	0.002531
2808.000000	0.002530
2807.000000	0.002530
2806.000000	0.002525
2805.000000	0.002516
2804.000000	0.002515
2803.000000	0.002528
2802.000000	0.002551
2801.000000	0.002572
2800.000000	0.002578
2799.000000	0.002568
2798.000000	0.002552
2797.000000	0.002541
2796.000000	0.002535
2795.000000	0.002528
2794.000000	0.002514
2793.000000	0.002498
2792.000000	0.002487
2791.000000	0.002484
2790.000000	0.002487
2789.000000	0.002489
2788.000000	0.002488
2787.000000	0.002489
2786.000000	0.002494
2785.000000	0.002503
2784.000000	0.002509
2783.000000	0.002508
2782.000000	0.002503
2781.000000	0.002500
2780.000000	0.002501
2779.000000	0.002508
2778.000000	0.002520
2777.000000	0.002535
2776.000000	0.002542
2775.000000	0.002528
2774.000000	0.002494
2773.000000	0.002454
2772.000000	0.002430
2771.000000	0.002431
2770.000000	0.002447
2769.000000	0.002461
2768.000000	0.002466
2767.000000	0.002465
2766.000000	0.002462
2765.000000	0.002461
2764.000000	0.002460
2763.000000	0.002462
2762.000000	0.002470
2761.000000	0.002483
2760.000000	0.002494
2759.000000	0.002493
2758.000000	0.002477
2757.000000	0.002455
2756.000000	0.002441
2755.000000	0.002442
2754.000000	0.002454
2753.000000	0.002467
2752.000000	0.002476
2751.000000	0.002487
2750.000000	0.002501
2749.000000	0.002512
2748.000000	0.002507
2747.000000	0.002484
2746.000000	0.002456
2745.000000	0.002436
2744.000000	0.002428
2743.000000	0.002425
2742.000000	0.002423
2741.000000	0.002426
2740.000000	0.002438
2739.000000	0.002453
2738.000000	0.002466
2737.000000	0.002472
2736.000000	0.002476
2735.000000	0.002477
2734.000000	0.002471
2733.000000	0.002458
2732.000000	0.002440
2731.000000	0.002427
2730.000000	0.002419
2729.000000	0.002416
2728.000000	0.002412
2727.000000	0.002409
2726.000000	0.002406
2725.000000	0.002402
2724.000000	0.002402
2723.000000	0.002409
2722.000000	0.002422
2721.000000	0.002434
2720.000000	0.002440
2719.000000	0.002442
2718.000000	0.002447
2717.000000	0.002454
2716.000000	0.002453
2715.000000	0.002440
2714.000000	0.002422
2713.000000	0.002410
2712.000000	0.002411
2711.000000	0.002424
2710.000000	0.002437
2709.000000	0.002439
2708.000000	0.002429
2707.000000	0.002417
2706.000000	0.002413
2705.000000	0.002418
2704.000000	0.002429
2703.000000	0.002441
2702.000000	0.002453
2701.000000	0.002462
2700.000000	0.002460
2699.000000	0.002449
2698.000000	0.002435
2697.000000	0.002424
2696.000000	0.002414
2695.000000	0.002401
2694.000000	0.002384
2693.000000	0.002366
2692.000000	0.002351
2691.000000	0.002347
2690.000000	0.002357
2689.000000	0.002380
2688.000000	0.002411
2687.000000	0.002440
2686.000000	0.002461
2685.000000	0.002471
2684.000000	0.002467
2683.000000	0.002451
2682.000000	0.002428
2681.000000	0.002405
2680.000000	0.002388
2679.000000	0.002385
2678.000000	0.002399
2677.000000	0.002420
2676.000000	0.002433
2675.000000	0.002435
2674.000000	0.002431
2673.000000	0.002428
2672.000000	0.002424
2671.000000	0.002416
2670.000000	0.002410
2669.000000	0.002415
2668.000000	0.002430
2667.000000	0.002445
2666.000000	0.002450
2665.000000	0.002444
2664.000000	0.002436
2663.000000	0.002437
2662.000000	0.002450
2661.000000	0.002471
2660.000000	0.002488
2659.000000	0.002489
2658.000000	0.002475
2657.000000	0.002459
2656.000000	0.002450
2655.000000	0.002453
2654.000000	0.002461
2653.000000	0.002466
2652.000000	0.002464
2651.000000	0.002453
2650.000000	0.002436
2649.000000	0.002416
2648.000000	0.002399
2647.000000	0.002391
2646.000000	0.002391
2645.000000	0.002395
2644.000000	0.002397
2643.000000	0.002398
2642.000000	0.002402
2641.000000	0.002407
2640.000000	0.002407
2639.000000	0.002398
2638.000000	0.002388
2637.000000	0.002384
2636.000000	0.002387
2635.000000	0.002394
2634.000000	0.002400
2633.000000	0.002397
2632.000000	0.002383
2631.000000	0.002358
2630.000000	0.002332
2629.000000	0.002312
2628.000000	0.002301
2627.000000	0.002296
2626.000000	0.002297
2625.000000	0.002302
2624.000000	0.002309
2623.000000	0.002314
2622.000000	0.002312
2621.000000	0.002304
2620.000000	0.002285
2619.000000	0.002252
2618.000000	0.002215
2617.000000	0.002194
2616.000000	0.002199
2615.000000	0.002219
2614.000000	0.002237
2613.000000	0.002243
2612.000000	0.002246
2611.000000	0.002250
2610.000000	0.002252
2609.000000	0.002242
2608.000000	0.002214
2607.000000	0.002177
2606.000000	0.002143
2605.000000	0.002123
2604.000000	0.002114
2603.000000	0.002110
2602.000000	0.002103
2601.000000	0.002096
2600.000000	0.002096
2599.000000	0.002111
2598.000000	0.002137
2597.000000	0.002160
2596.000000	0.002167
2595.000000	0.002160
2594.000000	0.002147
2593.000000	0.002132
2592.000000	0.002112
2591.000000	0.002087
2590.000000	0.002065
2589.000000	0.002055
2588.000000	0.002055
2587.000000	0.002059
2586.000000	0.002063
2585.000000	0.002065
2584.000000	0.002062
2583.000000	0.002056
2582.000000	0.002057
2581.000000	0.002076
2580.000000	0.002106
2579.000000	0.002122
2578.000000	0.002111
2577.000000	0.002084
2576.000000	0.002062
2575.000000	0.002054
2574.000000	0.002049
2573.000000	0.002040
2572.000000	0.002035
2571.000000	0.002044
2570.000000	0.002064
2569.000000	0.002088
2568.000000	0.002114
2567.000000	0.002146
2566.000000	0.002177
2565.000000	0.002183
2564.000000	0.002151
2563.000000	0.002094
2562.000000	0.002043
2561.000000	0.002019
2560.000000	0.002020
2559.000000	0.002032
2558.000000	0.002040
2557.000000	0.002034
2556.000000	0.002014
2555.000000	0.001980
2554.000000	0.001940
2553.000000	0.001901
2552.000000	0.001877
2551.000000	0.001881
2550.000000	0.001913
2549.000000	0.001950
2548.000000	0.001967
2547.000000	0.001957
2546.000000	0.001935
2545.000000	0.001918
2544.000000	0.001911
2543.000000	0.001914
2542.000000	0.001931
2541.000000	0.001968
2540.000000	0.002016
2539.000000	0.002065
2538.000000	0.002105
2537.000000	0.002131
2536.000000	0.002129
2535.000000	0.002083
2534.000000	0.001998
2533.000000	0.001916
2532.000000	0.001887
2531.000000	0.001926
2530.000000	0.002000
2529.000000	0.002054
2528.000000	0.002057
2527.000000	0.002026
2526.000000	0.001998
2525.000000	0.001993
2524.000000	0.002007
2523.000000	0.002023
2522.000000	0.002034
2521.000000	0.002041
2520.000000	0.002043
2519.000000	0.002041
2518.000000	0.002033
2517.000000	0.002017
2516.000000	0.001993
2515.000000	0.001970
2514.000000	0.001963
2513.000000	0.001981
2512.000000	0.002007
2511.000000	0.002016
2510.000000	0.001996
2509.000000	0.001953
2508.000000	0.001910
2507.000000	0.001892
2506.000000	0.001910
2505.000000	0.001962
2504.000000	0.002022
2503.000000	0.002059
2502.000000	0.002053
2501.000000	0.002013
2500.000000	0.001964
2499.000000	0.001931
2498.000000	0.001921
2497.000000	0.001928
2496.000000	0.001938
2495.000000	0.001942
2494.000000	0.001939
2493.000000	0.001931
2492.000000	0.001926
2491.000000	0.001927
2490.000000	0.001934
2489.000000	0.001941
2488.000000	0.001941
2487.000000	0.001936
2486.000000	0.001932
2485.000000	0.001931
2484.000000	0.001931
2483.000000	0.001931
2482.000000	0.001932
2481.000000	0.001936
2480.000000	0.001942
2479.000000	0.001948
2478.000000	0.001949
2477.000000	0.001939
2476.000000	0.001915
2475.000000	0.001884
2474.000000	0.001860
2473.000000	0.001850
2472.000000	0.001847
2471.000000	0.001837
2470.000000	0.001823
2469.000000	0.001817
2468.000000	0.001829
2467.000000	0.001854
2466.000000	0.001877
2465.000000	0.001886
2464.000000	0.001889
2463.000000	0.001911
2462.000000	0.001962
2461.000000	0.002023
2460.000000	0.002058
2459.000000	0.002055
2458.000000	0.002034
2457.000000	0.002018
2456.000000	0.002011
2455.000000	0.002002
2454.000000	0.001981
2453.000000	0.001951
2452.000000	0.001924
2451.000000	0.001915
2450.000000	0.001927
2449.000000	0.001948
2448.000000	0.001959
2447.000000	0.001954
2446.000000	0.001947
2445.000000	0.001956
2444.000000	0.001972
2443.000000	0.001971
2442.000000	0.001950
2441.000000	0.001927
2440.000000	0.001924
2439.000000	0.001942
2438.000000	0.001973
2437.000000	0.002003
2436.000000	0.002018
2435.000000	0.002006
2434.000000	0.001964
2433.000000	0.001909
2432.000000	0.001865
2431.000000	0.001841
2430.000000	0.001835
2429.000000	0.001840
2428.000000	0.001848
2427.000000	0.001848
2426.000000	0.001830
2425.000000	0.001802
2424.000000	0.001789
2423.000000	0.001811
2422.000000	0.001857
2421.000000	0.001889
2420.000000	0.001886
2419.000000	0.001858
2418.000000	0.001836
2417.000000	0.001833
2416.000000	0.001838
2415.000000	0.001837
2414.000000	0.001835
2413.000000	0.001839
2412.000000	0.001853
2411.000000	0.001871
2410.000000	0.001892
2409.000000	0.001913
2408.000000	0.001928
2407.000000	0.001935
2406.000000	0.001936
2405.000000	0.001927
2404.000000	0.001903
2403.000000	0.001863
2402.000000	0.001818
2401.000000	0.001787
2400.000000	0.001779
2399.000000	0.001791
2398.000000	0.001814
2397.000000	0.001839
2396.000000	0.001855
2395.000000	0.001859
2394.000000	0.001860
2393.000000	0.001863
2392.000000	0.001864
2391.000000	0.001861
2390.000000	0.001862
2389.000000	0.001880
2388.000000	0.001915
2387.000000	0.001952
2386.000000	0.001969
2385.000000	0.001956
2384.000000	0.001920
2383.000000	0.001878
2382.000000	0.001842
2381.000000	0.001819
2380.000000	0.001807
2379.000000	0.001812
2378.000000	0.001841
2377.000000	0.001890
2376.000000	0.001938
2375.000000	0.001969
2374.000000	0.001985
2373.000000	0.001984
2372.000000	0.001961
2371.000000	0.001920
2370.000000	0.001888
2369.000000	0.001875
2368.000000	0.001874
2367.000000	0.001883
2366.000000	0.001911
2365.000000	0.001956
2364.000000	0.001995
2363.000000	0.002023
2362.000000	0.002060
2361.000000	0.002103
2360.000000	0.002125
2359.000000	0.002105
2358.000000	0.002055
2357.000000	0.002000
2356.000000	0.001974
2355.000000	0.002007
2354.000000	0.002059
2353.000000	0.002053
2352.000000	0.001992
2351.000000	0.001957
2350.000000	0.001994
2349.000000	0.002071
2348.000000	0.002132
2347.000000	0.002138
2346.000000	0.002104
2345.000000	0.002100
2344.000000	0.002151
2343.000000	0.002214
2342.000000	0.002233
2341.000000	0.002207
2340.000000	0.002184
2339.000000	0.002197
2338.000000	0.002213
2337.000000	0.002181
2336.000000	0.002108
2335.000000	0.002041
2334.000000	0.001999
2333.000000	0.001962
2332.000000	0.001930
2331.000000	0.001933
2330.000000	0.001992
2329.000000	0.002087
2328.000000	0.002202
2327.000000	0.002327
2326.000000	0.002446
2325.000000	0.002534
2324.000000	0.002573
2323.000000	0.002578
2322.000000	0.002571
2321.000000	0.002581
2320.000000	0.002622
2319.000000	0.002683
2318.000000	0.002731
2317.000000	0.002741
2316.000000	0.002719
2315.000000	0.002688
2314.000000	0.002662
2313.000000	0.002634
2312.000000	0.002591
2311.000000	0.002529
2310.000000	0.002453
2309.000000	0.002376
2308.000000	0.002317
2307.000000	0.002292
2306.000000	0.002302
2305.000000	0.002329
2304.000000	0.002350
2303.000000	0.002358
2302.000000	0.002358
2301.000000	0.002357
2300.000000	0.002356
2299.000000	0.002354
2298.000000	0.002353
2297.000000	0.002352
2296.000000	0.002349
2295.000000	0.002342
2294.000000	0.002336
2293.000000	0.002340
2292.000000	0.002348
2291.000000	0.002347
2290.000000	0.002323
2289.000000	0.002282
2288.000000	0.002255
2287.000000	0.002266
2286.000000	0.002302
2285.000000	0.002321
2284.000000	0.002286
2283.000000	0.002211
2282.000000	0.002136
2281.000000	0.002085
2280.000000	0.002044
2279.000000	0.001992
2278.000000	0.001935
2277.000000	0.001893
2276.000000	0.001880
2275.000000	0.001893
2274.000000	0.001923
2273.000000	0.001947
2272.000000	0.001944
2271.000000	0.001916
2270.000000	0.001901
2269.000000	0.001930
2268.000000	0.001990
2267.000000	0.002031
2266.000000	0.002016
2265.000000	0.001956
2264.000000	0.001892
2263.000000	0.001870
2262.000000	0.001909
2261.000000	0.001985
2260.000000	0.002043
2259.000000	0.002040
2258.000000	0.001983
2257.000000	0.001918
2256.000000	0.001878
2255.000000	0.001865
2254.000000	0.001869
2253.000000	0.001891
2252.000000	0.001923
2251.000000	0.001948
2250.000000	0.001941
2249.000000	0.001896
2248.000000	0.001829
2247.000000	0.001766
2246.000000	0.001732
2245.000000	0.001736
2244.000000	0.001764
2243.000000	0.001797
2242.000000	0.001829
2241.000000	0.001862
2240.000000	0.001897
2239.000000	0.001933
2238.000000	0.001982
2237.000000	0.002056
2236.000000	0.002146
2235.000000	0.002235
2234.000000	0.002318
2233.000000	0.002382
2232.000000	0.002390
2231.000000	0.002304
2230.000000	0.002150
2229.000000	0.002001
2228.000000	0.001908
2227.000000	0.001848
2226.000000	0.001774
2225.000000	0.001686
2224.000000	0.001636
2223.000000	0.001675
2222.000000	0.001801
2221.000000	0.001935
2220.000000	0.001965
2219.000000	0.001844
2218.000000	0.001653
2217.000000	0.001545
2216.000000	0.001593
2215.000000	0.001727
2214.000000	0.001825
2213.000000	0.001835
2212.000000	0.001790
2211.000000	0.001720
2210.000000	0.001632
2209.000000	0.001544
2208.000000	0.001501
2207.000000	0.001530
2206.000000	0.001598
2205.000000	0.001642
2204.000000	0.001623
2203.000000	0.001556
2202.000000	0.001484
2201.000000	0.001449
2200.000000	0.001472
2199.000000	0.001542
2198.000000	0.001621
2197.000000	0.001660
2196.000000	0.001635
2195.000000	0.001572
2194.000000	0.001526
2193.000000	0.001530
2192.000000	0.001549
2191.000000	0.001520
2190.000000	0.001438
2189.000000	0.001371
2188.000000	0.001389
2187.000000	0.001486
2186.000000	0.001591
2185.000000	0.001642
2184.000000	0.001614
2183.000000	0.001502
2182.000000	0.001328
2181.000000	0.001162
2180.000000	0.001108
2179.000000	0.001212
2178.000000	0.001398
2177.000000	0.001510
2176.000000	0.001444
2175.000000	0.001247
2174.000000	0.001080
2173.000000	0.001074
2172.000000	0.001232
2171.000000	0.001468
2170.000000	0.001700
2169.000000	0.001891
2168.000000	0.002025
2167.000000	0.002091
2166.000000	0.002115
2165.000000	0.002164
2164.000000	0.002283
2163.000000	0.002428
2162.000000	0.002489
2161.000000	0.002379
2160.000000	0.002070
2159.000000	0.001603
2158.000000	0.001087
2157.000000	0.000698
2156.000000	0.000585
2155.000000	0.000748
2154.000000	0.001036
2153.000000	0.001248
2152.000000	0.001262
2151.000000	0.001086
2150.000000	0.000826
2149.000000	0.000616
2148.000000	0.000554
2147.000000	0.000661
2146.000000	0.000864
2145.000000	0.001039
2144.000000	0.001109
2143.000000	0.001110
2142.000000	0.001135
2141.000000	0.001223
2140.000000	0.001322
2139.000000	0.001365
2138.000000	0.001346
2137.000000	0.001302
2136.000000	0.001245
2135.000000	0.001145
2134.000000	0.000990
2133.000000	0.000825
2132.000000	0.000719
2131.000000	0.000702
2130.000000	0.000752
2129.000000	0.000837
2128.000000	0.000939
2127.000000	0.001052
2126.000000	0.001172
2125.000000	0.001288
2124.000000	0.001407
2123.000000	0.001541
2122.000000	0.001681
2121.000000	0.001788
2120.000000	0.001818
2119.000000	0.001763
2118.000000	0.001667
2117.000000	0.001587
2116.000000	0.001558
2115.000000	0.001582
2114.000000	0.001637
2113.000000	0.001686
2112.000000	0.001696
2111.000000	0.001657
2110.000000	0.001589
2109.000000	0.001529
2108.000000	0.001507
2107.000000	0.001527
2106.000000	0.001572
2105.000000	0.001626
2104.000000	0.001686
2103.000000	0.001753
2102.000000	0.001812
2101.000000	0.001824
2100.000000	0.001763
2099.000000	0.001645
2098.000000	0.001507
2097.000000	0.001372
2096.000000	0.001240
2095.000000	0.001128
2094.000000	0.001075
2093.000000	0.001113
2092.000000	0.001228
2091.000000	0.001372
2090.000000	0.001494
2089.000000	0.001562
2088.000000	0.001577
2087.000000	0.001578
2086.000000	0.001604
2085.000000	0.001660
2084.000000	0.001710
2083.000000	0.001726
2082.000000	0.001710
2081.000000	0.001681
2080.000000	0.001650
2079.000000	0.001635
2078.000000	0.001661
2077.000000	0.001713
2076.000000	0.001729
2075.000000	0.001654
2074.000000	0.001504
2073.000000	0.001343
2072.000000	0.001225
2071.000000	0.001174
2070.000000	0.001208
2069.000000	0.001329
2068.000000	0.001485
2067.000000	0.001606
2066.000000	0.001666
2065.000000	0.001688
2064.000000	0.001682
2063.000000	0.001626
2062.000000	0.001526
2061.000000	0.001441
2060.000000	0.001435
2059.000000	0.001503
2058.000000	0.001573
2057.000000	0.001563
2056.000000	0.001443
2055.000000	0.001264
2054.000000	0.001159
2053.000000	0.001244
2052.000000	0.001524
2051.000000	0.001873
2050.000000	0.002143
2049.000000	0.002248
2048.000000	0.002188
2047.000000	0.002008
2046.000000	0.001779
2045.000000	0.001585
2044.000000	0.001484
2043.000000	0.001470
2042.000000	0.001502
2041.000000	0.001562
2040.000000	0.001660
2039.000000	0.001771
2038.000000	0.001819
2037.000000	0.001736
2036.000000	0.001558
2035.000000	0.001409
2034.000000	0.001379
2033.000000	0.001418
2032.000000	0.001395
2031.000000	0.001264
2030.000000	0.001133
2029.000000	0.001132
2028.000000	0.001253
2027.000000	0.001353
2026.000000	0.001310
2025.000000	0.001136
2024.000000	0.000944
2023.000000	0.000857
2022.000000	0.000931
2021.000000	0.001104
2020.000000	0.001223
2019.000000	0.001162
2018.000000	0.000960
2017.000000	0.000800
2016.000000	0.000831
2015.000000	0.001024
2014.000000	0.001224
2013.000000	0.001291
2012.000000	0.001206
2011.000000	0.001072
2010.000000	0.001025
2009.000000	0.001102
2008.000000	0.001194
2007.000000	0.001177
2006.000000	0.001082
2005.000000	0.001072
2004.000000	0.001231
2003.000000	0.001453
2002.000000	0.001557
2001.000000	0.001456
2000.000000	0.001209
1999.000000	0.000930
1998.000000	0.000714
1997.000000	0.000619
1996.000000	0.000669
1995.000000	0.000845
1994.000000	0.001080
1993.000000	0.001278
1992.000000	0.001374
1991.000000	0.001388
1990.000000	0.001395
1989.000000	0.001422
1988.000000	0.001417
1987.000000	0.001338
1986.000000	0.001234
1985.000000	0.001212
1984.000000	0.001310
1983.000000	0.001469
1982.000000	0.001595
1981.000000	0.001626
1980.000000	0.001534
1979.000000	0.001329
1978.000000	0.001083
1977.000000	0.000890
1976.000000	0.000764
1975.000000	0.000632
1974.000000	0.000449
1973.000000	0.000262
1972.000000	0.000114
1971.000000	-0.000005
1970.000000	-0.000096
1969.000000	-0.000098
1968.000000	0.000048
1967.000000	0.000309
1966.000000	0.000597
1965.000000	0.000864
1964.000000	0.001109
1963.000000	0.001318
1962.000000	0.001446
1961.000000	0.001452
1960.000000	0.001341
1959.000000	0.001150
1958.000000	0.000931
1957.000000	0.000749
1956.000000	0.000647
1955.000000	0.000620
1954.000000	0.000623
1953.000000	0.000631
1952.000000	0.000665
1951.000000	0.000767
1950.000000	0.000942
1949.000000	0.001122
1948.000000	0.001212
1947.000000	0.001184
1946.000000	0.001102
1945.000000	0.001056
1944.000000	0.001068
1943.000000	0.001084
1942.000000	0.001064
1941.000000	0.001030
1940.000000	0.001016
1939.000000	0.001020
1938.000000	0.001023
1937.000000	0.001033
1936.000000	0.001067
1935.000000	0.001119
1934.000000	0.001161
1933.000000	0.001166
1932.000000	0.001125
1931.000000	0.001045
1930.000000	0.000963
1929.000000	0.000940
1928.000000	0.001016
1927.000000	0.001160
1926.000000	0.001294
1925.000000	0.001351
1924.000000	0.001318
1923.000000	0.001219
1922.000000	0.001094
1921.000000	0.000984
1920.000000	0.000927
1919.000000	0.000935
1918.000000	0.000977
1917.000000	0.001010
1916.000000	0.001022
1915.000000	0.001038
1914.000000	0.001078
1913.000000	0.001127
1912.000000	0.001160
1911.000000	0.001166
1910.000000	0.001155
1909.000000	0.001133
1908.000000	0.001104
1907.000000	0.001080
1906.000000	0.001072
1905.000000	0.001075
1904.000000	0.001066
1903.000000	0.001022
1902.000000	0.000956
1901.000000	0.000911
1900.000000	0.000924
1899.000000	0.000992
1898.000000	0.001070
1897.000000	0.001118
1896.000000	0.001126
1895.000000	0.001112
1894.000000	0.001086
1893.000000	0.001042
1892.000000	0.000983
1891.000000	0.000941
1890.000000	0.000952
1889.000000	0.001016
1888.000000	0.001095
1887.000000	0.001161
1886.000000	0.001203
1885.000000	0.001218
1884.000000	0.001200
1883.000000	0.001167
1882.000000	0.001142
1881.000000	0.001130
1880.000000	0.001112
1879.000000	0.001081
1878.000000	0.001058
1877.000000	0.001062
1876.000000	0.001081
1875.000000	0.001090
1874.000000	0.001084
1873.000000	0.001076
1872.000000	0.001071
1871.000000	0.001060
1870.000000	0.001039
1869.000000	0.001019
1868.000000	0.001013
1867.000000	0.001020
1866.000000	0.001034
1865.000000	0.001047
1864.000000	0.001051
1863.000000	0.001041
1862.000000	0.001024
1861.000000	0.001017
1860.000000	0.001029
1859.000000	0.001050
1858.000000	0.001066
1857.000000	0.001069
1856.000000	0.001056
1855.000000	0.001035
1854.000000	0.001020
1853.000000	0.001017
1852.000000	0.001018
1851.000000	0.001012
1850.000000	0.001004
1849.000000	0.001009
1848.000000	0.001027
1847.000000	0.001036
1846.000000	0.001017
1845.000000	0.000980
1844.000000	0.000956
1843.000000	0.000966
1842.000000	0.000995
1841.000000	0.001020
1840.000000	0.001037
1839.000000	0.001048
1838.000000	0.001051
1837.000000	0.001043
1836.000000	0.001027
1835.000000	0.001007
1834.000000	0.000984
1833.000000	0.000954
1832.000000	0.000919
1831.000000	0.000886
1830.000000	0.000866
1829.000000	0.000857
1828.000000	0.000852
1827.000000	0.000841
1826.000000	0.000826
1825.000000	0.000821
1824.000000	0.000827
1823.000000	0.000841
1822.000000	0.000859
1821.000000	0.000878
1820.000000	0.000888
1819.000000	0.000874
1818.000000	0.000837
1817.000000	0.000798
1816.000000	0.000781
1815.000000	0.000788
1814.000000	0.000804
1813.000000	0.000814
1812.000000	0.000818
1811.000000	0.000823
1810.000000	0.000837
1809.000000	0.000852
1808.000000	0.000861
1807.000000	0.000866
1806.000000	0.000872
1805.000000	0.000880
1804.000000	0.000884
1803.000000	0.000888
1802.000000	0.000906
1801.000000	0.000944
1800.000000	0.000987
1799.000000	0.001015
1798.000000	0.001025
1797.000000	0.001017
1796.000000	0.000993
1795.000000	0.000964
1794.000000	0.000946
1793.000000	0.000949
1792.000000	0.000963
1791.000000	0.000969
1790.000000	0.000967
1789.000000	0.000959
1788.000000	0.000946
1787.000000	0.000929
1786.000000	0.000918
1785.000000	0.000920
1784.000000	0.000917
1783.000000	0.000888
1782.000000	0.000830
1781.000000	0.000773
1780.000000	0.000750
1779.000000	0.000761
1778.000000	0.000778
1777.000000	0.000776
1776.000000	0.000751
1775.000000	0.000720
1774.000000	0.000707
1773.000000	0.000728
1772.000000	0.000770
1771.000000	0.000803
1770.000000	0.000818
1769.000000	0.000828
1768.000000	0.000846
1767.000000	0.000869
1766.000000	0.000888
1765.000000	0.000901
1764.000000	0.000921
1763.000000	0.000963
1762.000000	0.001030
1761.000000	0.001105
1760.000000	0.001166
1759.000000	0.001217
1758.000000	0.001293
1757.000000	0.001429
1756.000000	0.001603
1755.000000	0.001760
1754.000000	0.001886
1753.000000	0.002022
1752.000000	0.002211
1751.000000	0.002445
1750.000000	0.002680
1749.000000	0.002893
1748.000000	0.003080
1747.000000	0.003225
1746.000000	0.003327
1745.000000	0.003418
1744.000000	0.003517
1743.000000	0.003603
1742.000000	0.003650
1741.000000	0.003667
1740.000000	0.003675
1739.000000	0.003657
1738.000000	0.003586
1737.000000	0.003466
1736.000000	0.003334
1735.000000	0.003237
1734.000000	0.003173
1733.000000	0.003090
1732.000000	0.002949
1731.000000	0.002765
1730.000000	0.002577
1729.000000	0.002413
1728.000000	0.002265
1727.000000	0.002114
1726.000000	0.001956
1725.000000	0.001803
1724.000000	0.001663
1723.000000	0.001529
1722.000000	0.001398
1721.000000	0.001272
1720.000000	0.001167
1719.000000	0.001103
1718.000000	0.001085
1717.000000	0.001073
1716.000000	0.001019
1715.000000	0.000926
1714.000000	0.000832
1713.000000	0.000771
1712.000000	0.000746
1711.000000	0.000746
1710.000000	0.000763
1709.000000	0.000781
1708.000000	0.000784
1707.000000	0.000773
1706.000000	0.000765
1705.000000	0.000762
1704.000000	0.000745
1703.000000	0.000709
1702.000000	0.000688
1701.000000	0.000733
1700.000000	0.000828
1699.000000	0.000901
1698.000000	0.000927
1697.000000	0.000929
1696.000000	0.000918
1695.000000	0.000902
1694.000000	0.000897
1693.000000	0.000910
1692.000000	0.000943
1691.000000	0.000989
1690.000000	0.001023
1689.000000	0.001029
1688.000000	0.001019
1687.000000	0.001022
1686.000000	0.001065
1685.000000	0.001153
1684.000000	0.001220
1683.000000	0.001218
1682.000000	0.001190
1681.000000	0.001177
1680.000000	0.001187
1679.000000	0.001207
1678.000000	0.001214
1677.000000	0.001214
1676.000000	0.001232
1675.000000	0.001284
1674.000000	0.001352
1673.000000	0.001405
1672.000000	0.001432
1671.000000	0.001445
1670.000000	0.001454
1669.000000	0.001463
1668.000000	0.001479
1667.000000	0.001497
1666.000000	0.001514
1665.000000	0.001535
1664.000000	0.001561
1663.000000	0.001585
1662.000000	0.001605
1661.000000	0.001632
1660.000000	0.001664
1659.000000	0.001691
1658.000000	0.001706
1657.000000	0.001711
1656.000000	0.001713
1655.000000	0.001720
1654.000000	0.001720
1653.000000	0.001708
1652.000000	0.001744
1651.000000	0.001804
1650.000000	0.001820
1649.000000	0.001828
1648.000000	0.001868
1647.000000	0.001921
1646.000000	0.001945
1645.000000	0.001945
1644.000000	0.001927
1643.000000	0.001892
1642.000000	0.001852
1641.000000	0.001817
1640.000000	0.001786
1639.000000	0.001756
1638.000000	0.001736
1637.000000	0.001738
1636.000000	0.001740
1635.000000	0.001713
1634.000000	0.001675
1633.000000	0.001643
1632.000000	0.001615
1631.000000	0.001594
1630.000000	0.001579
1629.000000	0.001569
1628.000000	0.001566
1627.000000	0.001568
1626.000000	0.001570
1625.000000	0.001566
1624.000000	0.001552
1623.000000	0.001524
1622.000000	0.001489
1621.000000	0.001454
1620.000000	0.001421
1619.000000	0.001387
1618.000000	0.001355
1617.000000	0.001322
1616.000000	0.001294
1615.000000	0.001279
1614.000000	0.001266
1613.000000	0.001246
1612.000000	0.001220
1611.000000	0.001184
1610.000000	0.001144
1609.000000	0.001114
1608.000000	0.001105
1607.000000	0.001108
1606.000000	0.001104
1605.000000	0.001082
1604.000000	0.001041
1603.000000	0.000996
1602.000000	0.000963
1601.000000	0.000945
1600.000000	0.000933
1599.000000	0.000915
1598.000000	0.000891
1597.000000	0.000866
1596.000000	0.000845
1595.000000	0.000830
1594.000000	0.000822
1593.000000	0.000820
1592.000000	0.000818
1591.000000	0.000810
1590.000000	0.000801
1589.000000	0.000797
1588.000000	0.000799
1587.000000	0.000804
1586.000000	0.000811
1585.000000	0.000823
1584.000000	0.000838
1583.000000	0.000847
1582.000000	0.000846
1581.000000	0.000842
1580.000000	0.000836
1579.000000	0.000827
1578.000000	0.000817
1577.000000	0.000806
1576.000000	0.000786
1575.000000	0.000757
1574.000000	0.000730
1573.000000	0.000714
1572.000000	0.000721
1571.000000	0.000753
1570.000000	0.000784
1569.000000	0.000792
1568.000000	0.000789
1567.000000	0.000793
1566.000000	0.000804
1565.000000	0.000822
1564.000000	0.000843
1563.000000	0.000864
1562.000000	0.000890
1561.000000	0.000923
1560.000000	0.000970
1559.000000	0.000989
1558.000000	0.000994
1557.000000	0.001052
1556.000000	0.001124
1555.000000	0.001181
1554.000000	0.001239
1553.000000	0.001296
1552.000000	0.001345
1551.000000	0.001387
1550.000000	0.001436
1549.000000	0.001500
1548.000000	0.001574
1547.000000	0.001646
1546.000000	0.001710
1545.000000	0.001764
1544.000000	0.001802
1543.000000	0.001833
1542.000000	0.001880
1541.000000	0.001966
1540.000000	0.002076
1539.000000	0.002185
1538.000000	0.002277
1537.000000	0.002329
1536.000000	0.002356
1535.000000	0.002399
1534.000000	0.002474
1533.000000	0.002557
1532.000000	0.002621
1531.000000	0.002674
1530.000000	0.002733
1529.000000	0.002800
1528.000000	0.002861
1527.000000	0.002908
1526.000000	0.002949
1525.000000	0.002987
1524.000000	0.003014
1523.000000	0.003027
1522.000000	0.003041
1521.000000	0.003080
1520.000000	0.003148
1519.000000	0.003229
1518.000000	0.003316
1517.000000	0.003402
1516.000000	0.003462
1515.000000	0.003496
1514.000000	0.003531
1513.000000	0.003586
1512.000000	0.003656
1511.000000	0.003717
1510.000000	0.003760
1509.000000	0.003792
1508.000000	0.003813
1507.000000	0.003817
1506.000000	0.003859
1505.000000	0.003970
1504.000000	0.004068
1503.000000	0.004107
1502.000000	0.004120
1501.000000	0.004131
1500.000000	0.004141
1499.000000	0.004147
1498.000000	0.004171
1497.000000	0.004237
1496.000000	0.004331
1495.000000	0.004413
1494.000000	0.004461
1493.000000	0.004489
1492.000000	0.004514
1491.000000	0.004547
1490.000000	0.004583
1489.000000	0.004618
1488.000000	0.004650
1487.000000	0.004684
1486.000000	0.004720
1485.000000	0.004752
1484.000000	0.004777
1483.000000	0.004801
1482.000000	0.004829
1481.000000	0.004855
1480.000000	0.004867
1479.000000	0.004873
1478.000000	0.004890
1477.000000	0.004919
1476.000000	0.004929
1475.000000	0.004911
1474.000000	0.004905
1473.000000	0.004962
1472.000000	0.005064
1471.000000	0.005146
1470.000000	0.005185
1469.000000	0.005191
1468.000000	0.005178
1467.000000	0.005159
1466.000000	0.005151
1465.000000	0.005166
1464.000000	0.005189
1463.000000	0.005196
1462.000000	0.005183
1461.000000	0.005161
1460.000000	0.005139
1459.000000	0.005135
1458.000000	0.005188
1457.000000	0.005307
1456.000000	0.005418
1455.000000	0.005454
1454.000000	0.005432
1453.000000	0.005405
1452.000000	0.005394
1451.000000	0.005379
1450.000000	0.005354
1449.000000	0.005340
1448.000000	0.005358
1447.000000	0.005393
1446.000000	0.005428
1445.000000	0.005464
1444.000000	0.005509
1443.000000	0.005561
1442.000000	0.005614
1441.000000	0.005658
1440.000000	0.005689
1439.000000	0.005715
1438.000000	0.005775
1437.000000	0.005909
1436.000000	0.006089
1435.000000	0.006232
1434.000000	0.006315
1433.000000	0.006374
1432.000000	0.006443
1431.000000	0.006528
1430.000000	0.006625
1429.000000	0.006730
1428.000000	0.006827
1427.000000	0.006899
1426.000000	0.006955
1425.000000	0.007014
1424.000000	0.007068
1423.000000	0.007088
1422.000000	0.007080
1421.000000	0.007094
1420.000000	0.007170
1419.000000	0.007285
1418.000000	0.007371
1417.000000	0.007403
1416.000000	0.007406
1415.000000	0.007403
1414.000000	0.007406
1413.000000	0.007416
1412.000000	0.007424
1411.000000	0.007419
1410.000000	0.007402
1409.000000	0.007378
1408.000000	0.007343
1407.000000	0.007296
1406.000000	0.007258
1405.000000	0.007257
1404.000000	0.007282
1403.000000	0.007291
1402.000000	0.007269
1401.000000	0.007239
1400.000000	0.007234
1399.000000	0.007256
1398.000000	0.007291
1397.000000	0.007336
1396.000000	0.007397
1395.000000	0.007463
1394.000000	0.007509
1393.000000	0.007530
1392.000000	0.007534
1391.000000	0.007524
1390.000000	0.007506
1389.000000	0.007486
1388.000000	0.007473
1387.000000	0.007462
1386.000000	0.007446
1385.000000	0.007419
1384.000000	0.007380
1383.000000	0.007336
1382.000000	0.007300
1381.000000	0.007274
1380.000000	0.007248
1379.000000	0.007208
1378.000000	0.007154
1377.000000	0.007094
1376.000000	0.007034
1375.000000	0.006976
1374.000000	0.006920
1373.000000	0.006865
1372.000000	0.006812
1371.000000	0.006758
1370.000000	0.006710
1369.000000	0.006670
1368.000000	0.006629
1367.000000	0.006577
1366.000000	0.006518
1365.000000	0.006458
1364.000000	0.006400
1363.000000	0.006337
1362.000000	0.006271
1361.000000	0.006213
1360.000000	0.006170
1359.000000	0.006140
1358.000000	0.006119
1357.000000	0.006105
1356.000000	0.006084
1355.000000	0.006042
1354.000000	0.005973
1353.000000	0.005889
1352.000000	0.005806
1351.000000	0.005732
1350.000000	0.005675
1349.000000	0.005632
1348.000000	0.005597
1347.000000	0.005561
1346.000000	0.005519
1345.000000	0.005479
1344.000000	0.005449
1343.000000	0.005434
1342.000000	0.005427
1341.000000	0.005414
1340.000000	0.005382
1339.000000	0.005336
1338.000000	0.005299
1337.000000	0.005284
1336.000000	0.005284
1335.000000	0.005281
1334.000000	0.005267
1333.000000	0.005235
1332.000000	0.005187
1331.000000	0.005131
1330.000000	0.005084
1329.000000	0.005046
1328.000000	0.005002
1327.000000	0.004938
1326.000000	0.004862
1325.000000	0.004790
1324.000000	0.004731
1323.000000	0.004680
1322.000000	0.004637
1321.000000	0.004603
1320.000000	0.004574
1319.000000	0.004540
1318.000000	0.004501
1317.000000	0.004463
1316.000000	0.004424
1315.000000	0.004375
1314.000000	0.004313
1313.000000	0.004247
1312.000000	0.004182
1311.000000	0.004117
1310.000000	0.004055
1309.000000	0.004006
1308.000000	0.003968
1307.000000	0.003931
1306.000000	0.003880
1305.000000	0.003813
1304.000000	0.003738
1303.000000	0.003657
1302.000000	0.003579
1301.000000	0.003511
1300.000000	0.003460
1299.000000	0.003424
1298.000000	0.003390
1297.000000	0.003351
1296.000000	0.003307
1295.000000	0.003260
1294.000000	0.003216
1293.000000	0.003178
1292.000000	0.003146
1291.000000	0.003118
1290.000000	0.003098
1289.000000	0.003080
1288.000000	0.003054
1287.000000	0.003003
1286.000000	0.002932
1285.000000	0.002863
1284.000000	0.002817
1283.000000	0.002790
1282.000000	0.002763
1281.000000	0.002722
1280.000000	0.002676
1279.000000	0.002644
1278.000000	0.002632
1277.000000	0.002631
1276.000000	0.002632
1275.000000	0.002634
1274.000000	0.002643
1273.000000	0.002658
1272.000000	0.002670
1271.000000	0.002678
1270.000000	0.002688
1269.000000	0.002705
1268.000000	0.002723
1267.000000	0.002738
1266.000000	0.002760
1265.000000	0.002803
1264.000000	0.002864
1263.000000	0.002924
1262.000000	0.002963
1261.000000	0.002983
1260.000000	0.003002
1259.000000	0.003031
1258.000000	0.003067
1257.000000	0.003098
1256.000000	0.003118
1255.000000	0.003120
1254.000000	0.003099
1253.000000	0.003062
1252.000000	0.003032
1251.000000	0.003028
1250.000000	0.003047
1249.000000	0.003065
1248.000000	0.003062
1247.000000	0.003042
1246.000000	0.003025
1245.000000	0.003018
1244.000000	0.003014
1243.000000	0.003008
1242.000000	0.003006
1241.000000	0.003009
1240.000000	0.003007
1239.000000	0.002991
1238.000000	0.002957
1237.000000	0.002906
1236.000000	0.002839
1235.000000	0.002763
1234.000000	0.002694
1233.000000	0.002637
1232.000000	0.002587
1231.000000	0.002539
1230.000000	0.002498
1229.000000	0.002471
1228.000000	0.002444
1227.000000	0.002392
1226.000000	0.002309
1225.000000	0.002205
1224.000000	0.002098
1223.000000	0.001995
1222.000000	0.001896
1221.000000	0.001799
1220.000000	0.001712
1219.000000	0.001647
1218.000000	0.001613
1217.000000	0.001600
1216.000000	0.001586
1215.000000	0.001555
1214.000000	0.001509
1213.000000	0.001456
1212.000000	0.001401
1211.000000	0.001351
1210.000000	0.001319
1209.000000	0.001315
1208.000000	0.001326
1207.000000	0.001328
1206.000000	0.001307
1205.000000	0.001272
1204.000000	0.001242
1203.000000	0.001231
1202.000000	0.001244
1201.000000	0.001271
1200.000000	0.001295
1199.000000	0.001307
1198.000000	0.001312
1197.000000	0.001319
1196.000000	0.001328
1195.000000	0.001336
1194.000000	0.001353
1193.000000	0.001390
1192.000000	0.001439
1191.000000	0.001479
1190.000000	0.001501
1189.000000	0.001520
1188.000000	0.001555
1187.000000	0.001609
1186.000000	0.001672
1185.000000	0.001733
1184.000000	0.001781
1183.000000	0.001818
1182.000000	0.001862
1181.000000	0.001929
1180.000000	0.002014
1179.000000	0.002101
1178.000000	0.002183
1177.000000	0.002274
1176.000000	0.002381
1175.000000	0.002487
1174.000000	0.002573
1173.000000	0.002643
1172.000000	0.002721
1171.000000	0.002812
1170.000000	0.002897
1169.000000	0.002955
1168.000000	0.002989
1167.000000	0.003021
1166.000000	0.003071
1165.000000	0.003135
1164.000000	0.003185
1163.000000	0.003193
1162.000000	0.003156
1161.000000	0.003098
1160.000000	0.003044
1159.000000	0.003006
1158.000000	0.002977
1157.000000	0.002952
1156.000000	0.002929
1155.000000	0.002906
1154.000000	0.002875
1153.000000	0.002832
1152.000000	0.002780
1151.000000	0.002724
1150.000000	0.002667
1149.000000	0.002599
1148.000000	0.002509
1147.000000	0.002403
1146.000000	0.002303
1145.000000	0.002227
1144.000000	0.002168
1143.000000	0.002107
1142.000000	0.002033
1141.000000	0.001951
1140.000000	0.001870
1139.000000	0.001799
1138.000000	0.001739
1137.000000	0.001684
1136.000000	0.001628
1135.000000	0.001571
1134.000000	0.001527
1133.000000	0.001504
1132.000000	0.001492
1131.000000	0.001481
1130.000000	0.001473
1129.000000	0.001482
1128.000000	0.001510
1127.000000	0.001543
1126.000000	0.001567
1125.000000	0.001579
1124.000000	0.001584
1123.000000	0.001590
1122.000000	0.001602
1121.000000	0.001623
1120.000000	0.001655
1119.000000	0.001700
1118.000000	0.001764
1117.000000	0.001852
1116.000000	0.001955
1115.000000	0.002058
1114.000000	0.002155
1113.000000	0.002247
1112.000000	0.002338
1111.000000	0.002425
1110.000000	0.002512
1109.000000	0.002604
1108.000000	0.002701
1107.000000	0.002791
1106.000000	0.002866
1105.000000	0.002937
1104.000000	0.003014
1103.000000	0.003093
1102.000000	0.003162
1101.000000	0.003219
1100.000000	0.003272
1099.000000	0.003326
1098.000000	0.003378
1097.000000	0.003420
1096.000000	0.003445
1095.000000	0.003450
1094.000000	0.003439
1093.000000	0.003405
1092.000000	0.003337
1091.000000	0.003232
1090.000000	0.003101
1089.000000	0.002967
1088.000000	0.002851
1087.000000	0.002760
1086.000000	0.002683
1085.000000	0.002597
1084.000000	0.002483
1083.000000	0.002355
1082.000000	0.002251
1081.000000	0.002200
1080.000000	0.002184
1079.000000	0.002171
1078.000000	0.002153
1077.000000	0.002142
1076.000000	0.002138
1075.000000	0.002125
1074.000000	0.002102
1073.000000	0.002090
1072.000000	0.002103
1071.000000	0.002139
1070.000000	0.002192
1069.000000	0.002266
1068.000000	0.002357
1067.000000	0.002449
1066.000000	0.002538
1065.000000	0.002641
1064.000000	0.002775
1063.000000	0.002930
1062.000000	0.003082
1061.000000	0.003219
1060.000000	0.003344
1059.000000	0.003461
1058.000000	0.003579
1057.000000	0.003715
1056.000000	0.003879
1055.000000	0.004054
1054.000000	0.004202
1053.000000	0.004295
1052.000000	0.004342
1051.000000	0.004381
1050.000000	0.004446
1049.000000	0.004544
1048.000000	0.004658
1047.000000	0.004766
1046.000000	0.004859
1045.000000	0.004941
1044.000000	0.005016
1043.000000	0.005081
1042.000000	0.005140
1041.000000	0.005199
1040.000000	0.005267
1039.000000	0.005353
1038.000000	0.005457
1037.000000	0.005557
1036.000000	0.005616
1035.000000	0.005616
1034.000000	0.005585
1033.000000	0.005559
1032.000000	0.005546
1031.000000	0.005532
1030.000000	0.005518
1029.000000	0.005521
1028.000000	0.005533
1027.000000	0.005522
1026.000000	0.005480
1025.000000	0.005435
1024.000000	0.005410
1023.000000	0.005390
1022.000000	0.005349
1021.000000	0.005291
1020.000000	0.005236
1019.000000	0.005194
1018.000000	0.005163
1017.000000	0.005143
1016.000000	0.005135
1015.000000	0.005120
1014.000000	0.005072
1013.000000	0.004988
1012.000000	0.004883
1011.000000	0.004774
1010.000000	0.004678
1009.000000	0.004607
1008.000000	0.004565
1007.000000	0.004536
1006.000000	0.004501
1005.000000	0.004453
1004.000000	0.004394
1003.000000	0.004333
1002.000000	0.004272
1001.000000	0.004216
1000.000000	0.004164
999.000000	0.004107
998.000000	0.004043
997.000000	0.003980
996.000000	0.003923
995.000000	0.003867
994.000000	0.003802
993.000000	0.003741
992.000000	0.003703
991.000000	0.003692
990.000000	0.003687
989.000000	0.003664
988.000000	0.003621
987.000000	0.003566
986.000000	0.003505
985.000000	0.003431
984.000000	0.003344
983.000000	0.003257
982.000000	0.003192
981.000000	0.003158
980.000000	0.003147
979.000000	0.003135
978.000000	0.003110
977.000000	0.003072
976.000000	0.003029
975.000000	0.002991
974.000000	0.002971
973.000000	0.002975
972.000000	0.002987
971.000000	0.002978
970.000000	0.002938
969.000000	0.002878
968.000000	0.002809
967.000000	0.002729
966.000000	0.002635
965.000000	0.002546
964.000000	0.002482
963.000000	0.002444
962.000000	0.002418
961.000000	0.002398
960.000000	0.002386
959.000000	0.002380
958.000000	0.002369
957.000000	0.002343
956.000000	0.002299
955.000000	0.002240
954.000000	0.002164
953.000000	0.002074
952.000000	0.001975
951.000000	0.001871
950.000000	0.001767
949.000000	0.001676
948.000000	0.001614
947.000000	0.001585
946.000000	0.001573
945.000000	0.001553
944.000000	0.001508
943.000000	0.001435
942.000000	0.001345
941.000000	0.001264
940.000000	0.001221
939.000000	0.001226
938.000000	0.001265
937.000000	0.001300
936.000000	0.001299
935.000000	0.001257
934.000000	0.001201
933.000000	0.001164
932.000000	0.001155
931.000000	0.001161
930.000000	0.001167
929.000000	0.001176
928.000000	0.001195
927.000000	0.001215
926.000000	0.001214
925.000000	0.001188
924.000000	0.001155
923.000000	0.001130
922.000000	0.001107
921.000000	0.001077
920.000000	0.001046
919.000000	0.001034
918.000000	0.001046
917.000000	0.001063
916.000000	0.001059
915.000000	0.001034
914.000000	0.001009
913.000000	0.001005
912.000000	0.001025
911.000000	0.001061
910.000000	0.001105
909.000000	0.001152
908.000000	0.001191
907.000000	0.001212
906.000000	0.001216
905.000000	0.001212
904.000000	0.001205
903.000000	0.001192
902.000000	0.001173
901.000000	0.001152
900.000000	0.001127
899.000000	0.001097
898.000000	0.001075
897.000000	0.001083
896.000000	0.001126
895.000000	0.001181
894.000000	0.001223
893.000000	0.001251
892.000000	0.001275
891.000000	0.001300
890.000000	0.001325
889.000000	0.001371
888.000000	0.001478
887.000000	0.001673
886.000000	0.001948
885.000000	0.002266
884.000000	0.002584
883.000000	0.002876
882.000000	0.003154
881.000000	0.003460
880.000000	0.003826
879.000000	0.004238
878.000000	0.004639
877.000000	0.004979
876.000000	0.005238
875.000000	0.005419
874.000000	0.005520
873.000000	0.005537
872.000000	0.005467
871.000000	0.005308
870.000000	0.005056
869.000000	0.004719
868.000000	0.004334
867.000000	0.003962
866.000000	0.003653
865.000000	0.003424
864.000000	0.003253
863.000000	0.003108
862.000000	0.002962
861.000000	0.002799
860.000000	0.002621
859.000000	0.002449
858.000000	0.002303
857.000000	0.002187
856.000000	0.002088
855.000000	0.001990
854.000000	0.001888
853.000000	0.001785
852.000000	0.001688
851.000000	0.001609
850.000000	0.001563
849.000000	0.001544
848.000000	0.001512
847.000000	0.001429
846.000000	0.001305
845.000000	0.001188
844.000000	0.001108
843.000000	0.001056
842.000000	0.001014
841.000000	0.000977
840.000000	0.000944
839.000000	0.000896
838.000000	0.000825
837.000000	0.000752
836.000000	0.000705
835.000000	0.000690
834.000000	0.000692
833.000000	0.000704
832.000000	0.000737
831.000000	0.000780
830.000000	0.000807
829.000000	0.000805
828.000000	0.000783
827.000000	0.000759
826.000000	0.000745
825.000000	0.000760
824.000000	0.000841
823.000000	0.001010
822.000000	0.001253
821.000000	0.001545
820.000000	0.001876
819.000000	0.002245
818.000000	0.002632
817.000000	0.002982
816.000000	0.003226
815.000000	0.003325
814.000000	0.003284
813.000000	0.003143
812.000000	0.002946
811.000000	0.002720
810.000000	0.002492
809.000000	0.002296
808.000000	0.002158
807.000000	0.002068
806.000000	0.001999
805.000000	0.001933
804.000000	0.001871
803.000000	0.001820
802.000000	0.001775
801.000000	0.001739
800.000000	0.001725
799.000000	0.001731
798.000000	0.001742
797.000000	0.001740
796.000000	0.001737
795.000000	0.001749
794.000000	0.001780
793.000000	0.001816
792.000000	0.001848
791.000000	0.001877
790.000000	0.001899
789.000000	0.001904
788.000000	0.001884
787.000000	0.001835
786.000000	0.001768
785.000000	0.001717
784.000000	0.001722
783.000000	0.001791
782.000000	0.001880
781.000000	0.001926
780.000000	0.001915
779.000000	0.001892
778.000000	0.001921
777.000000	0.002013
776.000000	0.002122
775.000000	0.002175
774.000000	0.002143
773.000000	0.002058
772.000000	0.001987
771.000000	0.001969
770.000000	0.001982
769.000000	0.001978
768.000000	0.001934
767.000000	0.001869
766.000000	0.001812
765.000000	0.001779
764.000000	0.001778
763.000000	0.001811
762.000000	0.001866
761.000000	0.001922
760.000000	0.001968
759.000000	0.002015
758.000000	0.002076
757.000000	0.002154
756.000000	0.002251
755.000000	0.002373
754.000000	0.002521
753.000000	0.002674
752.000000	0.002808
751.000000	0.002913
750.000000	0.002990
749.000000	0.003029
748.000000	0.003024
747.000000	0.002988
746.000000	0.002948
745.000000	0.002919
744.000000	0.002888
743.000000	0.002833
742.000000	0.002754
741.000000	0.002680
740.000000	0.002643
739.000000	0.002644
738.000000	0.002658
737.000000	0.002652
736.000000	0.002614
735.000000	0.002550
734.000000	0.002474
733.000000	0.002405
732.000000	0.002365
731.000000	0.002351
730.000000	0.002330
729.000000	0.002271
728.000000	0.002184
727.000000	0.002104
726.000000	0.002055
725.000000	0.002041
724.000000	0.002050
723.000000	0.002053
722.000000	0.002024
721.000000	0.001964
720.000000	0.001918
719.000000	0.001945
718.000000	0.002065
717.000000	0.002261
716.000000	0.002520
715.000000	0.002832
714.000000	0.003135
713.000000	0.003319
712.000000	0.003315
711.000000	0.003158
710.000000	0.002950
709.000000	0.002771
708.000000	0.002652
707.000000	0.002590
706.000000	0.002563
705.000000	0.002539
704.000000	0.002494
703.000000	0.002444
702.000000	0.002430
701.000000	0.002472
700.000000	0.002547
699.000000	0.002617
698.000000	0.002664
697.000000	0.002704
696.000000	0.002757
695.000000	0.002826
694.000000	0.002876
693.000000	0.002850
692.000000	0.002735
691.000000	0.002576
690.000000	0.002448
689.000000	0.002387
688.000000	0.002378
687.000000	0.002374
686.000000	0.002329
685.000000	0.002219
684.000000	0.002079
683.000000	0.001964
682.000000	0.001880
681.000000	0.001791
680.000000	0.001698
679.000000	0.001645
678.000000	0.001635
677.000000	0.001647
676.000000	0.001678
675.000000	0.001729
674.000000	0.001769
673.000000	0.001737
672.000000	0.001592
671.000000	0.001306
670.000000	0.000858
669.000000	0.000290
668.000000	-0.000041
667.000000	0.000236
666.000000	0.000685
665.000000	0.001013
664.000000	0.001231
663.000000	0.001331
662.000000	0.001329
661.000000	0.001270
660.000000	0.001210
659.000000	0.001170
658.000000	0.001150
657.000000	0.001158
656.000000	0.001176
655.000000	0.001153
654.000000	0.001097
653.000000	0.001074
652.000000	0.001089
651.000000	0.001074
650.000000	0.001018
649.000000	0.001000
648.000000	0.001045
647.000000	0.001081
646.000000	0.001067
645.000000	0.001055
644.000000	0.001097
643.000000	0.001182
642.000000	0.001282
641.000000	0.001394
640.000000	0.001488
639.000000	0.001507
638.000000	0.001448
637.000000	0.001388
636.000000	0.001367
635.000000	0.001346
634.000000	0.001288
633.000000	0.001219
632.000000	0.001166
631.000000	0.001116
630.000000	0.001070
629.000000	0.001057
628.000000	0.001064
627.000000	0.001025
626.000000	0.000929
625.000000	0.000842
624.000000	0.000800
623.000000	0.000751
622.000000	0.000654
621.000000	0.000568
620.000000	0.000577
619.000000	0.000700
618.000000	0.000885
617.000000	0.001057
616.000000	0.001136
615.000000	0.001066
614.000000	0.000882
613.000000	0.000719
612.000000	0.000678
611.000000	0.000733
610.000000	0.000778
609.000000	0.000760
608.000000	0.000705
607.000000	0.000671
606.000000	0.000708
605.000000	0.000827
604.000000	0.000966
603.000000	0.001017
602.000000	0.000924
601.000000	0.000731
600.000000	0.000536
599.000000	0.000424
598.000000	0.000446
597.000000	0.000607
596.000000	0.000847
595.000000	0.001057
594.000000	0.001177
593.000000	0.001228
592.000000	0.001252
591.000000	0.001254
590.000000	0.001246
589.000000	0.001286
588.000000	0.001421
587.000000	0.001607
586.000000	0.001747
585.000000	0.001786
584.000000	0.001743
583.000000	0.001677
582.000000	0.001653
581.000000	0.001718
580.000000	0.001854
579.000000	0.001969
578.000000	0.001981
577.000000	0.001904
576.000000	0.001833
575.000000	0.001863
574.000000	0.002030
573.000000	0.002283
572.000000	0.002517
571.000000	0.002639
570.000000	0.002652
569.000000	0.002620
568.000000	0.002554
567.000000	0.002389
566.000000	0.002107
565.000000	0.001810
564.000000	0.001613
563.000000	0.001544
562.000000	0.001565
561.000000	0.001612
560.000000	0.001593
559.000000	0.001425
558.000000	0.001152
557.000000	0.000938
556.000000	0.000895
555.000000	0.000960
554.000000	0.001007
553.000000	0.000999
552.000000	0.000964
551.000000	0.000892
550.000000	0.000769
549.000000	0.000665
548.000000	0.000663
547.000000	0.000725
546.000000	0.000739
545.000000	0.000683
544.000000	0.000648
543.000000	0.000697
542.000000	0.000789
541.000000	0.000853
540.000000	0.000869
539.000000	0.000842
538.000000	0.000768
537.000000	0.000638
536.000000	0.000457
535.000000	0.000261
534.000000	0.000147
533.000000	0.000233
532.000000	0.000565
531.000000	0.001057
530.000000	0.001562
529.000000	0.001973
528.000000	0.002229
527.000000	0.002294
526.000000	0.002230
525.000000	0.002226
524.000000	0.002387
523.000000	0.002585
522.000000	0.002623
521.000000	0.002484
520.000000	0.002347
519.000000	0.002353
518.000000	0.002466
517.000000	0.002579
516.000000	0.002642
515.000000	0.002641
514.000000	0.002561
513.000000	0.002427
512.000000	0.002323
511.000000	0.002317
510.000000	0.002396
509.000000	0.002497
508.000000	0.002588
507.000000	0.002690
506.000000	0.002857
505.000000	0.003101
504.000000	0.003333
503.000000	0.003394
502.000000	0.003218
501.000000	0.002939
500.000000	0.002749
499.000000	0.002694
498.000000	0.002692
497.000000	0.002674
496.000000	0.002618
495.000000	0.002520
494.000000	0.002416
493.000000	0.002388
492.000000	0.002471
491.000000	0.002577
490.000000	0.002618
489.000000	0.002641
488.000000	0.002724
487.000000	0.002809
486.000000	0.002757
485.000000	0.002548
484.000000	0.002301
483.000000	0.002073
482.000000	0.001819
481.000000	0.001554
480.000000	0.001410
479.000000	0.001471
478.000000	0.001663
477.000000	0.001835
476.000000	0.001880
475.000000	0.001756
474.000000	0.001491
473.000000	0.001219
472.000000	0.001086
471.000000	0.001061
470.000000	0.001001
469.000000	0.000904
468.000000	0.000909
467.000000	0.001068
466.000000	0.001262
465.000000	0.001370
464.000000	0.001386
463.000000	0.001309
462.000000	0.001071
461.000000	0.000665
460.000000	0.000194
459.000000	-0.000221
458.000000	-0.000502
457.000000	-0.000541
456.000000	-0.000284
455.000000	0.000239
454.000000	0.000744
453.000000	0.001125
452.000000	0.001308
451.000000	0.001282
450.000000	0.001129
