PE IR       SUBTECH     SPECTRUM    ASCII       PEDS        4.00        
   -1
P12-Vert046_1.ASC
23/06/09
11:16:15.00
23/06/09
11:23:17.00
uco
Sample 046 By uco Date Friday, June 09 2023
450.000000
#HDR
-1
-1
#GR
cm-1
A
1.0
0.0
4000.000000
-1.000000
3551
8
0.021241
0.001734
#DATA
4000.000000	0.002034
3999.000000	0.002042
3998.000000	0.002043
3997.000000	0.002034
3996.000000	0.002017
3995.000000	0.001995
3994.000000	0.001976
3993.000000	0.001974
3992.000000	0.001995
3991.000000	0.002031
3990.000000	0.002066
3989.000000	0.002085
3988.000000	0.002088
3987.000000	0.002088
3986.000000	0.002099
3985.000000	0.002123
3984.000000	0.002155
3983.000000	0.002181
3982.000000	0.002192
3981.000000	0.002186
3980.000000	0.002165
3979.000000	0.002137
3978.000000	0.002107
3977.000000	0.002082
3976.000000	0.002066
3975.000000	0.002066
3974.000000	0.002081
3973.000000	0.002107
3972.000000	0.002132
3971.000000	0.002142
3970.000000	0.002134
3969.000000	0.002114
3968.000000	0.002094
3967.000000	0.002083
3966.000000	0.002086
3965.000000	0.002098
3964.000000	0.002111
3963.000000	0.002119
3962.000000	0.002122
3961.000000	0.002120
3960.000000	0.002115
3959.000000	0.002109
3958.000000	0.002102
3957.000000	0.002097
3956.000000	0.002099
3955.000000	0.002107
3954.000000	0.002118
3953.000000	0.002126
3952.000000	0.002129
3951.000000	0.002124
3950.000000	0.002113
3949.000000	0.002098
3948.000000	0.002084
3947.000000	0.002072
3946.000000	0.002064
3945.000000	0.002065
3944.000000	0.002075
3943.000000	0.002093
3942.000000	0.002111
3941.000000	0.002123
3940.000000	0.002132
3939.000000	0.002141
3938.000000	0.002149
3937.000000	0.002146
3936.000000	0.002131
3935.000000	0.002114
3934.000000	0.002109
3933.000000	0.002121
3932.000000	0.002143
3931.000000	0.002159
3930.000000	0.002157
3929.000000	0.002137
3928.000000	0.002110
3927.000000	0.002094
3926.000000	0.002103
3925.000000	0.002133
3924.000000	0.002170
3923.000000	0.002196
3922.000000	0.002203
3921.000000	0.002196
3920.000000	0.002186
3919.000000	0.002183
3918.000000	0.002191
3917.000000	0.002198
3916.000000	0.002194
3915.000000	0.002178
3914.000000	0.002163
3913.000000	0.002157
3912.000000	0.002162
3911.000000	0.002170
3910.000000	0.002174
3909.000000	0.002167
3908.000000	0.002147
3907.000000	0.002121
3906.000000	0.002095
3905.000000	0.002073
3904.000000	0.002058
3903.000000	0.002059
3902.000000	0.002081
3901.000000	0.002117
3900.000000	0.002150
3899.000000	0.002159
3898.000000	0.002140
3897.000000	0.002108
3896.000000	0.002079
3895.000000	0.002068
3894.000000	0.002077
3893.000000	0.002100
3892.000000	0.002114
3891.000000	0.002098
3890.000000	0.002054
3889.000000	0.002004
3888.000000	0.001980
3887.000000	0.001999
3886.000000	0.002046
3885.000000	0.002084
3884.000000	0.002098
3883.000000	0.002100
3882.000000	0.002108
3881.000000	0.002119
3880.000000	0.002120
3879.000000	0.002104
3878.000000	0.002079
3877.000000	0.002060
3876.000000	0.002058
3875.000000	0.002066
3874.000000	0.002066
3873.000000	0.002055
3872.000000	0.002048
3871.000000	0.002063
3870.000000	0.002091
3869.000000	0.002108
3868.000000	0.002109
3867.000000	0.002118
3866.000000	0.002144
3865.000000	0.002172
3864.000000	0.002184
3863.000000	0.002179
3862.000000	0.002173
3861.000000	0.002175
3860.000000	0.002182
3859.000000	0.002185
3858.000000	0.002176
3857.000000	0.002157
3856.000000	0.002140
3855.000000	0.002142
3854.000000	0.002158
3853.000000	0.002161
3852.000000	0.002150
3851.000000	0.002148
3850.000000	0.002161
3849.000000	0.002178
3848.000000	0.002187
3847.000000	0.002187
3846.000000	0.002185
3845.000000	0.002186
3844.000000	0.002188
3843.000000	0.002182
3842.000000	0.002166
3841.000000	0.002145
3840.000000	0.002125
3839.000000	0.002111
3838.000000	0.002101
3837.000000	0.002093
3836.000000	0.002084
3835.000000	0.002079
3834.000000	0.002086
3833.000000	0.002108
3832.000000	0.002141
3831.000000	0.002172
3830.000000	0.002193
3829.000000	0.002205
3828.000000	0.002218
3827.000000	0.002231
3826.000000	0.002235
3825.000000	0.002223
3824.000000	0.002209
3823.000000	0.002212
3822.000000	0.002232
3821.000000	0.002238
3820.000000	0.002215
3819.000000	0.002186
3818.000000	0.002178
3817.000000	0.002196
3816.000000	0.002219
3815.000000	0.002231
3814.000000	0.002241
3813.000000	0.002258
3812.000000	0.002273
3811.000000	0.002266
3810.000000	0.002227
3809.000000	0.002170
3808.000000	0.002121
3807.000000	0.002091
3806.000000	0.002071
3805.000000	0.002053
3804.000000	0.002046
3803.000000	0.002066
3802.000000	0.002107
3801.000000	0.002135
3800.000000	0.002132
3799.000000	0.002113
3798.000000	0.002099
3797.000000	0.002096
3796.000000	0.002103
3795.000000	0.002120
3794.000000	0.002146
3793.000000	0.002176
3792.000000	0.002199
3791.000000	0.002204
3790.000000	0.002193
3789.000000	0.002172
3788.000000	0.002152
3787.000000	0.002142
3786.000000	0.002144
3785.000000	0.002153
3784.000000	0.002161
3783.000000	0.002166
3782.000000	0.002173
3781.000000	0.002182
3780.000000	0.002193
3779.000000	0.002207
3778.000000	0.002223
3777.000000	0.002237
3776.000000	0.002245
3775.000000	0.002239
3774.000000	0.002216
3773.000000	0.002181
3772.000000	0.002150
3771.000000	0.002136
3770.000000	0.002139
3769.000000	0.002152
3768.000000	0.002175
3767.000000	0.002210
3766.000000	0.002252
3765.000000	0.002283
3764.000000	0.002290
3763.000000	0.002280
3762.000000	0.002267
3761.000000	0.002257
3760.000000	0.002246
3759.000000	0.002232
3758.000000	0.002218
3757.000000	0.002200
3756.000000	0.002175
3755.000000	0.002145
3754.000000	0.002117
3753.000000	0.002095
3752.000000	0.002087
3751.000000	0.002104
3750.000000	0.002145
3749.000000	0.002174
3748.000000	0.002173
3747.000000	0.002163
3746.000000	0.002178
3745.000000	0.002213
3744.000000	0.002225
3743.000000	0.002198
3742.000000	0.002158
3741.000000	0.002130
3740.000000	0.002114
3739.000000	0.002100
3738.000000	0.002089
3737.000000	0.002073
3736.000000	0.002040
3735.000000	0.001991
3734.000000	0.001958
3733.000000	0.001967
3732.000000	0.002006
3731.000000	0.002042
3730.000000	0.002057
3729.000000	0.002061
3728.000000	0.002073
3727.000000	0.002096
3726.000000	0.002119
3725.000000	0.002127
3724.000000	0.002115
3723.000000	0.002091
3722.000000	0.002063
3721.000000	0.002040
3720.000000	0.002025
3719.000000	0.002023
3718.000000	0.002035
3717.000000	0.002049
3716.000000	0.002056
3715.000000	0.002053
3714.000000	0.002047
3713.000000	0.002049
3712.000000	0.002064
3711.000000	0.002085
3710.000000	0.002102
3709.000000	0.002108
3708.000000	0.002101
3707.000000	0.002087
3706.000000	0.002071
3705.000000	0.002051
3704.000000	0.002030
3703.000000	0.002013
3702.000000	0.002008
3701.000000	0.002015
3700.000000	0.002024
3699.000000	0.002032
3698.000000	0.002037
3697.000000	0.002039
3696.000000	0.002040
3695.000000	0.002047
3694.000000	0.002064
3693.000000	0.002082
3692.000000	0.002083
3691.000000	0.002056
3690.000000	0.002014
3689.000000	0.001986
3688.000000	0.001992
3687.000000	0.002021
3686.000000	0.002052
3685.000000	0.002069
3684.000000	0.002074
3683.000000	0.002079
3682.000000	0.002097
3681.000000	0.002129
3680.000000	0.002158
3679.000000	0.002164
3678.000000	0.002139
3677.000000	0.002084
3676.000000	0.002012
3675.000000	0.001957
3674.000000	0.001951
3673.000000	0.001988
3672.000000	0.002046
3671.000000	0.002094
3670.000000	0.002103
3669.000000	0.002084
3668.000000	0.002080
3667.000000	0.002113
3666.000000	0.002167
3665.000000	0.002215
3664.000000	0.002237
3663.000000	0.002234
3662.000000	0.002216
3661.000000	0.002197
3660.000000	0.002188
3659.000000	0.002199
3658.000000	0.002231
3657.000000	0.002263
3656.000000	0.002269
3655.000000	0.002239
3654.000000	0.002198
3653.000000	0.002176
3652.000000	0.002197
3651.000000	0.002265
3650.000000	0.002355
3649.000000	0.002424
3648.000000	0.002454
3647.000000	0.002461
3646.000000	0.002459
3645.000000	0.002450
3644.000000	0.002437
3643.000000	0.002424
3642.000000	0.002411
3641.000000	0.002395
3640.000000	0.002373
3639.000000	0.002352
3638.000000	0.002337
3637.000000	0.002332
3636.000000	0.002343
3635.000000	0.002376
3634.000000	0.002417
3633.000000	0.002451
3632.000000	0.002481
3631.000000	0.002534
3630.000000	0.002615
3629.000000	0.002677
3628.000000	0.002670
3627.000000	0.002618
3626.000000	0.002576
3625.000000	0.002567
3624.000000	0.002587
3623.000000	0.002620
3622.000000	0.002650
3621.000000	0.002667
3620.000000	0.002663
3619.000000	0.002640
3618.000000	0.002612
3617.000000	0.002598
3616.000000	0.002618
3615.000000	0.002685
3614.000000	0.002788
3613.000000	0.002886
3612.000000	0.002945
3611.000000	0.002968
3610.000000	0.002981
3609.000000	0.003002
3608.000000	0.003021
3607.000000	0.003026
3606.000000	0.003019
3605.000000	0.003013
3604.000000	0.003013
3603.000000	0.003019
3602.000000	0.003017
3601.000000	0.002999
3600.000000	0.002971
3599.000000	0.002959
3598.000000	0.002981
3597.000000	0.003037
3596.000000	0.003112
3595.000000	0.003184
3594.000000	0.003233
3593.000000	0.003246
3592.000000	0.003225
3591.000000	0.003193
3590.000000	0.003176
3589.000000	0.003188
3588.000000	0.003220
3587.000000	0.003256
3586.000000	0.003285
3585.000000	0.003311
3584.000000	0.003344
3583.000000	0.003384
3582.000000	0.003426
3581.000000	0.003454
3580.000000	0.003464
3579.000000	0.003468
3578.000000	0.003485
3577.000000	0.003524
3576.000000	0.003582
3575.000000	0.003644
3574.000000	0.003689
3573.000000	0.003703
3572.000000	0.003690
3571.000000	0.003664
3570.000000	0.003645
3569.000000	0.003642
3568.000000	0.003655
3567.000000	0.003679
3566.000000	0.003721
3565.000000	0.003779
3564.000000	0.003844
3563.000000	0.003900
3562.000000	0.003930
3561.000000	0.003931
3560.000000	0.003919
3559.000000	0.003914
3558.000000	0.003929
3557.000000	0.003957
3556.000000	0.003993
3555.000000	0.004036
3554.000000	0.004089
3553.000000	0.004147
3552.000000	0.004199
3551.000000	0.004235
3550.000000	0.004253
3549.000000	0.004258
3548.000000	0.004261
3547.000000	0.004270
3546.000000	0.004284
3545.000000	0.004297
3544.000000	0.004314
3543.000000	0.004347
3542.000000	0.004396
3541.000000	0.004451
3540.000000	0.004501
3539.000000	0.004542
3538.000000	0.004575
3537.000000	0.004597
3536.000000	0.004610
3535.000000	0.004624
3534.000000	0.004645
3533.000000	0.004670
3532.000000	0.004689
3531.000000	0.004697
3530.000000	0.004696
3529.000000	0.004696
3528.000000	0.004713
3527.000000	0.004759
3526.000000	0.004829
3525.000000	0.004899
3524.000000	0.004947
3523.000000	0.004962
3522.000000	0.004952
3521.000000	0.004936
3520.000000	0.004930
3519.000000	0.004946
3518.000000	0.004979
3517.000000	0.005018
3516.000000	0.005053
3515.000000	0.005084
3514.000000	0.005110
3513.000000	0.005130
3512.000000	0.005145
3511.000000	0.005162
3510.000000	0.005191
3509.000000	0.005229
3508.000000	0.005265
3507.000000	0.005284
3506.000000	0.005275
3505.000000	0.005244
3504.000000	0.005215
3503.000000	0.005213
3502.000000	0.005238
3501.000000	0.005264
3500.000000	0.005275
3499.000000	0.005280
3498.000000	0.005300
3497.000000	0.005346
3496.000000	0.005411
3495.000000	0.005475
3494.000000	0.005519
3493.000000	0.005535
3492.000000	0.005531
3491.000000	0.005525
3490.000000	0.005529
3489.000000	0.005545
3488.000000	0.005571
3487.000000	0.005607
3486.000000	0.005644
3485.000000	0.005668
3484.000000	0.005675
3483.000000	0.005676
3482.000000	0.005685
3481.000000	0.005703
3480.000000	0.005724
3479.000000	0.005746
3478.000000	0.005773
3477.000000	0.005803
3476.000000	0.005831
3475.000000	0.005855
3474.000000	0.005869
3473.000000	0.005869
3472.000000	0.005860
3471.000000	0.005857
3470.000000	0.005874
3469.000000	0.005908
3468.000000	0.005945
3467.000000	0.005975
3466.000000	0.006002
3465.000000	0.006030
3464.000000	0.006067
3463.000000	0.006114
3462.000000	0.006166
3461.000000	0.006206
3460.000000	0.006220
3459.000000	0.006204
3458.000000	0.006167
3457.000000	0.006127
3456.000000	0.006108
3455.000000	0.006119
3454.000000	0.006151
3453.000000	0.006181
3452.000000	0.006193
3451.000000	0.006198
3450.000000	0.006213
3449.000000	0.006249
3448.000000	0.006300
3447.000000	0.006354
3446.000000	0.006398
3445.000000	0.006424
3444.000000	0.006434
3443.000000	0.006440
3442.000000	0.006451
3441.000000	0.006471
3440.000000	0.006497
3439.000000	0.006523
3438.000000	0.006545
3437.000000	0.006559
3436.000000	0.006567
3435.000000	0.006577
3434.000000	0.006588
3433.000000	0.006595
3432.000000	0.006595
3431.000000	0.006599
3430.000000	0.006620
3429.000000	0.006662
3428.000000	0.006719
3427.000000	0.006787
3426.000000	0.006858
3425.000000	0.006919
3424.000000	0.006953
3423.000000	0.006952
3422.000000	0.006924
3421.000000	0.006893
3420.000000	0.006884
3419.000000	0.006905
3418.000000	0.006948
3417.000000	0.006994
3416.000000	0.007027
3415.000000	0.007044
3414.000000	0.007052
3413.000000	0.007060
3412.000000	0.007070
3411.000000	0.007082
3410.000000	0.007094
3409.000000	0.007109
3408.000000	0.007139
3407.000000	0.007187
3406.000000	0.007238
3405.000000	0.007267
3404.000000	0.007266
3403.000000	0.007252
3402.000000	0.007248
3401.000000	0.007265
3400.000000	0.007298
3399.000000	0.007341
3398.000000	0.007382
3397.000000	0.007411
3396.000000	0.007426
3395.000000	0.007440
3394.000000	0.007468
3393.000000	0.007508
3392.000000	0.007548
3391.000000	0.007581
3390.000000	0.007609
3389.000000	0.007635
3388.000000	0.007655
3387.000000	0.007664
3386.000000	0.007659
3385.000000	0.007639
3384.000000	0.007612
3383.000000	0.007590
3382.000000	0.007581
3381.000000	0.007587
3380.000000	0.007607
3379.000000	0.007642
3378.000000	0.007692
3377.000000	0.007748
3376.000000	0.007799
3375.000000	0.007835
3374.000000	0.007859
3373.000000	0.007882
3372.000000	0.007911
3371.000000	0.007947
3370.000000	0.007978
3369.000000	0.007995
3368.000000	0.008000
3367.000000	0.008013
3366.000000	0.008045
3365.000000	0.008084
3364.000000	0.008107
3363.000000	0.008104
3362.000000	0.008088
3361.000000	0.008086
3360.000000	0.008111
3359.000000	0.008162
3358.000000	0.008226
3357.000000	0.008287
3356.000000	0.008336
3355.000000	0.008373
3354.000000	0.008405
3353.000000	0.008437
3352.000000	0.008467
3351.000000	0.008489
3350.000000	0.008496
3349.000000	0.008493
3348.000000	0.008498
3347.000000	0.008531
3346.000000	0.008592
3345.000000	0.008663
3344.000000	0.008723
3343.000000	0.008763
3342.000000	0.008790
3341.000000	0.008818
3340.000000	0.008857
3339.000000	0.008913
3338.000000	0.008980
3337.000000	0.009043
3336.000000	0.009088
3335.000000	0.009107
3334.000000	0.009104
3333.000000	0.009092
3332.000000	0.009090
3331.000000	0.009112
3330.000000	0.009153
3329.000000	0.009201
3328.000000	0.009244
3327.000000	0.009280
3326.000000	0.009313
3325.000000	0.009344
3324.000000	0.009372
3323.000000	0.009403
3322.000000	0.009439
3321.000000	0.009482
3320.000000	0.009528
3319.000000	0.009575
3318.000000	0.009621
3317.000000	0.009663
3316.000000	0.009699
3315.000000	0.009725
3314.000000	0.009734
3313.000000	0.009726
3312.000000	0.009707
3311.000000	0.009692
3310.000000	0.009689
3309.000000	0.009699
3308.000000	0.009716
3307.000000	0.009738
3306.000000	0.009758
3305.000000	0.009774
3304.000000	0.009788
3303.000000	0.009802
3302.000000	0.009818
3301.000000	0.009833
3300.000000	0.009844
3299.000000	0.009854
3298.000000	0.009861
3297.000000	0.009861
3296.000000	0.009855
3295.000000	0.009849
3294.000000	0.009845
3293.000000	0.009842
3292.000000	0.009842
3291.000000	0.009851
3290.000000	0.009874
3289.000000	0.009903
3288.000000	0.009929
3287.000000	0.009951
3286.000000	0.009968
3285.000000	0.009975
3284.000000	0.009973
3283.000000	0.009967
3282.000000	0.009966
3281.000000	0.009967
3280.000000	0.009965
3279.000000	0.009958
3278.000000	0.009942
3277.000000	0.009913
3276.000000	0.009878
3275.000000	0.009856
3274.000000	0.009856
3273.000000	0.009865
3272.000000	0.009860
3271.000000	0.009835
3270.000000	0.009811
3269.000000	0.009806
3268.000000	0.009818
3267.000000	0.009831
3266.000000	0.009826
3265.000000	0.009803
3264.000000	0.009770
3263.000000	0.009742
3262.000000	0.009730
3261.000000	0.009731
3260.000000	0.009737
3259.000000	0.009737
3258.000000	0.009720
3257.000000	0.009683
3256.000000	0.009637
3255.000000	0.009603
3254.000000	0.009591
3253.000000	0.009594
3252.000000	0.009592
3251.000000	0.009574
3250.000000	0.009543
3249.000000	0.009505
3248.000000	0.009466
3247.000000	0.009433
3246.000000	0.009411
3245.000000	0.009400
3244.000000	0.009398
3243.000000	0.009403
3242.000000	0.009409
3241.000000	0.009409
3240.000000	0.009397
3239.000000	0.009377
3238.000000	0.009355
3237.000000	0.009335
3236.000000	0.009314
3235.000000	0.009285
3234.000000	0.009249
3233.000000	0.009215
3232.000000	0.009195
3231.000000	0.009193
3230.000000	0.009205
3229.000000	0.009220
3228.000000	0.009234
3227.000000	0.009246
3226.000000	0.009248
3225.000000	0.009234
3224.000000	0.009201
3223.000000	0.009157
3222.000000	0.009111
3221.000000	0.009073
3220.000000	0.009050
3219.000000	0.009046
3218.000000	0.009049
3217.000000	0.009045
3216.000000	0.009026
3215.000000	0.009003
3214.000000	0.008984
3213.000000	0.008971
3212.000000	0.008958
3211.000000	0.008942
3210.000000	0.008927
3209.000000	0.008917
3208.000000	0.008911
3207.000000	0.008902
3206.000000	0.008882
3205.000000	0.008845
3204.000000	0.008802
3203.000000	0.008769
3202.000000	0.008751
3201.000000	0.008736
3200.000000	0.008713
3199.000000	0.008680
3198.000000	0.008647
3197.000000	0.008620
3196.000000	0.008600
3195.000000	0.008583
3194.000000	0.008570
3193.000000	0.008557
3192.000000	0.008541
3191.000000	0.008526
3190.000000	0.008514
3189.000000	0.008507
3188.000000	0.008500
3187.000000	0.008485
3186.000000	0.008456
3185.000000	0.008414
3184.000000	0.008373
3183.000000	0.008350
3182.000000	0.008354
3181.000000	0.008375
3180.000000	0.008391
3179.000000	0.008390
3178.000000	0.008369
3177.000000	0.008334
3176.000000	0.008293
3175.000000	0.008251
3174.000000	0.008216
3173.000000	0.008191
3172.000000	0.008177
3171.000000	0.008171
3170.000000	0.008171
3169.000000	0.008174
3168.000000	0.008180
3167.000000	0.008184
3166.000000	0.008176
3165.000000	0.008144
3164.000000	0.008089
3163.000000	0.008031
3162.000000	0.007986
3161.000000	0.007951
3160.000000	0.007909
3159.000000	0.007847
3158.000000	0.007775
3157.000000	0.007718
3156.000000	0.007696
3155.000000	0.007709
3154.000000	0.007735
3153.000000	0.007747
3152.000000	0.007735
3151.000000	0.007706
3150.000000	0.007678
3149.000000	0.007659
3148.000000	0.007644
3147.000000	0.007621
3146.000000	0.007583
3145.000000	0.007533
3144.000000	0.007476
3143.000000	0.007421
3142.000000	0.007375
3141.000000	0.007342
3140.000000	0.007329
3139.000000	0.007336
3138.000000	0.007351
3137.000000	0.007356
3136.000000	0.007338
3135.000000	0.007300
3134.000000	0.007261
3133.000000	0.007240
3132.000000	0.007246
3131.000000	0.007266
3130.000000	0.007280
3129.000000	0.007279
3128.000000	0.007268
3127.000000	0.007262
3126.000000	0.007266
3125.000000	0.007268
3124.000000	0.007253
3123.000000	0.007215
3122.000000	0.007166
3121.000000	0.007129
3120.000000	0.007122
3119.000000	0.007144
3118.000000	0.007174
3117.000000	0.007187
3116.000000	0.007177
3115.000000	0.007155
3114.000000	0.007135
3113.000000	0.007118
3112.000000	0.007099
3111.000000	0.007080
3110.000000	0.007068
3109.000000	0.007066
3108.000000	0.007074
3107.000000	0.007091
3106.000000	0.007114
3105.000000	0.007135
3104.000000	0.007145
3103.000000	0.007140
3102.000000	0.007131
3101.000000	0.007133
3100.000000	0.007152
3099.000000	0.007181
3098.000000	0.007201
3097.000000	0.007199
3096.000000	0.007181
3095.000000	0.007165
3094.000000	0.007169
3093.000000	0.007196
3092.000000	0.007236
3091.000000	0.007272
3090.000000	0.007289
3089.000000	0.007277
3088.000000	0.007242
3087.000000	0.007201
3086.000000	0.007171
3085.000000	0.007153
3084.000000	0.007144
3083.000000	0.007147
3082.000000	0.007174
3081.000000	0.007224
3080.000000	0.007279
3079.000000	0.007311
3078.000000	0.007305
3077.000000	0.007278
3076.000000	0.007265
3075.000000	0.007287
3074.000000	0.007330
3073.000000	0.007362
3072.000000	0.007361
3071.000000	0.007328
3070.000000	0.007283
3069.000000	0.007246
3068.000000	0.007228
3067.000000	0.007231
3066.000000	0.007247
3065.000000	0.007256
3064.000000	0.007248
3063.000000	0.007233
3062.000000	0.007227
3061.000000	0.007239
3060.000000	0.007253
3059.000000	0.007253
3058.000000	0.007232
3057.000000	0.007200
3056.000000	0.007168
3055.000000	0.007138
3054.000000	0.007104
3053.000000	0.007063
3052.000000	0.007023
3051.000000	0.006995
3050.000000	0.006982
3049.000000	0.006974
3048.000000	0.006960
3047.000000	0.006938
3046.000000	0.006910
3045.000000	0.006874
3044.000000	0.006823
3043.000000	0.006763
3042.000000	0.006713
3041.000000	0.006695
3040.000000	0.006708
3039.000000	0.006728
3038.000000	0.006734
3037.000000	0.006722
3036.000000	0.006701
3035.000000	0.006680
3034.000000	0.006664
3033.000000	0.006655
3032.000000	0.006653
3031.000000	0.006653
3030.000000	0.006647
3029.000000	0.006633
3028.000000	0.006615
3027.000000	0.006603
3026.000000	0.006598
3025.000000	0.006598
3024.000000	0.006591
3023.000000	0.006568
3022.000000	0.006532
3021.000000	0.006493
3020.000000	0.006467
3019.000000	0.006456
3018.000000	0.006448
3017.000000	0.006430
3016.000000	0.006401
3015.000000	0.006374
3014.000000	0.006359
3013.000000	0.006362
3012.000000	0.006375
3011.000000	0.006390
3010.000000	0.006402
3009.000000	0.006420
3008.000000	0.006456
3007.000000	0.006513
3006.000000	0.006568
3005.000000	0.006583
3004.000000	0.006541
3003.000000	0.006463
3002.000000	0.006404
3001.000000	0.006402
3000.000000	0.006454
2999.000000	0.006527
2998.000000	0.006591
2997.000000	0.006641
2996.000000	0.006685
2995.000000	0.006721
2994.000000	0.006739
2993.000000	0.006742
2992.000000	0.006742
2991.000000	0.006749
2990.000000	0.006762
2989.000000	0.006783
2988.000000	0.006816
2987.000000	0.006864
2986.000000	0.006917
2985.000000	0.006967
2984.000000	0.007019
2983.000000	0.007081
2982.000000	0.007153
2981.000000	0.007221
2980.000000	0.007276
2979.000000	0.007319
2978.000000	0.007360
2977.000000	0.007405
2976.000000	0.007463
2975.000000	0.007536
2974.000000	0.007627
2973.000000	0.007731
2972.000000	0.007839
2971.000000	0.007938
2970.000000	0.008017
2969.000000	0.008086
2968.000000	0.008166
2967.000000	0.008268
2966.000000	0.008374
2965.000000	0.008452
2964.000000	0.008491
2963.000000	0.008511
2962.000000	0.008544
2961.000000	0.008604
2960.000000	0.008679
2959.000000	0.008741
2958.000000	0.008769
2957.000000	0.008761
2956.000000	0.008737
2955.000000	0.008720
2954.000000	0.008714
2953.000000	0.008702
2952.000000	0.008674
2951.000000	0.008637
2950.000000	0.008611
2949.000000	0.008610
2948.000000	0.008629
2947.000000	0.008652
2946.000000	0.008665
2945.000000	0.008670
2944.000000	0.008684
2943.000000	0.008730
2942.000000	0.008812
2941.000000	0.008916
2940.000000	0.009028
2939.000000	0.009144
2938.000000	0.009261
2937.000000	0.009366
2936.000000	0.009452
2935.000000	0.009522
2934.000000	0.009592
2933.000000	0.009666
2932.000000	0.009735
2931.000000	0.009791
2930.000000	0.009836
2929.000000	0.009880
2928.000000	0.009926
2927.000000	0.009961
2926.000000	0.009956
2925.000000	0.009897
2924.000000	0.009797
2923.000000	0.009689
2922.000000	0.009600
2921.000000	0.009535
2920.000000	0.009482
2919.000000	0.009426
2918.000000	0.009357
2917.000000	0.009278
2916.000000	0.009197
2915.000000	0.009119
2914.000000	0.009043
2913.000000	0.008957
2912.000000	0.008858
2911.000000	0.008755
2910.000000	0.008658
2909.000000	0.008570
2908.000000	0.008486
2907.000000	0.008403
2906.000000	0.008318
2905.000000	0.008231
2904.000000	0.008144
2903.000000	0.008062
2902.000000	0.007993
2901.000000	0.007940
2900.000000	0.007900
2899.000000	0.007863
2898.000000	0.007815
2897.000000	0.007750
2896.000000	0.007671
2895.000000	0.007595
2894.000000	0.007536
2893.000000	0.007493
2892.000000	0.007454
2891.000000	0.007412
2890.000000	0.007374
2889.000000	0.007350
2888.000000	0.007334
2887.000000	0.007314
2886.000000	0.007286
2885.000000	0.007262
2884.000000	0.007259
2883.000000	0.007282
2882.000000	0.007327
2881.000000	0.007388
2880.000000	0.007459
2879.000000	0.007530
2878.000000	0.007588
2877.000000	0.007625
2876.000000	0.007644
2875.000000	0.007650
2874.000000	0.007645
2873.000000	0.007626
2872.000000	0.007602
2871.000000	0.007584
2870.000000	0.007579
2869.000000	0.007580
2868.000000	0.007582
2867.000000	0.007585
2866.000000	0.007594
2865.000000	0.007606
2864.000000	0.007613
2863.000000	0.007616
2862.000000	0.007627
2861.000000	0.007657
2860.000000	0.007703
2859.000000	0.007751
2858.000000	0.007779
2857.000000	0.007778
2856.000000	0.007754
2855.000000	0.007723
2854.000000	0.007691
2853.000000	0.007647
2852.000000	0.007573
2851.000000	0.007467
2850.000000	0.007343
2849.000000	0.007223
2848.000000	0.007118
2847.000000	0.007027
2846.000000	0.006940
2845.000000	0.006844
2844.000000	0.006740
2843.000000	0.006644
2842.000000	0.006568
2841.000000	0.006508
2840.000000	0.006448
2839.000000	0.006381
2838.000000	0.006311
2837.000000	0.006246
2836.000000	0.006183
2835.000000	0.006126
2834.000000	0.006087
2833.000000	0.006077
2832.000000	0.006083
2831.000000	0.006080
2830.000000	0.006056
2829.000000	0.006018
2828.000000	0.005980
2827.000000	0.005952
2826.000000	0.005937
2825.000000	0.005937
2824.000000	0.005949
2823.000000	0.005962
2822.000000	0.005964
2821.000000	0.005951
2820.000000	0.005927
2819.000000	0.005899
2818.000000	0.005873
2817.000000	0.005849
2816.000000	0.005825
2815.000000	0.005802
2814.000000	0.005781
2813.000000	0.005766
2812.000000	0.005751
2811.000000	0.005732
2810.000000	0.005713
2809.000000	0.005702
2808.000000	0.005702
2807.000000	0.005700
2806.000000	0.005688
2805.000000	0.005670
2804.000000	0.005659
2803.000000	0.005658
2802.000000	0.005663
2801.000000	0.005665
2800.000000	0.005659
2799.000000	0.005643
2798.000000	0.005618
2797.000000	0.005587
2796.000000	0.005558
2795.000000	0.005534
2794.000000	0.005522
2793.000000	0.005525
2792.000000	0.005541
2791.000000	0.005556
2790.000000	0.005555
2789.000000	0.005538
2788.000000	0.005516
2787.000000	0.005500
2786.000000	0.005490
2785.000000	0.005483
2784.000000	0.005478
2783.000000	0.005480
2782.000000	0.005490
2781.000000	0.005505
2780.000000	0.005520
2779.000000	0.005531
2778.000000	0.005533
2777.000000	0.005526
2776.000000	0.005514
2775.000000	0.005500
2774.000000	0.005481
2773.000000	0.005455
2772.000000	0.005422
2771.000000	0.005387
2770.000000	0.005354
2769.000000	0.005325
2768.000000	0.005306
2767.000000	0.005301
2766.000000	0.005309
2765.000000	0.005323
2764.000000	0.005336
2763.000000	0.005346
2762.000000	0.005354
2761.000000	0.005364
2760.000000	0.005373
2759.000000	0.005372
2758.000000	0.005360
2757.000000	0.005343
2756.000000	0.005333
2755.000000	0.005333
2754.000000	0.005333
2753.000000	0.005323
2752.000000	0.005305
2751.000000	0.005294
2750.000000	0.005295
2749.000000	0.005297
2748.000000	0.005284
2747.000000	0.005252
2746.000000	0.005210
2745.000000	0.005176
2744.000000	0.005160
2743.000000	0.005159
2742.000000	0.005167
2741.000000	0.005186
2740.000000	0.005217
2739.000000	0.005252
2738.000000	0.005272
2737.000000	0.005262
2736.000000	0.005226
2735.000000	0.005186
2734.000000	0.005157
2733.000000	0.005144
2732.000000	0.005144
2731.000000	0.005152
2730.000000	0.005163
2729.000000	0.005167
2728.000000	0.005158
2727.000000	0.005143
2726.000000	0.005136
2725.000000	0.005150
2724.000000	0.005178
2723.000000	0.005204
2722.000000	0.005211
2721.000000	0.005196
2720.000000	0.005165
2719.000000	0.005133
2718.000000	0.005109
2717.000000	0.005095
2716.000000	0.005087
2715.000000	0.005079
2714.000000	0.005072
2713.000000	0.005070
2712.000000	0.005077
2711.000000	0.005091
2710.000000	0.005102
2709.000000	0.005105
2708.000000	0.005099
2707.000000	0.005089
2706.000000	0.005076
2705.000000	0.005065
2704.000000	0.005059
2703.000000	0.005052
2702.000000	0.005035
2701.000000	0.005009
2700.000000	0.004983
2699.000000	0.004974
2698.000000	0.004985
2697.000000	0.005002
2696.000000	0.005009
2695.000000	0.005003
2694.000000	0.004988
2693.000000	0.004977
2692.000000	0.004974
2691.000000	0.004982
2690.000000	0.004994
2689.000000	0.005000
2688.000000	0.004994
2687.000000	0.004978
2686.000000	0.004963
2685.000000	0.004954
2684.000000	0.004952
2683.000000	0.004953
2682.000000	0.004953
2681.000000	0.004944
2680.000000	0.004924
2679.000000	0.004898
2678.000000	0.004877
2677.000000	0.004870
2676.000000	0.004874
2675.000000	0.004884
2674.000000	0.004897
2673.000000	0.004907
2672.000000	0.004906
2671.000000	0.004892
2670.000000	0.004876
2669.000000	0.004871
2668.000000	0.004882
2667.000000	0.004895
2666.000000	0.004902
2665.000000	0.004906
2664.000000	0.004917
2663.000000	0.004937
2662.000000	0.004960
2661.000000	0.004974
2660.000000	0.004970
2659.000000	0.004946
2658.000000	0.004908
2657.000000	0.004872
2656.000000	0.004851
2655.000000	0.004844
2654.000000	0.004843
2653.000000	0.004839
2652.000000	0.004833
2651.000000	0.004826
2650.000000	0.004819
2649.000000	0.004814
2648.000000	0.004815
2647.000000	0.004823
2646.000000	0.004831
2645.000000	0.004829
2644.000000	0.004815
2643.000000	0.004795
2642.000000	0.004772
2641.000000	0.004749
2640.000000	0.004724
2639.000000	0.004703
2638.000000	0.004690
2637.000000	0.004688
2636.000000	0.004691
2635.000000	0.004694
2634.000000	0.004691
2633.000000	0.004678
2632.000000	0.004655
2631.000000	0.004626
2630.000000	0.004597
2629.000000	0.004575
2628.000000	0.004569
2627.000000	0.004583
2626.000000	0.004612
2625.000000	0.004637
2624.000000	0.004634
2623.000000	0.004600
2622.000000	0.004559
2621.000000	0.004532
2620.000000	0.004512
2619.000000	0.004474
2618.000000	0.004418
2617.000000	0.004376
2616.000000	0.004384
2615.000000	0.004432
2614.000000	0.004477
2613.000000	0.004482
2612.000000	0.004450
2611.000000	0.004413
2610.000000	0.004392
2609.000000	0.004385
2608.000000	0.004375
2607.000000	0.004358
2606.000000	0.004344
2605.000000	0.004351
2604.000000	0.004371
2603.000000	0.004380
2602.000000	0.004361
2601.000000	0.004319
2600.000000	0.004284
2599.000000	0.004272
2598.000000	0.004282
2597.000000	0.004299
2596.000000	0.004314
2595.000000	0.004325
2594.000000	0.004325
2593.000000	0.004307
2592.000000	0.004269
2591.000000	0.004229
2590.000000	0.004211
2589.000000	0.004223
2588.000000	0.004252
2587.000000	0.004275
2586.000000	0.004285
2585.000000	0.004285
2584.000000	0.004283
2583.000000	0.004281
2582.000000	0.004273
2581.000000	0.004250
2580.000000	0.004208
2579.000000	0.004157
2578.000000	0.004125
2577.000000	0.004133
2576.000000	0.004178
2575.000000	0.004232
2574.000000	0.004272
2573.000000	0.004290
2572.000000	0.004288
2571.000000	0.004267
2570.000000	0.004232
2569.000000	0.004201
2568.000000	0.004187
2567.000000	0.004195
2566.000000	0.004216
2565.000000	0.004236
2564.000000	0.004241
2563.000000	0.004226
2562.000000	0.004203
2561.000000	0.004184
2560.000000	0.004164
2559.000000	0.004127
2558.000000	0.004072
2557.000000	0.004023
2556.000000	0.004008
2555.000000	0.004022
2554.000000	0.004035
2553.000000	0.004026
2552.000000	0.004009
2551.000000	0.004014
2550.000000	0.004047
2549.000000	0.004090
2548.000000	0.004123
2547.000000	0.004148
2546.000000	0.004186
2545.000000	0.004248
2544.000000	0.004324
2543.000000	0.004395
2542.000000	0.004438
2541.000000	0.004427
2540.000000	0.004344
2539.000000	0.004215
2538.000000	0.004101
2537.000000	0.004056
2536.000000	0.004068
2535.000000	0.004081
2534.000000	0.004058
2533.000000	0.004016
2532.000000	0.004005
2531.000000	0.004051
2530.000000	0.004134
2529.000000	0.004207
2528.000000	0.004230
2527.000000	0.004206
2526.000000	0.004169
2525.000000	0.004149
2524.000000	0.004145
2523.000000	0.004135
2522.000000	0.004113
2521.000000	0.004091
2520.000000	0.004075
2519.000000	0.004064
2518.000000	0.004059
2517.000000	0.004070
2516.000000	0.004095
2515.000000	0.004120
2514.000000	0.004135
2513.000000	0.004142
2512.000000	0.004138
2511.000000	0.004110
2510.000000	0.004054
2509.000000	0.003989
2508.000000	0.003938
2507.000000	0.003916
2506.000000	0.003933
2505.000000	0.003988
2504.000000	0.004051
2503.000000	0.004078
2502.000000	0.004061
2501.000000	0.004036
2500.000000	0.004033
2499.000000	0.004034
2498.000000	0.004003
2497.000000	0.003938
2496.000000	0.003876
2495.000000	0.003849
2494.000000	0.003851
2493.000000	0.003864
2492.000000	0.003879
2491.000000	0.003902
2490.000000	0.003939
2489.000000	0.003989
2488.000000	0.004035
2487.000000	0.004053
2486.000000	0.004026
2485.000000	0.003961
2484.000000	0.003891
2483.000000	0.003849
2482.000000	0.003838
2481.000000	0.003840
2480.000000	0.003834
2479.000000	0.003817
2478.000000	0.003800
2477.000000	0.003790
2476.000000	0.003784
2475.000000	0.003778
2474.000000	0.003780
2473.000000	0.003797
2472.000000	0.003813
2471.000000	0.003808
2470.000000	0.003782
2469.000000	0.003763
2468.000000	0.003772
2467.000000	0.003799
2466.000000	0.003820
2465.000000	0.003825
2464.000000	0.003822
2463.000000	0.003830
2462.000000	0.003859
2461.000000	0.003903
2460.000000	0.003946
2459.000000	0.003966
2458.000000	0.003964
2457.000000	0.003961
2456.000000	0.003974
2455.000000	0.003996
2454.000000	0.004001
2453.000000	0.003980
2452.000000	0.003941
2451.000000	0.003897
2450.000000	0.003854
2449.000000	0.003818
2448.000000	0.003798
2447.000000	0.003799
2446.000000	0.003818
2445.000000	0.003842
2444.000000	0.003858
2443.000000	0.003862
2442.000000	0.003862
2441.000000	0.003871
2440.000000	0.003894
2439.000000	0.003928
2438.000000	0.003960
2437.000000	0.003974
2436.000000	0.003954
2435.000000	0.003889
2434.000000	0.003793
2433.000000	0.003702
2432.000000	0.003654
2431.000000	0.003659
2430.000000	0.003693
2429.000000	0.003712
2428.000000	0.003692
2427.000000	0.003642
2426.000000	0.003605
2425.000000	0.003615
2424.000000	0.003677
2423.000000	0.003766
2422.000000	0.003847
2421.000000	0.003892
2420.000000	0.003891
2419.000000	0.003860
2418.000000	0.003824
2417.000000	0.003796
2416.000000	0.003766
2415.000000	0.003732
2414.000000	0.003708
2413.000000	0.003707
2412.000000	0.003717
2411.000000	0.003719
2410.000000	0.003713
2409.000000	0.003717
2408.000000	0.003736
2407.000000	0.003759
2406.000000	0.003772
2405.000000	0.003773
2404.000000	0.003760
2403.000000	0.003735
2402.000000	0.003711
2401.000000	0.003703
2400.000000	0.003712
2399.000000	0.003729
2398.000000	0.003750
2397.000000	0.003767
2396.000000	0.003767
2395.000000	0.003745
2394.000000	0.003729
2393.000000	0.003754
2392.000000	0.003814
2391.000000	0.003860
2390.000000	0.003851
2389.000000	0.003801
2388.000000	0.003762
2387.000000	0.003769
2386.000000	0.003818
2385.000000	0.003869
2384.000000	0.003880
2383.000000	0.003831
2382.000000	0.003749
2381.000000	0.003681
2380.000000	0.003659
2379.000000	0.003688
2378.000000	0.003751
2377.000000	0.003823
2376.000000	0.003871
2375.000000	0.003877
2374.000000	0.003848
2373.000000	0.003811
2372.000000	0.003783
2371.000000	0.003773
2370.000000	0.003785
2369.000000	0.003805
2368.000000	0.003805
2367.000000	0.003781
2366.000000	0.003776
2365.000000	0.003827
2364.000000	0.003910
2363.000000	0.003973
2362.000000	0.003994
2361.000000	0.003985
2360.000000	0.003958
2359.000000	0.003922
2358.000000	0.003888
2357.000000	0.003863
2356.000000	0.003868
2355.000000	0.003906
2354.000000	0.003911
2353.000000	0.003820
2352.000000	0.003687
2351.000000	0.003645
2350.000000	0.003748
2349.000000	0.003940
2348.000000	0.004113
2347.000000	0.004164
2346.000000	0.004082
2345.000000	0.003975
2344.000000	0.003954
2343.000000	0.004003
2342.000000	0.004054
2341.000000	0.004077
2340.000000	0.004081
2339.000000	0.004082
2338.000000	0.004077
2337.000000	0.004065
2336.000000	0.004055
2335.000000	0.004046
2334.000000	0.004010
2333.000000	0.003935
2332.000000	0.003863
2331.000000	0.003856
2330.000000	0.003919
2329.000000	0.004020
2328.000000	0.004128
2327.000000	0.004229
2326.000000	0.004309
2325.000000	0.004351
2324.000000	0.004356
2323.000000	0.004331
2322.000000	0.004310
2321.000000	0.004326
2320.000000	0.004388
2319.000000	0.004460
2318.000000	0.004491
2317.000000	0.004472
2316.000000	0.004423
2315.000000	0.004361
2314.000000	0.004291
2313.000000	0.004227
2312.000000	0.004180
2311.000000	0.004147
2310.000000	0.004109
2309.000000	0.004068
2308.000000	0.004045
2307.000000	0.004055
2306.000000	0.004087
2305.000000	0.004118
2304.000000	0.004131
2303.000000	0.004118
2302.000000	0.004085
2301.000000	0.004053
2300.000000	0.004032
2299.000000	0.004013
2298.000000	0.003986
2297.000000	0.003958
2296.000000	0.003938
2295.000000	0.003924
2294.000000	0.003912
2293.000000	0.003908
2292.000000	0.003915
2291.000000	0.003921
2290.000000	0.003914
2289.000000	0.003910
2288.000000	0.003936
2287.000000	0.003986
2286.000000	0.004019
2285.000000	0.003991
2284.000000	0.003896
2283.000000	0.003777
2282.000000	0.003695
2281.000000	0.003678
2280.000000	0.003695
2279.000000	0.003692
2278.000000	0.003661
2277.000000	0.003644
2276.000000	0.003670
2275.000000	0.003704
2274.000000	0.003699
2273.000000	0.003657
2272.000000	0.003621
2271.000000	0.003607
2270.000000	0.003601
2269.000000	0.003586
2268.000000	0.003573
2267.000000	0.003582
2266.000000	0.003621
2265.000000	0.003680
2264.000000	0.003720
2263.000000	0.003705
2262.000000	0.003644
2261.000000	0.003597
2260.000000	0.003603
2259.000000	0.003632
2258.000000	0.003616
2257.000000	0.003526
2256.000000	0.003401
2255.000000	0.003314
2254.000000	0.003324
2253.000000	0.003430
2252.000000	0.003560
2251.000000	0.003620
2250.000000	0.003585
2249.000000	0.003511
2248.000000	0.003469
2247.000000	0.003484
2246.000000	0.003545
2245.000000	0.003632
2244.000000	0.003710
2243.000000	0.003736
2242.000000	0.003711
2241.000000	0.003682
2240.000000	0.003680
2239.000000	0.003686
2238.000000	0.003685
2237.000000	0.003710
2236.000000	0.003789
2235.000000	0.003879
2234.000000	0.003913
2233.000000	0.003867
2232.000000	0.003765
2231.000000	0.003636
2230.000000	0.003502
2229.000000	0.003387
2228.000000	0.003302
2227.000000	0.003235
2226.000000	0.003178
2225.000000	0.003161
2224.000000	0.003207
2223.000000	0.003308
2222.000000	0.003437
2221.000000	0.003558
2220.000000	0.003616
2219.000000	0.003566
2218.000000	0.003446
2217.000000	0.003361
2216.000000	0.003357
2215.000000	0.003368
2214.000000	0.003324
2213.000000	0.003250
2212.000000	0.003198
2211.000000	0.003158
2210.000000	0.003102
2209.000000	0.003073
2208.000000	0.003134
2207.000000	0.003260
2206.000000	0.003358
2205.000000	0.003380
2204.000000	0.003348
2203.000000	0.003297
2202.000000	0.003241
2201.000000	0.003196
2200.000000	0.003176
2199.000000	0.003180
2198.000000	0.003213
2197.000000	0.003305
2196.000000	0.003446
2195.000000	0.003551
2194.000000	0.003548
2193.000000	0.003460
2192.000000	0.003359
2191.000000	0.003257
2190.000000	0.003128
2189.000000	0.003005
2188.000000	0.002962
2187.000000	0.003001
2186.000000	0.003037
2185.000000	0.003021
2184.000000	0.003010
2183.000000	0.003071
2182.000000	0.003156
2181.000000	0.003145
2180.000000	0.003001
2179.000000	0.002840
2178.000000	0.002801
2177.000000	0.002876
2176.000000	0.002909
2175.000000	0.002795
2174.000000	0.002624
2173.000000	0.002567
2172.000000	0.002677
2171.000000	0.002870
2170.000000	0.003067
2169.000000	0.003253
2168.000000	0.003415
2167.000000	0.003533
2166.000000	0.003649
2165.000000	0.003818
2164.000000	0.003984
2163.000000	0.003998
2162.000000	0.003802
2161.000000	0.003477
2160.000000	0.003105
2159.000000	0.002721
2158.000000	0.002424
2157.000000	0.002347
2156.000000	0.002432
2155.000000	0.002480
2154.000000	0.002421
2153.000000	0.002386
2152.000000	0.002469
2151.000000	0.002587
2150.000000	0.002604
2149.000000	0.002485
2148.000000	0.002302
2147.000000	0.002149
2146.000000	0.002110
2145.000000	0.002214
2144.000000	0.002387
2143.000000	0.002522
2142.000000	0.002606
2141.000000	0.002701
2140.000000	0.002809
2139.000000	0.002871
2138.000000	0.002892
2137.000000	0.002962
2136.000000	0.003090
2135.000000	0.003162
2134.000000	0.003095
2133.000000	0.002952
2132.000000	0.002825
2131.000000	0.002725
2130.000000	0.002647
2129.000000	0.002650
2128.000000	0.002791
2127.000000	0.003014
2126.000000	0.003201
2125.000000	0.003301
2124.000000	0.003358
2123.000000	0.003437
2122.000000	0.003547
2121.000000	0.003622
2120.000000	0.003554
2119.000000	0.003297
2118.000000	0.002948
2117.000000	0.002716
2116.000000	0.002735
2115.000000	0.002954
2114.000000	0.003204
2113.000000	0.003366
2112.000000	0.003412
2111.000000	0.003362
2110.000000	0.003260
2109.000000	0.003176
2108.000000	0.003177
2107.000000	0.003267
2106.000000	0.003395
2105.000000	0.003507
2104.000000	0.003579
2103.000000	0.003609
2102.000000	0.003623
2101.000000	0.003670
2100.000000	0.003765
2099.000000	0.003842
2098.000000	0.003800
2097.000000	0.003602
2096.000000	0.003317
2095.000000	0.003066
2094.000000	0.002943
2093.000000	0.002971
2092.000000	0.003097
2091.000000	0.003230
2090.000000	0.003299
2089.000000	0.003302
2088.000000	0.003295
2087.000000	0.003344
2086.000000	0.003478
2085.000000	0.003654
2084.000000	0.003780
2083.000000	0.003788
2082.000000	0.003701
2081.000000	0.003613
2080.000000	0.003590
2079.000000	0.003616
2078.000000	0.003634
2077.000000	0.003607
2076.000000	0.003525
2075.000000	0.003406
2074.000000	0.003290
2073.000000	0.003210
2072.000000	0.003154
2071.000000	0.003086
2070.000000	0.003019
2069.000000	0.003007
2068.000000	0.003075
2067.000000	0.003183
2066.000000	0.003276
2065.000000	0.003324
2064.000000	0.003301
2063.000000	0.003192
2062.000000	0.003035
2061.000000	0.002908
2060.000000	0.002867
2059.000000	0.002902
2058.000000	0.002968
2057.000000	0.003011
2056.000000	0.002981
2055.000000	0.002887
2054.000000	0.002841
2053.000000	0.002979
2052.000000	0.003302
2051.000000	0.003660
2050.000000	0.003877
2049.000000	0.003856
2048.000000	0.003593
2047.000000	0.003189
2046.000000	0.002819
2045.000000	0.002615
2044.000000	0.002552
2043.000000	0.002528
2042.000000	0.002555
2041.000000	0.002730
2040.000000	0.003013
2039.000000	0.003196
2038.000000	0.003147
2037.000000	0.002946
2036.000000	0.002737
2035.000000	0.002570
2034.000000	0.002435
2033.000000	0.002327
2032.000000	0.002217
2031.000000	0.002086
2030.000000	0.002031
2029.000000	0.002182
2028.000000	0.002488
2027.000000	0.002726
2026.000000	0.002754
2025.000000	0.002628
2024.000000	0.002490
2023.000000	0.002465
2022.000000	0.002646
2021.000000	0.002976
2020.000000	0.003170
2019.000000	0.002997
2018.000000	0.002618
2017.000000	0.002454
2016.000000	0.002645
2015.000000	0.002911
2014.000000	0.002981
2013.000000	0.002882
2012.000000	0.002753
2011.000000	0.002623
2010.000000	0.002480
2009.000000	0.002341
2008.000000	0.002172
2007.000000	0.001925
2006.000000	0.001734
2005.000000	0.001858
2004.000000	0.002334
2003.000000	0.002891
2002.000000	0.003261
2001.000000	0.003370
2000.000000	0.003235
1999.000000	0.002893
1998.000000	0.002513
1997.000000	0.002375
1996.000000	0.002588
1995.000000	0.002955
1994.000000	0.003205
1993.000000	0.003241
1992.000000	0.003109
1991.000000	0.002871
1990.000000	0.002610
1989.000000	0.002445
1988.000000	0.002411
1987.000000	0.002420
1986.000000	0.002428
1985.000000	0.002516
1984.000000	0.002743
1983.000000	0.003022
1982.000000	0.003241
1981.000000	0.003366
1980.000000	0.003377
1979.000000	0.003222
1978.000000	0.002947
1977.000000	0.002721
1976.000000	0.002617
1975.000000	0.002535
1974.000000	0.002425
1973.000000	0.002370
1972.000000	0.002365
1971.000000	0.002270
1970.000000	0.002067
1969.000000	0.001933
1968.000000	0.001952
1967.000000	0.001968
1966.000000	0.001862
1965.000000	0.001776
1964.000000	0.001888
1963.000000	0.002169
1962.000000	0.002476
1961.000000	0.002727
1960.000000	0.002861
1959.000000	0.002802
1958.000000	0.002564
1957.000000	0.002309
1956.000000	0.002173
1955.000000	0.002143
1954.000000	0.002157
1953.000000	0.002228
1952.000000	0.002378
1951.000000	0.002557
1950.000000	0.002710
1949.000000	0.002821
1948.000000	0.002862
1947.000000	0.002762
1946.000000	0.002529
1945.000000	0.002302
1944.000000	0.002209
1943.000000	0.002240
1942.000000	0.002296
1941.000000	0.002322
1940.000000	0.002322
1939.000000	0.002317
1938.000000	0.002349
1937.000000	0.002463
1936.000000	0.002628
1935.000000	0.002742
1934.000000	0.002749
1933.000000	0.002697
1932.000000	0.002651
1931.000000	0.002630
1930.000000	0.002644
1929.000000	0.002709
1928.000000	0.002783
1927.000000	0.002761
1926.000000	0.002596
1925.000000	0.002368
1924.000000	0.002201
1923.000000	0.002161
1922.000000	0.002240
1921.000000	0.002397
1920.000000	0.002555
1919.000000	0.002623
1918.000000	0.002573
1917.000000	0.002487
1916.000000	0.002453
1915.000000	0.002467
1914.000000	0.002494
1913.000000	0.002522
1912.000000	0.002550
1911.000000	0.002559
1910.000000	0.002542
1909.000000	0.002524
1908.000000	0.002526
1907.000000	0.002542
1906.000000	0.002566
1905.000000	0.002603
1904.000000	0.002642
1903.000000	0.002655
1902.000000	0.002649
1901.000000	0.002653
1900.000000	0.002662
1899.000000	0.002635
1898.000000	0.002574
1897.000000	0.002538
1896.000000	0.002551
1895.000000	0.002569
1894.000000	0.002555
1893.000000	0.002525
1892.000000	0.002508
1891.000000	0.002497
1890.000000	0.002493
1889.000000	0.002522
1888.000000	0.002571
1887.000000	0.002588
1886.000000	0.002558
1885.000000	0.002513
1884.000000	0.002479
1883.000000	0.002449
1882.000000	0.002427
1881.000000	0.002436
1880.000000	0.002457
1879.000000	0.002434
1878.000000	0.002362
1877.000000	0.002310
1876.000000	0.002328
1875.000000	0.002398
1874.000000	0.002478
1873.000000	0.002549
1872.000000	0.002578
1871.000000	0.002513
1870.000000	0.002355
1869.000000	0.002210
1868.000000	0.002183
1867.000000	0.002247
1866.000000	0.002331
1865.000000	0.002419
1864.000000	0.002493
1863.000000	0.002511
1862.000000	0.002465
1861.000000	0.002408
1860.000000	0.002384
1859.000000	0.002377
1858.000000	0.002366
1857.000000	0.002371
1856.000000	0.002402
1855.000000	0.002423
1854.000000	0.002405
1853.000000	0.002380
1852.000000	0.002387
1851.000000	0.002420
1850.000000	0.002453
1849.000000	0.002475
1848.000000	0.002482
1847.000000	0.002453
1846.000000	0.002390
1845.000000	0.002337
1844.000000	0.002336
1843.000000	0.002349
1842.000000	0.002320
1841.000000	0.002275
1840.000000	0.002255
1839.000000	0.002256
1838.000000	0.002263
1837.000000	0.002287
1836.000000	0.002326
1835.000000	0.002342
1834.000000	0.002306
1833.000000	0.002237
1832.000000	0.002156
1831.000000	0.002069
1830.000000	0.002011
1829.000000	0.002032
1828.000000	0.002102
1827.000000	0.002139
1826.000000	0.002117
1825.000000	0.002077
1824.000000	0.002065
1823.000000	0.002065
1822.000000	0.002059
1821.000000	0.002062
1820.000000	0.002073
1819.000000	0.002059
1818.000000	0.002013
1817.000000	0.001984
1816.000000	0.002009
1815.000000	0.002057
1814.000000	0.002086
1813.000000	0.002095
1812.000000	0.002111
1811.000000	0.002140
1810.000000	0.002168
1809.000000	0.002190
1808.000000	0.002199
1807.000000	0.002190
1806.000000	0.002177
1805.000000	0.002191
1804.000000	0.002231
1803.000000	0.002259
1802.000000	0.002255
1801.000000	0.002250
1800.000000	0.002276
1799.000000	0.002307
1798.000000	0.002308
1797.000000	0.002287
1796.000000	0.002273
1795.000000	0.002271
1794.000000	0.002275
1793.000000	0.002285
1792.000000	0.002308
1791.000000	0.002319
1790.000000	0.002297
1789.000000	0.002268
1788.000000	0.002256
1787.000000	0.002248
1786.000000	0.002226
1785.000000	0.002201
1784.000000	0.002179
1783.000000	0.002135
1782.000000	0.002063
1781.000000	0.002002
1780.000000	0.001991
1779.000000	0.002010
1778.000000	0.002012
1777.000000	0.001985
1776.000000	0.001959
1775.000000	0.001961
1774.000000	0.001998
1773.000000	0.002066
1772.000000	0.002147
1771.000000	0.002190
1770.000000	0.002185
1769.000000	0.002182
1768.000000	0.002203
1767.000000	0.002212
1766.000000	0.002195
1765.000000	0.002202
1764.000000	0.002267
1763.000000	0.002363
1762.000000	0.002456
1761.000000	0.002551
1760.000000	0.002650
1759.000000	0.002747
1758.000000	0.002864
1757.000000	0.003044
1756.000000	0.003279
1755.000000	0.003506
1754.000000	0.003719
1753.000000	0.003980
1752.000000	0.004312
1751.000000	0.004640
1750.000000	0.004897
1749.000000	0.005130
1748.000000	0.005407
1747.000000	0.005690
1746.000000	0.005921
1745.000000	0.006106
1744.000000	0.006267
1743.000000	0.006385
1742.000000	0.006442
1741.000000	0.006462
1740.000000	0.006454
1739.000000	0.006374
1738.000000	0.006234
1737.000000	0.006132
1736.000000	0.006118
1735.000000	0.006089
1734.000000	0.005909
1733.000000	0.005591
1732.000000	0.005210
1731.000000	0.004837
1730.000000	0.004537
1729.000000	0.004340
1728.000000	0.004216
1727.000000	0.004098
1726.000000	0.003951
1725.000000	0.003792
1724.000000	0.003641
1723.000000	0.003494
1722.000000	0.003358
1721.000000	0.003281
1720.000000	0.003279
1719.000000	0.003278
1718.000000	0.003204
1717.000000	0.003109
1716.000000	0.003057
1715.000000	0.003022
1714.000000	0.002995
1713.000000	0.002998
1712.000000	0.003033
1711.000000	0.003077
1710.000000	0.003121
1709.000000	0.003181
1708.000000	0.003271
1707.000000	0.003383
1706.000000	0.003518
1705.000000	0.003695
1704.000000	0.003910
1703.000000	0.004167
1702.000000	0.004478
1701.000000	0.004805
1700.000000	0.005080
1699.000000	0.005231
1698.000000	0.005333
1697.000000	0.005574
1696.000000	0.005971
1695.000000	0.006318
1694.000000	0.006476
1693.000000	0.006561
1692.000000	0.006709
1691.000000	0.006907
1690.000000	0.007092
1689.000000	0.007281
1688.000000	0.007537
1687.000000	0.007879
1686.000000	0.008261
1685.000000	0.008626
1684.000000	0.008968
1683.000000	0.009228
1682.000000	0.009383
1681.000000	0.009573
1680.000000	0.009872
1679.000000	0.010218
1678.000000	0.010559
1677.000000	0.010923
1676.000000	0.011326
1675.000000	0.011709
1674.000000	0.012011
1673.000000	0.012283
1672.000000	0.012618
1671.000000	0.013021
1670.000000	0.013428
1669.000000	0.013819
1668.000000	0.014193
1667.000000	0.014529
1666.000000	0.014857
1665.000000	0.015229
1664.000000	0.015636
1663.000000	0.016005
1662.000000	0.016306
1661.000000	0.016598
1660.000000	0.016926
1659.000000	0.017264
1658.000000	0.017577
1657.000000	0.017903
1656.000000	0.018317
1655.000000	0.018776
1654.000000	0.019063
1653.000000	0.019181
1652.000000	0.019317
1651.000000	0.019342
1650.000000	0.019328
1649.000000	0.019436
1648.000000	0.019667
1647.000000	0.019926
1646.000000	0.020147
1645.000000	0.020308
1644.000000	0.020413
1643.000000	0.020492
1642.000000	0.020573
1641.000000	0.020670
1640.000000	0.020786
1639.000000	0.020923
1638.000000	0.021066
1637.000000	0.021164
1636.000000	0.021168
1635.000000	0.021119
1634.000000	0.021074
1633.000000	0.021068
1632.000000	0.021126
1631.000000	0.021208
1630.000000	0.021241
1629.000000	0.021199
1628.000000	0.021121
1627.000000	0.021039
1626.000000	0.020945
1625.000000	0.020799
1624.000000	0.020544
1623.000000	0.020177
1622.000000	0.019801
1621.000000	0.019532
1620.000000	0.019397
1619.000000	0.019326
1618.000000	0.019162
1617.000000	0.018767
1616.000000	0.018215
1615.000000	0.017687
1614.000000	0.017266
1613.000000	0.016942
1612.000000	0.016656
1611.000000	0.016344
1610.000000	0.015999
1609.000000	0.015661
1608.000000	0.015349
1607.000000	0.015052
1606.000000	0.014767
1605.000000	0.014501
1604.000000	0.014244
1603.000000	0.013979
1602.000000	0.013712
1601.000000	0.013468
1600.000000	0.013252
1599.000000	0.013045
1598.000000	0.012840
1597.000000	0.012652
1596.000000	0.012488
1595.000000	0.012348
1594.000000	0.012230
1593.000000	0.012136
1592.000000	0.012054
1591.000000	0.011966
1590.000000	0.011874
1589.000000	0.011799
1588.000000	0.011750
1587.000000	0.011719
1586.000000	0.011707
1585.000000	0.011721
1584.000000	0.011744
1583.000000	0.011752
1582.000000	0.011742
1581.000000	0.011738
1580.000000	0.011781
1579.000000	0.011896
1578.000000	0.012067
1577.000000	0.012222
1576.000000	0.012306
1575.000000	0.012324
1574.000000	0.012333
1573.000000	0.012411
1572.000000	0.012584
1571.000000	0.012782
1570.000000	0.012938
1569.000000	0.013083
1568.000000	0.013248
1567.000000	0.013425
1566.000000	0.013616
1565.000000	0.013833
1564.000000	0.014083
1563.000000	0.014394
1562.000000	0.014797
1561.000000	0.015234
1560.000000	0.015483
1559.000000	0.015489
1558.000000	0.015611
1557.000000	0.015857
1556.000000	0.016095
1555.000000	0.016325
1554.000000	0.016522
1553.000000	0.016671
1552.000000	0.016799
1551.000000	0.016935
1550.000000	0.017095
1549.000000	0.017299
1548.000000	0.017537
1547.000000	0.017763
1546.000000	0.017926
1545.000000	0.018013
1544.000000	0.018063
1543.000000	0.018105
1542.000000	0.018101
1541.000000	0.018031
1540.000000	0.018022
1539.000000	0.018153
1538.000000	0.018245
1537.000000	0.018244
1536.000000	0.018248
1535.000000	0.018263
1534.000000	0.018220
1533.000000	0.018139
1532.000000	0.018102
1531.000000	0.018102
1530.000000	0.018105
1529.000000	0.018094
1528.000000	0.018053
1527.000000	0.017957
1526.000000	0.017811
1525.000000	0.017673
1524.000000	0.017590
1523.000000	0.017522
1522.000000	0.017378
1521.000000	0.017184
1520.000000	0.017028
1519.000000	0.016897
1518.000000	0.016763
1517.000000	0.016626
1516.000000	0.016512
1515.000000	0.016419
1514.000000	0.016324
1513.000000	0.016203
1512.000000	0.016034
1511.000000	0.015821
1510.000000	0.015617
1509.000000	0.015450
1508.000000	0.015234
1507.000000	0.014884
1506.000000	0.014551
1505.000000	0.014296
1504.000000	0.014031
1503.000000	0.013788
1502.000000	0.013611
1501.000000	0.013487
1500.000000	0.013372
1499.000000	0.013223
1498.000000	0.013036
1497.000000	0.012853
1496.000000	0.012693
1495.000000	0.012510
1494.000000	0.012302
1493.000000	0.012131
1492.000000	0.012002
1491.000000	0.011827
1490.000000	0.011582
1489.000000	0.011389
1488.000000	0.011332
1487.000000	0.011349
1486.000000	0.011369
1485.000000	0.011390
1484.000000	0.011419
1483.000000	0.011440
1482.000000	0.011446
1481.000000	0.011480
1480.000000	0.011580
1479.000000	0.011729
1478.000000	0.011889
1477.000000	0.012044
1476.000000	0.012192
1475.000000	0.012337
1474.000000	0.012509
1473.000000	0.012779
1472.000000	0.013147
1471.000000	0.013480
1470.000000	0.013713
1469.000000	0.013918
1468.000000	0.014143
1467.000000	0.014370
1466.000000	0.014591
1465.000000	0.014837
1464.000000	0.015098
1463.000000	0.015298
1462.000000	0.015424
1461.000000	0.015556
1460.000000	0.015755
1459.000000	0.016016
1458.000000	0.016321
1457.000000	0.016702
1456.000000	0.017056
1455.000000	0.017212
1454.000000	0.017261
1453.000000	0.017359
1452.000000	0.017515
1451.000000	0.017639
1450.000000	0.017697
1449.000000	0.017736
1448.000000	0.017794
1447.000000	0.017848
1446.000000	0.017884
1445.000000	0.017913
1444.000000	0.017945
1443.000000	0.017961
1442.000000	0.017955
1441.000000	0.017964
1440.000000	0.018025
1439.000000	0.018131
1438.000000	0.018226
1437.000000	0.018253
1436.000000	0.018200
1435.000000	0.018080
1434.000000	0.017952
1433.000000	0.017896
1432.000000	0.017921
1431.000000	0.017966
1430.000000	0.017992
1429.000000	0.018017
1428.000000	0.018060
1427.000000	0.018105
1426.000000	0.018150
1425.000000	0.018199
1424.000000	0.018237
1423.000000	0.018250
1422.000000	0.018268
1421.000000	0.018332
1420.000000	0.018411
1419.000000	0.018436
1418.000000	0.018405
1417.000000	0.018379
1416.000000	0.018390
1415.000000	0.018418
1414.000000	0.018429
1413.000000	0.018418
1412.000000	0.018395
1411.000000	0.018363
1410.000000	0.018335
1409.000000	0.018333
1408.000000	0.018346
1407.000000	0.018330
1406.000000	0.018273
1405.000000	0.018210
1404.000000	0.018161
1403.000000	0.018108
1402.000000	0.018049
1401.000000	0.018015
1400.000000	0.018000
1399.000000	0.017964
1398.000000	0.017906
1397.000000	0.017874
1396.000000	0.017884
1395.000000	0.017880
1394.000000	0.017820
1393.000000	0.017729
1392.000000	0.017644
1391.000000	0.017576
1390.000000	0.017523
1389.000000	0.017472
1388.000000	0.017394
1387.000000	0.017259
1386.000000	0.017092
1385.000000	0.016941
1384.000000	0.016821
1383.000000	0.016708
1382.000000	0.016597
1381.000000	0.016506
1380.000000	0.016425
1379.000000	0.016301
1378.000000	0.016117
1377.000000	0.015919
1376.000000	0.015744
1375.000000	0.015576
1374.000000	0.015396
1373.000000	0.015220
1372.000000	0.015056
1371.000000	0.014886
1370.000000	0.014703
1369.000000	0.014522
1368.000000	0.014342
1367.000000	0.014147
1366.000000	0.013936
1365.000000	0.013730
1364.000000	0.013532
1363.000000	0.013331
1362.000000	0.013143
1361.000000	0.013012
1360.000000	0.012932
1359.000000	0.012859
1358.000000	0.012767
1357.000000	0.012672
1356.000000	0.012591
1355.000000	0.012519
1354.000000	0.012457
1353.000000	0.012425
1352.000000	0.012421
1351.000000	0.012410
1350.000000	0.012379
1349.000000	0.012357
1348.000000	0.012374
1347.000000	0.012424
1346.000000	0.012492
1345.000000	0.012585
1344.000000	0.012693
1343.000000	0.012784
1342.000000	0.012835
1341.000000	0.012869
1340.000000	0.012911
1339.000000	0.012956
1338.000000	0.012998
1337.000000	0.013050
1336.000000	0.013108
1335.000000	0.013135
1334.000000	0.013109
1333.000000	0.013049
1332.000000	0.012978
1331.000000	0.012896
1330.000000	0.012798
1329.000000	0.012693
1328.000000	0.012585
1327.000000	0.012465
1326.000000	0.012342
1325.000000	0.012250
1324.000000	0.012196
1323.000000	0.012143
1322.000000	0.012070
1321.000000	0.011997
1320.000000	0.011940
1319.000000	0.011884
1318.000000	0.011817
1317.000000	0.011756
1316.000000	0.011703
1315.000000	0.011621
1314.000000	0.011497
1313.000000	0.011361
1312.000000	0.011246
1311.000000	0.011139
1310.000000	0.011023
1309.000000	0.010918
1308.000000	0.010833
1307.000000	0.010745
1306.000000	0.010637
1305.000000	0.010536
1304.000000	0.010465
1303.000000	0.010400
1302.000000	0.010306
1301.000000	0.010190
1300.000000	0.010073
1299.000000	0.009962
1298.000000	0.009855
1297.000000	0.009762
1296.000000	0.009689
1295.000000	0.009625
1294.000000	0.009580
1293.000000	0.009583
1292.000000	0.009634
1291.000000	0.009686
1290.000000	0.009715
1289.000000	0.009743
1288.000000	0.009790
1287.000000	0.009830
1286.000000	0.009846
1285.000000	0.009867
1284.000000	0.009914
1283.000000	0.009953
1282.000000	0.009949
1281.000000	0.009925
1280.000000	0.009921
1279.000000	0.009931
1278.000000	0.009938
1277.000000	0.009951
1276.000000	0.009983
1275.000000	0.010011
1274.000000	0.010015
1273.000000	0.010013
1272.000000	0.010040
1271.000000	0.010097
1270.000000	0.010166
1269.000000	0.010243
1268.000000	0.010324
1267.000000	0.010386
1266.000000	0.010430
1265.000000	0.010499
1264.000000	0.010614
1263.000000	0.010739
1262.000000	0.010835
1261.000000	0.010916
1260.000000	0.011011
1259.000000	0.011119
1258.000000	0.011224
1257.000000	0.011344
1256.000000	0.011492
1255.000000	0.011645
1254.000000	0.011772
1253.000000	0.011879
1252.000000	0.011987
1251.000000	0.012092
1250.000000	0.012189
1249.000000	0.012292
1248.000000	0.012406
1247.000000	0.012516
1246.000000	0.012622
1245.000000	0.012744
1244.000000	0.012884
1243.000000	0.013007
1242.000000	0.013099
1241.000000	0.013194
1240.000000	0.013310
1239.000000	0.013412
1238.000000	0.013470
1237.000000	0.013491
1236.000000	0.013489
1235.000000	0.013450
1234.000000	0.013375
1233.000000	0.013305
1232.000000	0.013256
1231.000000	0.013190
1230.000000	0.013068
1229.000000	0.012902
1228.000000	0.012712
1227.000000	0.012489
1226.000000	0.012229
1225.000000	0.011961
1224.000000	0.011707
1223.000000	0.011452
1222.000000	0.011181
1221.000000	0.010916
1220.000000	0.010677
1219.000000	0.010457
1218.000000	0.010261
1217.000000	0.010120
1216.000000	0.010039
1215.000000	0.009971
1214.000000	0.009886
1213.000000	0.009815
1212.000000	0.009783
1211.000000	0.009767
1210.000000	0.009745
1209.000000	0.009743
1208.000000	0.009794
1207.000000	0.009881
1206.000000	0.009976
1205.000000	0.010082
1204.000000	0.010197
1203.000000	0.010294
1202.000000	0.010353
1201.000000	0.010397
1200.000000	0.010444
1199.000000	0.010470
1198.000000	0.010447
1197.000000	0.010387
1196.000000	0.010308
1195.000000	0.010207
1194.000000	0.010100
1193.000000	0.010032
1192.000000	0.010015
1191.000000	0.009999
1190.000000	0.009943
1189.000000	0.009863
1188.000000	0.009793
1187.000000	0.009732
1186.000000	0.009674
1185.000000	0.009637
1184.000000	0.009623
1183.000000	0.009600
1182.000000	0.009561
1181.000000	0.009550
1180.000000	0.009594
1179.000000	0.009663
1178.000000	0.009726
1177.000000	0.009806
1176.000000	0.009920
1175.000000	0.010034
1174.000000	0.010117
1173.000000	0.010196
1172.000000	0.010302
1171.000000	0.010414
1170.000000	0.010508
1169.000000	0.010605
1168.000000	0.010734
1167.000000	0.010883
1166.000000	0.011029
1165.000000	0.011179
1164.000000	0.011328
1163.000000	0.011429
1162.000000	0.011463
1161.000000	0.011470
1160.000000	0.011485
1159.000000	0.011480
1158.000000	0.011425
1157.000000	0.011349
1156.000000	0.011285
1155.000000	0.011214
1154.000000	0.011104
1153.000000	0.010971
1152.000000	0.010839
1151.000000	0.010701
1150.000000	0.010543
1149.000000	0.010377
1148.000000	0.010204
1147.000000	0.010005
1146.000000	0.009794
1145.000000	0.009634
1144.000000	0.009548
1143.000000	0.009471
1142.000000	0.009346
1141.000000	0.009196
1140.000000	0.009068
1139.000000	0.008962
1138.000000	0.008865
1137.000000	0.008785
1136.000000	0.008721
1135.000000	0.008640
1134.000000	0.008531
1133.000000	0.008445
1132.000000	0.008415
1131.000000	0.008416
1130.000000	0.008416
1129.000000	0.008438
1128.000000	0.008501
1127.000000	0.008578
1126.000000	0.008642
1125.000000	0.008709
1124.000000	0.008784
1123.000000	0.008828
1122.000000	0.008832
1121.000000	0.008851
1120.000000	0.008929
1119.000000	0.009040
1118.000000	0.009155
1117.000000	0.009284
1116.000000	0.009425
1115.000000	0.009540
1114.000000	0.009623
1113.000000	0.009732
1112.000000	0.009892
1111.000000	0.010045
1110.000000	0.010147
1109.000000	0.010233
1108.000000	0.010337
1107.000000	0.010425
1106.000000	0.010474
1105.000000	0.010522
1104.000000	0.010597
1103.000000	0.010661
1102.000000	0.010696
1101.000000	0.010757
1100.000000	0.010881
1099.000000	0.011019
1098.000000	0.011122
1097.000000	0.011218
1096.000000	0.011343
1095.000000	0.011471
1094.000000	0.011576
1093.000000	0.011691
1092.000000	0.011834
1091.000000	0.011960
1090.000000	0.012035
1089.000000	0.012103
1088.000000	0.012200
1087.000000	0.012284
1086.000000	0.012311
1085.000000	0.012306
1084.000000	0.012299
1083.000000	0.012278
1082.000000	0.012248
1081.000000	0.012255
1080.000000	0.012297
1079.000000	0.012289
1078.000000	0.012187
1077.000000	0.012051
1076.000000	0.011935
1075.000000	0.011806
1074.000000	0.011638
1073.000000	0.011482
1072.000000	0.011380
1071.000000	0.011298
1070.000000	0.011218
1069.000000	0.011199
1068.000000	0.011265
1067.000000	0.011342
1066.000000	0.011359
1065.000000	0.011347
1064.000000	0.011353
1063.000000	0.011340
1062.000000	0.011278
1061.000000	0.011220
1060.000000	0.011220
1059.000000	0.011241
1058.000000	0.011234
1057.000000	0.011233
1056.000000	0.011286
1055.000000	0.011363
1054.000000	0.011410
1053.000000	0.011432
1052.000000	0.011443
1051.000000	0.011417
1050.000000	0.011352
1049.000000	0.011312
1048.000000	0.011334
1047.000000	0.011373
1046.000000	0.011395
1045.000000	0.011445
1044.000000	0.011547
1043.000000	0.011640
1042.000000	0.011676
1041.000000	0.011705
1040.000000	0.011787
1039.000000	0.011905
1038.000000	0.012026
1037.000000	0.012165
1036.000000	0.012322
1035.000000	0.012445
1034.000000	0.012509
1033.000000	0.012571
1032.000000	0.012659
1031.000000	0.012717
1030.000000	0.012708
1029.000000	0.012688
1028.000000	0.012696
1027.000000	0.012671
1026.000000	0.012564
1025.000000	0.012429
1024.000000	0.012324
1023.000000	0.012219
1022.000000	0.012077
1021.000000	0.011937
1020.000000	0.011843
1019.000000	0.011766
1018.000000	0.011676
1017.000000	0.011606
1016.000000	0.011569
1015.000000	0.011508
1014.000000	0.011390
1013.000000	0.011272
1012.000000	0.011198
1011.000000	0.011113
1010.000000	0.010973
1009.000000	0.010824
1008.000000	0.010705
1007.000000	0.010571
1006.000000	0.010389
1005.000000	0.010221
1004.000000	0.010124
1003.000000	0.010038
1002.000000	0.009882
1001.000000	0.009681
1000.000000	0.009514
999.000000	0.009389
998.000000	0.009273
997.000000	0.009166
996.000000	0.009073
995.000000	0.008962
994.000000	0.008815
993.000000	0.008675
992.000000	0.008570
991.000000	0.008456
990.000000	0.008300
989.000000	0.008146
988.000000	0.008042
987.000000	0.007964
986.000000	0.007872
985.000000	0.007779
984.000000	0.007709
983.000000	0.007642
982.000000	0.007572
981.000000	0.007536
980.000000	0.007539
979.000000	0.007523
978.000000	0.007459
977.000000	0.007397
976.000000	0.007366
975.000000	0.007319
974.000000	0.007233
973.000000	0.007169
972.000000	0.007164
971.000000	0.007149
970.000000	0.007060
969.000000	0.006929
968.000000	0.006810
967.000000	0.006687
966.000000	0.006541
965.000000	0.006410
964.000000	0.006325
963.000000	0.006242
962.000000	0.006128
961.000000	0.006028
960.000000	0.005977
959.000000	0.005928
958.000000	0.005827
957.000000	0.005699
956.000000	0.005580
955.000000	0.005453
954.000000	0.005312
953.000000	0.005202
952.000000	0.005144
951.000000	0.005074
950.000000	0.004957
949.000000	0.004848
948.000000	0.004799
947.000000	0.004769
946.000000	0.004709
945.000000	0.004638
944.000000	0.004586
943.000000	0.004522
942.000000	0.004427
941.000000	0.004346
940.000000	0.004309
939.000000	0.004264
938.000000	0.004178
937.000000	0.004094
936.000000	0.004046
935.000000	0.003990
934.000000	0.003890
933.000000	0.003790
932.000000	0.003726
931.000000	0.003662
930.000000	0.003574
929.000000	0.003513
928.000000	0.003506
927.000000	0.003492
926.000000	0.003431
925.000000	0.003377
924.000000	0.003372
923.000000	0.003356
922.000000	0.003277
921.000000	0.003187
920.000000	0.003149
919.000000	0.003135
918.000000	0.003094
917.000000	0.003034
916.000000	0.002979
915.000000	0.002901
914.000000	0.002801
913.000000	0.002735
912.000000	0.002727
911.000000	0.002713
910.000000	0.002656
909.000000	0.002618
908.000000	0.002630
907.000000	0.002623
906.000000	0.002559
905.000000	0.002509
904.000000	0.002527
903.000000	0.002544
902.000000	0.002486
901.000000	0.002398
900.000000	0.002343
899.000000	0.002289
898.000000	0.002197
897.000000	0.002125
896.000000	0.002117
895.000000	0.002110
894.000000	0.002038
893.000000	0.001950
892.000000	0.001917
891.000000	0.001913
890.000000	0.001893
889.000000	0.001911
888.000000	0.002044
887.000000	0.002288
886.000000	0.002604
885.000000	0.002998
884.000000	0.003445
883.000000	0.003854
882.000000	0.004196
881.000000	0.004591
880.000000	0.005158
879.000000	0.005856
878.000000	0.006562
877.000000	0.007216
876.000000	0.007776
875.000000	0.008145
874.000000	0.008256
873.000000	0.008146
872.000000	0.007865
871.000000	0.007392
870.000000	0.006753
869.000000	0.006091
868.000000	0.005531
867.000000	0.005069
866.000000	0.004670
865.000000	0.004367
864.000000	0.004167
863.000000	0.003978
862.000000	0.003739
861.000000	0.003515
860.000000	0.003377
859.000000	0.003286
858.000000	0.003185
857.000000	0.003097
856.000000	0.003042
855.000000	0.002959
854.000000	0.002811
853.000000	0.002671
852.000000	0.002610
851.000000	0.002599
850.000000	0.002613
849.000000	0.002686
848.000000	0.002792
847.000000	0.002806
846.000000	0.002674
845.000000	0.002509
844.000000	0.002412
843.000000	0.002345
842.000000	0.002260
841.000000	0.002216
840.000000	0.002243
839.000000	0.002240
838.000000	0.002144
837.000000	0.002050
836.000000	0.002045
835.000000	0.002060
834.000000	0.002009
833.000000	0.001958
832.000000	0.001992
831.000000	0.002048
830.000000	0.002025
829.000000	0.001964
828.000000	0.001959
827.000000	0.001986
826.000000	0.001972
825.000000	0.001944
824.000000	0.001966
823.000000	0.002014
822.000000	0.002049
821.000000	0.002111
820.000000	0.002226
819.000000	0.002327
818.000000	0.002374
817.000000	0.002431
816.000000	0.002524
815.000000	0.002571
814.000000	0.002522
813.000000	0.002460
812.000000	0.002444
811.000000	0.002395
810.000000	0.002262
809.000000	0.002140
808.000000	0.002116
807.000000	0.002120
806.000000	0.002067
805.000000	0.002006
804.000000	0.002000
803.000000	0.001997
802.000000	0.001948
801.000000	0.001922
800.000000	0.001969
799.000000	0.002000
798.000000	0.001943
797.000000	0.001896
796.000000	0.001973
795.000000	0.002130
794.000000	0.002263
793.000000	0.002364
792.000000	0.002445
791.000000	0.002441
790.000000	0.002327
789.000000	0.002204
788.000000	0.002158
787.000000	0.002129
786.000000	0.002052
785.000000	0.001983
784.000000	0.001988
783.000000	0.002011
782.000000	0.001993
781.000000	0.001982
780.000000	0.002021
779.000000	0.002052
778.000000	0.002040
777.000000	0.002069
776.000000	0.002179
775.000000	0.002249
774.000000	0.002169
773.000000	0.002027
772.000000	0.001962
771.000000	0.001974
770.000000	0.001989
769.000000	0.002013
768.000000	0.002074
767.000000	0.002115
766.000000	0.002085
765.000000	0.002048
764.000000	0.002071
763.000000	0.002107
762.000000	0.002100
761.000000	0.002101
760.000000	0.002171
759.000000	0.002263
758.000000	0.002314
757.000000	0.002363
756.000000	0.002447
755.000000	0.002500
754.000000	0.002465
753.000000	0.002407
752.000000	0.002409
751.000000	0.002442
750.000000	0.002460
749.000000	0.002493
748.000000	0.002554
747.000000	0.002571
746.000000	0.002522
745.000000	0.002501
744.000000	0.002556
743.000000	0.002592
742.000000	0.002537
741.000000	0.002472
740.000000	0.002482
739.000000	0.002504
738.000000	0.002452
737.000000	0.002375
736.000000	0.002355
735.000000	0.002370
734.000000	0.002382
733.000000	0.002427
732.000000	0.002513
731.000000	0.002532
730.000000	0.002423
729.000000	0.002300
728.000000	0.002288
727.000000	0.002351
726.000000	0.002406
725.000000	0.002473
724.000000	0.002582
723.000000	0.002656
722.000000	0.002629
721.000000	0.002561
720.000000	0.002531
719.000000	0.002520
718.000000	0.002538
717.000000	0.002706
716.000000	0.003097
715.000000	0.003607
714.000000	0.004078
713.000000	0.004439
712.000000	0.004632
711.000000	0.004561
710.000000	0.004259
709.000000	0.003943
708.000000	0.003787
707.000000	0.003732
706.000000	0.003674
705.000000	0.003633
704.000000	0.003639
703.000000	0.003616
702.000000	0.003539
701.000000	0.003531
700.000000	0.003652
699.000000	0.003755
698.000000	0.003703
697.000000	0.003591
696.000000	0.003571
695.000000	0.003622
694.000000	0.003643
693.000000	0.003630
692.000000	0.003621
691.000000	0.003561
690.000000	0.003425
689.000000	0.003334
688.000000	0.003365
687.000000	0.003406
686.000000	0.003344
685.000000	0.003265
684.000000	0.003318
683.000000	0.003466
682.000000	0.003576
681.000000	0.003623
680.000000	0.003667
679.000000	0.003703
678.000000	0.003699
677.000000	0.003727
676.000000	0.003853
675.000000	0.003991
674.000000	0.004026
673.000000	0.003975
672.000000	0.003877
671.000000	0.003644
670.000000	0.003166
669.000000	0.002535
668.000000	0.002220
667.000000	0.002513
666.000000	0.002876
665.000000	0.003208
664.000000	0.003588
663.000000	0.003877
662.000000	0.003989
661.000000	0.004066
660.000000	0.004249
659.000000	0.004444
658.000000	0.004534
657.000000	0.004609
656.000000	0.004722
655.000000	0.004710
654.000000	0.004491
653.000000	0.004266
652.000000	0.004185
651.000000	0.004125
650.000000	0.003994
649.000000	0.003961
648.000000	0.004145
647.000000	0.004380
646.000000	0.004515
645.000000	0.004645
644.000000	0.004843
643.000000	0.004963
642.000000	0.004914
641.000000	0.004863
640.000000	0.004938
639.000000	0.004978
638.000000	0.004839
637.000000	0.004657
636.000000	0.004589
635.000000	0.004552
634.000000	0.004446
633.000000	0.004369
632.000000	0.004397
631.000000	0.004411
630.000000	0.004335
629.000000	0.004298
628.000000	0.004356
627.000000	0.004323
626.000000	0.004114
625.000000	0.003952
624.000000	0.004003
623.000000	0.004113
622.000000	0.004113
621.000000	0.004126
620.000000	0.004296
619.000000	0.004500
618.000000	0.004586
617.000000	0.004636
616.000000	0.004765
615.000000	0.004881
614.000000	0.004915
613.000000	0.005017
612.000000	0.005271
611.000000	0.005476
610.000000	0.005470
609.000000	0.005406
608.000000	0.005468
607.000000	0.005567
606.000000	0.005597
605.000000	0.005679
604.000000	0.005894
603.000000	0.006047
602.000000	0.005974
601.000000	0.005826
600.000000	0.005793
599.000000	0.005819
598.000000	0.005820
597.000000	0.005916
596.000000	0.006151
595.000000	0.006290
594.000000	0.006168
593.000000	0.005984
592.000000	0.005970
591.000000	0.006044
590.000000	0.006056
589.000000	0.006102
588.000000	0.006290
587.000000	0.006480
586.000000	0.006529
585.000000	0.006523
584.000000	0.006528
583.000000	0.006377
582.000000	0.005993
581.000000	0.005627
580.000000	0.005509
579.000000	0.005525
578.000000	0.005513
577.000000	0.005531
576.000000	0.005605
575.000000	0.005562
574.000000	0.005398
573.000000	0.005419
572.000000	0.005734
571.000000	0.005993
570.000000	0.005907
569.000000	0.005682
568.000000	0.005606
567.000000	0.005585
566.000000	0.005454
565.000000	0.005355
564.000000	0.005432
563.000000	0.005511
562.000000	0.005437
561.000000	0.005391
560.000000	0.005527
559.000000	0.005654
558.000000	0.005616
557.000000	0.005601
556.000000	0.005728
555.000000	0.005733
554.000000	0.005431
553.000000	0.005117
552.000000	0.005095
551.000000	0.005202
550.000000	0.005177
549.000000	0.005136
548.000000	0.005246
547.000000	0.005318
546.000000	0.005138
545.000000	0.004884
544.000000	0.004798
543.000000	0.004781
542.000000	0.004699
541.000000	0.004706
540.000000	0.004904
539.000000	0.005051
538.000000	0.004966
537.000000	0.004850
536.000000	0.004878
535.000000	0.004858
534.000000	0.004664
533.000000	0.004595
532.000000	0.004899
531.000000	0.005351
530.000000	0.005665
529.000000	0.005927
528.000000	0.006246
527.000000	0.006394
526.000000	0.006230
525.000000	0.006064
524.000000	0.006110
523.000000	0.006085
522.000000	0.005772
521.000000	0.005467
520.000000	0.005480
519.000000	0.005626
518.000000	0.005645
517.000000	0.005708
516.000000	0.005955
515.000000	0.006055
514.000000	0.005758
513.000000	0.005348
512.000000	0.005132
511.000000	0.004948
510.000000	0.004592
509.000000	0.004303
508.000000	0.004355
507.000000	0.004575
506.000000	0.004715
505.000000	0.004881
504.000000	0.005158
503.000000	0.005260
502.000000	0.005041
501.000000	0.004856
500.000000	0.004910
499.000000	0.004833
498.000000	0.004381
497.000000	0.003937
496.000000	0.003882
495.000000	0.004009
494.000000	0.004017
493.000000	0.004056
492.000000	0.004244
491.000000	0.004203
490.000000	0.003719
489.000000	0.003285
488.000000	0.003355
487.000000	0.003631
486.000000	0.003620
485.000000	0.003417
484.000000	0.003343
483.000000	0.003282
482.000000	0.003068
481.000000	0.003003
480.000000	0.003321
479.000000	0.003665
478.000000	0.003673
477.000000	0.003575
476.000000	0.003656
475.000000	0.003659
474.000000	0.003342
473.000000	0.003124
472.000000	0.003409
471.000000	0.003756
470.000000	0.003703
469.000000	0.003608
468.000000	0.003879
467.000000	0.004199
466.000000	0.004162
465.000000	0.004022
464.000000	0.004021
463.000000	0.003736
462.000000	0.002901
461.000000	0.002167
460.000000	0.002142
459.000000	0.002394
458.000000	0.002225
457.000000	0.001938
456.000000	0.002124
455.000000	0.002394
454.000000	0.002226
453.000000	0.001933
452.000000	0.002037
451.000000	0.002264
450.000000	0.002112
