PE IR       SUBTECH     SPECTRUM    ASCII       PEDS        4.00        
   -1
P12-Vert042_1.ASC
23/06/09
11:12:09.00
23/06/09
11:23:17.00
uco
Sample 042 By uco Date Friday, June 09 2023
450.000000
#HDR
-1
-1
#GR
cm-1
A
1.0
0.0
4000.000000
-1.000000
3551
8
0.012761
0.000058
#DATA
4000.000000	0.000853
3999.000000	0.000850
3998.000000	0.000847
3997.000000	0.000858
3996.000000	0.000871
3995.000000	0.000873
3994.000000	0.000863
3993.000000	0.000853
3992.000000	0.000855
3991.000000	0.000871
3990.000000	0.000889
3989.000000	0.000896
3988.000000	0.000891
3987.000000	0.000881
3986.000000	0.000877
3985.000000	0.000883
3984.000000	0.000895
3983.000000	0.000910
3982.000000	0.000923
3981.000000	0.000933
3980.000000	0.000935
3979.000000	0.000926
3978.000000	0.000906
3977.000000	0.000880
3976.000000	0.000856
3975.000000	0.000844
3974.000000	0.000847
3973.000000	0.000860
3972.000000	0.000877
3971.000000	0.000892
3970.000000	0.000904
3969.000000	0.000911
3968.000000	0.000911
3967.000000	0.000905
3966.000000	0.000895
3965.000000	0.000887
3964.000000	0.000884
3963.000000	0.000885
3962.000000	0.000885
3961.000000	0.000881
3960.000000	0.000875
3959.000000	0.000876
3958.000000	0.000888
3957.000000	0.000908
3956.000000	0.000925
3955.000000	0.000929
3954.000000	0.000920
3953.000000	0.000910
3952.000000	0.000908
3951.000000	0.000914
3950.000000	0.000919
3949.000000	0.000919
3948.000000	0.000918
3947.000000	0.000926
3946.000000	0.000941
3945.000000	0.000950
3944.000000	0.000944
3943.000000	0.000922
3942.000000	0.000900
3941.000000	0.000891
3940.000000	0.000897
3939.000000	0.000911
3938.000000	0.000924
3937.000000	0.000933
3936.000000	0.000934
3935.000000	0.000930
3934.000000	0.000926
3933.000000	0.000930
3932.000000	0.000946
3931.000000	0.000968
3930.000000	0.000978
3929.000000	0.000969
3928.000000	0.000945
3927.000000	0.000922
3926.000000	0.000918
3925.000000	0.000937
3924.000000	0.000973
3923.000000	0.001007
3922.000000	0.001022
3921.000000	0.001012
3920.000000	0.000987
3919.000000	0.000966
3918.000000	0.000959
3917.000000	0.000958
3916.000000	0.000955
3915.000000	0.000947
3914.000000	0.000938
3913.000000	0.000927
3912.000000	0.000917
3911.000000	0.000910
3910.000000	0.000909
3909.000000	0.000912
3908.000000	0.000915
3907.000000	0.000917
3906.000000	0.000917
3905.000000	0.000917
3904.000000	0.000923
3903.000000	0.000943
3902.000000	0.000972
3901.000000	0.000987
3900.000000	0.000971
3899.000000	0.000931
3898.000000	0.000894
3897.000000	0.000876
3896.000000	0.000872
3895.000000	0.000876
3894.000000	0.000883
3893.000000	0.000888
3892.000000	0.000886
3891.000000	0.000880
3890.000000	0.000882
3889.000000	0.000900
3888.000000	0.000929
3887.000000	0.000958
3886.000000	0.000978
3885.000000	0.000980
3884.000000	0.000969
3883.000000	0.000949
3882.000000	0.000917
3881.000000	0.000880
3880.000000	0.000847
3879.000000	0.000834
3878.000000	0.000845
3877.000000	0.000864
3876.000000	0.000875
3875.000000	0.000875
3874.000000	0.000869
3873.000000	0.000866
3872.000000	0.000870
3871.000000	0.000875
3870.000000	0.000879
3869.000000	0.000892
3868.000000	0.000923
3867.000000	0.000952
3866.000000	0.000958
3865.000000	0.000947
3864.000000	0.000932
3863.000000	0.000924
3862.000000	0.000924
3861.000000	0.000935
3860.000000	0.000960
3859.000000	0.000997
3858.000000	0.001033
3857.000000	0.001063
3856.000000	0.001088
3855.000000	0.001101
3854.000000	0.001092
3853.000000	0.001080
3852.000000	0.001105
3851.000000	0.001148
3850.000000	0.001155
3849.000000	0.001117
3848.000000	0.001067
3847.000000	0.001026
3846.000000	0.000992
3845.000000	0.000962
3844.000000	0.000932
3843.000000	0.000909
3842.000000	0.000903
3841.000000	0.000916
3840.000000	0.000944
3839.000000	0.000979
3838.000000	0.001009
3837.000000	0.001023
3836.000000	0.001014
3835.000000	0.000987
3834.000000	0.000951
3833.000000	0.000918
3832.000000	0.000894
3831.000000	0.000885
3830.000000	0.000894
3829.000000	0.000911
3828.000000	0.000925
3827.000000	0.000928
3826.000000	0.000925
3825.000000	0.000931
3824.000000	0.000950
3823.000000	0.000977
3822.000000	0.000996
3821.000000	0.000994
3820.000000	0.000993
3819.000000	0.001019
3818.000000	0.001051
3817.000000	0.001063
3816.000000	0.001055
3815.000000	0.001051
3814.000000	0.001061
3813.000000	0.001061
3812.000000	0.001036
3811.000000	0.000999
3810.000000	0.000970
3809.000000	0.000949
3808.000000	0.000924
3807.000000	0.000895
3806.000000	0.000886
3805.000000	0.000912
3804.000000	0.000957
3803.000000	0.001004
3802.000000	0.001040
3801.000000	0.001057
3800.000000	0.001067
3799.000000	0.001066
3798.000000	0.001037
3797.000000	0.000989
3796.000000	0.000951
3795.000000	0.000942
3794.000000	0.000953
3793.000000	0.000960
3792.000000	0.000954
3791.000000	0.000941
3790.000000	0.000931
3789.000000	0.000925
3788.000000	0.000921
3787.000000	0.000920
3786.000000	0.000914
3785.000000	0.000899
3784.000000	0.000876
3783.000000	0.000858
3782.000000	0.000851
3781.000000	0.000847
3780.000000	0.000844
3779.000000	0.000849
3778.000000	0.000872
3777.000000	0.000906
3776.000000	0.000931
3775.000000	0.000933
3774.000000	0.000920
3773.000000	0.000906
3772.000000	0.000901
3771.000000	0.000914
3770.000000	0.000946
3769.000000	0.000992
3768.000000	0.001036
3767.000000	0.001058
3766.000000	0.001052
3765.000000	0.001034
3764.000000	0.001023
3763.000000	0.001027
3762.000000	0.001035
3761.000000	0.001039
3760.000000	0.001041
3759.000000	0.001042
3758.000000	0.001035
3757.000000	0.001015
3756.000000	0.000989
3755.000000	0.000970
3754.000000	0.000965
3753.000000	0.000975
3752.000000	0.001004
3751.000000	0.001054
3750.000000	0.001107
3749.000000	0.001144
3748.000000	0.001157
3747.000000	0.001151
3746.000000	0.001134
3745.000000	0.001111
3744.000000	0.001083
3743.000000	0.001068
3742.000000	0.001051
3741.000000	0.001002
3740.000000	0.000950
3739.000000	0.000943
3738.000000	0.000987
3737.000000	0.001040
3736.000000	0.001051
3735.000000	0.001011
3734.000000	0.000955
3733.000000	0.000921
3732.000000	0.000918
3731.000000	0.000938
3730.000000	0.000963
3729.000000	0.000973
3728.000000	0.000963
3727.000000	0.000945
3726.000000	0.000935
3725.000000	0.000933
3724.000000	0.000927
3723.000000	0.000904
3722.000000	0.000871
3721.000000	0.000845
3720.000000	0.000835
3719.000000	0.000835
3718.000000	0.000835
3717.000000	0.000830
3716.000000	0.000831
3715.000000	0.000846
3714.000000	0.000878
3713.000000	0.000923
3712.000000	0.000965
3711.000000	0.000989
3710.000000	0.000995
3709.000000	0.000988
3708.000000	0.000970
3707.000000	0.000949
3706.000000	0.000929
3705.000000	0.000909
3704.000000	0.000886
3703.000000	0.000864
3702.000000	0.000847
3701.000000	0.000844
3700.000000	0.000857
3699.000000	0.000881
3698.000000	0.000906
3697.000000	0.000926
3696.000000	0.000947
3695.000000	0.000974
3694.000000	0.001002
3693.000000	0.001021
3692.000000	0.001029
3691.000000	0.001026
3690.000000	0.001013
3689.000000	0.000989
3688.000000	0.000975
3687.000000	0.000986
3686.000000	0.000994
3685.000000	0.000973
3684.000000	0.000930
3683.000000	0.000894
3682.000000	0.000882
3681.000000	0.000885
3680.000000	0.000887
3679.000000	0.000889
3678.000000	0.000897
3677.000000	0.000900
3676.000000	0.000880
3675.000000	0.000852
3674.000000	0.000862
3673.000000	0.000902
3672.000000	0.000930
3671.000000	0.000932
3670.000000	0.000924
3669.000000	0.000921
3668.000000	0.000934
3667.000000	0.000954
3666.000000	0.000968
3665.000000	0.000976
3664.000000	0.000983
3663.000000	0.000985
3662.000000	0.000980
3661.000000	0.000964
3660.000000	0.000945
3659.000000	0.000931
3658.000000	0.000921
3657.000000	0.000911
3656.000000	0.000905
3655.000000	0.000916
3654.000000	0.000942
3653.000000	0.000966
3652.000000	0.000986
3651.000000	0.001022
3650.000000	0.001074
3649.000000	0.001112
3648.000000	0.001115
3647.000000	0.001103
3646.000000	0.001103
3645.000000	0.001120
3644.000000	0.001142
3643.000000	0.001152
3642.000000	0.001138
3641.000000	0.001097
3640.000000	0.001044
3639.000000	0.001000
3638.000000	0.000978
3637.000000	0.000981
3636.000000	0.001004
3635.000000	0.001039
3634.000000	0.001078
3633.000000	0.001120
3632.000000	0.001169
3631.000000	0.001231
3630.000000	0.001288
3629.000000	0.001302
3628.000000	0.001264
3627.000000	0.001219
3626.000000	0.001178
3625.000000	0.001134
3624.000000	0.001098
3623.000000	0.001087
3622.000000	0.001102
3621.000000	0.001134
3620.000000	0.001171
3619.000000	0.001209
3618.000000	0.001244
3617.000000	0.001273
3616.000000	0.001292
3615.000000	0.001308
3614.000000	0.001329
3613.000000	0.001353
3612.000000	0.001384
3611.000000	0.001427
3610.000000	0.001482
3609.000000	0.001527
3608.000000	0.001533
3607.000000	0.001494
3606.000000	0.001435
3605.000000	0.001384
3604.000000	0.001359
3603.000000	0.001361
3602.000000	0.001377
3601.000000	0.001391
3600.000000	0.001396
3599.000000	0.001402
3598.000000	0.001415
3597.000000	0.001433
3596.000000	0.001451
3595.000000	0.001471
3594.000000	0.001491
3593.000000	0.001504
3592.000000	0.001512
3591.000000	0.001522
3590.000000	0.001546
3589.000000	0.001581
3588.000000	0.001616
3587.000000	0.001641
3586.000000	0.001659
3585.000000	0.001671
3584.000000	0.001675
3583.000000	0.001670
3582.000000	0.001663
3581.000000	0.001659
3580.000000	0.001664
3579.000000	0.001689
3578.000000	0.001734
3577.000000	0.001782
3576.000000	0.001812
3575.000000	0.001817
3574.000000	0.001807
3573.000000	0.001793
3572.000000	0.001783
3571.000000	0.001778
3570.000000	0.001778
3569.000000	0.001780
3568.000000	0.001785
3567.000000	0.001799
3566.000000	0.001827
3565.000000	0.001864
3564.000000	0.001903
3563.000000	0.001940
3562.000000	0.001976
3561.000000	0.002006
3560.000000	0.002025
3559.000000	0.002032
3558.000000	0.002033
3557.000000	0.002031
3556.000000	0.002030
3555.000000	0.002038
3554.000000	0.002064
3553.000000	0.002108
3552.000000	0.002160
3551.000000	0.002207
3550.000000	0.002239
3549.000000	0.002252
3548.000000	0.002249
3547.000000	0.002240
3546.000000	0.002234
3545.000000	0.002240
3544.000000	0.002261
3543.000000	0.002301
3542.000000	0.002350
3541.000000	0.002392
3540.000000	0.002422
3539.000000	0.002448
3538.000000	0.002476
3537.000000	0.002505
3536.000000	0.002530
3535.000000	0.002550
3534.000000	0.002566
3533.000000	0.002575
3532.000000	0.002568
3531.000000	0.002549
3530.000000	0.002530
3529.000000	0.002525
3528.000000	0.002544
3527.000000	0.002582
3526.000000	0.002625
3525.000000	0.002656
3524.000000	0.002667
3523.000000	0.002666
3522.000000	0.002661
3521.000000	0.002658
3520.000000	0.002660
3519.000000	0.002673
3518.000000	0.002694
3517.000000	0.002718
3516.000000	0.002743
3515.000000	0.002771
3514.000000	0.002804
3513.000000	0.002830
3512.000000	0.002841
3511.000000	0.002841
3510.000000	0.002841
3509.000000	0.002844
3508.000000	0.002848
3507.000000	0.002847
3506.000000	0.002840
3505.000000	0.002832
3504.000000	0.002829
3503.000000	0.002835
3502.000000	0.002852
3501.000000	0.002873
3500.000000	0.002893
3499.000000	0.002911
3498.000000	0.002924
3497.000000	0.002927
3496.000000	0.002920
3495.000000	0.002910
3494.000000	0.002901
3493.000000	0.002899
3492.000000	0.002904
3491.000000	0.002914
3490.000000	0.002924
3489.000000	0.002926
3488.000000	0.002921
3487.000000	0.002923
3486.000000	0.002942
3485.000000	0.002968
3484.000000	0.002991
3483.000000	0.003009
3482.000000	0.003028
3481.000000	0.003046
3480.000000	0.003060
3479.000000	0.003073
3478.000000	0.003090
3477.000000	0.003115
3476.000000	0.003141
3475.000000	0.003157
3474.000000	0.003154
3473.000000	0.003134
3472.000000	0.003107
3471.000000	0.003094
3470.000000	0.003108
3469.000000	0.003142
3468.000000	0.003174
3467.000000	0.003190
3466.000000	0.003194
3465.000000	0.003194
3464.000000	0.003200
3463.000000	0.003214
3462.000000	0.003232
3461.000000	0.003250
3460.000000	0.003261
3459.000000	0.003262
3458.000000	0.003254
3457.000000	0.003236
3456.000000	0.003215
3455.000000	0.003201
3454.000000	0.003198
3453.000000	0.003202
3452.000000	0.003207
3451.000000	0.003215
3450.000000	0.003231
3449.000000	0.003256
3448.000000	0.003285
3447.000000	0.003319
3446.000000	0.003358
3445.000000	0.003399
3444.000000	0.003435
3443.000000	0.003458
3442.000000	0.003464
3441.000000	0.003454
3440.000000	0.003439
3439.000000	0.003432
3438.000000	0.003443
3437.000000	0.003472
3436.000000	0.003510
3435.000000	0.003545
3434.000000	0.003565
3433.000000	0.003571
3432.000000	0.003572
3431.000000	0.003581
3430.000000	0.003601
3429.000000	0.003631
3428.000000	0.003662
3427.000000	0.003687
3426.000000	0.003702
3425.000000	0.003707
3424.000000	0.003705
3423.000000	0.003701
3422.000000	0.003695
3421.000000	0.003690
3420.000000	0.003695
3419.000000	0.003721
3418.000000	0.003769
3417.000000	0.003825
3416.000000	0.003872
3415.000000	0.003907
3414.000000	0.003933
3413.000000	0.003955
3412.000000	0.003977
3411.000000	0.003999
3410.000000	0.004019
3409.000000	0.004037
3408.000000	0.004061
3407.000000	0.004099
3406.000000	0.004146
3405.000000	0.004181
3404.000000	0.004188
3403.000000	0.004169
3402.000000	0.004143
3401.000000	0.004131
3400.000000	0.004148
3399.000000	0.004195
3398.000000	0.004254
3397.000000	0.004294
3396.000000	0.004300
3395.000000	0.004285
3394.000000	0.004274
3393.000000	0.004285
3392.000000	0.004313
3391.000000	0.004340
3390.000000	0.004354
3389.000000	0.004353
3388.000000	0.004346
3387.000000	0.004343
3386.000000	0.004346
3385.000000	0.004356
3384.000000	0.004371
3383.000000	0.004392
3382.000000	0.004414
3381.000000	0.004431
3380.000000	0.004439
3379.000000	0.004442
3378.000000	0.004441
3377.000000	0.004438
3376.000000	0.004442
3375.000000	0.004459
3374.000000	0.004487
3373.000000	0.004515
3372.000000	0.004532
3371.000000	0.004539
3370.000000	0.004537
3369.000000	0.004524
3368.000000	0.004507
3367.000000	0.004499
3366.000000	0.004507
3365.000000	0.004522
3364.000000	0.004531
3363.000000	0.004529
3362.000000	0.004524
3361.000000	0.004526
3360.000000	0.004542
3359.000000	0.004568
3358.000000	0.004596
3357.000000	0.004619
3356.000000	0.004634
3355.000000	0.004644
3354.000000	0.004648
3353.000000	0.004648
3352.000000	0.004647
3351.000000	0.004650
3350.000000	0.004657
3349.000000	0.004662
3348.000000	0.004666
3347.000000	0.004679
3346.000000	0.004707
3345.000000	0.004743
3344.000000	0.004773
3343.000000	0.004793
3342.000000	0.004802
3341.000000	0.004806
3340.000000	0.004818
3339.000000	0.004847
3338.000000	0.004893
3337.000000	0.004944
3336.000000	0.004979
3335.000000	0.004985
3334.000000	0.004964
3333.000000	0.004931
3332.000000	0.004906
3331.000000	0.004896
3330.000000	0.004898
3329.000000	0.004907
3328.000000	0.004925
3327.000000	0.004958
3326.000000	0.005001
3325.000000	0.005038
3324.000000	0.005058
3323.000000	0.005069
3322.000000	0.005081
3321.000000	0.005098
3320.000000	0.005117
3319.000000	0.005137
3318.000000	0.005156
3317.000000	0.005168
3316.000000	0.005168
3315.000000	0.005162
3314.000000	0.005158
3313.000000	0.005163
3312.000000	0.005182
3311.000000	0.005212
3310.000000	0.005240
3309.000000	0.005254
3308.000000	0.005246
3307.000000	0.005225
3306.000000	0.005203
3305.000000	0.005186
3304.000000	0.005175
3303.000000	0.005168
3302.000000	0.005167
3301.000000	0.005171
3300.000000	0.005187
3299.000000	0.005210
3298.000000	0.005226
3297.000000	0.005221
3296.000000	0.005198
3295.000000	0.005177
3294.000000	0.005172
3293.000000	0.005179
3292.000000	0.005189
3291.000000	0.005197
3290.000000	0.005202
3289.000000	0.005203
3288.000000	0.005201
3287.000000	0.005203
3286.000000	0.005210
3285.000000	0.005216
3284.000000	0.005214
3283.000000	0.005208
3282.000000	0.005206
3281.000000	0.005212
3280.000000	0.005220
3279.000000	0.005220
3278.000000	0.005207
3277.000000	0.005185
3276.000000	0.005170
3275.000000	0.005178
3274.000000	0.005205
3273.000000	0.005225
3272.000000	0.005216
3271.000000	0.005185
3270.000000	0.005155
3269.000000	0.005144
3268.000000	0.005150
3267.000000	0.005161
3266.000000	0.005165
3265.000000	0.005152
3264.000000	0.005123
3263.000000	0.005092
3262.000000	0.005073
3261.000000	0.005072
3260.000000	0.005082
3259.000000	0.005090
3258.000000	0.005087
3257.000000	0.005077
3256.000000	0.005070
3255.000000	0.005075
3254.000000	0.005089
3253.000000	0.005102
3252.000000	0.005104
3251.000000	0.005091
3250.000000	0.005062
3249.000000	0.005016
3248.000000	0.004965
3247.000000	0.004925
3246.000000	0.004905
3245.000000	0.004902
3244.000000	0.004908
3243.000000	0.004921
3242.000000	0.004939
3241.000000	0.004950
3240.000000	0.004942
3239.000000	0.004918
3238.000000	0.004894
3237.000000	0.004882
3236.000000	0.004883
3235.000000	0.004887
3234.000000	0.004886
3233.000000	0.004878
3232.000000	0.004864
3231.000000	0.004849
3230.000000	0.004836
3229.000000	0.004829
3228.000000	0.004830
3227.000000	0.004841
3226.000000	0.004858
3225.000000	0.004875
3224.000000	0.004886
3223.000000	0.004890
3222.000000	0.004884
3221.000000	0.004869
3220.000000	0.004850
3219.000000	0.004834
3218.000000	0.004820
3217.000000	0.004796
3216.000000	0.004755
3215.000000	0.004704
3214.000000	0.004664
3213.000000	0.004651
3212.000000	0.004664
3211.000000	0.004687
3210.000000	0.004707
3209.000000	0.004717
3208.000000	0.004723
3207.000000	0.004727
3206.000000	0.004725
3205.000000	0.004709
3204.000000	0.004683
3203.000000	0.004657
3202.000000	0.004634
3201.000000	0.004613
3200.000000	0.004594
3199.000000	0.004589
3198.000000	0.004597
3197.000000	0.004609
3196.000000	0.004610
3195.000000	0.004601
3194.000000	0.004587
3193.000000	0.004567
3192.000000	0.004540
3191.000000	0.004514
3190.000000	0.004502
3189.000000	0.004508
3188.000000	0.004520
3187.000000	0.004522
3186.000000	0.004508
3185.000000	0.004484
3184.000000	0.004463
3183.000000	0.004456
3182.000000	0.004461
3181.000000	0.004468
3180.000000	0.004474
3179.000000	0.004483
3178.000000	0.004498
3177.000000	0.004508
3176.000000	0.004497
3175.000000	0.004465
3174.000000	0.004423
3173.000000	0.004391
3172.000000	0.004380
3171.000000	0.004391
3170.000000	0.004413
3169.000000	0.004429
3168.000000	0.004432
3167.000000	0.004419
3166.000000	0.004390
3165.000000	0.004350
3164.000000	0.004310
3163.000000	0.004285
3162.000000	0.004280
3161.000000	0.004287
3160.000000	0.004288
3159.000000	0.004283
3158.000000	0.004278
3157.000000	0.004283
3156.000000	0.004292
3155.000000	0.004293
3154.000000	0.004274
3153.000000	0.004238
3152.000000	0.004202
3151.000000	0.004186
3150.000000	0.004190
3149.000000	0.004199
3148.000000	0.004195
3147.000000	0.004174
3146.000000	0.004141
3145.000000	0.004103
3144.000000	0.004063
3143.000000	0.004028
3142.000000	0.004004
3141.000000	0.003994
3140.000000	0.004000
3139.000000	0.004015
3138.000000	0.004027
3137.000000	0.004025
3136.000000	0.004009
3135.000000	0.003991
3134.000000	0.003980
3133.000000	0.003977
3132.000000	0.003982
3131.000000	0.003997
3130.000000	0.004021
3129.000000	0.004040
3128.000000	0.004043
3127.000000	0.004031
3126.000000	0.004013
3125.000000	0.003996
3124.000000	0.003978
3123.000000	0.003962
3122.000000	0.003951
3121.000000	0.003944
3120.000000	0.003935
3119.000000	0.003922
3118.000000	0.003910
3117.000000	0.003905
3116.000000	0.003906
3115.000000	0.003908
3114.000000	0.003905
3113.000000	0.003894
3112.000000	0.003882
3111.000000	0.003877
3110.000000	0.003881
3109.000000	0.003885
3108.000000	0.003880
3107.000000	0.003862
3106.000000	0.003839
3105.000000	0.003821
3104.000000	0.003813
3103.000000	0.003816
3102.000000	0.003823
3101.000000	0.003827
3100.000000	0.003827
3099.000000	0.003829
3098.000000	0.003834
3097.000000	0.003835
3096.000000	0.003830
3095.000000	0.003828
3094.000000	0.003838
3093.000000	0.003854
3092.000000	0.003862
3091.000000	0.003858
3090.000000	0.003846
3089.000000	0.003829
3088.000000	0.003809
3087.000000	0.003796
3086.000000	0.003800
3085.000000	0.003821
3084.000000	0.003849
3083.000000	0.003866
3082.000000	0.003868
3081.000000	0.003859
3080.000000	0.003849
3079.000000	0.003841
3078.000000	0.003838
3077.000000	0.003837
3076.000000	0.003839
3075.000000	0.003845
3074.000000	0.003852
3073.000000	0.003847
3072.000000	0.003825
3071.000000	0.003798
3070.000000	0.003781
3069.000000	0.003778
3068.000000	0.003779
3067.000000	0.003777
3066.000000	0.003773
3065.000000	0.003771
3064.000000	0.003766
3063.000000	0.003754
3062.000000	0.003741
3061.000000	0.003737
3060.000000	0.003740
3059.000000	0.003742
3058.000000	0.003738
3057.000000	0.003734
3056.000000	0.003739
3055.000000	0.003750
3054.000000	0.003757
3053.000000	0.003750
3052.000000	0.003730
3051.000000	0.003708
3050.000000	0.003697
3049.000000	0.003700
3048.000000	0.003712
3047.000000	0.003717
3046.000000	0.003703
3045.000000	0.003668
3044.000000	0.003627
3043.000000	0.003598
3042.000000	0.003589
3041.000000	0.003593
3040.000000	0.003599
3039.000000	0.003597
3038.000000	0.003591
3037.000000	0.003585
3036.000000	0.003581
3035.000000	0.003572
3034.000000	0.003556
3033.000000	0.003534
3032.000000	0.003513
3031.000000	0.003502
3030.000000	0.003506
3029.000000	0.003523
3028.000000	0.003549
3027.000000	0.003575
3026.000000	0.003594
3025.000000	0.003605
3024.000000	0.003606
3023.000000	0.003600
3022.000000	0.003589
3021.000000	0.003578
3020.000000	0.003574
3019.000000	0.003577
3018.000000	0.003586
3017.000000	0.003598
3016.000000	0.003606
3015.000000	0.003602
3014.000000	0.003583
3013.000000	0.003559
3012.000000	0.003546
3011.000000	0.003549
3010.000000	0.003562
3009.000000	0.003576
3008.000000	0.003591
3007.000000	0.003604
3006.000000	0.003605
3005.000000	0.003586
3004.000000	0.003552
3003.000000	0.003523
3002.000000	0.003517
3001.000000	0.003534
3000.000000	0.003564
2999.000000	0.003598
2998.000000	0.003630
2997.000000	0.003661
2996.000000	0.003694
2995.000000	0.003735
2994.000000	0.003782
2993.000000	0.003830
2992.000000	0.003875
2991.000000	0.003910
2990.000000	0.003933
2989.000000	0.003946
2988.000000	0.003954
2987.000000	0.003969
2986.000000	0.003995
2985.000000	0.004024
2984.000000	0.004051
2983.000000	0.004074
2982.000000	0.004100
2981.000000	0.004131
2980.000000	0.004166
2979.000000	0.004204
2978.000000	0.004249
2977.000000	0.004300
2976.000000	0.004355
2975.000000	0.004415
2974.000000	0.004486
2973.000000	0.004569
2972.000000	0.004658
2971.000000	0.004744
2970.000000	0.004818
2969.000000	0.004880
2968.000000	0.004939
2967.000000	0.005006
2966.000000	0.005084
2965.000000	0.005167
2964.000000	0.005239
2963.000000	0.005291
2962.000000	0.005326
2961.000000	0.005361
2960.000000	0.005406
2959.000000	0.005454
2958.000000	0.005486
2957.000000	0.005487
2956.000000	0.005458
2955.000000	0.005415
2954.000000	0.005372
2953.000000	0.005330
2952.000000	0.005287
2951.000000	0.005248
2950.000000	0.005225
2949.000000	0.005225
2948.000000	0.005243
2947.000000	0.005266
2946.000000	0.005287
2945.000000	0.005310
2944.000000	0.005347
2943.000000	0.005404
2942.000000	0.005479
2941.000000	0.005567
2940.000000	0.005665
2939.000000	0.005771
2938.000000	0.005876
2937.000000	0.005969
2936.000000	0.006041
2935.000000	0.006097
2934.000000	0.006145
2933.000000	0.006195
2932.000000	0.006247
2931.000000	0.006296
2930.000000	0.006339
2929.000000	0.006373
2928.000000	0.006397
2927.000000	0.006406
2926.000000	0.006398
2925.000000	0.006381
2924.000000	0.006365
2923.000000	0.006355
2922.000000	0.006343
2921.000000	0.006315
2920.000000	0.006263
2919.000000	0.006188
2918.000000	0.006101
2917.000000	0.006014
2916.000000	0.005940
2915.000000	0.005882
2914.000000	0.005831
2913.000000	0.005769
2912.000000	0.005690
2911.000000	0.005603
2910.000000	0.005521
2909.000000	0.005454
2908.000000	0.005406
2907.000000	0.005370
2906.000000	0.005334
2905.000000	0.005282
2904.000000	0.005208
2903.000000	0.005119
2902.000000	0.005034
2901.000000	0.004967
2900.000000	0.004918
2899.000000	0.004875
2898.000000	0.004830
2897.000000	0.004782
2896.000000	0.004738
2895.000000	0.004703
2894.000000	0.004670
2893.000000	0.004627
2892.000000	0.004570
2891.000000	0.004509
2890.000000	0.004463
2889.000000	0.004438
2888.000000	0.004425
2887.000000	0.004412
2886.000000	0.004400
2885.000000	0.004395
2884.000000	0.004403
2883.000000	0.004421
2882.000000	0.004450
2881.000000	0.004495
2880.000000	0.004557
2879.000000	0.004623
2878.000000	0.004678
2877.000000	0.004714
2876.000000	0.004740
2875.000000	0.004764
2874.000000	0.004783
2873.000000	0.004786
2872.000000	0.004770
2871.000000	0.004744
2870.000000	0.004722
2869.000000	0.004710
2868.000000	0.004712
2867.000000	0.004726
2866.000000	0.004750
2865.000000	0.004781
2864.000000	0.004814
2863.000000	0.004848
2862.000000	0.004886
2861.000000	0.004932
2860.000000	0.004988
2859.000000	0.005044
2858.000000	0.005080
2857.000000	0.005085
2856.000000	0.005065
2855.000000	0.005035
2854.000000	0.005004
2853.000000	0.004969
2852.000000	0.004917
2851.000000	0.004842
2850.000000	0.004746
2849.000000	0.004639
2848.000000	0.004533
2847.000000	0.004436
2846.000000	0.004349
2845.000000	0.004266
2844.000000	0.004186
2843.000000	0.004110
2842.000000	0.004041
2841.000000	0.003977
2840.000000	0.003919
2839.000000	0.003866
2838.000000	0.003824
2837.000000	0.003791
2836.000000	0.003768
2835.000000	0.003749
2834.000000	0.003733
2833.000000	0.003719
2832.000000	0.003701
2831.000000	0.003676
2830.000000	0.003644
2829.000000	0.003614
2828.000000	0.003591
2827.000000	0.003579
2826.000000	0.003574
2825.000000	0.003576
2824.000000	0.003581
2823.000000	0.003586
2822.000000	0.003579
2821.000000	0.003553
2820.000000	0.003512
2819.000000	0.003471
2818.000000	0.003446
2817.000000	0.003440
2816.000000	0.003440
2815.000000	0.003436
2814.000000	0.003423
2813.000000	0.003405
2812.000000	0.003382
2811.000000	0.003363
2810.000000	0.003356
2809.000000	0.003367
2808.000000	0.003388
2807.000000	0.003401
2806.000000	0.003395
2805.000000	0.003381
2804.000000	0.003373
2803.000000	0.003381
2802.000000	0.003395
2801.000000	0.003400
2800.000000	0.003386
2799.000000	0.003358
2798.000000	0.003329
2797.000000	0.003312
2796.000000	0.003309
2795.000000	0.003310
2794.000000	0.003306
2793.000000	0.003296
2792.000000	0.003283
2791.000000	0.003271
2790.000000	0.003263
2789.000000	0.003261
2788.000000	0.003266
2787.000000	0.003272
2786.000000	0.003276
2785.000000	0.003278
2784.000000	0.003284
2783.000000	0.003295
2782.000000	0.003306
2781.000000	0.003310
2780.000000	0.003306
2779.000000	0.003296
2778.000000	0.003289
2777.000000	0.003291
2776.000000	0.003301
2775.000000	0.003308
2774.000000	0.003300
2773.000000	0.003277
2772.000000	0.003247
2771.000000	0.003221
2770.000000	0.003200
2769.000000	0.003186
2768.000000	0.003180
2767.000000	0.003184
2766.000000	0.003192
2765.000000	0.003198
2764.000000	0.003197
2763.000000	0.003196
2762.000000	0.003200
2761.000000	0.003213
2760.000000	0.003228
2759.000000	0.003230
2758.000000	0.003214
2757.000000	0.003187
2756.000000	0.003164
2755.000000	0.003151
2754.000000	0.003145
2753.000000	0.003141
2752.000000	0.003142
2751.000000	0.003155
2750.000000	0.003180
2749.000000	0.003202
2748.000000	0.003206
2747.000000	0.003190
2746.000000	0.003163
2745.000000	0.003135
2744.000000	0.003115
2743.000000	0.003102
2742.000000	0.003098
2741.000000	0.003105
2740.000000	0.003128
2739.000000	0.003158
2738.000000	0.003182
2737.000000	0.003193
2736.000000	0.003195
2735.000000	0.003190
2734.000000	0.003177
2733.000000	0.003155
2732.000000	0.003130
2731.000000	0.003112
2730.000000	0.003105
2729.000000	0.003102
2728.000000	0.003097
2727.000000	0.003095
2726.000000	0.003099
2725.000000	0.003108
2724.000000	0.003115
2723.000000	0.003117
2722.000000	0.003113
2721.000000	0.003103
2720.000000	0.003090
2719.000000	0.003078
2718.000000	0.003074
2717.000000	0.003078
2716.000000	0.003084
2715.000000	0.003087
2714.000000	0.003085
2713.000000	0.003082
2712.000000	0.003087
2711.000000	0.003098
2710.000000	0.003107
2709.000000	0.003102
2708.000000	0.003085
2707.000000	0.003068
2706.000000	0.003064
2705.000000	0.003074
2704.000000	0.003088
2703.000000	0.003097
2702.000000	0.003100
2701.000000	0.003100
2700.000000	0.003098
2699.000000	0.003095
2698.000000	0.003093
2697.000000	0.003094
2696.000000	0.003094
2695.000000	0.003085
2694.000000	0.003064
2693.000000	0.003037
2692.000000	0.003016
2691.000000	0.003008
2690.000000	0.003010
2689.000000	0.003013
2688.000000	0.003013
2687.000000	0.003014
2686.000000	0.003024
2685.000000	0.003043
2684.000000	0.003065
2683.000000	0.003082
2682.000000	0.003086
2681.000000	0.003077
2680.000000	0.003059
2679.000000	0.003042
2678.000000	0.003037
2677.000000	0.003045
2676.000000	0.003057
2675.000000	0.003067
2674.000000	0.003072
2673.000000	0.003075
2672.000000	0.003073
2671.000000	0.003061
2670.000000	0.003042
2669.000000	0.003024
2668.000000	0.003016
2667.000000	0.003014
2666.000000	0.003012
2665.000000	0.003012
2664.000000	0.003019
2663.000000	0.003036
2662.000000	0.003060
2661.000000	0.003083
2660.000000	0.003097
2659.000000	0.003097
2658.000000	0.003088
2657.000000	0.003075
2656.000000	0.003065
2655.000000	0.003063
2654.000000	0.003065
2653.000000	0.003068
2652.000000	0.003069
2651.000000	0.003065
2650.000000	0.003057
2649.000000	0.003048
2648.000000	0.003040
2647.000000	0.003035
2646.000000	0.003031
2645.000000	0.003025
2644.000000	0.003016
2643.000000	0.003007
2642.000000	0.002997
2641.000000	0.002986
2640.000000	0.002975
2639.000000	0.002968
2638.000000	0.002971
2637.000000	0.002983
2636.000000	0.002986
2635.000000	0.002970
2634.000000	0.002937
2633.000000	0.002906
2632.000000	0.002890
2631.000000	0.002888
2630.000000	0.002888
2629.000000	0.002885
2628.000000	0.002884
2627.000000	0.002887
2626.000000	0.002895
2625.000000	0.002899
2624.000000	0.002892
2623.000000	0.002870
2622.000000	0.002847
2621.000000	0.002838
2620.000000	0.002844
2619.000000	0.002853
2618.000000	0.002853
2617.000000	0.002850
2616.000000	0.002854
2615.000000	0.002862
2614.000000	0.002865
2613.000000	0.002863
2612.000000	0.002861
2611.000000	0.002862
2610.000000	0.002858
2609.000000	0.002839
2608.000000	0.002806
2607.000000	0.002767
2606.000000	0.002740
2605.000000	0.002734
2604.000000	0.002739
2603.000000	0.002731
2602.000000	0.002704
2601.000000	0.002676
2600.000000	0.002672
2599.000000	0.002693
2598.000000	0.002718
2597.000000	0.002728
2596.000000	0.002728
2595.000000	0.002725
2594.000000	0.002719
2593.000000	0.002700
2592.000000	0.002672
2591.000000	0.002650
2590.000000	0.002648
2589.000000	0.002660
2588.000000	0.002666
2587.000000	0.002657
2586.000000	0.002640
2585.000000	0.002632
2584.000000	0.002629
2583.000000	0.002618
2582.000000	0.002595
2581.000000	0.002578
2580.000000	0.002581
2579.000000	0.002599
2578.000000	0.002617
2577.000000	0.002636
2576.000000	0.002662
2575.000000	0.002691
2574.000000	0.002709
2573.000000	0.002710
2572.000000	0.002703
2571.000000	0.002697
2570.000000	0.002697
2569.000000	0.002698
2568.000000	0.002694
2567.000000	0.002682
2566.000000	0.002661
2565.000000	0.002641
2564.000000	0.002631
2563.000000	0.002633
2562.000000	0.002641
2561.000000	0.002651
2560.000000	0.002661
2559.000000	0.002665
2558.000000	0.002653
2557.000000	0.002625
2556.000000	0.002589
2555.000000	0.002554
2554.000000	0.002523
2553.000000	0.002496
2552.000000	0.002478
2551.000000	0.002477
2550.000000	0.002492
2549.000000	0.002516
2548.000000	0.002536
2547.000000	0.002545
2546.000000	0.002546
2545.000000	0.002548
2544.000000	0.002555
2543.000000	0.002563
2542.000000	0.002572
2541.000000	0.002587
2540.000000	0.002608
2539.000000	0.002627
2538.000000	0.002630
2537.000000	0.002618
2536.000000	0.002592
2535.000000	0.002555
2534.000000	0.002518
2533.000000	0.002508
2532.000000	0.002547
2531.000000	0.002628
2530.000000	0.002709
2529.000000	0.002748
2528.000000	0.002736
2527.000000	0.002692
2526.000000	0.002645
2525.000000	0.002615
2524.000000	0.002615
2523.000000	0.002639
2522.000000	0.002671
2521.000000	0.002690
2520.000000	0.002689
2519.000000	0.002677
2518.000000	0.002661
2517.000000	0.002644
2516.000000	0.002626
2515.000000	0.002617
2514.000000	0.002628
2513.000000	0.002653
2512.000000	0.002666
2511.000000	0.002636
2510.000000	0.002562
2509.000000	0.002480
2508.000000	0.002431
2507.000000	0.002431
2506.000000	0.002463
2505.000000	0.002498
2504.000000	0.002523
2503.000000	0.002533
2502.000000	0.002532
2501.000000	0.002528
2500.000000	0.002534
2499.000000	0.002549
2498.000000	0.002559
2497.000000	0.002551
2496.000000	0.002528
2495.000000	0.002502
2494.000000	0.002480
2493.000000	0.002462
2492.000000	0.002456
2491.000000	0.002470
2490.000000	0.002497
2489.000000	0.002517
2488.000000	0.002515
2487.000000	0.002496
2486.000000	0.002478
2485.000000	0.002475
2484.000000	0.002493
2483.000000	0.002525
2482.000000	0.002551
2481.000000	0.002549
2480.000000	0.002515
2479.000000	0.002472
2478.000000	0.002448
2477.000000	0.002441
2476.000000	0.002431
2475.000000	0.002409
2474.000000	0.002393
2473.000000	0.002404
2472.000000	0.002438
2471.000000	0.002471
2470.000000	0.002484
2469.000000	0.002471
2468.000000	0.002434
2467.000000	0.002381
2466.000000	0.002327
2465.000000	0.002283
2464.000000	0.002258
2463.000000	0.002257
2462.000000	0.002285
2461.000000	0.002339
2460.000000	0.002399
2459.000000	0.002447
2458.000000	0.002484
2457.000000	0.002517
2456.000000	0.002549
2455.000000	0.002571
2454.000000	0.002583
2453.000000	0.002586
2452.000000	0.002575
2451.000000	0.002546
2450.000000	0.002508
2449.000000	0.002487
2448.000000	0.002498
2447.000000	0.002527
2446.000000	0.002548
2445.000000	0.002548
2444.000000	0.002533
2443.000000	0.002518
2442.000000	0.002517
2441.000000	0.002533
2440.000000	0.002560
2439.000000	0.002591
2438.000000	0.002619
2437.000000	0.002635
2436.000000	0.002630
2435.000000	0.002600
2434.000000	0.002559
2433.000000	0.002527
2432.000000	0.002512
2431.000000	0.002500
2430.000000	0.002477
2429.000000	0.002440
2428.000000	0.002394
2427.000000	0.002349
2426.000000	0.002319
2425.000000	0.002320
2424.000000	0.002360
2423.000000	0.002422
2422.000000	0.002479
2421.000000	0.002510
2420.000000	0.002510
2419.000000	0.002489
2418.000000	0.002463
2417.000000	0.002438
2416.000000	0.002410
2415.000000	0.002381
2414.000000	0.002359
2413.000000	0.002349
2412.000000	0.002341
2411.000000	0.002331
2410.000000	0.002329
2409.000000	0.002346
2408.000000	0.002375
2407.000000	0.002399
2406.000000	0.002408
2405.000000	0.002413
2404.000000	0.002423
2403.000000	0.002432
2402.000000	0.002436
2401.000000	0.002436
2400.000000	0.002431
2399.000000	0.002418
2398.000000	0.002399
2397.000000	0.002382
2396.000000	0.002369
2395.000000	0.002353
2394.000000	0.002336
2393.000000	0.002330
2392.000000	0.002345
2391.000000	0.002371
2390.000000	0.002394
2389.000000	0.002411
2388.000000	0.002431
2387.000000	0.002460
2386.000000	0.002489
2385.000000	0.002501
2384.000000	0.002479
2383.000000	0.002422
2382.000000	0.002351
2381.000000	0.002292
2380.000000	0.002265
2379.000000	0.002283
2378.000000	0.002351
2377.000000	0.002448
2376.000000	0.002532
2375.000000	0.002563
2374.000000	0.002541
2373.000000	0.002491
2372.000000	0.002439
2371.000000	0.002390
2370.000000	0.002345
2369.000000	0.002308
2368.000000	0.002282
2367.000000	0.002280
2366.000000	0.002317
2365.000000	0.002396
2364.000000	0.002497
2363.000000	0.002594
2362.000000	0.002674
2361.000000	0.002721
2360.000000	0.002713
2359.000000	0.002646
2358.000000	0.002546
2357.000000	0.002462
2356.000000	0.002440
2355.000000	0.002490
2354.000000	0.002550
2353.000000	0.002546
2352.000000	0.002488
2351.000000	0.002446
2350.000000	0.002460
2349.000000	0.002510
2348.000000	0.002562
2347.000000	0.002586
2346.000000	0.002581
2345.000000	0.002583
2344.000000	0.002611
2343.000000	0.002653
2342.000000	0.002687
2341.000000	0.002707
2340.000000	0.002717
2339.000000	0.002718
2338.000000	0.002702
2337.000000	0.002663
2336.000000	0.002613
2335.000000	0.002567
2334.000000	0.002523
2333.000000	0.002481
2332.000000	0.002458
2331.000000	0.002467
2330.000000	0.002493
2329.000000	0.002517
2328.000000	0.002556
2327.000000	0.002636
2326.000000	0.002748
2325.000000	0.002853
2324.000000	0.002910
2323.000000	0.002914
2322.000000	0.002893
2321.000000	0.002884
2320.000000	0.002905
2319.000000	0.002947
2318.000000	0.002988
2317.000000	0.003009
2316.000000	0.003002
2315.000000	0.002968
2314.000000	0.002913
2313.000000	0.002854
2312.000000	0.002801
2311.000000	0.002753
2310.000000	0.002699
2309.000000	0.002637
2308.000000	0.002579
2307.000000	0.002543
2306.000000	0.002533
2305.000000	0.002538
2304.000000	0.002536
2303.000000	0.002523
2302.000000	0.002520
2301.000000	0.002543
2300.000000	0.002585
2299.000000	0.002617
2298.000000	0.002628
2297.000000	0.002626
2296.000000	0.002616
2295.000000	0.002595
2294.000000	0.002571
2293.000000	0.002561
2292.000000	0.002574
2291.000000	0.002591
2290.000000	0.002596
2289.000000	0.002595
2288.000000	0.002602
2287.000000	0.002621
2286.000000	0.002639
2285.000000	0.002643
2284.000000	0.002618
2283.000000	0.002563
2282.000000	0.002501
2281.000000	0.002459
2280.000000	0.002438
2279.000000	0.002412
2278.000000	0.002372
2277.000000	0.002333
2276.000000	0.002307
2275.000000	0.002274
2274.000000	0.002215
2273.000000	0.002141
2272.000000	0.002086
2271.000000	0.002074
2270.000000	0.002117
2269.000000	0.002215
2268.000000	0.002345
2267.000000	0.002453
2266.000000	0.002492
2265.000000	0.002451
2264.000000	0.002359
2263.000000	0.002270
2262.000000	0.002236
2261.000000	0.002277
2260.000000	0.002358
2259.000000	0.002415
2258.000000	0.002414
2257.000000	0.002372
2256.000000	0.002315
2255.000000	0.002246
2254.000000	0.002169
2253.000000	0.002107
2252.000000	0.002078
2251.000000	0.002088
2250.000000	0.002133
2249.000000	0.002209
2248.000000	0.002283
2247.000000	0.002314
2246.000000	0.002297
2245.000000	0.002271
2244.000000	0.002262
2243.000000	0.002255
2242.000000	0.002222
2241.000000	0.002162
2240.000000	0.002108
2239.000000	0.002111
2238.000000	0.002218
2237.000000	0.002418
2236.000000	0.002623
2235.000000	0.002736
2234.000000	0.002754
2233.000000	0.002743
2232.000000	0.002730
2231.000000	0.002667
2230.000000	0.002525
2229.000000	0.002351
2228.000000	0.002202
2227.000000	0.002080
2226.000000	0.001986
2225.000000	0.001960
2224.000000	0.002029
2223.000000	0.002163
2222.000000	0.002302
2221.000000	0.002411
2220.000000	0.002460
2219.000000	0.002424
2218.000000	0.002328
2217.000000	0.002242
2216.000000	0.002197
2215.000000	0.002145
2214.000000	0.002053
2213.000000	0.001962
2212.000000	0.001925
2211.000000	0.001922
2210.000000	0.001916
2209.000000	0.001927
2208.000000	0.001993
2207.000000	0.002083
2206.000000	0.002111
2205.000000	0.002032
2204.000000	0.001876
2203.000000	0.001703
2202.000000	0.001568
2201.000000	0.001498
2200.000000	0.001477
2199.000000	0.001466
2198.000000	0.001463
2197.000000	0.001500
2196.000000	0.001566
2195.000000	0.001603
2194.000000	0.001589
2193.000000	0.001571
2192.000000	0.001580
2191.000000	0.001581
2190.000000	0.001558
2189.000000	0.001578
2188.000000	0.001696
2187.000000	0.001854
2186.000000	0.001935
2185.000000	0.001886
2184.000000	0.001729
2183.000000	0.001512
2182.000000	0.001306
2181.000000	0.001217
2180.000000	0.001306
2179.000000	0.001511
2178.000000	0.001695
2177.000000	0.001757
2176.000000	0.001681
2175.000000	0.001529
2174.000000	0.001401
2173.000000	0.001370
2172.000000	0.001431
2171.000000	0.001541
2170.000000	0.001692
2169.000000	0.001883
2168.000000	0.002035
2167.000000	0.002045
2166.000000	0.001948
2165.000000	0.001915
2164.000000	0.002033
2163.000000	0.002182
2162.000000	0.002196
2161.000000	0.002009
2160.000000	0.001612
2159.000000	0.001012
2158.000000	0.000385
2157.000000	0.000058
2156.000000	0.000173
2155.000000	0.000544
2154.000000	0.000923
2153.000000	0.001203
2152.000000	0.001362
2151.000000	0.001356
2150.000000	0.001182
2149.000000	0.000960
2148.000000	0.000845
2147.000000	0.000896
2146.000000	0.001067
2145.000000	0.001283
2144.000000	0.001473
2143.000000	0.001593
2142.000000	0.001663
2141.000000	0.001743
2140.000000	0.001845
2139.000000	0.001917
2138.000000	0.001928
2137.000000	0.001909
2136.000000	0.001877
2135.000000	0.001788
2134.000000	0.001620
2133.000000	0.001438
2132.000000	0.001319
2131.000000	0.001260
2130.000000	0.001216
2129.000000	0.001191
2128.000000	0.001229
2127.000000	0.001348
2126.000000	0.001504
2125.000000	0.001641
2124.000000	0.001733
2123.000000	0.001795
2122.000000	0.001860
2121.000000	0.001940
2120.000000	0.001998
2119.000000	0.001983
2118.000000	0.001894
2117.000000	0.001795
2116.000000	0.001758
2115.000000	0.001812
2114.000000	0.001938
2113.000000	0.002088
2112.000000	0.002182
2111.000000	0.002151
2110.000000	0.001995
2109.000000	0.001807
2108.000000	0.001701
2107.000000	0.001730
2106.000000	0.001864
2105.000000	0.002034
2104.000000	0.002169
2103.000000	0.002225
2102.000000	0.002208
2101.000000	0.002164
2100.000000	0.002135
2099.000000	0.002129
2098.000000	0.002125
2097.000000	0.002092
2096.000000	0.002002
2095.000000	0.001865
2094.000000	0.001746
2093.000000	0.001711
2092.000000	0.001763
2091.000000	0.001852
2090.000000	0.001936
2089.000000	0.002013
2088.000000	0.002089
2087.000000	0.002159
2086.000000	0.002220
2085.000000	0.002255
2084.000000	0.002217
2083.000000	0.002077
2082.000000	0.001880
2081.000000	0.001726
2080.000000	0.001673
2079.000000	0.001698
2078.000000	0.001751
2077.000000	0.001793
2076.000000	0.001789
2075.000000	0.001723
2074.000000	0.001639
2073.000000	0.001597
2072.000000	0.001607
2071.000000	0.001630
2070.000000	0.001662
2069.000000	0.001722
2068.000000	0.001785
2067.000000	0.001802
2066.000000	0.001799
2065.000000	0.001850
2064.000000	0.001936
2063.000000	0.001952
2062.000000	0.001880
2061.000000	0.001839
2060.000000	0.001914
2059.000000	0.002031
2058.000000	0.002069
2057.000000	0.002007
2056.000000	0.001888
2055.000000	0.001734
2054.000000	0.001587
2053.000000	0.001548
2052.000000	0.001692
2051.000000	0.001965
2050.000000	0.002229
2049.000000	0.002366
2048.000000	0.002307
2047.000000	0.002047
2046.000000	0.001694
2045.000000	0.001430
2044.000000	0.001353
2043.000000	0.001400
2042.000000	0.001472
2041.000000	0.001548
2040.000000	0.001620
2039.000000	0.001609
2038.000000	0.001450
2037.000000	0.001199
2036.000000	0.000979
2035.000000	0.000873
2034.000000	0.000885
2033.000000	0.000947
2032.000000	0.000919
2031.000000	0.000733
2030.000000	0.000541
2029.000000	0.000582
2028.000000	0.000875
2027.000000	0.001189
2026.000000	0.001341
2025.000000	0.001355
2024.000000	0.001305
2023.000000	0.001213
2022.000000	0.001139
2021.000000	0.001176
2020.000000	0.001259
2019.000000	0.001188
2018.000000	0.000922
2017.000000	0.000682
2016.000000	0.000655
2015.000000	0.000784
2014.000000	0.000969
2013.000000	0.001247
2012.000000	0.001642
2011.000000	0.002013
2010.000000	0.002193
2009.000000	0.002143
2008.000000	0.001899
2007.000000	0.001519
2006.000000	0.001176
2005.000000	0.001129
2004.000000	0.001427
2003.000000	0.001808
2002.000000	0.001974
2001.000000	0.001868
2000.000000	0.001616
1999.000000	0.001342
1998.000000	0.001117
1997.000000	0.000999
1996.000000	0.000978
1995.000000	0.000963
1994.000000	0.000916
1993.000000	0.000920
1992.000000	0.001038
1991.000000	0.001194
1990.000000	0.001276
1989.000000	0.001269
1988.000000	0.001209
1987.000000	0.001117
1986.000000	0.001050
1985.000000	0.001089
1984.000000	0.001215
1983.000000	0.001291
1982.000000	0.001277
1981.000000	0.001310
1980.000000	0.001480
1979.000000	0.001647
1978.000000	0.001619
1977.000000	0.001411
1976.000000	0.001181
1975.000000	0.000994
1974.000000	0.000852
1973.000000	0.000807
1972.000000	0.000873
1971.000000	0.000920
1970.000000	0.000839
1969.000000	0.000703
1968.000000	0.000670
1967.000000	0.000781
1966.000000	0.000945
1965.000000	0.001070
1964.000000	0.001114
1963.000000	0.001085
1962.000000	0.001059
1961.000000	0.001112
1960.000000	0.001179
1959.000000	0.001103
1958.000000	0.000866
1957.000000	0.000650
1956.000000	0.000619
1955.000000	0.000747
1954.000000	0.000913
1953.000000	0.001053
1952.000000	0.001148
1951.000000	0.001173
1950.000000	0.001139
1949.000000	0.001101
1948.000000	0.001084
1947.000000	0.001053
1946.000000	0.001014
1945.000000	0.001036
1944.000000	0.001140
1943.000000	0.001219
1942.000000	0.001191
1941.000000	0.001129
1940.000000	0.001155
1939.000000	0.001267
1938.000000	0.001369
1937.000000	0.001397
1936.000000	0.001362
1935.000000	0.001318
1934.000000	0.001313
1933.000000	0.001353
1932.000000	0.001379
1931.000000	0.001322
1930.000000	0.001208
1929.000000	0.001145
1928.000000	0.001192
1927.000000	0.001292
1926.000000	0.001366
1925.000000	0.001397
1924.000000	0.001403
1923.000000	0.001379
1922.000000	0.001329
1921.000000	0.001298
1920.000000	0.001321
1919.000000	0.001375
1918.000000	0.001413
1917.000000	0.001420
1916.000000	0.001406
1915.000000	0.001379
1914.000000	0.001364
1913.000000	0.001404
1912.000000	0.001498
1911.000000	0.001582
1910.000000	0.001596
1909.000000	0.001550
1908.000000	0.001493
1907.000000	0.001455
1906.000000	0.001443
1905.000000	0.001463
1904.000000	0.001496
1903.000000	0.001495
1902.000000	0.001445
1901.000000	0.001389
1900.000000	0.001369
1899.000000	0.001382
1898.000000	0.001410
1897.000000	0.001454
1896.000000	0.001515
1895.000000	0.001558
1894.000000	0.001553
1893.000000	0.001511
1892.000000	0.001462
1891.000000	0.001426
1890.000000	0.001414
1889.000000	0.001434
1888.000000	0.001462
1887.000000	0.001464
1886.000000	0.001448
1885.000000	0.001450
1884.000000	0.001475
1883.000000	0.001480
1882.000000	0.001437
1881.000000	0.001364
1880.000000	0.001290
1879.000000	0.001220
1878.000000	0.001159
1877.000000	0.001129
1876.000000	0.001129
1875.000000	0.001132
1874.000000	0.001126
1873.000000	0.001131
1872.000000	0.001151
1871.000000	0.001161
1870.000000	0.001151
1869.000000	0.001147
1868.000000	0.001163
1867.000000	0.001167
1866.000000	0.001150
1865.000000	0.001141
1864.000000	0.001157
1863.000000	0.001172
1862.000000	0.001172
1861.000000	0.001171
1860.000000	0.001174
1859.000000	0.001157
1858.000000	0.001116
1857.000000	0.001089
1856.000000	0.001102
1855.000000	0.001127
1854.000000	0.001130
1853.000000	0.001113
1852.000000	0.001083
1851.000000	0.001043
1850.000000	0.001009
1849.000000	0.001022
1848.000000	0.001089
1847.000000	0.001157
1846.000000	0.001190
1845.000000	0.001202
1844.000000	0.001214
1843.000000	0.001200
1842.000000	0.001144
1841.000000	0.001087
1840.000000	0.001072
1839.000000	0.001088
1838.000000	0.001094
1837.000000	0.001074
1836.000000	0.001044
1835.000000	0.001017
1834.000000	0.000998
1833.000000	0.000992
1832.000000	0.000997
1831.000000	0.000999
1830.000000	0.000997
1829.000000	0.001006
1828.000000	0.001025
1827.000000	0.001022
1826.000000	0.000988
1825.000000	0.000952
1824.000000	0.000935
1823.000000	0.000922
1822.000000	0.000896
1821.000000	0.000876
1820.000000	0.000874
1819.000000	0.000876
1818.000000	0.000870
1817.000000	0.000871
1816.000000	0.000889
1815.000000	0.000910
1814.000000	0.000926
1813.000000	0.000954
1812.000000	0.001008
1811.000000	0.001058
1810.000000	0.001068
1809.000000	0.001042
1808.000000	0.001003
1807.000000	0.000974
1806.000000	0.000967
1805.000000	0.000993
1804.000000	0.001041
1803.000000	0.001072
1802.000000	0.001063
1801.000000	0.001038
1800.000000	0.001033
1799.000000	0.001053
1798.000000	0.001076
1797.000000	0.001090
1796.000000	0.001092
1795.000000	0.001085
1794.000000	0.001081
1793.000000	0.001094
1792.000000	0.001103
1791.000000	0.001072
1790.000000	0.001013
1789.000000	0.000974
1788.000000	0.000978
1787.000000	0.001001
1786.000000	0.001014
1785.000000	0.001004
1784.000000	0.000975
1783.000000	0.000927
1782.000000	0.000877
1781.000000	0.000852
1780.000000	0.000860
1779.000000	0.000872
1778.000000	0.000860
1777.000000	0.000835
1776.000000	0.000814
1775.000000	0.000804
1774.000000	0.000810
1773.000000	0.000843
1772.000000	0.000890
1771.000000	0.000903
1770.000000	0.000879
1769.000000	0.000862
1768.000000	0.000885
1767.000000	0.000926
1766.000000	0.000954
1765.000000	0.000977
1764.000000	0.001022
1763.000000	0.001099
1762.000000	0.001196
1761.000000	0.001301
1760.000000	0.001402
1759.000000	0.001507
1758.000000	0.001649
1757.000000	0.001865
1756.000000	0.002123
1755.000000	0.002354
1754.000000	0.002558
1753.000000	0.002805
1752.000000	0.003132
1751.000000	0.003473
1750.000000	0.003751
1749.000000	0.004002
1748.000000	0.004272
1747.000000	0.004523
1746.000000	0.004713
1745.000000	0.004866
1744.000000	0.005004
1743.000000	0.005096
1742.000000	0.005122
1741.000000	0.005126
1740.000000	0.005141
1739.000000	0.005107
1738.000000	0.004963
1737.000000	0.004750
1736.000000	0.004551
1735.000000	0.004413
1734.000000	0.004294
1733.000000	0.004110
1732.000000	0.003844
1731.000000	0.003538
1730.000000	0.003250
1729.000000	0.003023
1728.000000	0.002847
1727.000000	0.002677
1726.000000	0.002495
1725.000000	0.002317
1724.000000	0.002154
1723.000000	0.001990
1722.000000	0.001816
1721.000000	0.001655
1720.000000	0.001529
1719.000000	0.001432
1718.000000	0.001352
1717.000000	0.001289
1716.000000	0.001239
1715.000000	0.001182
1714.000000	0.001128
1713.000000	0.001100
1712.000000	0.001097
1711.000000	0.001098
1710.000000	0.001096
1709.000000	0.001100
1708.000000	0.001108
1707.000000	0.001109
1706.000000	0.001104
1705.000000	0.001108
1704.000000	0.001115
1703.000000	0.001128
1702.000000	0.001183
1701.000000	0.001332
1700.000000	0.001500
1699.000000	0.001555
1698.000000	0.001542
1697.000000	0.001593
1696.000000	0.001731
1695.000000	0.001848
1694.000000	0.001882
1693.000000	0.001893
1692.000000	0.001943
1691.000000	0.002026
1690.000000	0.002102
1689.000000	0.002159
1688.000000	0.002208
1687.000000	0.002264
1686.000000	0.002352
1685.000000	0.002515
1684.000000	0.002706
1683.000000	0.002803
1682.000000	0.002816
1681.000000	0.002831
1680.000000	0.002883
1679.000000	0.002942
1678.000000	0.002987
1677.000000	0.003054
1676.000000	0.003181
1675.000000	0.003331
1674.000000	0.003437
1673.000000	0.003507
1672.000000	0.003588
1671.000000	0.003696
1670.000000	0.003810
1669.000000	0.003916
1668.000000	0.004011
1667.000000	0.004083
1666.000000	0.004140
1665.000000	0.004214
1664.000000	0.004315
1663.000000	0.004403
1662.000000	0.004454
1661.000000	0.004512
1660.000000	0.004611
1659.000000	0.004728
1658.000000	0.004824
1657.000000	0.004899
1656.000000	0.004983
1655.000000	0.005096
1654.000000	0.005211
1653.000000	0.005279
1652.000000	0.005321
1651.000000	0.005341
1650.000000	0.005333
1649.000000	0.005365
1648.000000	0.005469
1647.000000	0.005578
1646.000000	0.005608
1645.000000	0.005582
1644.000000	0.005551
1643.000000	0.005526
1642.000000	0.005513
1641.000000	0.005526
1640.000000	0.005560
1639.000000	0.005600
1638.000000	0.005632
1637.000000	0.005660
1636.000000	0.005674
1635.000000	0.005664
1634.000000	0.005655
1633.000000	0.005666
1632.000000	0.005694
1631.000000	0.005725
1630.000000	0.005744
1629.000000	0.005753
1628.000000	0.005760
1627.000000	0.005760
1626.000000	0.005753
1625.000000	0.005753
1624.000000	0.005759
1623.000000	0.005739
1622.000000	0.005686
1621.000000	0.005631
1620.000000	0.005596
1619.000000	0.005576
1618.000000	0.005557
1617.000000	0.005525
1616.000000	0.005464
1615.000000	0.005368
1614.000000	0.005257
1613.000000	0.005166
1612.000000	0.005106
1611.000000	0.005048
1610.000000	0.004963
1609.000000	0.004857
1608.000000	0.004754
1607.000000	0.004662
1606.000000	0.004580
1605.000000	0.004520
1604.000000	0.004478
1603.000000	0.004433
1602.000000	0.004373
1601.000000	0.004309
1600.000000	0.004245
1599.000000	0.004166
1598.000000	0.004075
1597.000000	0.004003
1596.000000	0.003966
1595.000000	0.003945
1594.000000	0.003916
1593.000000	0.003880
1592.000000	0.003852
1591.000000	0.003834
1590.000000	0.003824
1589.000000	0.003827
1588.000000	0.003832
1587.000000	0.003818
1586.000000	0.003785
1585.000000	0.003757
1584.000000	0.003750
1583.000000	0.003751
1582.000000	0.003746
1581.000000	0.003736
1580.000000	0.003722
1579.000000	0.003697
1578.000000	0.003668
1577.000000	0.003650
1576.000000	0.003632
1575.000000	0.003570
1574.000000	0.003471
1573.000000	0.003387
1572.000000	0.003363
1571.000000	0.003394
1570.000000	0.003439
1569.000000	0.003469
1568.000000	0.003489
1567.000000	0.003499
1566.000000	0.003503
1565.000000	0.003512
1564.000000	0.003528
1563.000000	0.003540
1562.000000	0.003557
1561.000000	0.003601
1560.000000	0.003686
1559.000000	0.003728
1558.000000	0.003716
1557.000000	0.003747
1556.000000	0.003800
1555.000000	0.003839
1554.000000	0.003865
1553.000000	0.003893
1552.000000	0.003932
1551.000000	0.003970
1550.000000	0.004002
1549.000000	0.004047
1548.000000	0.004125
1547.000000	0.004226
1546.000000	0.004330
1545.000000	0.004428
1544.000000	0.004504
1543.000000	0.004547
1542.000000	0.004568
1541.000000	0.004603
1540.000000	0.004653
1539.000000	0.004687
1538.000000	0.004695
1537.000000	0.004699
1536.000000	0.004729
1535.000000	0.004796
1534.000000	0.004877
1533.000000	0.004938
1532.000000	0.004969
1531.000000	0.004979
1530.000000	0.004986
1529.000000	0.005007
1528.000000	0.005045
1527.000000	0.005081
1526.000000	0.005104
1525.000000	0.005123
1524.000000	0.005145
1523.000000	0.005156
1522.000000	0.005156
1521.000000	0.005162
1520.000000	0.005183
1519.000000	0.005197
1518.000000	0.005209
1517.000000	0.005241
1516.000000	0.005280
1515.000000	0.005294
1514.000000	0.005289
1513.000000	0.005292
1512.000000	0.005306
1511.000000	0.005294
1510.000000	0.005248
1509.000000	0.005205
1508.000000	0.005205
1507.000000	0.005219
1506.000000	0.005239
1505.000000	0.005280
1504.000000	0.005290
1503.000000	0.005246
1502.000000	0.005179
1501.000000	0.005119
1500.000000	0.005079
1499.000000	0.005056
1498.000000	0.005075
1497.000000	0.005171
1496.000000	0.005302
1495.000000	0.005360
1494.000000	0.005318
1493.000000	0.005243
1492.000000	0.005202
1491.000000	0.005209
1490.000000	0.005249
1489.000000	0.005308
1488.000000	0.005368
1487.000000	0.005404
1486.000000	0.005421
1485.000000	0.005443
1484.000000	0.005476
1483.000000	0.005508
1482.000000	0.005534
1481.000000	0.005560
1480.000000	0.005587
1479.000000	0.005610
1478.000000	0.005646
1477.000000	0.005711
1476.000000	0.005778
1475.000000	0.005812
1474.000000	0.005851
1473.000000	0.005991
1472.000000	0.006214
1471.000000	0.006382
1470.000000	0.006442
1469.000000	0.006449
1468.000000	0.006450
1467.000000	0.006459
1466.000000	0.006504
1465.000000	0.006626
1464.000000	0.006789
1463.000000	0.006892
1462.000000	0.006898
1461.000000	0.006854
1460.000000	0.006813
1459.000000	0.006804
1458.000000	0.006881
1457.000000	0.007091
1456.000000	0.007319
1455.000000	0.007407
1454.000000	0.007386
1453.000000	0.007365
1452.000000	0.007376
1451.000000	0.007373
1450.000000	0.007336
1449.000000	0.007324
1448.000000	0.007382
1447.000000	0.007463
1446.000000	0.007506
1445.000000	0.007523
1444.000000	0.007554
1443.000000	0.007602
1442.000000	0.007652
1441.000000	0.007703
1440.000000	0.007753
1439.000000	0.007805
1438.000000	0.007891
1437.000000	0.008055
1436.000000	0.008248
1435.000000	0.008348
1434.000000	0.008349
1433.000000	0.008342
1432.000000	0.008393
1431.000000	0.008491
1430.000000	0.008605
1429.000000	0.008727
1428.000000	0.008838
1427.000000	0.008904
1426.000000	0.008938
1425.000000	0.008991
1424.000000	0.009066
1423.000000	0.009093
1422.000000	0.009056
1421.000000	0.009033
1420.000000	0.009107
1419.000000	0.009242
1418.000000	0.009331
1417.000000	0.009362
1416.000000	0.009377
1415.000000	0.009386
1414.000000	0.009382
1413.000000	0.009386
1412.000000	0.009408
1411.000000	0.009424
1410.000000	0.009410
1409.000000	0.009383
1408.000000	0.009355
1407.000000	0.009314
1406.000000	0.009269
1405.000000	0.009264
1404.000000	0.009300
1403.000000	0.009309
1402.000000	0.009265
1401.000000	0.009229
1400.000000	0.009266
1399.000000	0.009348
1398.000000	0.009402
1397.000000	0.009431
1396.000000	0.009484
1395.000000	0.009557
1394.000000	0.009599
1393.000000	0.009598
1392.000000	0.009570
1391.000000	0.009521
1390.000000	0.009458
1389.000000	0.009415
1388.000000	0.009419
1387.000000	0.009438
1386.000000	0.009419
1385.000000	0.009360
1384.000000	0.009291
1383.000000	0.009228
1382.000000	0.009173
1381.000000	0.009133
1380.000000	0.009096
1379.000000	0.009029
1378.000000	0.008917
1377.000000	0.008788
1376.000000	0.008677
1375.000000	0.008581
1374.000000	0.008488
1373.000000	0.008403
1372.000000	0.008328
1371.000000	0.008248
1370.000000	0.008151
1369.000000	0.008041
1368.000000	0.007919
1367.000000	0.007776
1366.000000	0.007628
1365.000000	0.007511
1364.000000	0.007441
1363.000000	0.007383
1362.000000	0.007306
1361.000000	0.007226
1360.000000	0.007161
1359.000000	0.007102
1358.000000	0.007040
1357.000000	0.006991
1356.000000	0.006958
1355.000000	0.006916
1354.000000	0.006847
1353.000000	0.006762
1352.000000	0.006678
1351.000000	0.006582
1350.000000	0.006472
1349.000000	0.006370
1348.000000	0.006301
1347.000000	0.006256
1346.000000	0.006216
1345.000000	0.006179
1344.000000	0.006143
1343.000000	0.006097
1342.000000	0.006037
1341.000000	0.005987
1340.000000	0.005960
1339.000000	0.005940
1338.000000	0.005921
1337.000000	0.005924
1336.000000	0.005951
1335.000000	0.005965
1334.000000	0.005934
1333.000000	0.005869
1332.000000	0.005797
1331.000000	0.005727
1330.000000	0.005660
1329.000000	0.005597
1328.000000	0.005530
1327.000000	0.005444
1326.000000	0.005349
1325.000000	0.005277
1324.000000	0.005237
1323.000000	0.005195
1322.000000	0.005131
1321.000000	0.005058
1320.000000	0.004995
1319.000000	0.004930
1318.000000	0.004854
1317.000000	0.004779
1316.000000	0.004707
1315.000000	0.004620
1314.000000	0.004524
1313.000000	0.004451
1312.000000	0.004409
1311.000000	0.004361
1310.000000	0.004282
1309.000000	0.004199
1308.000000	0.004133
1307.000000	0.004066
1306.000000	0.003978
1305.000000	0.003883
1304.000000	0.003800
1303.000000	0.003717
1302.000000	0.003624
1301.000000	0.003540
1300.000000	0.003478
1299.000000	0.003423
1298.000000	0.003361
1297.000000	0.003300
1296.000000	0.003246
1295.000000	0.003179
1294.000000	0.003102
1293.000000	0.003051
1292.000000	0.003040
1291.000000	0.003031
1290.000000	0.002992
1289.000000	0.002944
1288.000000	0.002905
1287.000000	0.002856
1286.000000	0.002782
1285.000000	0.002715
1284.000000	0.002685
1283.000000	0.002668
1282.000000	0.002623
1281.000000	0.002558
1280.000000	0.002506
1279.000000	0.002473
1278.000000	0.002447
1277.000000	0.002432
1276.000000	0.002437
1275.000000	0.002447
1274.000000	0.002453
1273.000000	0.002475
1272.000000	0.002524
1271.000000	0.002574
1270.000000	0.002597
1269.000000	0.002605
1268.000000	0.002624
1267.000000	0.002648
1266.000000	0.002670
1265.000000	0.002708
1264.000000	0.002775
1263.000000	0.002843
1262.000000	0.002880
1261.000000	0.002899
1260.000000	0.002934
1259.000000	0.002984
1258.000000	0.003035
1257.000000	0.003082
1256.000000	0.003119
1255.000000	0.003124
1254.000000	0.003098
1253.000000	0.003074
1252.000000	0.003078
1251.000000	0.003091
1250.000000	0.003092
1249.000000	0.003088
1248.000000	0.003085
1247.000000	0.003075
1246.000000	0.003060
1245.000000	0.003068
1244.000000	0.003100
1243.000000	0.003118
1242.000000	0.003096
1241.000000	0.003062
1240.000000	0.003048
1239.000000	0.003044
1238.000000	0.003031
1237.000000	0.003018
1236.000000	0.003005
1235.000000	0.002969
1234.000000	0.002896
1233.000000	0.002814
1232.000000	0.002750
1231.000000	0.002689
1230.000000	0.002613
1229.000000	0.002529
1228.000000	0.002443
1227.000000	0.002336
1226.000000	0.002201
1225.000000	0.002059
1224.000000	0.001931
1223.000000	0.001802
1222.000000	0.001668
1221.000000	0.001557
1220.000000	0.001490
1219.000000	0.001447
1218.000000	0.001406
1217.000000	0.001372
1216.000000	0.001351
1215.000000	0.001334
1214.000000	0.001323
1213.000000	0.001342
1212.000000	0.001393
1211.000000	0.001444
1210.000000	0.001487
1209.000000	0.001569
1208.000000	0.001711
1207.000000	0.001872
1206.000000	0.002008
1205.000000	0.002137
1204.000000	0.002293
1203.000000	0.002471
1202.000000	0.002653
1201.000000	0.002845
1200.000000	0.003051
1199.000000	0.003249
1198.000000	0.003421
1197.000000	0.003580
1196.000000	0.003727
1195.000000	0.003833
1194.000000	0.003891
1193.000000	0.003939
1192.000000	0.003998
1191.000000	0.004034
1190.000000	0.004023
1189.000000	0.003991
1188.000000	0.003963
1187.000000	0.003922
1186.000000	0.003846
1185.000000	0.003762
1184.000000	0.003698
1183.000000	0.003653
1182.000000	0.003628
1181.000000	0.003655
1180.000000	0.003739
1179.000000	0.003840
1178.000000	0.003937
1177.000000	0.004063
1176.000000	0.004234
1175.000000	0.004411
1174.000000	0.004564
1173.000000	0.004720
1172.000000	0.004906
1171.000000	0.005091
1170.000000	0.005251
1169.000000	0.005414
1168.000000	0.005616
1167.000000	0.005845
1166.000000	0.006077
1165.000000	0.006322
1164.000000	0.006579
1163.000000	0.006797
1162.000000	0.006948
1161.000000	0.007072
1160.000000	0.007210
1159.000000	0.007345
1158.000000	0.007450
1157.000000	0.007543
1156.000000	0.007650
1155.000000	0.007748
1154.000000	0.007815
1153.000000	0.007877
1152.000000	0.007954
1151.000000	0.008015
1150.000000	0.008034
1149.000000	0.008034
1148.000000	0.008037
1147.000000	0.008026
1146.000000	0.008000
1145.000000	0.008007
1144.000000	0.008067
1143.000000	0.008128
1142.000000	0.008143
1141.000000	0.008137
1140.000000	0.008148
1139.000000	0.008165
1138.000000	0.008168
1137.000000	0.008167
1136.000000	0.008162
1135.000000	0.008112
1134.000000	0.008009
1133.000000	0.007908
1132.000000	0.007862
1131.000000	0.007862
1130.000000	0.007898
1129.000000	0.008003
1128.000000	0.008187
1127.000000	0.008401
1126.000000	0.008608
1125.000000	0.008826
1124.000000	0.009056
1123.000000	0.009240
1122.000000	0.009334
1121.000000	0.009379
1120.000000	0.009428
1119.000000	0.009480
1118.000000	0.009530
1117.000000	0.009613
1116.000000	0.009739
1115.000000	0.009859
1114.000000	0.009941
1113.000000	0.010023
1112.000000	0.010131
1111.000000	0.010228
1110.000000	0.010292
1109.000000	0.010375
1108.000000	0.010512
1107.000000	0.010660
1106.000000	0.010772
1105.000000	0.010871
1104.000000	0.010986
1103.000000	0.011090
1102.000000	0.011164
1101.000000	0.011255
1100.000000	0.011405
1099.000000	0.011583
1098.000000	0.011758
1097.000000	0.011950
1096.000000	0.012167
1095.000000	0.012362
1094.000000	0.012502
1093.000000	0.012616
1092.000000	0.012718
1091.000000	0.012761
1090.000000	0.012727
1089.000000	0.012683
1088.000000	0.012683
1087.000000	0.012696
1086.000000	0.012672
1085.000000	0.012614
1084.000000	0.012523
1083.000000	0.012376
1082.000000	0.012197
1081.000000	0.012070
1080.000000	0.012019
1079.000000	0.011968
1078.000000	0.011866
1077.000000	0.011760
1076.000000	0.011690
1075.000000	0.011615
1074.000000	0.011504
1073.000000	0.011396
1072.000000	0.011316
1071.000000	0.011221
1070.000000	0.011106
1069.000000	0.011043
1068.000000	0.011062
1067.000000	0.011089
1066.000000	0.011069
1065.000000	0.011062
1064.000000	0.011121
1063.000000	0.011192
1062.000000	0.011207
1061.000000	0.011197
1060.000000	0.011209
1059.000000	0.011217
1058.000000	0.011189
1057.000000	0.011169
1056.000000	0.011210
1055.000000	0.011283
1054.000000	0.011343
1053.000000	0.011408
1052.000000	0.011494
1051.000000	0.011555
1050.000000	0.011558
1049.000000	0.011558
1048.000000	0.011610
1047.000000	0.011681
1046.000000	0.011724
1045.000000	0.011748
1044.000000	0.011766
1043.000000	0.011755
1042.000000	0.011724
1041.000000	0.011742
1040.000000	0.011839
1039.000000	0.011950
1038.000000	0.012021
1037.000000	0.012059
1036.000000	0.012067
1035.000000	0.012012
1034.000000	0.011911
1033.000000	0.011861
1032.000000	0.011897
1031.000000	0.011944
1030.000000	0.011949
1029.000000	0.011954
1028.000000	0.011982
1027.000000	0.011972
1026.000000	0.011890
1025.000000	0.011805
1024.000000	0.011769
1023.000000	0.011729
1022.000000	0.011636
1021.000000	0.011537
1020.000000	0.011474
1019.000000	0.011403
1018.000000	0.011285
1017.000000	0.011170
1016.000000	0.011101
1015.000000	0.011027
1014.000000	0.010904
1013.000000	0.010775
1012.000000	0.010679
1011.000000	0.010576
1010.000000	0.010430
1009.000000	0.010288
1008.000000	0.010186
1007.000000	0.010076
1006.000000	0.009920
1005.000000	0.009776
1004.000000	0.009704
1003.000000	0.009662
1002.000000	0.009583
1001.000000	0.009472
1000.000000	0.009365
999.000000	0.009257
998.000000	0.009138
997.000000	0.009042
996.000000	0.008981
995.000000	0.008909
994.000000	0.008799
993.000000	0.008699
992.000000	0.008637
991.000000	0.008562
990.000000	0.008439
989.000000	0.008313
988.000000	0.008222
987.000000	0.008128
986.000000	0.008007
985.000000	0.007914
984.000000	0.007884
983.000000	0.007860
982.000000	0.007787
981.000000	0.007692
980.000000	0.007613
979.000000	0.007524
978.000000	0.007401
977.000000	0.007282
976.000000	0.007190
975.000000	0.007082
974.000000	0.006939
973.000000	0.006828
972.000000	0.006785
971.000000	0.006747
970.000000	0.006654
969.000000	0.006541
968.000000	0.006450
967.000000	0.006344
966.000000	0.006185
965.000000	0.006012
964.000000	0.005862
963.000000	0.005705
962.000000	0.005516
961.000000	0.005350
960.000000	0.005252
959.000000	0.005182
958.000000	0.005094
957.000000	0.005003
956.000000	0.004930
955.000000	0.004831
954.000000	0.004685
953.000000	0.004539
952.000000	0.004423
951.000000	0.004289
950.000000	0.004107
949.000000	0.003938
948.000000	0.003838
947.000000	0.003772
946.000000	0.003686
945.000000	0.003588
944.000000	0.003491
943.000000	0.003362
942.000000	0.003206
941.000000	0.003092
940.000000	0.003057
939.000000	0.003036
938.000000	0.002976
937.000000	0.002908
936.000000	0.002862
935.000000	0.002800
934.000000	0.002699
933.000000	0.002618
932.000000	0.002587
931.000000	0.002550
930.000000	0.002472
929.000000	0.002406
928.000000	0.002390
927.000000	0.002375
926.000000	0.002322
925.000000	0.002286
924.000000	0.002302
923.000000	0.002304
922.000000	0.002232
921.000000	0.002137
920.000000	0.002090
919.000000	0.002083
918.000000	0.002084
917.000000	0.002104
916.000000	0.002135
915.000000	0.002114
914.000000	0.002028
913.000000	0.001965
912.000000	0.001977
911.000000	0.002003
910.000000	0.001983
909.000000	0.001959
908.000000	0.001974
907.000000	0.001984
906.000000	0.001953
905.000000	0.001934
904.000000	0.001959
903.000000	0.001965
902.000000	0.001904
901.000000	0.001839
900.000000	0.001816
899.000000	0.001781
898.000000	0.001692
897.000000	0.001623
896.000000	0.001641
895.000000	0.001695
894.000000	0.001705
893.000000	0.001691
892.000000	0.001699
891.000000	0.001706
890.000000	0.001703
889.000000	0.001770
888.000000	0.001963
887.000000	0.002223
886.000000	0.002484
885.000000	0.002774
884.000000	0.003119
883.000000	0.003448
882.000000	0.003717
881.000000	0.004007
880.000000	0.004400
879.000000	0.004845
878.000000	0.005256
877.000000	0.005639
876.000000	0.006013
875.000000	0.006306
874.000000	0.006452
873.000000	0.006485
872.000000	0.006439
871.000000	0.006260
870.000000	0.005925
869.000000	0.005536
868.000000	0.005187
867.000000	0.004853
866.000000	0.004504
865.000000	0.004206
864.000000	0.004006
863.000000	0.003831
862.000000	0.003601
861.000000	0.003347
860.000000	0.003121
859.000000	0.002895
858.000000	0.002654
857.000000	0.002476
856.000000	0.002400
855.000000	0.002335
854.000000	0.002192
853.000000	0.002013
852.000000	0.001869
851.000000	0.001757
850.000000	0.001669
849.000000	0.001645
848.000000	0.001667
847.000000	0.001618
846.000000	0.001450
845.000000	0.001280
844.000000	0.001203
843.000000	0.001165
842.000000	0.001101
841.000000	0.001066
840.000000	0.001102
839.000000	0.001123
838.000000	0.001057
837.000000	0.000976
836.000000	0.000960
835.000000	0.000957
834.000000	0.000907
833.000000	0.000866
832.000000	0.000888
831.000000	0.000892
830.000000	0.000804
829.000000	0.000703
828.000000	0.000689
827.000000	0.000717
826.000000	0.000704
825.000000	0.000705
824.000000	0.000814
823.000000	0.001011
822.000000	0.001246
821.000000	0.001565
820.000000	0.002005
819.000000	0.002475
818.000000	0.002858
817.000000	0.003140
816.000000	0.003316
815.000000	0.003327
814.000000	0.003170
813.000000	0.002948
812.000000	0.002714
811.000000	0.002398
810.000000	0.002000
809.000000	0.001689
808.000000	0.001584
807.000000	0.001576
806.000000	0.001516
805.000000	0.001423
804.000000	0.001384
803.000000	0.001364
802.000000	0.001310
801.000000	0.001281
800.000000	0.001337
799.000000	0.001400
798.000000	0.001381
797.000000	0.001334
796.000000	0.001346
795.000000	0.001384
794.000000	0.001378
793.000000	0.001358
792.000000	0.001369
791.000000	0.001370
790.000000	0.001334
789.000000	0.001327
788.000000	0.001377
787.000000	0.001385
786.000000	0.001285
785.000000	0.001179
784.000000	0.001180
783.000000	0.001257
782.000000	0.001325
781.000000	0.001388
780.000000	0.001470
779.000000	0.001529
778.000000	0.001559
777.000000	0.001647
776.000000	0.001809
775.000000	0.001907
774.000000	0.001847
773.000000	0.001730
772.000000	0.001696
771.000000	0.001735
770.000000	0.001776
769.000000	0.001838
768.000000	0.001948
767.000000	0.002028
766.000000	0.002007
765.000000	0.001955
764.000000	0.001976
763.000000	0.002058
762.000000	0.002141
761.000000	0.002226
760.000000	0.002321
759.000000	0.002382
758.000000	0.002419
757.000000	0.002535
756.000000	0.002763
755.000000	0.002989
754.000000	0.003129
753.000000	0.003261
752.000000	0.003458
751.000000	0.003642
750.000000	0.003715
749.000000	0.003717
748.000000	0.003719
747.000000	0.003698
746.000000	0.003633
745.000000	0.003594
744.000000	0.003600
743.000000	0.003528
742.000000	0.003308
741.000000	0.003063
740.000000	0.002923
739.000000	0.002839
738.000000	0.002708
737.000000	0.002564
736.000000	0.002490
735.000000	0.002453
734.000000	0.002391
733.000000	0.002340
732.000000	0.002342
731.000000	0.002327
730.000000	0.002227
729.000000	0.002109
728.000000	0.002053
727.000000	0.002013
726.000000	0.001927
725.000000	0.001847
724.000000	0.001821
723.000000	0.001775
722.000000	0.001638
721.000000	0.001487
720.000000	0.001421
719.000000	0.001425
718.000000	0.001471
717.000000	0.001648
716.000000	0.002024
715.000000	0.002496
714.000000	0.002886
713.000000	0.003117
712.000000	0.003170
711.000000	0.003009
710.000000	0.002675
709.000000	0.002330
708.000000	0.002097
707.000000	0.001937
706.000000	0.001793
705.000000	0.001715
704.000000	0.001721
703.000000	0.001712
702.000000	0.001640
701.000000	0.001614
700.000000	0.001717
699.000000	0.001851
698.000000	0.001910
697.000000	0.001942
696.000000	0.002008
695.000000	0.002039
694.000000	0.001967
693.000000	0.001861
692.000000	0.001795
691.000000	0.001713
690.000000	0.001580
689.000000	0.001499
688.000000	0.001544
687.000000	0.001607
686.000000	0.001577
685.000000	0.001520
684.000000	0.001535
683.000000	0.001579
682.000000	0.001581
681.000000	0.001601
680.000000	0.001705
679.000000	0.001820
678.000000	0.001848
677.000000	0.001848
676.000000	0.001896
675.000000	0.001925
674.000000	0.001861
673.000000	0.001771
672.000000	0.001700
671.000000	0.001520
670.000000	0.001103
669.000000	0.000579
668.000000	0.000376
667.000000	0.000574
666.000000	0.000707
665.000000	0.000794
664.000000	0.000994
663.000000	0.001234
662.000000	0.001454
661.000000	0.001790
660.000000	0.002373
659.000000	0.003065
658.000000	0.003606
657.000000	0.003910
656.000000	0.003979
655.000000	0.003739
654.000000	0.003232
653.000000	0.002725
652.000000	0.002389
651.000000	0.002121
650.000000	0.001851
649.000000	0.001757
648.000000	0.001964
647.000000	0.002315
646.000000	0.002641
645.000000	0.002986
644.000000	0.003358
643.000000	0.003556
642.000000	0.003450
641.000000	0.003204
640.000000	0.002994
639.000000	0.002748
638.000000	0.002387
637.000000	0.002051
636.000000	0.001860
635.000000	0.001700
634.000000	0.001468
633.000000	0.001273
632.000000	0.001207
631.000000	0.001144
630.000000	0.000993
629.000000	0.000885
628.000000	0.000903
627.000000	0.000896
626.000000	0.000762
625.000000	0.000652
624.000000	0.000673
623.000000	0.000659
622.000000	0.000502
621.000000	0.000421
620.000000	0.000646
619.000000	0.001072
618.000000	0.001488
617.000000	0.001888
616.000000	0.002302
615.000000	0.002569
614.000000	0.002582
613.000000	0.002533
612.000000	0.002627
611.000000	0.002772
610.000000	0.002820
609.000000	0.002893
608.000000	0.003181
607.000000	0.003616
606.000000	0.004038
605.000000	0.004460
604.000000	0.004916
603.000000	0.005261
602.000000	0.005399
601.000000	0.005501
600.000000	0.005739
599.000000	0.006026
598.000000	0.006247
597.000000	0.006503
596.000000	0.006869
595.000000	0.007183
594.000000	0.007311
593.000000	0.007398
592.000000	0.007572
591.000000	0.007681
590.000000	0.007594
589.000000	0.007479
588.000000	0.007495
587.000000	0.007483
586.000000	0.007257
585.000000	0.006930
584.000000	0.006690
583.000000	0.006502
582.000000	0.006300
581.000000	0.006212
580.000000	0.006294
579.000000	0.006319
578.000000	0.006114
577.000000	0.005846
576.000000	0.005724
575.000000	0.005691
574.000000	0.005648
573.000000	0.005668
572.000000	0.005733
571.000000	0.005599
570.000000	0.005198
569.000000	0.004850
568.000000	0.004785
567.000000	0.004791
566.000000	0.004623
565.000000	0.004375
564.000000	0.004161
563.000000	0.003823
562.000000	0.003289
561.000000	0.002836
560.000000	0.002659
559.000000	0.002550
558.000000	0.002317
557.000000	0.002150
556.000000	0.002217
555.000000	0.002284
554.000000	0.002114
553.000000	0.001872
552.000000	0.001763
551.000000	0.001648
550.000000	0.001394
549.000000	0.001228
548.000000	0.001340
547.000000	0.001481
546.000000	0.001374
545.000000	0.001192
544.000000	0.001196
543.000000	0.001262
542.000000	0.001167
541.000000	0.001010
540.000000	0.000942
539.000000	0.000814
538.000000	0.000487
537.000000	0.000171
536.000000	0.000100
535.000000	0.000168
534.000000	0.000243
533.000000	0.000482
532.000000	0.000987
531.000000	0.001485
530.000000	0.001731
529.000000	0.001867
528.000000	0.002070
527.000000	0.002206
526.000000	0.002201
525.000000	0.002335
524.000000	0.002715
523.000000	0.002949
522.000000	0.002757
521.000000	0.002425
520.000000	0.002312
519.000000	0.002323
518.000000	0.002256
517.000000	0.002284
516.000000	0.002528
515.000000	0.002648
514.000000	0.002398
513.000000	0.002078
512.000000	0.002030
511.000000	0.002119
510.000000	0.002111
509.000000	0.002156
508.000000	0.002432
507.000000	0.002710
506.000000	0.002772
505.000000	0.002854
504.000000	0.003178
503.000000	0.003478
502.000000	0.003467
501.000000	0.003378
500.000000	0.003473
499.000000	0.003527
498.000000	0.003311
497.000000	0.003063
496.000000	0.003025
495.000000	0.002975
494.000000	0.002711
493.000000	0.002542
492.000000	0.002766
491.000000	0.003071
490.000000	0.003067
489.000000	0.002931
488.000000	0.002955
487.000000	0.002961
486.000000	0.002708
485.000000	0.002438
484.000000	0.002422
483.000000	0.002385
482.000000	0.002039
481.000000	0.001682
480.000000	0.001669
479.000000	0.001816
478.000000	0.001862
477.000000	0.002008
476.000000	0.002424
475.000000	0.002721
474.000000	0.002549
473.000000	0.002263
472.000000	0.002313
471.000000	0.002361
470.000000	0.001982
469.000000	0.001553
468.000000	0.001629
467.000000	0.002061
466.000000	0.002352
465.000000	0.002433
464.000000	0.002393
463.000000	0.001993
462.000000	0.001191
461.000000	0.000590
460.000000	0.000620
459.000000	0.000834
458.000000	0.000664
457.000000	0.000434
456.000000	0.000641
455.000000	0.000945
454.000000	0.000947
453.000000	0.000903
452.000000	0.001076
451.000000	0.001078
450.000000	0.000662
