PE IR       SUBTECH     SPECTRUM    ASCII       PEDS        4.00        
   -1
P12-Vert026_1.ASC
23/06/09
10:52:51.00
23/06/09
11:23:17.00
uco
Sample 026 By uco Date Friday, June 09 2023
450.000000
#HDR
-1
-1
#GR
cm-1
A
1.0
0.0
4000.000000
-1.000000
3551
8
0.005152
-0.000562
#DATA
4000.000000	0.000187
3999.000000	0.000180
3998.000000	0.000179
3997.000000	0.000185
3996.000000	0.000194
3995.000000	0.000197
3994.000000	0.000192
3993.000000	0.000187
3992.000000	0.000192
3991.000000	0.000207
3990.000000	0.000226
3989.000000	0.000236
3988.000000	0.000237
3987.000000	0.000235
3986.000000	0.000237
3985.000000	0.000247
3984.000000	0.000262
3983.000000	0.000276
3982.000000	0.000285
3981.000000	0.000282
3980.000000	0.000268
3979.000000	0.000244
3978.000000	0.000222
3977.000000	0.000211
3976.000000	0.000215
3975.000000	0.000229
3974.000000	0.000242
3973.000000	0.000247
3972.000000	0.000240
3971.000000	0.000225
3970.000000	0.000207
3969.000000	0.000195
3968.000000	0.000194
3967.000000	0.000203
3966.000000	0.000217
3965.000000	0.000229
3964.000000	0.000235
3963.000000	0.000233
3962.000000	0.000225
3961.000000	0.000215
3960.000000	0.000211
3959.000000	0.000218
3958.000000	0.000237
3957.000000	0.000260
3956.000000	0.000276
3955.000000	0.000278
3954.000000	0.000268
3953.000000	0.000254
3952.000000	0.000244
3951.000000	0.000242
3950.000000	0.000247
3949.000000	0.000254
3948.000000	0.000261
3947.000000	0.000265
3946.000000	0.000265
3945.000000	0.000261
3944.000000	0.000252
3943.000000	0.000241
3942.000000	0.000231
3941.000000	0.000226
3940.000000	0.000225
3939.000000	0.000232
3938.000000	0.000245
3937.000000	0.000262
3936.000000	0.000276
3935.000000	0.000281
3934.000000	0.000280
3933.000000	0.000278
3932.000000	0.000282
3931.000000	0.000287
3930.000000	0.000286
3929.000000	0.000271
3928.000000	0.000248
3927.000000	0.000235
3926.000000	0.000248
3925.000000	0.000287
3924.000000	0.000333
3923.000000	0.000362
3922.000000	0.000363
3921.000000	0.000342
3920.000000	0.000318
3919.000000	0.000299
3918.000000	0.000285
3917.000000	0.000270
3916.000000	0.000254
3915.000000	0.000243
3914.000000	0.000244
3913.000000	0.000257
3912.000000	0.000275
3911.000000	0.000290
3910.000000	0.000296
3909.000000	0.000287
3908.000000	0.000261
3907.000000	0.000220
3906.000000	0.000172
3905.000000	0.000135
3904.000000	0.000124
3903.000000	0.000144
3902.000000	0.000182
3901.000000	0.000227
3900.000000	0.000267
3899.000000	0.000294
3898.000000	0.000299
3897.000000	0.000281
3896.000000	0.000242
3895.000000	0.000194
3894.000000	0.000151
3893.000000	0.000127
3892.000000	0.000134
3891.000000	0.000166
3890.000000	0.000201
3889.000000	0.000223
3888.000000	0.000234
3887.000000	0.000246
3886.000000	0.000258
3885.000000	0.000255
3884.000000	0.000229
3883.000000	0.000188
3882.000000	0.000151
3881.000000	0.000141
3880.000000	0.000160
3879.000000	0.000192
3878.000000	0.000215
3877.000000	0.000225
3876.000000	0.000236
3875.000000	0.000248
3874.000000	0.000252
3873.000000	0.000239
3872.000000	0.000217
3871.000000	0.000208
3870.000000	0.000221
3869.000000	0.000242
3868.000000	0.000245
3867.000000	0.000230
3866.000000	0.000216
3865.000000	0.000217
3864.000000	0.000228
3863.000000	0.000236
3862.000000	0.000237
3861.000000	0.000241
3860.000000	0.000258
3859.000000	0.000285
3858.000000	0.000312
3857.000000	0.000332
3856.000000	0.000341
3855.000000	0.000343
3854.000000	0.000341
3853.000000	0.000348
3852.000000	0.000364
3851.000000	0.000367
3850.000000	0.000352
3849.000000	0.000330
3848.000000	0.000306
3847.000000	0.000283
3846.000000	0.000260
3845.000000	0.000243
3844.000000	0.000236
3843.000000	0.000241
3842.000000	0.000257
3841.000000	0.000276
3840.000000	0.000290
3839.000000	0.000290
3838.000000	0.000276
3837.000000	0.000255
3836.000000	0.000233
3835.000000	0.000217
3834.000000	0.000216
3833.000000	0.000238
3832.000000	0.000275
3831.000000	0.000311
3830.000000	0.000330
3829.000000	0.000333
3828.000000	0.000332
3827.000000	0.000331
3826.000000	0.000325
3825.000000	0.000306
3824.000000	0.000280
3823.000000	0.000263
3822.000000	0.000266
3821.000000	0.000285
3820.000000	0.000300
3819.000000	0.000299
3818.000000	0.000290
3817.000000	0.000289
3816.000000	0.000303
3815.000000	0.000317
3814.000000	0.000317
3813.000000	0.000302
3812.000000	0.000281
3811.000000	0.000264
3810.000000	0.000254
3809.000000	0.000252
3808.000000	0.000253
3807.000000	0.000248
3806.000000	0.000231
3805.000000	0.000204
3804.000000	0.000183
3803.000000	0.000186
3802.000000	0.000211
3801.000000	0.000240
3800.000000	0.000255
3799.000000	0.000252
3798.000000	0.000245
3797.000000	0.000251
3796.000000	0.000268
3795.000000	0.000284
3794.000000	0.000288
3793.000000	0.000285
3792.000000	0.000285
3791.000000	0.000292
3790.000000	0.000299
3789.000000	0.000303
3788.000000	0.000302
3787.000000	0.000301
3786.000000	0.000297
3785.000000	0.000291
3784.000000	0.000282
3783.000000	0.000276
3782.000000	0.000279
3781.000000	0.000292
3780.000000	0.000308
3779.000000	0.000322
3778.000000	0.000325
3777.000000	0.000315
3776.000000	0.000295
3775.000000	0.000273
3774.000000	0.000254
3773.000000	0.000242
3772.000000	0.000242
3771.000000	0.000260
3770.000000	0.000298
3769.000000	0.000344
3768.000000	0.000379
3767.000000	0.000394
3766.000000	0.000391
3765.000000	0.000379
3764.000000	0.000359
3763.000000	0.000332
3762.000000	0.000303
3761.000000	0.000279
3760.000000	0.000263
3759.000000	0.000260
3758.000000	0.000269
3757.000000	0.000286
3756.000000	0.000301
3755.000000	0.000305
3754.000000	0.000289
3753.000000	0.000254
3752.000000	0.000222
3751.000000	0.000225
3750.000000	0.000271
3749.000000	0.000316
3748.000000	0.000326
3747.000000	0.000308
3746.000000	0.000294
3745.000000	0.000306
3744.000000	0.000331
3743.000000	0.000339
3742.000000	0.000314
3741.000000	0.000274
3740.000000	0.000246
3739.000000	0.000240
3738.000000	0.000256
3737.000000	0.000277
3736.000000	0.000278
3735.000000	0.000245
3734.000000	0.000200
3733.000000	0.000177
3732.000000	0.000186
3731.000000	0.000206
3730.000000	0.000214
3729.000000	0.000208
3728.000000	0.000201
3727.000000	0.000207
3726.000000	0.000223
3725.000000	0.000239
3724.000000	0.000245
3723.000000	0.000241
3722.000000	0.000230
3721.000000	0.000212
3720.000000	0.000192
3719.000000	0.000175
3718.000000	0.000166
3717.000000	0.000165
3716.000000	0.000168
3715.000000	0.000174
3714.000000	0.000189
3713.000000	0.000216
3712.000000	0.000250
3711.000000	0.000278
3710.000000	0.000295
3709.000000	0.000297
3708.000000	0.000280
3707.000000	0.000247
3706.000000	0.000207
3705.000000	0.000174
3704.000000	0.000157
3703.000000	0.000160
3702.000000	0.000177
3701.000000	0.000201
3700.000000	0.000225
3699.000000	0.000242
3698.000000	0.000250
3697.000000	0.000249
3696.000000	0.000242
3695.000000	0.000237
3694.000000	0.000237
3693.000000	0.000240
3692.000000	0.000240
3691.000000	0.000234
3690.000000	0.000234
3689.000000	0.000256
3688.000000	0.000288
3687.000000	0.000304
3686.000000	0.000292
3685.000000	0.000267
3684.000000	0.000252
3683.000000	0.000256
3682.000000	0.000275
3681.000000	0.000294
3680.000000	0.000295
3679.000000	0.000271
3678.000000	0.000225
3677.000000	0.000172
3676.000000	0.000132
3675.000000	0.000130
3674.000000	0.000157
3673.000000	0.000182
3672.000000	0.000194
3671.000000	0.000206
3670.000000	0.000226
3669.000000	0.000257
3668.000000	0.000291
3667.000000	0.000315
3666.000000	0.000331
3665.000000	0.000351
3664.000000	0.000379
3663.000000	0.000409
3662.000000	0.000430
3661.000000	0.000437
3660.000000	0.000434
3659.000000	0.000430
3658.000000	0.000426
3657.000000	0.000417
3656.000000	0.000394
3655.000000	0.000357
3654.000000	0.000315
3653.000000	0.000280
3652.000000	0.000262
3651.000000	0.000262
3650.000000	0.000271
3649.000000	0.000287
3648.000000	0.000311
3647.000000	0.000336
3646.000000	0.000352
3645.000000	0.000361
3644.000000	0.000369
3643.000000	0.000379
3642.000000	0.000383
3641.000000	0.000369
3640.000000	0.000336
3639.000000	0.000298
3638.000000	0.000276
3637.000000	0.000281
3636.000000	0.000309
3635.000000	0.000345
3634.000000	0.000374
3633.000000	0.000390
3632.000000	0.000401
3631.000000	0.000417
3630.000000	0.000438
3629.000000	0.000451
3628.000000	0.000452
3627.000000	0.000440
3626.000000	0.000420
3625.000000	0.000405
3624.000000	0.000400
3623.000000	0.000401
3622.000000	0.000396
3621.000000	0.000381
3620.000000	0.000364
3619.000000	0.000360
3618.000000	0.000374
3617.000000	0.000394
3616.000000	0.000413
3615.000000	0.000437
3614.000000	0.000474
3613.000000	0.000523
3612.000000	0.000570
3611.000000	0.000604
3610.000000	0.000622
3609.000000	0.000627
3608.000000	0.000622
3607.000000	0.000607
3606.000000	0.000584
3605.000000	0.000558
3604.000000	0.000532
3603.000000	0.000508
3602.000000	0.000489
3601.000000	0.000477
3600.000000	0.000477
3599.000000	0.000485
3598.000000	0.000494
3597.000000	0.000499
3596.000000	0.000503
3595.000000	0.000519
3594.000000	0.000555
3593.000000	0.000601
3592.000000	0.000641
3591.000000	0.000663
3590.000000	0.000668
3589.000000	0.000658
3588.000000	0.000642
3587.000000	0.000632
3586.000000	0.000636
3585.000000	0.000650
3584.000000	0.000669
3583.000000	0.000692
3582.000000	0.000718
3581.000000	0.000745
3580.000000	0.000768
3579.000000	0.000783
3578.000000	0.000794
3577.000000	0.000807
3576.000000	0.000825
3575.000000	0.000844
3574.000000	0.000853
3573.000000	0.000849
3572.000000	0.000838
3571.000000	0.000832
3570.000000	0.000836
3569.000000	0.000843
3568.000000	0.000839
3567.000000	0.000821
3566.000000	0.000805
3565.000000	0.000812
3564.000000	0.000844
3563.000000	0.000889
3562.000000	0.000931
3561.000000	0.000957
3560.000000	0.000963
3559.000000	0.000953
3558.000000	0.000935
3557.000000	0.000918
3556.000000	0.000905
3555.000000	0.000901
3554.000000	0.000908
3553.000000	0.000928
3552.000000	0.000959
3551.000000	0.000996
3550.000000	0.001031
3549.000000	0.001057
3548.000000	0.001075
3547.000000	0.001084
3546.000000	0.001086
3545.000000	0.001085
3544.000000	0.001087
3543.000000	0.001094
3542.000000	0.001108
3541.000000	0.001123
3540.000000	0.001140
3539.000000	0.001159
3538.000000	0.001183
3537.000000	0.001210
3536.000000	0.001234
3535.000000	0.001250
3534.000000	0.001254
3533.000000	0.001247
3532.000000	0.001231
3531.000000	0.001213
3530.000000	0.001201
3529.000000	0.001204
3528.000000	0.001219
3527.000000	0.001239
3526.000000	0.001255
3525.000000	0.001261
3524.000000	0.001258
3523.000000	0.001252
3522.000000	0.001249
3521.000000	0.001253
3520.000000	0.001272
3519.000000	0.001304
3518.000000	0.001338
3517.000000	0.001360
3516.000000	0.001362
3515.000000	0.001352
3514.000000	0.001344
3513.000000	0.001345
3512.000000	0.001357
3511.000000	0.001376
3510.000000	0.001397
3509.000000	0.001411
3508.000000	0.001410
3507.000000	0.001396
3506.000000	0.001382
3505.000000	0.001381
3504.000000	0.001394
3503.000000	0.001413
3502.000000	0.001427
3501.000000	0.001431
3500.000000	0.001427
3499.000000	0.001421
3498.000000	0.001420
3497.000000	0.001428
3496.000000	0.001443
3495.000000	0.001461
3494.000000	0.001475
3493.000000	0.001482
3492.000000	0.001483
3491.000000	0.001482
3490.000000	0.001483
3489.000000	0.001485
3488.000000	0.001487
3487.000000	0.001487
3486.000000	0.001486
3485.000000	0.001484
3484.000000	0.001486
3483.000000	0.001491
3482.000000	0.001498
3481.000000	0.001503
3480.000000	0.001507
3479.000000	0.001515
3478.000000	0.001532
3477.000000	0.001556
3476.000000	0.001577
3475.000000	0.001587
3474.000000	0.001583
3473.000000	0.001568
3472.000000	0.001554
3471.000000	0.001552
3470.000000	0.001567
3469.000000	0.001594
3468.000000	0.001622
3467.000000	0.001645
3466.000000	0.001660
3465.000000	0.001666
3464.000000	0.001664
3463.000000	0.001658
3462.000000	0.001655
3461.000000	0.001658
3460.000000	0.001661
3459.000000	0.001658
3458.000000	0.001644
3457.000000	0.001622
3456.000000	0.001602
3455.000000	0.001597
3454.000000	0.001612
3453.000000	0.001639
3452.000000	0.001663
3451.000000	0.001677
3450.000000	0.001688
3449.000000	0.001705
3448.000000	0.001727
3447.000000	0.001746
3446.000000	0.001756
3445.000000	0.001759
3444.000000	0.001759
3443.000000	0.001759
3442.000000	0.001759
3441.000000	0.001762
3440.000000	0.001767
3439.000000	0.001775
3438.000000	0.001787
3437.000000	0.001801
3436.000000	0.001809
3435.000000	0.001810
3434.000000	0.001806
3433.000000	0.001805
3432.000000	0.001809
3431.000000	0.001813
3430.000000	0.001819
3429.000000	0.001831
3428.000000	0.001851
3427.000000	0.001874
3426.000000	0.001894
3425.000000	0.001909
3424.000000	0.001919
3423.000000	0.001920
3422.000000	0.001914
3421.000000	0.001902
3420.000000	0.001891
3419.000000	0.001882
3418.000000	0.001878
3417.000000	0.001884
3416.000000	0.001903
3415.000000	0.001933
3414.000000	0.001964
3413.000000	0.001988
3412.000000	0.002000
3411.000000	0.001999
3410.000000	0.001991
3409.000000	0.001989
3408.000000	0.002004
3407.000000	0.002038
3406.000000	0.002076
3405.000000	0.002096
3404.000000	0.002090
3403.000000	0.002068
3402.000000	0.002045
3401.000000	0.002032
3400.000000	0.002032
3399.000000	0.002046
3398.000000	0.002069
3397.000000	0.002093
3396.000000	0.002111
3395.000000	0.002128
3394.000000	0.002151
3393.000000	0.002182
3392.000000	0.002208
3391.000000	0.002216
3390.000000	0.002204
3389.000000	0.002180
3388.000000	0.002157
3387.000000	0.002145
3386.000000	0.002151
3385.000000	0.002169
3384.000000	0.002182
3383.000000	0.002178
3382.000000	0.002157
3381.000000	0.002134
3380.000000	0.002121
3379.000000	0.002123
3378.000000	0.002132
3377.000000	0.002147
3376.000000	0.002165
3375.000000	0.002187
3374.000000	0.002213
3373.000000	0.002240
3372.000000	0.002262
3371.000000	0.002273
3370.000000	0.002273
3369.000000	0.002267
3368.000000	0.002262
3367.000000	0.002262
3366.000000	0.002267
3365.000000	0.002273
3364.000000	0.002281
3363.000000	0.002287
3362.000000	0.002289
3361.000000	0.002288
3360.000000	0.002284
3359.000000	0.002282
3358.000000	0.002287
3357.000000	0.002297
3356.000000	0.002307
3355.000000	0.002306
3354.000000	0.002296
3353.000000	0.002288
3352.000000	0.002293
3351.000000	0.002308
3350.000000	0.002322
3349.000000	0.002328
3348.000000	0.002328
3347.000000	0.002331
3346.000000	0.002341
3345.000000	0.002357
3344.000000	0.002371
3343.000000	0.002376
3342.000000	0.002371
3341.000000	0.002358
3340.000000	0.002351
3339.000000	0.002361
3338.000000	0.002395
3337.000000	0.002441
3336.000000	0.002479
3335.000000	0.002494
3334.000000	0.002490
3333.000000	0.002488
3332.000000	0.002501
3331.000000	0.002524
3330.000000	0.002542
3329.000000	0.002547
3328.000000	0.002545
3327.000000	0.002548
3326.000000	0.002558
3325.000000	0.002569
3324.000000	0.002577
3323.000000	0.002579
3322.000000	0.002580
3321.000000	0.002584
3320.000000	0.002595
3319.000000	0.002614
3318.000000	0.002634
3317.000000	0.002647
3316.000000	0.002647
3315.000000	0.002637
3314.000000	0.002626
3313.000000	0.002625
3312.000000	0.002633
3311.000000	0.002642
3310.000000	0.002643
3309.000000	0.002634
3308.000000	0.002622
3307.000000	0.002614
3306.000000	0.002609
3305.000000	0.002602
3304.000000	0.002595
3303.000000	0.002593
3302.000000	0.002605
3301.000000	0.002627
3300.000000	0.002649
3299.000000	0.002660
3298.000000	0.002658
3297.000000	0.002650
3296.000000	0.002649
3295.000000	0.002661
3294.000000	0.002683
3293.000000	0.002702
3292.000000	0.002707
3291.000000	0.002696
3290.000000	0.002675
3289.000000	0.002653
3288.000000	0.002640
3287.000000	0.002645
3286.000000	0.002668
3285.000000	0.002698
3284.000000	0.002719
3283.000000	0.002721
3282.000000	0.002710
3281.000000	0.002700
3280.000000	0.002696
3279.000000	0.002694
3278.000000	0.002685
3277.000000	0.002670
3276.000000	0.002661
3275.000000	0.002668
3274.000000	0.002690
3273.000000	0.002707
3272.000000	0.002701
3271.000000	0.002671
3270.000000	0.002637
3269.000000	0.002617
3268.000000	0.002615
3267.000000	0.002617
3266.000000	0.002612
3265.000000	0.002599
3264.000000	0.002585
3263.000000	0.002579
3262.000000	0.002585
3261.000000	0.002600
3260.000000	0.002617
3259.000000	0.002628
3258.000000	0.002631
3257.000000	0.002632
3256.000000	0.002636
3255.000000	0.002646
3254.000000	0.002658
3253.000000	0.002669
3252.000000	0.002672
3251.000000	0.002662
3250.000000	0.002634
3249.000000	0.002587
3248.000000	0.002535
3247.000000	0.002493
3246.000000	0.002478
3245.000000	0.002491
3244.000000	0.002514
3243.000000	0.002532
3242.000000	0.002538
3241.000000	0.002535
3240.000000	0.002528
3239.000000	0.002517
3238.000000	0.002504
3237.000000	0.002497
3236.000000	0.002499
3235.000000	0.002505
3234.000000	0.002510
3233.000000	0.002513
3232.000000	0.002516
3231.000000	0.002517
3230.000000	0.002511
3229.000000	0.002497
3228.000000	0.002483
3227.000000	0.002476
3226.000000	0.002480
3225.000000	0.002491
3224.000000	0.002500
3223.000000	0.002495
3222.000000	0.002474
3221.000000	0.002447
3220.000000	0.002430
3219.000000	0.002428
3218.000000	0.002433
3217.000000	0.002430
3216.000000	0.002412
3215.000000	0.002386
3214.000000	0.002364
3213.000000	0.002356
3212.000000	0.002365
3211.000000	0.002384
3210.000000	0.002405
3209.000000	0.002429
3208.000000	0.002453
3207.000000	0.002472
3206.000000	0.002475
3205.000000	0.002463
3204.000000	0.002447
3203.000000	0.002438
3202.000000	0.002431
3201.000000	0.002414
3200.000000	0.002384
3199.000000	0.002355
3198.000000	0.002341
3197.000000	0.002345
3196.000000	0.002356
3195.000000	0.002363
3194.000000	0.002359
3193.000000	0.002345
3192.000000	0.002328
3191.000000	0.002318
3190.000000	0.002321
3189.000000	0.002333
3188.000000	0.002344
3187.000000	0.002339
3186.000000	0.002317
3185.000000	0.002280
3184.000000	0.002240
3183.000000	0.002210
3182.000000	0.002202
3181.000000	0.002216
3180.000000	0.002238
3179.000000	0.002252
3178.000000	0.002249
3177.000000	0.002234
3176.000000	0.002216
3175.000000	0.002203
3174.000000	0.002198
3173.000000	0.002201
3172.000000	0.002213
3171.000000	0.002232
3170.000000	0.002254
3169.000000	0.002271
3168.000000	0.002276
3167.000000	0.002267
3166.000000	0.002247
3165.000000	0.002219
3164.000000	0.002188
3163.000000	0.002154
3162.000000	0.002122
3161.000000	0.002097
3160.000000	0.002080
3159.000000	0.002070
3158.000000	0.002064
3157.000000	0.002065
3156.000000	0.002073
3155.000000	0.002084
3154.000000	0.002090
3153.000000	0.002088
3152.000000	0.002086
3151.000000	0.002092
3150.000000	0.002103
3149.000000	0.002103
3148.000000	0.002085
3147.000000	0.002053
3146.000000	0.002023
3145.000000	0.001999
3144.000000	0.001980
3143.000000	0.001958
3142.000000	0.001937
3141.000000	0.001926
3140.000000	0.001933
3139.000000	0.001959
3138.000000	0.001990
3137.000000	0.002004
3136.000000	0.001994
3135.000000	0.001966
3134.000000	0.001943
3133.000000	0.001946
3132.000000	0.001971
3131.000000	0.002000
3130.000000	0.002009
3129.000000	0.001994
3128.000000	0.001971
3127.000000	0.001956
3126.000000	0.001956
3125.000000	0.001957
3124.000000	0.001946
3123.000000	0.001923
3122.000000	0.001902
3121.000000	0.001898
3120.000000	0.001907
3119.000000	0.001918
3118.000000	0.001924
3117.000000	0.001923
3116.000000	0.001918
3115.000000	0.001908
3114.000000	0.001896
3113.000000	0.001883
3112.000000	0.001871
3111.000000	0.001860
3110.000000	0.001850
3109.000000	0.001847
3108.000000	0.001855
3107.000000	0.001868
3106.000000	0.001880
3105.000000	0.001888
3104.000000	0.001895
3103.000000	0.001906
3102.000000	0.001918
3101.000000	0.001924
3100.000000	0.001920
3099.000000	0.001908
3098.000000	0.001895
3097.000000	0.001891
3096.000000	0.001903
3095.000000	0.001931
3094.000000	0.001966
3093.000000	0.001993
3092.000000	0.001999
3091.000000	0.001984
3090.000000	0.001954
3089.000000	0.001924
3088.000000	0.001905
3087.000000	0.001902
3086.000000	0.001911
3085.000000	0.001922
3084.000000	0.001925
3083.000000	0.001919
3082.000000	0.001908
3081.000000	0.001899
3080.000000	0.001898
3079.000000	0.001902
3078.000000	0.001908
3077.000000	0.001915
3076.000000	0.001924
3075.000000	0.001936
3074.000000	0.001946
3073.000000	0.001946
3072.000000	0.001934
3071.000000	0.001917
3070.000000	0.001913
3069.000000	0.001926
3068.000000	0.001951
3067.000000	0.001974
3066.000000	0.001985
3065.000000	0.001980
3064.000000	0.001963
3063.000000	0.001942
3062.000000	0.001929
3061.000000	0.001921
3060.000000	0.001912
3059.000000	0.001891
3058.000000	0.001865
3057.000000	0.001847
3056.000000	0.001846
3055.000000	0.001854
3054.000000	0.001856
3053.000000	0.001853
3052.000000	0.001852
3051.000000	0.001862
3050.000000	0.001877
3049.000000	0.001889
3048.000000	0.001893
3047.000000	0.001889
3046.000000	0.001880
3045.000000	0.001862
3044.000000	0.001835
3043.000000	0.001809
3042.000000	0.001793
3041.000000	0.001788
3040.000000	0.001786
3039.000000	0.001777
3038.000000	0.001764
3037.000000	0.001753
3036.000000	0.001747
3035.000000	0.001743
3034.000000	0.001737
3033.000000	0.001732
3032.000000	0.001732
3031.000000	0.001741
3030.000000	0.001757
3029.000000	0.001772
3028.000000	0.001783
3027.000000	0.001788
3026.000000	0.001790
3025.000000	0.001790
3024.000000	0.001780
3023.000000	0.001757
3022.000000	0.001727
3021.000000	0.001707
3020.000000	0.001707
3019.000000	0.001723
3018.000000	0.001741
3017.000000	0.001753
3016.000000	0.001758
3015.000000	0.001755
3014.000000	0.001742
3013.000000	0.001718
3012.000000	0.001691
3011.000000	0.001673
3010.000000	0.001671
3009.000000	0.001682
3008.000000	0.001700
3007.000000	0.001718
3006.000000	0.001730
3005.000000	0.001739
3004.000000	0.001747
3003.000000	0.001754
3002.000000	0.001758
3001.000000	0.001754
3000.000000	0.001742
2999.000000	0.001730
2998.000000	0.001728
2997.000000	0.001737
2996.000000	0.001752
2995.000000	0.001764
2994.000000	0.001770
2993.000000	0.001776
2992.000000	0.001785
2991.000000	0.001792
2990.000000	0.001789
2989.000000	0.001780
2988.000000	0.001772
2987.000000	0.001776
2986.000000	0.001790
2985.000000	0.001808
2984.000000	0.001823
2983.000000	0.001829
2982.000000	0.001827
2981.000000	0.001820
2980.000000	0.001809
2979.000000	0.001797
2978.000000	0.001789
2977.000000	0.001794
2976.000000	0.001817
2975.000000	0.001856
2974.000000	0.001900
2973.000000	0.001931
2972.000000	0.001938
2971.000000	0.001920
2970.000000	0.001890
2969.000000	0.001866
2968.000000	0.001866
2967.000000	0.001895
2966.000000	0.001943
2965.000000	0.001989
2964.000000	0.002013
2963.000000	0.002016
2962.000000	0.002012
2961.000000	0.002016
2960.000000	0.002031
2959.000000	0.002049
2958.000000	0.002062
2957.000000	0.002071
2956.000000	0.002076
2955.000000	0.002077
2954.000000	0.002070
2953.000000	0.002052
2952.000000	0.002027
2951.000000	0.002004
2950.000000	0.001995
2949.000000	0.002004
2948.000000	0.002025
2947.000000	0.002043
2946.000000	0.002044
2945.000000	0.002034
2944.000000	0.002031
2943.000000	0.002047
2942.000000	0.002080
2941.000000	0.002113
2940.000000	0.002135
2939.000000	0.002148
2938.000000	0.002156
2937.000000	0.002160
2936.000000	0.002159
2935.000000	0.002154
2934.000000	0.002151
2933.000000	0.002155
2932.000000	0.002163
2931.000000	0.002168
2930.000000	0.002162
2929.000000	0.002152
2928.000000	0.002146
2927.000000	0.002147
2926.000000	0.002149
2925.000000	0.002147
2924.000000	0.002142
2923.000000	0.002137
2922.000000	0.002130
2921.000000	0.002121
2920.000000	0.002114
2919.000000	0.002116
2918.000000	0.002126
2917.000000	0.002134
2916.000000	0.002134
2915.000000	0.002126
2914.000000	0.002115
2913.000000	0.002103
2912.000000	0.002087
2911.000000	0.002071
2910.000000	0.002062
2909.000000	0.002064
2908.000000	0.002070
2907.000000	0.002075
2906.000000	0.002073
2905.000000	0.002061
2904.000000	0.002038
2903.000000	0.002004
2902.000000	0.001969
2901.000000	0.001942
2900.000000	0.001928
2899.000000	0.001921
2898.000000	0.001919
2897.000000	0.001925
2896.000000	0.001942
2895.000000	0.001965
2894.000000	0.001984
2893.000000	0.001986
2892.000000	0.001972
2891.000000	0.001951
2890.000000	0.001936
2889.000000	0.001930
2888.000000	0.001925
2887.000000	0.001910
2886.000000	0.001890
2885.000000	0.001878
2884.000000	0.001880
2883.000000	0.001891
2882.000000	0.001903
2881.000000	0.001915
2880.000000	0.001929
2879.000000	0.001945
2878.000000	0.001956
2877.000000	0.001959
2876.000000	0.001961
2875.000000	0.001967
2874.000000	0.001971
2873.000000	0.001969
2872.000000	0.001958
2871.000000	0.001947
2870.000000	0.001943
2869.000000	0.001944
2868.000000	0.001944
2867.000000	0.001935
2866.000000	0.001914
2865.000000	0.001883
2864.000000	0.001849
2863.000000	0.001825
2862.000000	0.001820
2861.000000	0.001834
2860.000000	0.001854
2859.000000	0.001867
2858.000000	0.001869
2857.000000	0.001860
2856.000000	0.001844
2855.000000	0.001827
2854.000000	0.001816
2853.000000	0.001819
2852.000000	0.001830
2851.000000	0.001833
2850.000000	0.001815
2849.000000	0.001777
2848.000000	0.001733
2847.000000	0.001701
2846.000000	0.001689
2845.000000	0.001691
2844.000000	0.001697
2843.000000	0.001700
2842.000000	0.001698
2841.000000	0.001692
2840.000000	0.001683
2839.000000	0.001676
2838.000000	0.001675
2837.000000	0.001680
2836.000000	0.001684
2835.000000	0.001679
2834.000000	0.001665
2833.000000	0.001646
2832.000000	0.001628
2831.000000	0.001606
2830.000000	0.001582
2829.000000	0.001561
2828.000000	0.001553
2827.000000	0.001560
2826.000000	0.001575
2825.000000	0.001588
2824.000000	0.001593
2823.000000	0.001591
2822.000000	0.001585
2821.000000	0.001575
2820.000000	0.001562
2819.000000	0.001547
2818.000000	0.001535
2817.000000	0.001534
2816.000000	0.001546
2815.000000	0.001567
2814.000000	0.001583
2813.000000	0.001585
2812.000000	0.001572
2811.000000	0.001555
2810.000000	0.001546
2809.000000	0.001550
2808.000000	0.001558
2807.000000	0.001558
2806.000000	0.001548
2805.000000	0.001531
2804.000000	0.001518
2803.000000	0.001516
2802.000000	0.001523
2801.000000	0.001533
2800.000000	0.001537
2799.000000	0.001529
2798.000000	0.001515
2797.000000	0.001503
2796.000000	0.001499
2795.000000	0.001495
2794.000000	0.001488
2793.000000	0.001478
2792.000000	0.001472
2791.000000	0.001472
2790.000000	0.001473
2789.000000	0.001473
2788.000000	0.001474
2787.000000	0.001479
2786.000000	0.001489
2785.000000	0.001500
2784.000000	0.001511
2783.000000	0.001518
2782.000000	0.001520
2781.000000	0.001521
2780.000000	0.001525
2779.000000	0.001532
2778.000000	0.001540
2777.000000	0.001545
2776.000000	0.001542
2775.000000	0.001529
2774.000000	0.001506
2773.000000	0.001478
2772.000000	0.001453
2771.000000	0.001435
2770.000000	0.001421
2769.000000	0.001413
2768.000000	0.001412
2767.000000	0.001418
2766.000000	0.001426
2765.000000	0.001435
2764.000000	0.001447
2763.000000	0.001464
2762.000000	0.001481
2761.000000	0.001486
2760.000000	0.001471
2759.000000	0.001439
2758.000000	0.001401
2757.000000	0.001377
2756.000000	0.001380
2755.000000	0.001406
2754.000000	0.001438
2753.000000	0.001461
2752.000000	0.001475
2751.000000	0.001488
2750.000000	0.001497
2749.000000	0.001494
2748.000000	0.001479
2747.000000	0.001459
2746.000000	0.001445
2745.000000	0.001442
2744.000000	0.001442
2743.000000	0.001436
2742.000000	0.001422
2741.000000	0.001412
2740.000000	0.001419
2739.000000	0.001446
2738.000000	0.001478
2737.000000	0.001496
2736.000000	0.001489
2735.000000	0.001464
2734.000000	0.001436
2733.000000	0.001416
2732.000000	0.001408
2731.000000	0.001408
2730.000000	0.001411
2729.000000	0.001416
2728.000000	0.001424
2727.000000	0.001434
2726.000000	0.001438
2725.000000	0.001435
2724.000000	0.001431
2723.000000	0.001433
2722.000000	0.001440
2721.000000	0.001442
2720.000000	0.001434
2719.000000	0.001420
2718.000000	0.001405
2717.000000	0.001395
2716.000000	0.001388
2715.000000	0.001383
2714.000000	0.001376
2713.000000	0.001372
2712.000000	0.001381
2711.000000	0.001408
2710.000000	0.001439
2709.000000	0.001454
2708.000000	0.001446
2707.000000	0.001426
2706.000000	0.001407
2705.000000	0.001396
2704.000000	0.001394
2703.000000	0.001397
2702.000000	0.001400
2701.000000	0.001395
2700.000000	0.001384
2699.000000	0.001374
2698.000000	0.001373
2697.000000	0.001379
2696.000000	0.001382
2695.000000	0.001378
2694.000000	0.001367
2693.000000	0.001353
2692.000000	0.001342
2691.000000	0.001343
2690.000000	0.001356
2689.000000	0.001375
2688.000000	0.001386
2687.000000	0.001387
2686.000000	0.001381
2685.000000	0.001373
2684.000000	0.001363
2683.000000	0.001351
2682.000000	0.001337
2681.000000	0.001326
2680.000000	0.001320
2679.000000	0.001321
2678.000000	0.001328
2677.000000	0.001336
2676.000000	0.001339
2675.000000	0.001339
2674.000000	0.001344
2673.000000	0.001357
2672.000000	0.001372
2671.000000	0.001383
2670.000000	0.001388
2669.000000	0.001393
2668.000000	0.001393
2667.000000	0.001384
2666.000000	0.001367
2665.000000	0.001354
2664.000000	0.001354
2663.000000	0.001367
2662.000000	0.001385
2661.000000	0.001400
2660.000000	0.001407
2659.000000	0.001406
2658.000000	0.001399
2657.000000	0.001388
2656.000000	0.001380
2655.000000	0.001377
2654.000000	0.001377
2653.000000	0.001380
2652.000000	0.001387
2651.000000	0.001397
2650.000000	0.001409
2649.000000	0.001422
2648.000000	0.001431
2647.000000	0.001436
2646.000000	0.001434
2645.000000	0.001430
2644.000000	0.001426
2643.000000	0.001426
2642.000000	0.001426
2641.000000	0.001420
2640.000000	0.001403
2639.000000	0.001382
2638.000000	0.001366
2637.000000	0.001359
2636.000000	0.001355
2635.000000	0.001351
2634.000000	0.001353
2633.000000	0.001365
2632.000000	0.001382
2631.000000	0.001391
2630.000000	0.001384
2629.000000	0.001372
2628.000000	0.001368
2627.000000	0.001379
2626.000000	0.001397
2625.000000	0.001407
2624.000000	0.001403
2623.000000	0.001388
2622.000000	0.001372
2621.000000	0.001356
2620.000000	0.001333
2619.000000	0.001300
2618.000000	0.001266
2617.000000	0.001249
2616.000000	0.001256
2615.000000	0.001276
2614.000000	0.001287
2613.000000	0.001282
2612.000000	0.001272
2611.000000	0.001272
2610.000000	0.001285
2609.000000	0.001298
2608.000000	0.001297
2607.000000	0.001281
2606.000000	0.001257
2605.000000	0.001235
2604.000000	0.001212
2603.000000	0.001187
2602.000000	0.001163
2601.000000	0.001151
2600.000000	0.001155
2599.000000	0.001170
2598.000000	0.001183
2597.000000	0.001188
2596.000000	0.001188
2595.000000	0.001190
2594.000000	0.001194
2593.000000	0.001196
2592.000000	0.001190
2591.000000	0.001179
2590.000000	0.001180
2589.000000	0.001204
2588.000000	0.001246
2587.000000	0.001280
2586.000000	0.001289
2585.000000	0.001276
2584.000000	0.001260
2583.000000	0.001251
2582.000000	0.001249
2581.000000	0.001245
2580.000000	0.001235
2579.000000	0.001218
2578.000000	0.001203
2577.000000	0.001199
2576.000000	0.001208
2575.000000	0.001219
2574.000000	0.001216
2573.000000	0.001202
2572.000000	0.001190
2571.000000	0.001187
2570.000000	0.001182
2569.000000	0.001168
2568.000000	0.001158
2567.000000	0.001166
2566.000000	0.001187
2565.000000	0.001198
2564.000000	0.001183
2563.000000	0.001149
2562.000000	0.001124
2561.000000	0.001123
2560.000000	0.001140
2559.000000	0.001153
2558.000000	0.001150
2557.000000	0.001134
2556.000000	0.001123
2555.000000	0.001120
2554.000000	0.001112
2553.000000	0.001090
2552.000000	0.001063
2551.000000	0.001052
2550.000000	0.001060
2549.000000	0.001077
2548.000000	0.001090
2547.000000	0.001097
2546.000000	0.001095
2545.000000	0.001082
2544.000000	0.001060
2543.000000	0.001040
2542.000000	0.001032
2541.000000	0.001036
2540.000000	0.001043
2539.000000	0.001048
2538.000000	0.001056
2537.000000	0.001071
2536.000000	0.001082
2535.000000	0.001072
2534.000000	0.001039
2533.000000	0.001007
2532.000000	0.001014
2531.000000	0.001071
2530.000000	0.001145
2529.000000	0.001191
2528.000000	0.001193
2527.000000	0.001166
2526.000000	0.001139
2525.000000	0.001125
2524.000000	0.001123
2523.000000	0.001126
2522.000000	0.001127
2521.000000	0.001121
2520.000000	0.001111
2519.000000	0.001107
2518.000000	0.001108
2517.000000	0.001105
2516.000000	0.001092
2515.000000	0.001077
2514.000000	0.001078
2513.000000	0.001097
2512.000000	0.001118
2511.000000	0.001114
2510.000000	0.001069
2509.000000	0.000996
2508.000000	0.000935
2507.000000	0.000917
2506.000000	0.000941
2505.000000	0.000975
2504.000000	0.000990
2503.000000	0.000982
2502.000000	0.000966
2501.000000	0.000959
2500.000000	0.000965
2499.000000	0.000980
2498.000000	0.000993
2497.000000	0.000993
2496.000000	0.000978
2495.000000	0.000957
2494.000000	0.000940
2493.000000	0.000927
2492.000000	0.000924
2491.000000	0.000941
2490.000000	0.000979
2489.000000	0.001022
2488.000000	0.001051
2487.000000	0.001062
2486.000000	0.001063
2485.000000	0.001058
2484.000000	0.001050
2483.000000	0.001044
2482.000000	0.001048
2481.000000	0.001057
2480.000000	0.001060
2479.000000	0.001053
2478.000000	0.001041
2477.000000	0.001022
2476.000000	0.000988
2475.000000	0.000942
2474.000000	0.000903
2473.000000	0.000887
2472.000000	0.000892
2471.000000	0.000899
2470.000000	0.000894
2469.000000	0.000885
2468.000000	0.000888
2467.000000	0.000915
2466.000000	0.000958
2465.000000	0.001002
2464.000000	0.001036
2463.000000	0.001061
2462.000000	0.001085
2461.000000	0.001107
2460.000000	0.001126
2459.000000	0.001141
2458.000000	0.001154
2457.000000	0.001161
2456.000000	0.001156
2455.000000	0.001141
2454.000000	0.001126
2453.000000	0.001121
2452.000000	0.001126
2451.000000	0.001138
2450.000000	0.001148
2449.000000	0.001147
2448.000000	0.001130
2447.000000	0.001101
2446.000000	0.001075
2445.000000	0.001066
2444.000000	0.001072
2443.000000	0.001077
2442.000000	0.001063
2441.000000	0.001030
2440.000000	0.000994
2439.000000	0.000980
2438.000000	0.001002
2437.000000	0.001046
2436.000000	0.001079
2435.000000	0.001076
2434.000000	0.001040
2433.000000	0.000998
2432.000000	0.000976
2431.000000	0.000985
2430.000000	0.001016
2429.000000	0.001047
2428.000000	0.001060
2427.000000	0.001045
2426.000000	0.001005
2425.000000	0.000954
2424.000000	0.000915
2423.000000	0.000906
2422.000000	0.000928
2421.000000	0.000959
2420.000000	0.000977
2419.000000	0.000980
2418.000000	0.000978
2417.000000	0.000976
2416.000000	0.000971
2415.000000	0.000963
2414.000000	0.000957
2413.000000	0.000951
2412.000000	0.000943
2411.000000	0.000935
2410.000000	0.000941
2409.000000	0.000964
2408.000000	0.000986
2407.000000	0.000992
2406.000000	0.000984
2405.000000	0.000979
2404.000000	0.000978
2403.000000	0.000975
2402.000000	0.000965
2401.000000	0.000957
2400.000000	0.000965
2399.000000	0.000991
2398.000000	0.001028
2397.000000	0.001061
2396.000000	0.001071
2395.000000	0.001052
2394.000000	0.001017
2393.000000	0.000986
2392.000000	0.000975
2391.000000	0.000977
2390.000000	0.000978
2389.000000	0.000975
2388.000000	0.000975
2387.000000	0.000985
2386.000000	0.001000
2385.000000	0.001007
2384.000000	0.000995
2383.000000	0.000967
2382.000000	0.000938
2381.000000	0.000927
2380.000000	0.000940
2379.000000	0.000970
2378.000000	0.001004
2377.000000	0.001030
2376.000000	0.001043
2375.000000	0.001039
2374.000000	0.001018
2373.000000	0.000982
2372.000000	0.000941
2371.000000	0.000905
2370.000000	0.000877
2369.000000	0.000851
2368.000000	0.000833
2367.000000	0.000844
2366.000000	0.000896
2365.000000	0.000976
2364.000000	0.001058
2363.000000	0.001122
2362.000000	0.001160
2361.000000	0.001166
2360.000000	0.001140
2359.000000	0.001091
2358.000000	0.001037
2357.000000	0.000993
2356.000000	0.000982
2355.000000	0.001014
2354.000000	0.001052
2353.000000	0.001054
2352.000000	0.001026
2351.000000	0.001017
2350.000000	0.001037
2349.000000	0.001068
2348.000000	0.001086
2347.000000	0.001085
2346.000000	0.001083
2345.000000	0.001104
2344.000000	0.001150
2343.000000	0.001187
2342.000000	0.001206
2341.000000	0.001218
2340.000000	0.001230
2339.000000	0.001241
2338.000000	0.001241
2337.000000	0.001219
2336.000000	0.001169
2335.000000	0.001109
2334.000000	0.001065
2333.000000	0.001048
2332.000000	0.001051
2331.000000	0.001065
2330.000000	0.001077
2329.000000	0.001093
2328.000000	0.001127
2327.000000	0.001200
2326.000000	0.001307
2325.000000	0.001420
2324.000000	0.001503
2323.000000	0.001526
2322.000000	0.001496
2321.000000	0.001451
2320.000000	0.001428
2319.000000	0.001440
2318.000000	0.001460
2317.000000	0.001459
2316.000000	0.001424
2315.000000	0.001376
2314.000000	0.001340
2313.000000	0.001324
2312.000000	0.001312
2311.000000	0.001294
2310.000000	0.001267
2309.000000	0.001243
2308.000000	0.001228
2307.000000	0.001225
2306.000000	0.001234
2305.000000	0.001246
2304.000000	0.001251
2303.000000	0.001249
2302.000000	0.001250
2301.000000	0.001259
2300.000000	0.001257
2299.000000	0.001231
2298.000000	0.001189
2297.000000	0.001161
2296.000000	0.001164
2295.000000	0.001184
2294.000000	0.001200
2293.000000	0.001204
2292.000000	0.001205
2291.000000	0.001208
2290.000000	0.001214
2289.000000	0.001223
2288.000000	0.001241
2287.000000	0.001272
2286.000000	0.001304
2285.000000	0.001304
2284.000000	0.001249
2283.000000	0.001156
2282.000000	0.001084
2281.000000	0.001071
2280.000000	0.001103
2279.000000	0.001127
2278.000000	0.001110
2277.000000	0.001063
2276.000000	0.001017
2275.000000	0.000995
2274.000000	0.001000
2273.000000	0.001019
2272.000000	0.001025
2271.000000	0.001001
2270.000000	0.000967
2269.000000	0.000964
2268.000000	0.001014
2267.000000	0.001086
2266.000000	0.001117
2265.000000	0.001072
2264.000000	0.000970
2263.000000	0.000871
2262.000000	0.000830
2261.000000	0.000863
2260.000000	0.000939
2259.000000	0.001012
2258.000000	0.001043
2257.000000	0.001022
2256.000000	0.000963
2255.000000	0.000899
2254.000000	0.000869
2253.000000	0.000889
2252.000000	0.000934
2251.000000	0.000968
2250.000000	0.000978
2249.000000	0.000979
2248.000000	0.000994
2247.000000	0.001026
2246.000000	0.001067
2245.000000	0.001108
2244.000000	0.001136
2243.000000	0.001136
2242.000000	0.001105
2241.000000	0.001070
2240.000000	0.001065
2239.000000	0.001116
2238.000000	0.001211
2237.000000	0.001316
2236.000000	0.001389
2235.000000	0.001412
2234.000000	0.001403
2233.000000	0.001385
2232.000000	0.001356
2231.000000	0.001289
2230.000000	0.001179
2229.000000	0.001056
2228.000000	0.000950
2227.000000	0.000861
2226.000000	0.000783
2225.000000	0.000742
2224.000000	0.000778
2223.000000	0.000901
2222.000000	0.001069
2221.000000	0.001216
2220.000000	0.001282
2219.000000	0.001244
2218.000000	0.001124
2217.000000	0.000982
2216.000000	0.000869
2215.000000	0.000792
2214.000000	0.000735
2213.000000	0.000710
2212.000000	0.000737
2211.000000	0.000805
2210.000000	0.000854
2209.000000	0.000844
2208.000000	0.000803
2207.000000	0.000796
2206.000000	0.000860
2205.000000	0.000970
2204.000000	0.001063
2203.000000	0.001084
2202.000000	0.001021
2201.000000	0.000909
2200.000000	0.000812
2199.000000	0.000772
2198.000000	0.000772
2197.000000	0.000748
2196.000000	0.000652
2195.000000	0.000507
2194.000000	0.000397
2193.000000	0.000411
2192.000000	0.000566
2191.000000	0.000787
2190.000000	0.000961
2189.000000	0.001020
2188.000000	0.000986
2187.000000	0.000941
2186.000000	0.000948
2185.000000	0.001003
2184.000000	0.001042
2183.000000	0.000995
2182.000000	0.000842
2181.000000	0.000652
2180.000000	0.000534
2179.000000	0.000541
2178.000000	0.000608
2177.000000	0.000617
2176.000000	0.000517
2175.000000	0.000384
2174.000000	0.000344
2173.000000	0.000451
2172.000000	0.000655
2171.000000	0.000885
2170.000000	0.001099
2169.000000	0.001275
2168.000000	0.001385
2167.000000	0.001411
2166.000000	0.001387
2165.000000	0.001382
2164.000000	0.001446
2163.000000	0.001562
2162.000000	0.001633
2161.000000	0.001533
2160.000000	0.001180
2159.000000	0.000645
2158.000000	0.000152
2157.000000	-0.000073
2156.000000	0.000008
2155.000000	0.000238
2154.000000	0.000421
2153.000000	0.000459
2152.000000	0.000380
2151.000000	0.000274
2150.000000	0.000196
2149.000000	0.000150
2148.000000	0.000122
2147.000000	0.000115
2146.000000	0.000129
2145.000000	0.000138
2144.000000	0.000127
2143.000000	0.000139
2142.000000	0.000256
2141.000000	0.000501
2140.000000	0.000796
2139.000000	0.001015
2138.000000	0.001088
2137.000000	0.001021
2136.000000	0.000851
2135.000000	0.000617
2134.000000	0.000376
2133.000000	0.000203
2132.000000	0.000147
2131.000000	0.000179
2130.000000	0.000231
2129.000000	0.000266
2128.000000	0.000301
2127.000000	0.000362
2126.000000	0.000439
2125.000000	0.000502
2124.000000	0.000552
2123.000000	0.000623
2122.000000	0.000737
2121.000000	0.000863
2120.000000	0.000942
2119.000000	0.000940
2118.000000	0.000880
2117.000000	0.000828
2116.000000	0.000837
2115.000000	0.000919
2114.000000	0.001028
2113.000000	0.001092
2112.000000	0.001060
2111.000000	0.000941
2110.000000	0.000794
2109.000000	0.000695
2108.000000	0.000686
2107.000000	0.000768
2106.000000	0.000898
2105.000000	0.001023
2104.000000	0.001097
2103.000000	0.001112
2102.000000	0.001082
2101.000000	0.001033
2100.000000	0.000978
2099.000000	0.000913
2098.000000	0.000828
2097.000000	0.000724
2096.000000	0.000625
2095.000000	0.000559
2094.000000	0.000536
2093.000000	0.000551
2092.000000	0.000608
2091.000000	0.000713
2090.000000	0.000841
2089.000000	0.000942
2088.000000	0.000991
2087.000000	0.001021
2086.000000	0.001063
2085.000000	0.001096
2084.000000	0.001060
2083.000000	0.000950
2082.000000	0.000834
2081.000000	0.000792
2080.000000	0.000848
2079.000000	0.000965
2078.000000	0.001077
2077.000000	0.001122
2076.000000	0.001068
2075.000000	0.000944
2074.000000	0.000814
2073.000000	0.000712
2072.000000	0.000637
2071.000000	0.000602
2070.000000	0.000650
2069.000000	0.000798
2068.000000	0.000981
2067.000000	0.001104
2066.000000	0.001125
2065.000000	0.001068
2064.000000	0.000976
2063.000000	0.000887
2062.000000	0.000832
2061.000000	0.000824
2060.000000	0.000850
2059.000000	0.000883
2058.000000	0.000907
2057.000000	0.000891
2056.000000	0.000800
2055.000000	0.000644
2054.000000	0.000523
2053.000000	0.000550
2052.000000	0.000738
2051.000000	0.000991
2050.000000	0.001202
2049.000000	0.001313
2048.000000	0.001302
2047.000000	0.001167
2046.000000	0.000962
2045.000000	0.000786
2044.000000	0.000698
2043.000000	0.000657
2042.000000	0.000584
2041.000000	0.000484
2040.000000	0.000453
2039.000000	0.000567
2038.000000	0.000789
2037.000000	0.001007
2036.000000	0.001137
2035.000000	0.001189
2034.000000	0.001214
2033.000000	0.001203
2032.000000	0.001105
2031.000000	0.000943
2030.000000	0.000828
2029.000000	0.000836
2028.000000	0.000901
2027.000000	0.000894
2026.000000	0.000772
2025.000000	0.000595
2024.000000	0.000434
2023.000000	0.000330
2022.000000	0.000317
2021.000000	0.000396
2020.000000	0.000491
2019.000000	0.000500
2018.000000	0.000425
2017.000000	0.000390
2016.000000	0.000485
2015.000000	0.000676
2014.000000	0.000881
2013.000000	0.001065
2012.000000	0.001214
2011.000000	0.001284
2010.000000	0.001208
2009.000000	0.000963
2008.000000	0.000599
2007.000000	0.000231
2006.000000	0.000010
2005.000000	0.000060
2004.000000	0.000360
2003.000000	0.000737
2002.000000	0.000988
2001.000000	0.001018
2000.000000	0.000871
1999.000000	0.000654
1998.000000	0.000452
1997.000000	0.000320
1996.000000	0.000293
1995.000000	0.000382
1994.000000	0.000559
1993.000000	0.000754
1992.000000	0.000881
1991.000000	0.000896
1990.000000	0.000827
1989.000000	0.000734
1988.000000	0.000662
1987.000000	0.000635
1986.000000	0.000674
1985.000000	0.000786
1984.000000	0.000948
1983.000000	0.001114
1982.000000	0.001247
1981.000000	0.001316
1980.000000	0.001278
1979.000000	0.001107
1978.000000	0.000847
1977.000000	0.000613
1976.000000	0.000509
1975.000000	0.000539
1974.000000	0.000627
1973.000000	0.000670
1972.000000	0.000592
1971.000000	0.000401
1970.000000	0.000199
1969.000000	0.000112
1968.000000	0.000172
1967.000000	0.000298
1966.000000	0.000391
1965.000000	0.000426
1964.000000	0.000437
1963.000000	0.000467
1962.000000	0.000533
1961.000000	0.000602
1960.000000	0.000594
1959.000000	0.000453
1958.000000	0.000223
1957.000000	0.000027
1956.000000	-0.000061
1955.000000	-0.000070
1954.000000	-0.000058
1953.000000	-0.000020
1952.000000	0.000095
1951.000000	0.000292
1950.000000	0.000502
1949.000000	0.000638
1948.000000	0.000664
1947.000000	0.000614
1946.000000	0.000546
1945.000000	0.000497
1944.000000	0.000455
1943.000000	0.000381
1942.000000	0.000268
1941.000000	0.000164
1940.000000	0.000122
1939.000000	0.000156
1938.000000	0.000236
1937.000000	0.000324
1936.000000	0.000401
1935.000000	0.000467
1934.000000	0.000535
1933.000000	0.000599
1932.000000	0.000632
1931.000000	0.000610
1930.000000	0.000547
1929.000000	0.000499
1928.000000	0.000518
1927.000000	0.000594
1926.000000	0.000671
1925.000000	0.000697
1924.000000	0.000653
1923.000000	0.000549
1922.000000	0.000410
1921.000000	0.000276
1920.000000	0.000196
1919.000000	0.000191
1918.000000	0.000233
1917.000000	0.000266
1916.000000	0.000273
1915.000000	0.000289
1914.000000	0.000345
1913.000000	0.000433
1912.000000	0.000517
1911.000000	0.000568
1910.000000	0.000578
1909.000000	0.000547
1908.000000	0.000485
1907.000000	0.000426
1906.000000	0.000403
1905.000000	0.000426
1904.000000	0.000474
1903.000000	0.000521
1902.000000	0.000552
1901.000000	0.000565
1900.000000	0.000554
1899.000000	0.000527
1898.000000	0.000505
1897.000000	0.000509
1896.000000	0.000540
1895.000000	0.000575
1894.000000	0.000578
1893.000000	0.000533
1892.000000	0.000454
1891.000000	0.000387
1890.000000	0.000381
1889.000000	0.000444
1888.000000	0.000536
1887.000000	0.000614
1886.000000	0.000661
1885.000000	0.000668
1884.000000	0.000622
1883.000000	0.000525
1882.000000	0.000417
1881.000000	0.000344
1880.000000	0.000326
1879.000000	0.000350
1878.000000	0.000391
1877.000000	0.000428
1876.000000	0.000443
1875.000000	0.000432
1874.000000	0.000408
1873.000000	0.000383
1872.000000	0.000352
1871.000000	0.000307
1870.000000	0.000260
1869.000000	0.000243
1868.000000	0.000272
1867.000000	0.000322
1866.000000	0.000370
1865.000000	0.000411
1864.000000	0.000442
1863.000000	0.000453
1862.000000	0.000445
1861.000000	0.000437
1860.000000	0.000446
1859.000000	0.000467
1858.000000	0.000486
1857.000000	0.000498
1856.000000	0.000510
1855.000000	0.000524
1854.000000	0.000531
1853.000000	0.000520
1852.000000	0.000485
1851.000000	0.000433
1850.000000	0.000391
1849.000000	0.000375
1848.000000	0.000377
1847.000000	0.000378
1846.000000	0.000373
1845.000000	0.000378
1844.000000	0.000395
1843.000000	0.000404
1842.000000	0.000390
1841.000000	0.000367
1840.000000	0.000356
1839.000000	0.000360
1838.000000	0.000368
1837.000000	0.000374
1836.000000	0.000371
1835.000000	0.000349
1834.000000	0.000296
1833.000000	0.000223
1832.000000	0.000162
1831.000000	0.000154
1830.000000	0.000213
1829.000000	0.000295
1828.000000	0.000334
1827.000000	0.000316
1826.000000	0.000280
1825.000000	0.000264
1824.000000	0.000269
1823.000000	0.000272
1822.000000	0.000267
1821.000000	0.000262
1820.000000	0.000252
1819.000000	0.000227
1818.000000	0.000195
1817.000000	0.000180
1816.000000	0.000189
1815.000000	0.000195
1814.000000	0.000178
1813.000000	0.000152
1812.000000	0.000151
1811.000000	0.000189
1810.000000	0.000246
1809.000000	0.000289
1808.000000	0.000311
1807.000000	0.000317
1806.000000	0.000308
1805.000000	0.000285
1804.000000	0.000255
1803.000000	0.000232
1802.000000	0.000229
1801.000000	0.000245
1800.000000	0.000268
1799.000000	0.000281
1798.000000	0.000275
1797.000000	0.000252
1796.000000	0.000220
1795.000000	0.000201
1794.000000	0.000221
1793.000000	0.000290
1792.000000	0.000369
1791.000000	0.000410
1790.000000	0.000401
1789.000000	0.000368
1788.000000	0.000337
1787.000000	0.000323
1786.000000	0.000326
1785.000000	0.000337
1784.000000	0.000334
1783.000000	0.000299
1782.000000	0.000247
1781.000000	0.000221
1780.000000	0.000239
1779.000000	0.000270
1778.000000	0.000269
1777.000000	0.000216
1776.000000	0.000132
1775.000000	0.000062
1774.000000	0.000062
1773.000000	0.000157
1772.000000	0.000283
1771.000000	0.000341
1770.000000	0.000314
1769.000000	0.000266
1768.000000	0.000249
1767.000000	0.000257
1766.000000	0.000250
1765.000000	0.000217
1764.000000	0.000187
1763.000000	0.000195
1762.000000	0.000245
1761.000000	0.000299
1760.000000	0.000316
1759.000000	0.000301
1758.000000	0.000293
1757.000000	0.000319
1756.000000	0.000358
1755.000000	0.000368
1754.000000	0.000351
1753.000000	0.000354
1752.000000	0.000411
1751.000000	0.000511
1750.000000	0.000610
1749.000000	0.000686
1748.000000	0.000733
1747.000000	0.000747
1746.000000	0.000737
1745.000000	0.000729
1744.000000	0.000739
1743.000000	0.000754
1742.000000	0.000754
1741.000000	0.000742
1740.000000	0.000732
1739.000000	0.000711
1738.000000	0.000651
1737.000000	0.000560
1736.000000	0.000497
1735.000000	0.000518
1734.000000	0.000606
1733.000000	0.000657
1732.000000	0.000613
1731.000000	0.000522
1730.000000	0.000458
1729.000000	0.000447
1728.000000	0.000458
1727.000000	0.000449
1726.000000	0.000410
1725.000000	0.000364
1724.000000	0.000334
1723.000000	0.000312
1722.000000	0.000269
1721.000000	0.000325
1720.000000	0.000317
1719.000000	0.000065
1718.000000	0.000101
1717.000000	0.000204
1716.000000	0.000310
1715.000000	0.000373
1714.000000	0.000395
1713.000000	0.000396
1712.000000	0.000390
1711.000000	0.000377
1710.000000	0.000353
1709.000000	0.000319
1708.000000	0.000295
1707.000000	0.000316
1706.000000	0.000403
1705.000000	0.000638
1704.000000	0.000723
1703.000000	0.000797
1702.000000	0.000874
1701.000000	0.000962
1700.000000	0.001044
1699.000000	0.001050
1698.000000	0.001063
1697.000000	0.001098
1696.000000	0.001227
1695.000000	0.001378
1694.000000	0.001445
1693.000000	0.001444
1692.000000	0.001448
1691.000000	0.001488
1690.000000	0.001550
1689.000000	0.001597
1688.000000	0.001615
1687.000000	0.001626
1686.000000	0.001683
1685.000000	0.001834
1684.000000	0.002033
1683.000000	0.002177
1682.000000	0.002232
1681.000000	0.002255
1680.000000	0.002283
1679.000000	0.002313
1678.000000	0.002342
1677.000000	0.002405
1676.000000	0.002529
1675.000000	0.002685
1674.000000	0.002810
1673.000000	0.002888
1672.000000	0.002952
1671.000000	0.003033
1670.000000	0.003135
1669.000000	0.003253
1668.000000	0.003366
1667.000000	0.003454
1666.000000	0.003525
1665.000000	0.003603
1664.000000	0.003701
1663.000000	0.003796
1662.000000	0.003869
1661.000000	0.003928
1660.000000	0.003985
1659.000000	0.004040
1658.000000	0.004096
1657.000000	0.004164
1656.000000	0.004259
1655.000000	0.004395
1654.000000	0.004526
1653.000000	0.004562
1652.000000	0.004569
1651.000000	0.004574
1650.000000	0.004576
1649.000000	0.004609
1648.000000	0.004685
1647.000000	0.004780
1646.000000	0.004857
1645.000000	0.004904
1644.000000	0.004926
1643.000000	0.004939
1642.000000	0.004952
1641.000000	0.004965
1640.000000	0.004975
1639.000000	0.004982
1638.000000	0.004997
1637.000000	0.005025
1636.000000	0.005047
1635.000000	0.005053
1634.000000	0.005055
1633.000000	0.005061
1632.000000	0.005080
1631.000000	0.005111
1630.000000	0.005139
1629.000000	0.005152
1628.000000	0.005146
1627.000000	0.005119
1626.000000	0.005077
1625.000000	0.005027
1624.000000	0.004971
1623.000000	0.004905
1622.000000	0.004841
1621.000000	0.004788
1620.000000	0.004743
1619.000000	0.004697
1618.000000	0.004633
1617.000000	0.004537
1616.000000	0.004433
1615.000000	0.004347
1614.000000	0.004267
1613.000000	0.004181
1612.000000	0.004088
1611.000000	0.003987
1610.000000	0.003883
1609.000000	0.003784
1608.000000	0.003696
1607.000000	0.003619
1606.000000	0.003557
1605.000000	0.003502
1604.000000	0.003442
1603.000000	0.003377
1602.000000	0.003315
1601.000000	0.003251
1600.000000	0.003173
1599.000000	0.003078
1598.000000	0.002990
1597.000000	0.002928
1596.000000	0.002891
1595.000000	0.002862
1594.000000	0.002831
1593.000000	0.002795
1592.000000	0.002753
1591.000000	0.002705
1590.000000	0.002660
1589.000000	0.002627
1588.000000	0.002610
1587.000000	0.002605
1586.000000	0.002614
1585.000000	0.002635
1584.000000	0.002651
1583.000000	0.002652
1582.000000	0.002644
1581.000000	0.002641
1580.000000	0.002643
1579.000000	0.002644
1578.000000	0.002657
1577.000000	0.002695
1576.000000	0.002745
1575.000000	0.002780
1574.000000	0.002790
1573.000000	0.002796
1572.000000	0.002823
1571.000000	0.002877
1570.000000	0.002934
1569.000000	0.002976
1568.000000	0.003008
1567.000000	0.003046
1566.000000	0.003106
1565.000000	0.003181
1564.000000	0.003237
1563.000000	0.003256
1562.000000	0.003257
1561.000000	0.003287
1560.000000	0.003350
1559.000000	0.003394
1558.000000	0.003470
1557.000000	0.003566
1556.000000	0.003627
1555.000000	0.003670
1554.000000	0.003706
1553.000000	0.003734
1552.000000	0.003757
1551.000000	0.003788
1550.000000	0.003833
1549.000000	0.003892
1548.000000	0.003957
1547.000000	0.004020
1546.000000	0.004076
1545.000000	0.004110
1544.000000	0.004116
1543.000000	0.004108
1542.000000	0.004104
1541.000000	0.004099
1540.000000	0.004085
1539.000000	0.004084
1538.000000	0.004087
1537.000000	0.004077
1536.000000	0.004071
1535.000000	0.004081
1534.000000	0.004092
1533.000000	0.004090
1532.000000	0.004091
1531.000000	0.004100
1530.000000	0.004109
1529.000000	0.004105
1528.000000	0.004075
1527.000000	0.004015
1526.000000	0.003943
1525.000000	0.003881
1524.000000	0.003836
1523.000000	0.003796
1522.000000	0.003743
1521.000000	0.003689
1520.000000	0.003669
1519.000000	0.003670
1518.000000	0.003661
1517.000000	0.003622
1516.000000	0.003562
1515.000000	0.003506
1514.000000	0.003461
1513.000000	0.003423
1512.000000	0.003382
1511.000000	0.003325
1510.000000	0.003246
1509.000000	0.003151
1508.000000	0.003042
1507.000000	0.002935
1506.000000	0.002903
1505.000000	0.002930
1504.000000	0.002933
1503.000000	0.002907
1502.000000	0.002862
1501.000000	0.002800
1500.000000	0.002718
1499.000000	0.002627
1498.000000	0.002550
1497.000000	0.002500
1496.000000	0.002475
1495.000000	0.002445
1494.000000	0.002391
1493.000000	0.002332
1492.000000	0.002299
1491.000000	0.002294
1490.000000	0.002280
1489.000000	0.002234
1488.000000	0.002182
1487.000000	0.002147
1486.000000	0.002123
1485.000000	0.002104
1484.000000	0.002094
1483.000000	0.002099
1482.000000	0.002115
1481.000000	0.002129
1480.000000	0.002138
1479.000000	0.002149
1478.000000	0.002167
1477.000000	0.002181
1476.000000	0.002177
1475.000000	0.002160
1474.000000	0.002161
1473.000000	0.002218
1472.000000	0.002332
1471.000000	0.002451
1470.000000	0.002528
1469.000000	0.002565
1468.000000	0.002583
1467.000000	0.002602
1466.000000	0.002641
1465.000000	0.002709
1464.000000	0.002789
1463.000000	0.002853
1462.000000	0.002895
1461.000000	0.002930
1460.000000	0.002974
1459.000000	0.003030
1458.000000	0.003089
1457.000000	0.003137
1456.000000	0.003183
1455.000000	0.003221
1454.000000	0.003257
1453.000000	0.003303
1452.000000	0.003349
1451.000000	0.003376
1450.000000	0.003381
1449.000000	0.003378
1448.000000	0.003383
1447.000000	0.003401
1446.000000	0.003427
1445.000000	0.003455
1444.000000	0.003480
1443.000000	0.003502
1442.000000	0.003519
1441.000000	0.003528
1440.000000	0.003529
1439.000000	0.003526
1438.000000	0.003516
1437.000000	0.003483
1436.000000	0.003438
1435.000000	0.003417
1434.000000	0.003427
1433.000000	0.003453
1432.000000	0.003483
1431.000000	0.003508
1430.000000	0.003523
1429.000000	0.003528
1428.000000	0.003524
1427.000000	0.003510
1426.000000	0.003496
1425.000000	0.003489
1424.000000	0.003489
1423.000000	0.003502
1422.000000	0.003530
1421.000000	0.003567
1420.000000	0.003589
1419.000000	0.003576
1418.000000	0.003554
1417.000000	0.003550
1416.000000	0.003562
1415.000000	0.003580
1414.000000	0.003597
1413.000000	0.003605
1412.000000	0.003604
1411.000000	0.003600
1410.000000	0.003602
1409.000000	0.003606
1408.000000	0.003598
1407.000000	0.003577
1406.000000	0.003553
1405.000000	0.003537
1404.000000	0.003527
1403.000000	0.003521
1402.000000	0.003523
1401.000000	0.003538
1400.000000	0.003555
1399.000000	0.003558
1398.000000	0.003548
1397.000000	0.003542
1396.000000	0.003549
1395.000000	0.003560
1394.000000	0.003557
1393.000000	0.003534
1392.000000	0.003496
1391.000000	0.003458
1390.000000	0.003430
1389.000000	0.003415
1388.000000	0.003405
1387.000000	0.003389
1386.000000	0.003364
1385.000000	0.003326
1384.000000	0.003277
1383.000000	0.003232
1382.000000	0.003202
1381.000000	0.003190
1380.000000	0.003179
1379.000000	0.003154
1378.000000	0.003115
1377.000000	0.003070
1376.000000	0.003025
1375.000000	0.002981
1374.000000	0.002945
1373.000000	0.002922
1372.000000	0.002906
1371.000000	0.002888
1370.000000	0.002868
1369.000000	0.002845
1368.000000	0.002809
1367.000000	0.002757
1366.000000	0.002699
1365.000000	0.002647
1364.000000	0.002598
1363.000000	0.002543
1362.000000	0.002482
1361.000000	0.002433
1360.000000	0.002402
1359.000000	0.002386
1358.000000	0.002375
1357.000000	0.002361
1356.000000	0.002335
1355.000000	0.002298
1354.000000	0.002259
1353.000000	0.002232
1352.000000	0.002223
1351.000000	0.002226
1350.000000	0.002236
1349.000000	0.002252
1348.000000	0.002272
1347.000000	0.002291
1346.000000	0.002311
1345.000000	0.002334
1344.000000	0.002363
1343.000000	0.002393
1342.000000	0.002415
1341.000000	0.002418
1340.000000	0.002401
1339.000000	0.002379
1338.000000	0.002372
1337.000000	0.002391
1336.000000	0.002422
1335.000000	0.002446
1334.000000	0.002450
1333.000000	0.002439
1332.000000	0.002424
1331.000000	0.002415
1330.000000	0.002412
1329.000000	0.002408
1328.000000	0.002394
1327.000000	0.002366
1326.000000	0.002332
1325.000000	0.002301
1324.000000	0.002274
1323.000000	0.002248
1322.000000	0.002225
1321.000000	0.002206
1320.000000	0.002189
1319.000000	0.002172
1318.000000	0.002155
1317.000000	0.002145
1316.000000	0.002138
1315.000000	0.002124
1314.000000	0.002103
1313.000000	0.002083
1312.000000	0.002071
1311.000000	0.002062
1310.000000	0.002051
1309.000000	0.002037
1308.000000	0.002022
1307.000000	0.002002
1306.000000	0.001972
1305.000000	0.001932
1304.000000	0.001893
1303.000000	0.001861
1302.000000	0.001840
1301.000000	0.001826
1300.000000	0.001813
1299.000000	0.001798
1298.000000	0.001777
1297.000000	0.001751
1296.000000	0.001720
1295.000000	0.001689
1294.000000	0.001666
1293.000000	0.001659
1292.000000	0.001668
1291.000000	0.001685
1290.000000	0.001705
1289.000000	0.001728
1288.000000	0.001754
1287.000000	0.001771
1286.000000	0.001770
1285.000000	0.001755
1284.000000	0.001739
1283.000000	0.001727
1282.000000	0.001714
1281.000000	0.001701
1280.000000	0.001700
1279.000000	0.001718
1278.000000	0.001744
1277.000000	0.001758
1276.000000	0.001753
1275.000000	0.001736
1274.000000	0.001721
1273.000000	0.001713
1272.000000	0.001716
1271.000000	0.001733
1270.000000	0.001758
1269.000000	0.001779
1268.000000	0.001780
1267.000000	0.001755
1266.000000	0.001716
1265.000000	0.001687
1264.000000	0.001685
1263.000000	0.001702
1262.000000	0.001717
1261.000000	0.001718
1260.000000	0.001714
1259.000000	0.001723
1258.000000	0.001750
1257.000000	0.001783
1256.000000	0.001812
1255.000000	0.001831
1254.000000	0.001841
1253.000000	0.001847
1252.000000	0.001862
1251.000000	0.001898
1250.000000	0.001955
1249.000000	0.002016
1248.000000	0.002062
1247.000000	0.002093
1246.000000	0.002121
1245.000000	0.002148
1244.000000	0.002169
1243.000000	0.002186
1242.000000	0.002210
1241.000000	0.002252
1240.000000	0.002308
1239.000000	0.002361
1238.000000	0.002393
1237.000000	0.002396
1236.000000	0.002377
1235.000000	0.002351
1234.000000	0.002330
1233.000000	0.002320
1232.000000	0.002316
1231.000000	0.002315
1230.000000	0.002309
1229.000000	0.002293
1228.000000	0.002266
1227.000000	0.002232
1226.000000	0.002195
1225.000000	0.002151
1224.000000	0.002095
1223.000000	0.002026
1222.000000	0.001947
1221.000000	0.001863
1220.000000	0.001787
1219.000000	0.001737
1218.000000	0.001725
1217.000000	0.001737
1216.000000	0.001745
1215.000000	0.001734
1214.000000	0.001709
1213.000000	0.001683
1212.000000	0.001658
1211.000000	0.001631
1210.000000	0.001609
1209.000000	0.001600
1208.000000	0.001607
1207.000000	0.001620
1206.000000	0.001625
1205.000000	0.001613
1204.000000	0.001593
1203.000000	0.001587
1202.000000	0.001608
1201.000000	0.001645
1200.000000	0.001666
1199.000000	0.001659
1198.000000	0.001636
1197.000000	0.001619
1196.000000	0.001614
1195.000000	0.001609
1194.000000	0.001597
1193.000000	0.001578
1192.000000	0.001552
1191.000000	0.001522
1190.000000	0.001500
1189.000000	0.001494
1188.000000	0.001499
1187.000000	0.001505
1186.000000	0.001509
1185.000000	0.001514
1184.000000	0.001520
1183.000000	0.001522
1182.000000	0.001525
1181.000000	0.001542
1180.000000	0.001578
1179.000000	0.001623
1178.000000	0.001666
1177.000000	0.001705
1176.000000	0.001740
1175.000000	0.001769
1174.000000	0.001794
1173.000000	0.001826
1172.000000	0.001875
1171.000000	0.001931
1170.000000	0.001977
1169.000000	0.002005
1168.000000	0.002029
1167.000000	0.002073
1166.000000	0.002140
1165.000000	0.002212
1164.000000	0.002265
1163.000000	0.002289
1162.000000	0.002298
1161.000000	0.002303
1160.000000	0.002310
1159.000000	0.002313
1158.000000	0.002310
1157.000000	0.002309
1156.000000	0.002317
1155.000000	0.002337
1154.000000	0.002363
1153.000000	0.002385
1152.000000	0.002397
1151.000000	0.002401
1150.000000	0.002402
1149.000000	0.002401
1148.000000	0.002392
1147.000000	0.002374
1146.000000	0.002353
1145.000000	0.002339
1144.000000	0.002335
1143.000000	0.002341
1142.000000	0.002349
1141.000000	0.002352
1140.000000	0.002341
1139.000000	0.002320
1138.000000	0.002298
1137.000000	0.002279
1136.000000	0.002258
1135.000000	0.002240
1134.000000	0.002239
1133.000000	0.002264
1132.000000	0.002307
1131.000000	0.002346
1130.000000	0.002368
1129.000000	0.002375
1128.000000	0.002379
1127.000000	0.002391
1126.000000	0.002419
1125.000000	0.002456
1124.000000	0.002487
1123.000000	0.002500
1122.000000	0.002498
1121.000000	0.002491
1120.000000	0.002480
1119.000000	0.002468
1118.000000	0.002467
1117.000000	0.002490
1116.000000	0.002536
1115.000000	0.002595
1114.000000	0.002660
1113.000000	0.002725
1112.000000	0.002774
1111.000000	0.002791
1110.000000	0.002783
1109.000000	0.002778
1108.000000	0.002799
1107.000000	0.002836
1106.000000	0.002871
1105.000000	0.002893
1104.000000	0.002902
1103.000000	0.002900
1102.000000	0.002888
1101.000000	0.002883
1100.000000	0.002904
1099.000000	0.002950
1098.000000	0.002997
1097.000000	0.003019
1096.000000	0.003016
1095.000000	0.003004
1094.000000	0.002999
1093.000000	0.002998
1092.000000	0.002992
1091.000000	0.002982
1090.000000	0.002979
1089.000000	0.002991
1088.000000	0.003012
1087.000000	0.003042
1086.000000	0.003079
1085.000000	0.003110
1084.000000	0.003114
1083.000000	0.003090
1082.000000	0.003071
1081.000000	0.003089
1080.000000	0.003138
1079.000000	0.003183
1078.000000	0.003206
1077.000000	0.003213
1076.000000	0.003217
1075.000000	0.003214
1074.000000	0.003201
1073.000000	0.003178
1072.000000	0.003143
1071.000000	0.003095
1070.000000	0.003047
1069.000000	0.003024
1068.000000	0.003034
1067.000000	0.003057
1066.000000	0.003074
1065.000000	0.003089
1064.000000	0.003108
1063.000000	0.003125
1062.000000	0.003124
1061.000000	0.003109
1060.000000	0.003092
1059.000000	0.003087
1058.000000	0.003098
1057.000000	0.003129
1056.000000	0.003180
1055.000000	0.003234
1054.000000	0.003268
1053.000000	0.003276
1052.000000	0.003272
1051.000000	0.003274
1050.000000	0.003285
1049.000000	0.003297
1048.000000	0.003308
1047.000000	0.003319
1046.000000	0.003330
1045.000000	0.003338
1044.000000	0.003336
1043.000000	0.003328
1042.000000	0.003329
1041.000000	0.003361
1040.000000	0.003427
1039.000000	0.003512
1038.000000	0.003586
1037.000000	0.003627
1036.000000	0.003634
1035.000000	0.003630
1034.000000	0.003637
1033.000000	0.003661
1032.000000	0.003685
1031.000000	0.003693
1030.000000	0.003691
1029.000000	0.003696
1028.000000	0.003710
1027.000000	0.003723
1026.000000	0.003721
1025.000000	0.003711
1024.000000	0.003704
1023.000000	0.003706
1022.000000	0.003705
1021.000000	0.003689
1020.000000	0.003653
1019.000000	0.003605
1018.000000	0.003558
1017.000000	0.003523
1016.000000	0.003495
1015.000000	0.003461
1014.000000	0.003423
1013.000000	0.003389
1012.000000	0.003362
1011.000000	0.003334
1010.000000	0.003306
1009.000000	0.003290
1008.000000	0.003290
1007.000000	0.003288
1006.000000	0.003263
1005.000000	0.003216
1004.000000	0.003167
1003.000000	0.003135
1002.000000	0.003117
1001.000000	0.003100
1000.000000	0.003072
999.000000	0.003028
998.000000	0.002972
997.000000	0.002913
996.000000	0.002855
995.000000	0.002806
994.000000	0.002773
993.000000	0.002758
992.000000	0.002746
991.000000	0.002710
990.000000	0.002640
989.000000	0.002554
988.000000	0.002487
987.000000	0.002455
986.000000	0.002443
985.000000	0.002422
984.000000	0.002383
983.000000	0.002339
982.000000	0.002308
981.000000	0.002287
980.000000	0.002261
979.000000	0.002223
978.000000	0.002188
977.000000	0.002167
976.000000	0.002151
975.000000	0.002121
974.000000	0.002074
973.000000	0.002031
972.000000	0.002011
971.000000	0.002009
970.000000	0.001995
969.000000	0.001948
968.000000	0.001871
967.000000	0.001787
966.000000	0.001716
965.000000	0.001665
964.000000	0.001626
963.000000	0.001587
962.000000	0.001543
961.000000	0.001502
960.000000	0.001472
959.000000	0.001456
958.000000	0.001441
957.000000	0.001412
956.000000	0.001367
955.000000	0.001318
954.000000	0.001281
953.000000	0.001259
952.000000	0.001236
951.000000	0.001193
950.000000	0.001134
949.000000	0.001089
948.000000	0.001088
947.000000	0.001128
946.000000	0.001162
945.000000	0.001146
944.000000	0.001075
943.000000	0.000984
942.000000	0.000916
941.000000	0.000880
940.000000	0.000864
939.000000	0.000859
938.000000	0.000868
937.000000	0.000885
936.000000	0.000894
935.000000	0.000880
934.000000	0.000845
933.000000	0.000802
932.000000	0.000758
931.000000	0.000719
930.000000	0.000693
929.000000	0.000684
928.000000	0.000686
927.000000	0.000687
926.000000	0.000685
925.000000	0.000683
924.000000	0.000679
923.000000	0.000664
922.000000	0.000631
921.000000	0.000592
920.000000	0.000565
919.000000	0.000563
918.000000	0.000576
917.000000	0.000579
916.000000	0.000555
915.000000	0.000514
914.000000	0.000480
913.000000	0.000468
912.000000	0.000471
911.000000	0.000476
910.000000	0.000482
909.000000	0.000496
908.000000	0.000519
907.000000	0.000543
906.000000	0.000566
905.000000	0.000591
904.000000	0.000612
903.000000	0.000609
902.000000	0.000575
901.000000	0.000516
900.000000	0.000448
899.000000	0.000388
898.000000	0.000347
897.000000	0.000334
896.000000	0.000348
895.000000	0.000372
894.000000	0.000389
893.000000	0.000383
892.000000	0.000347
891.000000	0.000284
890.000000	0.000218
889.000000	0.000174
888.000000	0.000165
887.000000	0.000184
886.000000	0.000227
885.000000	0.000302
884.000000	0.000405
883.000000	0.000514
882.000000	0.000610
881.000000	0.000703
880.000000	0.000818
879.000000	0.000957
878.000000	0.001101
877.000000	0.001232
876.000000	0.001352
875.000000	0.001457
874.000000	0.001526
873.000000	0.001535
872.000000	0.001487
871.000000	0.001406
870.000000	0.001313
869.000000	0.001217
868.000000	0.001125
867.000000	0.001039
866.000000	0.000953
865.000000	0.000855
864.000000	0.000750
863.000000	0.000665
862.000000	0.000627
861.000000	0.000632
860.000000	0.000638
859.000000	0.000610
858.000000	0.000550
857.000000	0.000496
856.000000	0.000478
855.000000	0.000486
854.000000	0.000480
853.000000	0.000430
852.000000	0.000348
851.000000	0.000281
850.000000	0.000275
849.000000	0.000326
848.000000	0.000387
847.000000	0.000412
846.000000	0.000399
845.000000	0.000372
844.000000	0.000348
843.000000	0.000315
842.000000	0.000265
841.000000	0.000214
840.000000	0.000182
839.000000	0.000175
838.000000	0.000183
837.000000	0.000190
836.000000	0.000186
835.000000	0.000172
834.000000	0.000157
833.000000	0.000158
832.000000	0.000184
831.000000	0.000222
830.000000	0.000246
829.000000	0.000236
828.000000	0.000202
827.000000	0.000170
826.000000	0.000159
825.000000	0.000164
824.000000	0.000167
823.000000	0.000161
822.000000	0.000155
821.000000	0.000162
820.000000	0.000189
819.000000	0.000232
818.000000	0.000285
817.000000	0.000333
816.000000	0.000363
815.000000	0.000381
814.000000	0.000416
813.000000	0.000474
812.000000	0.000523
811.000000	0.000512
810.000000	0.000435
809.000000	0.000344
808.000000	0.000294
807.000000	0.000292
806.000000	0.000300
805.000000	0.000281
804.000000	0.000227
803.000000	0.000157
802.000000	0.000102
801.000000	0.000088
800.000000	0.000116
799.000000	0.000163
798.000000	0.000201
797.000000	0.000222
796.000000	0.000238
795.000000	0.000269
794.000000	0.000327
793.000000	0.000404
792.000000	0.000474
791.000000	0.000514
790.000000	0.000524
789.000000	0.000521
788.000000	0.000507
787.000000	0.000468
786.000000	0.000395
785.000000	0.000318
784.000000	0.000277
783.000000	0.000283
782.000000	0.000308
781.000000	0.000313
780.000000	0.000291
779.000000	0.000272
778.000000	0.000296
777.000000	0.000367
776.000000	0.000442
775.000000	0.000467
774.000000	0.000427
773.000000	0.000355
772.000000	0.000298
771.000000	0.000276
770.000000	0.000276
769.000000	0.000278
768.000000	0.000268
767.000000	0.000236
766.000000	0.000182
765.000000	0.000131
764.000000	0.000113
763.000000	0.000140
762.000000	0.000192
761.000000	0.000235
760.000000	0.000243
759.000000	0.000214
758.000000	0.000172
757.000000	0.000151
756.000000	0.000170
755.000000	0.000218
754.000000	0.000270
753.000000	0.000312
752.000000	0.000339
751.000000	0.000348
750.000000	0.000331
749.000000	0.000293
748.000000	0.000254
747.000000	0.000233
746.000000	0.000237
745.000000	0.000259
744.000000	0.000284
743.000000	0.000286
742.000000	0.000248
741.000000	0.000178
740.000000	0.000117
739.000000	0.000097
738.000000	0.000117
737.000000	0.000157
736.000000	0.000203
735.000000	0.000248
734.000000	0.000285
733.000000	0.000296
732.000000	0.000273
731.000000	0.000228
730.000000	0.000197
729.000000	0.000215
728.000000	0.000277
727.000000	0.000333
726.000000	0.000336
725.000000	0.000293
724.000000	0.000247
723.000000	0.000221
722.000000	0.000191
721.000000	0.000140
720.000000	0.000093
719.000000	0.000093
718.000000	0.000149
717.000000	0.000238
716.000000	0.000349
715.000000	0.000481
714.000000	0.000617
713.000000	0.000710
712.000000	0.000728
711.000000	0.000682
710.000000	0.000604
709.000000	0.000525
708.000000	0.000463
707.000000	0.000424
706.000000	0.000399
705.000000	0.000368
704.000000	0.000324
703.000000	0.000288
702.000000	0.000290
701.000000	0.000329
700.000000	0.000371
699.000000	0.000389
698.000000	0.000385
697.000000	0.000393
696.000000	0.000437
695.000000	0.000514
694.000000	0.000594
693.000000	0.000633
692.000000	0.000603
691.000000	0.000524
690.000000	0.000443
689.000000	0.000402
688.000000	0.000393
687.000000	0.000380
686.000000	0.000340
685.000000	0.000281
684.000000	0.000233
683.000000	0.000214
682.000000	0.000220
681.000000	0.000247
680.000000	0.000289
679.000000	0.000335
678.000000	0.000366
677.000000	0.000388
676.000000	0.000441
675.000000	0.000547
674.000000	0.000679
673.000000	0.000795
672.000000	0.000881
671.000000	0.000948
670.000000	0.000976
669.000000	0.000907
668.000000	0.000782
667.000000	0.000696
666.000000	0.000614
665.000000	0.000590
664.000000	0.000643
663.000000	0.000724
662.000000	0.000769
661.000000	0.000743
660.000000	0.000653
659.000000	0.000545
658.000000	0.000470
657.000000	0.000455
656.000000	0.000476
655.000000	0.000491
654.000000	0.000495
653.000000	0.000498
652.000000	0.000489
651.000000	0.000446
650.000000	0.000393
649.000000	0.000385
648.000000	0.000413
647.000000	0.000412
646.000000	0.000344
645.000000	0.000246
644.000000	0.000161
643.000000	0.000105
642.000000	0.000093
641.000000	0.000153
640.000000	0.000270
639.000000	0.000366
638.000000	0.000379
637.000000	0.000318
636.000000	0.000229
635.000000	0.000139
634.000000	0.000065
633.000000	0.000039
632.000000	0.000084
631.000000	0.000181
630.000000	0.000289
629.000000	0.000383
628.000000	0.000444
627.000000	0.000455
626.000000	0.000425
625.000000	0.000395
624.000000	0.000385
623.000000	0.000364
622.000000	0.000292
621.000000	0.000195
620.000000	0.000150
619.000000	0.000212
618.000000	0.000369
617.000000	0.000550
616.000000	0.000656
615.000000	0.000619
614.000000	0.000461
613.000000	0.000294
612.000000	0.000241
611.000000	0.000325
610.000000	0.000465
609.000000	0.000560
608.000000	0.000567
607.000000	0.000517
606.000000	0.000476
605.000000	0.000492
604.000000	0.000560
603.000000	0.000626
602.000000	0.000633
601.000000	0.000581
600.000000	0.000529
599.000000	0.000546
598.000000	0.000657
597.000000	0.000818
596.000000	0.000952
595.000000	0.000995
594.000000	0.000945
593.000000	0.000855
592.000000	0.000786
591.000000	0.000771
590.000000	0.000807
589.000000	0.000875
588.000000	0.000941
587.000000	0.000979
586.000000	0.000983
585.000000	0.000962
584.000000	0.000905
583.000000	0.000793
582.000000	0.000646
581.000000	0.000542
580.000000	0.000549
579.000000	0.000652
578.000000	0.000777
577.000000	0.000860
576.000000	0.000889
575.000000	0.000906
574.000000	0.000964
573.000000	0.001072
572.000000	0.001162
571.000000	0.001149
570.000000	0.001024
569.000000	0.000873
568.000000	0.000776
567.000000	0.000728
566.000000	0.000689
565.000000	0.000656
564.000000	0.000641
563.000000	0.000628
562.000000	0.000603
561.000000	0.000591
560.000000	0.000610
559.000000	0.000624
558.000000	0.000598
557.000000	0.000578
556.000000	0.000631
555.000000	0.000736
554.000000	0.000787
553.000000	0.000730
552.000000	0.000614
551.000000	0.000518
550.000000	0.000473
549.000000	0.000476
548.000000	0.000520
547.000000	0.000578
546.000000	0.000612
545.000000	0.000633
544.000000	0.000701
543.000000	0.000837
542.000000	0.000970
541.000000	0.001009
540.000000	0.000938
539.000000	0.000798
538.000000	0.000620
537.000000	0.000399
536.000000	0.000158
535.000000	-0.000012
534.000000	-0.000009
533.000000	0.000188
532.000000	0.000506
531.000000	0.000833
530.000000	0.001083
529.000000	0.001214
528.000000	0.001226
527.000000	0.001177
526.000000	0.001175
525.000000	0.001283
524.000000	0.001418
523.000000	0.001425
522.000000	0.001253
521.000000	0.001025
520.000000	0.000904
519.000000	0.000907
518.000000	0.000906
517.000000	0.000808
516.000000	0.000666
515.000000	0.000586
514.000000	0.000594
513.000000	0.000661
512.000000	0.000764
511.000000	0.000891
510.000000	0.000986
509.000000	0.000977
508.000000	0.000874
507.000000	0.000812
506.000000	0.000916
505.000000	0.001125
504.000000	0.001228
503.000000	0.001091
502.000000	0.000814
501.000000	0.000603
500.000000	0.000508
499.000000	0.000419
498.000000	0.000278
497.000000	0.000146
496.000000	0.000075
495.000000	0.000043
494.000000	0.000038
493.000000	0.000109
492.000000	0.000254
491.000000	0.000349
490.000000	0.000297
489.000000	0.000182
488.000000	0.000160
487.000000	0.000259
486.000000	0.000353
485.000000	0.000321
484.000000	0.000156
483.000000	-0.000056
482.000000	-0.000211
481.000000	-0.000237
480.000000	-0.000131
479.000000	0.000069
478.000000	0.000343
477.000000	0.000677
476.000000	0.000971
475.000000	0.001047
474.000000	0.000825
473.000000	0.000447
472.000000	0.000147
471.000000	-0.000035
470.000000	-0.000214
469.000000	-0.000383
468.000000	-0.000405
467.000000	-0.000228
466.000000	0.000018
465.000000	0.000189
464.000000	0.000259
463.000000	0.000246
462.000000	0.000162
461.000000	0.000028
460.000000	-0.000140
459.000000	-0.000352
458.000000	-0.000553
457.000000	-0.000562
456.000000	-0.000298
455.000000	0.000056
454.000000	0.000268
453.000000	0.000290
452.000000	0.000221
451.000000	0.000119
450.000000	-0.000033
