PE IR       SUBTECH     SPECTRUM    ASCII       PEDS        4.00        
   -1
P12-Vert008_1.ASC
23/06/08
16:10:57.00
23/06/08
16:23:55.00
uco
Sample 008 By uco Date Thursday, June 08 2023
450.000000
#HDR
-1
-1
#GR
cm-1
A
1.0
0.0
4000.000000
-1.000000
3551
8
0.038488
0.001048
#DATA
4000.000000	0.001380
3999.000000	0.001389
3998.000000	0.001396
3997.000000	0.001395
3996.000000	0.001389
3995.000000	0.001383
3994.000000	0.001382
3993.000000	0.001390
3992.000000	0.001405
3991.000000	0.001426
3990.000000	0.001452
3989.000000	0.001477
3988.000000	0.001496
3987.000000	0.001503
3986.000000	0.001497
3985.000000	0.001483
3984.000000	0.001470
3983.000000	0.001466
3982.000000	0.001478
3981.000000	0.001506
3980.000000	0.001539
3979.000000	0.001562
3978.000000	0.001563
3977.000000	0.001548
3976.000000	0.001529
3975.000000	0.001520
3974.000000	0.001521
3973.000000	0.001521
3972.000000	0.001511
3971.000000	0.001490
3970.000000	0.001463
3969.000000	0.001444
3968.000000	0.001440
3967.000000	0.001458
3966.000000	0.001489
3965.000000	0.001520
3964.000000	0.001538
3963.000000	0.001538
3962.000000	0.001526
3961.000000	0.001518
3960.000000	0.001522
3959.000000	0.001531
3958.000000	0.001533
3957.000000	0.001520
3956.000000	0.001498
3955.000000	0.001478
3954.000000	0.001474
3953.000000	0.001490
3952.000000	0.001527
3951.000000	0.001574
3950.000000	0.001614
3949.000000	0.001633
3948.000000	0.001622
3947.000000	0.001592
3946.000000	0.001558
3945.000000	0.001532
3944.000000	0.001521
3943.000000	0.001524
3942.000000	0.001541
3941.000000	0.001568
3940.000000	0.001595
3939.000000	0.001611
3938.000000	0.001612
3937.000000	0.001606
3936.000000	0.001605
3935.000000	0.001615
3934.000000	0.001630
3933.000000	0.001632
3932.000000	0.001612
3931.000000	0.001576
3930.000000	0.001546
3929.000000	0.001536
3928.000000	0.001545
3927.000000	0.001563
3926.000000	0.001575
3925.000000	0.001569
3924.000000	0.001545
3923.000000	0.001516
3922.000000	0.001500
3921.000000	0.001509
3920.000000	0.001538
3919.000000	0.001570
3918.000000	0.001588
3917.000000	0.001586
3916.000000	0.001574
3915.000000	0.001564
3914.000000	0.001560
3913.000000	0.001560
3912.000000	0.001563
3911.000000	0.001574
3910.000000	0.001593
3909.000000	0.001613
3908.000000	0.001623
3907.000000	0.001621
3906.000000	0.001616
3905.000000	0.001616
3904.000000	0.001620
3903.000000	0.001617
3902.000000	0.001602
3901.000000	0.001584
3900.000000	0.001575
3899.000000	0.001575
3898.000000	0.001577
3897.000000	0.001574
3896.000000	0.001569
3895.000000	0.001564
3894.000000	0.001561
3893.000000	0.001561
3892.000000	0.001565
3891.000000	0.001571
3890.000000	0.001581
3889.000000	0.001591
3888.000000	0.001602
3887.000000	0.001608
3886.000000	0.001610
3885.000000	0.001612
3884.000000	0.001615
3883.000000	0.001612
3882.000000	0.001597
3881.000000	0.001574
3880.000000	0.001565
3879.000000	0.001584
3878.000000	0.001618
3877.000000	0.001640
3876.000000	0.001629
3875.000000	0.001587
3874.000000	0.001545
3873.000000	0.001541
3872.000000	0.001584
3871.000000	0.001643
3870.000000	0.001677
3869.000000	0.001672
3868.000000	0.001652
3867.000000	0.001635
3866.000000	0.001617
3865.000000	0.001585
3864.000000	0.001551
3863.000000	0.001540
3862.000000	0.001558
3861.000000	0.001594
3860.000000	0.001629
3859.000000	0.001653
3858.000000	0.001669
3857.000000	0.001684
3856.000000	0.001702
3855.000000	0.001712
3854.000000	0.001705
3853.000000	0.001680
3852.000000	0.001637
3851.000000	0.001588
3850.000000	0.001552
3849.000000	0.001536
3848.000000	0.001541
3847.000000	0.001560
3846.000000	0.001580
3845.000000	0.001584
3844.000000	0.001565
3843.000000	0.001528
3842.000000	0.001490
3841.000000	0.001465
3840.000000	0.001454
3839.000000	0.001455
3838.000000	0.001467
3837.000000	0.001485
3836.000000	0.001502
3835.000000	0.001513
3834.000000	0.001517
3833.000000	0.001514
3832.000000	0.001508
3831.000000	0.001509
3830.000000	0.001526
3829.000000	0.001555
3828.000000	0.001583
3827.000000	0.001597
3826.000000	0.001594
3825.000000	0.001583
3824.000000	0.001570
3823.000000	0.001543
3822.000000	0.001492
3821.000000	0.001433
3820.000000	0.001398
3819.000000	0.001398
3818.000000	0.001420
3817.000000	0.001444
3816.000000	0.001459
3815.000000	0.001475
3814.000000	0.001504
3813.000000	0.001538
3812.000000	0.001564
3811.000000	0.001574
3810.000000	0.001576
3809.000000	0.001578
3808.000000	0.001576
3807.000000	0.001559
3806.000000	0.001534
3805.000000	0.001517
3804.000000	0.001519
3803.000000	0.001519
3802.000000	0.001487
3801.000000	0.001426
3800.000000	0.001375
3799.000000	0.001362
3798.000000	0.001385
3797.000000	0.001424
3796.000000	0.001458
3795.000000	0.001476
3794.000000	0.001483
3793.000000	0.001490
3792.000000	0.001500
3791.000000	0.001512
3790.000000	0.001518
3789.000000	0.001520
3788.000000	0.001518
3787.000000	0.001519
3786.000000	0.001520
3785.000000	0.001516
3784.000000	0.001507
3783.000000	0.001500
3782.000000	0.001501
3781.000000	0.001509
3780.000000	0.001517
3779.000000	0.001520
3778.000000	0.001519
3777.000000	0.001514
3776.000000	0.001507
3775.000000	0.001501
3774.000000	0.001503
3773.000000	0.001514
3772.000000	0.001528
3771.000000	0.001527
3770.000000	0.001499
3769.000000	0.001456
3768.000000	0.001421
3767.000000	0.001413
3766.000000	0.001433
3765.000000	0.001470
3764.000000	0.001505
3763.000000	0.001524
3762.000000	0.001519
3761.000000	0.001494
3760.000000	0.001466
3759.000000	0.001458
3758.000000	0.001480
3757.000000	0.001521
3756.000000	0.001562
3755.000000	0.001594
3754.000000	0.001610
3753.000000	0.001610
3752.000000	0.001610
3751.000000	0.001622
3750.000000	0.001637
3749.000000	0.001630
3748.000000	0.001601
3747.000000	0.001570
3746.000000	0.001548
3745.000000	0.001529
3744.000000	0.001512
3743.000000	0.001498
3742.000000	0.001492
3741.000000	0.001491
3740.000000	0.001494
3739.000000	0.001497
3738.000000	0.001506
3737.000000	0.001523
3736.000000	0.001537
3735.000000	0.001526
3734.000000	0.001493
3733.000000	0.001457
3732.000000	0.001433
3731.000000	0.001426
3730.000000	0.001445
3729.000000	0.001496
3728.000000	0.001568
3727.000000	0.001634
3726.000000	0.001675
3725.000000	0.001699
3724.000000	0.001717
3723.000000	0.001728
3722.000000	0.001723
3721.000000	0.001695
3720.000000	0.001647
3719.000000	0.001593
3718.000000	0.001542
3717.000000	0.001498
3716.000000	0.001462
3715.000000	0.001434
3714.000000	0.001425
3713.000000	0.001445
3712.000000	0.001494
3711.000000	0.001542
3710.000000	0.001555
3709.000000	0.001529
3708.000000	0.001483
3707.000000	0.001439
3706.000000	0.001408
3705.000000	0.001391
3704.000000	0.001380
3703.000000	0.001366
3702.000000	0.001353
3701.000000	0.001352
3700.000000	0.001365
3699.000000	0.001387
3698.000000	0.001406
3697.000000	0.001415
3696.000000	0.001418
3695.000000	0.001425
3694.000000	0.001438
3693.000000	0.001448
3692.000000	0.001439
3691.000000	0.001412
3690.000000	0.001392
3689.000000	0.001408
3688.000000	0.001455
3687.000000	0.001494
3686.000000	0.001505
3685.000000	0.001493
3684.000000	0.001473
3683.000000	0.001450
3682.000000	0.001426
3681.000000	0.001408
3680.000000	0.001413
3679.000000	0.001451
3678.000000	0.001516
3677.000000	0.001572
3676.000000	0.001578
3675.000000	0.001539
3674.000000	0.001501
3673.000000	0.001488
3672.000000	0.001494
3671.000000	0.001497
3670.000000	0.001489
3669.000000	0.001478
3668.000000	0.001471
3667.000000	0.001465
3666.000000	0.001458
3665.000000	0.001456
3664.000000	0.001470
3663.000000	0.001501
3662.000000	0.001534
3661.000000	0.001553
3660.000000	0.001549
3659.000000	0.001527
3658.000000	0.001501
3657.000000	0.001484
3656.000000	0.001485
3655.000000	0.001499
3654.000000	0.001519
3653.000000	0.001540
3652.000000	0.001562
3651.000000	0.001589
3650.000000	0.001629
3649.000000	0.001678
3648.000000	0.001708
3647.000000	0.001703
3646.000000	0.001669
3645.000000	0.001622
3644.000000	0.001582
3643.000000	0.001563
3642.000000	0.001568
3641.000000	0.001586
3640.000000	0.001603
3639.000000	0.001609
3638.000000	0.001611
3637.000000	0.001619
3636.000000	0.001640
3635.000000	0.001673
3634.000000	0.001704
3633.000000	0.001726
3632.000000	0.001741
3631.000000	0.001753
3630.000000	0.001764
3629.000000	0.001774
3628.000000	0.001781
3627.000000	0.001783
3626.000000	0.001774
3625.000000	0.001749
3624.000000	0.001705
3623.000000	0.001648
3622.000000	0.001590
3621.000000	0.001549
3620.000000	0.001541
3619.000000	0.001569
3618.000000	0.001617
3617.000000	0.001667
3616.000000	0.001713
3615.000000	0.001752
3614.000000	0.001784
3613.000000	0.001805
3612.000000	0.001821
3611.000000	0.001838
3610.000000	0.001862
3609.000000	0.001888
3608.000000	0.001904
3607.000000	0.001906
3606.000000	0.001902
3605.000000	0.001903
3604.000000	0.001908
3603.000000	0.001911
3602.000000	0.001902
3601.000000	0.001877
3600.000000	0.001843
3599.000000	0.001811
3598.000000	0.001791
3597.000000	0.001789
3596.000000	0.001811
3595.000000	0.001857
3594.000000	0.001917
3593.000000	0.001971
3592.000000	0.002007
3591.000000	0.002023
3590.000000	0.002022
3589.000000	0.002009
3588.000000	0.001987
3587.000000	0.001966
3586.000000	0.001957
3585.000000	0.001962
3584.000000	0.001970
3583.000000	0.001970
3582.000000	0.001962
3581.000000	0.001952
3580.000000	0.001945
3579.000000	0.001941
3578.000000	0.001940
3577.000000	0.001946
3576.000000	0.001969
3575.000000	0.002016
3574.000000	0.002079
3573.000000	0.002144
3572.000000	0.002199
3571.000000	0.002242
3570.000000	0.002284
3569.000000	0.002332
3568.000000	0.002372
3567.000000	0.002376
3566.000000	0.002342
3565.000000	0.002304
3564.000000	0.002288
3563.000000	0.002292
3562.000000	0.002302
3561.000000	0.002313
3560.000000	0.002325
3559.000000	0.002338
3558.000000	0.002345
3557.000000	0.002340
3556.000000	0.002332
3555.000000	0.002341
3554.000000	0.002380
3553.000000	0.002444
3552.000000	0.002512
3551.000000	0.002566
3550.000000	0.002602
3549.000000	0.002626
3548.000000	0.002642
3547.000000	0.002648
3546.000000	0.002643
3545.000000	0.002627
3544.000000	0.002611
3543.000000	0.002603
3542.000000	0.002605
3541.000000	0.002612
3540.000000	0.002619
3539.000000	0.002624
3538.000000	0.002628
3537.000000	0.002634
3536.000000	0.002642
3535.000000	0.002652
3534.000000	0.002660
3533.000000	0.002664
3532.000000	0.002660
3531.000000	0.002651
3530.000000	0.002642
3529.000000	0.002646
3528.000000	0.002665
3527.000000	0.002695
3526.000000	0.002722
3525.000000	0.002736
3524.000000	0.002735
3523.000000	0.002721
3522.000000	0.002701
3521.000000	0.002681
3520.000000	0.002667
3519.000000	0.002659
3518.000000	0.002660
3517.000000	0.002671
3516.000000	0.002690
3515.000000	0.002712
3514.000000	0.002730
3513.000000	0.002736
3512.000000	0.002731
3511.000000	0.002717
3510.000000	0.002695
3509.000000	0.002671
3508.000000	0.002658
3507.000000	0.002668
3506.000000	0.002700
3505.000000	0.002740
3504.000000	0.002772
3503.000000	0.002784
3502.000000	0.002778
3501.000000	0.002763
3500.000000	0.002748
3499.000000	0.002739
3498.000000	0.002735
3497.000000	0.002736
3496.000000	0.002736
3495.000000	0.002732
3494.000000	0.002724
3493.000000	0.002721
3492.000000	0.002735
3491.000000	0.002769
3490.000000	0.002807
3489.000000	0.002833
3488.000000	0.002843
3487.000000	0.002851
3486.000000	0.002872
3485.000000	0.002905
3484.000000	0.002931
3483.000000	0.002934
3482.000000	0.002911
3481.000000	0.002876
3480.000000	0.002849
3479.000000	0.002844
3478.000000	0.002862
3477.000000	0.002893
3476.000000	0.002926
3475.000000	0.002958
3474.000000	0.002989
3473.000000	0.003011
3472.000000	0.003015
3471.000000	0.002998
3470.000000	0.002973
3469.000000	0.002960
3468.000000	0.002963
3467.000000	0.002975
3466.000000	0.002988
3465.000000	0.003004
3464.000000	0.003026
3463.000000	0.003049
3462.000000	0.003061
3461.000000	0.003059
3460.000000	0.003049
3459.000000	0.003046
3458.000000	0.003053
3457.000000	0.003066
3456.000000	0.003077
3455.000000	0.003083
3454.000000	0.003085
3453.000000	0.003088
3452.000000	0.003095
3451.000000	0.003103
3450.000000	0.003107
3449.000000	0.003099
3448.000000	0.003082
3447.000000	0.003069
3446.000000	0.003076
3445.000000	0.003106
3444.000000	0.003140
3443.000000	0.003154
3442.000000	0.003141
3441.000000	0.003119
3440.000000	0.003111
3439.000000	0.003125
3438.000000	0.003144
3437.000000	0.003155
3436.000000	0.003158
3435.000000	0.003165
3434.000000	0.003184
3433.000000	0.003209
3432.000000	0.003229
3431.000000	0.003241
3430.000000	0.003246
3429.000000	0.003244
3428.000000	0.003236
3427.000000	0.003225
3426.000000	0.003220
3425.000000	0.003230
3424.000000	0.003258
3423.000000	0.003297
3422.000000	0.003337
3421.000000	0.003366
3420.000000	0.003382
3419.000000	0.003382
3418.000000	0.003373
3417.000000	0.003371
3416.000000	0.003387
3415.000000	0.003421
3414.000000	0.003459
3413.000000	0.003486
3412.000000	0.003501
3411.000000	0.003512
3410.000000	0.003521
3409.000000	0.003524
3408.000000	0.003520
3407.000000	0.003518
3406.000000	0.003523
3405.000000	0.003537
3404.000000	0.003548
3403.000000	0.003551
3402.000000	0.003551
3401.000000	0.003557
3400.000000	0.003572
3399.000000	0.003592
3398.000000	0.003611
3397.000000	0.003627
3396.000000	0.003642
3395.000000	0.003655
3394.000000	0.003663
3393.000000	0.003660
3392.000000	0.003644
3391.000000	0.003619
3390.000000	0.003594
3389.000000	0.003580
3388.000000	0.003582
3387.000000	0.003594
3386.000000	0.003610
3385.000000	0.003625
3384.000000	0.003643
3383.000000	0.003661
3382.000000	0.003672
3381.000000	0.003669
3380.000000	0.003652
3379.000000	0.003633
3378.000000	0.003618
3377.000000	0.003608
3376.000000	0.003601
3375.000000	0.003597
3374.000000	0.003598
3373.000000	0.003607
3372.000000	0.003626
3371.000000	0.003654
3370.000000	0.003685
3369.000000	0.003707
3368.000000	0.003715
3367.000000	0.003715
3366.000000	0.003713
3365.000000	0.003710
3364.000000	0.003704
3363.000000	0.003690
3362.000000	0.003673
3361.000000	0.003659
3360.000000	0.003655
3359.000000	0.003664
3358.000000	0.003680
3357.000000	0.003696
3356.000000	0.003708
3355.000000	0.003717
3354.000000	0.003732
3353.000000	0.003756
3352.000000	0.003783
3351.000000	0.003804
3350.000000	0.003812
3349.000000	0.003806
3348.000000	0.003790
3347.000000	0.003772
3346.000000	0.003757
3345.000000	0.003743
3344.000000	0.003731
3343.000000	0.003722
3342.000000	0.003724
3341.000000	0.003739
3340.000000	0.003764
3339.000000	0.003795
3338.000000	0.003829
3337.000000	0.003859
3336.000000	0.003881
3335.000000	0.003892
3334.000000	0.003902
3333.000000	0.003918
3332.000000	0.003937
3331.000000	0.003948
3330.000000	0.003942
3329.000000	0.003925
3328.000000	0.003907
3327.000000	0.003897
3326.000000	0.003896
3325.000000	0.003902
3324.000000	0.003916
3323.000000	0.003934
3322.000000	0.003948
3321.000000	0.003949
3320.000000	0.003936
3319.000000	0.003922
3318.000000	0.003924
3317.000000	0.003952
3316.000000	0.003994
3315.000000	0.004025
3314.000000	0.004029
3313.000000	0.004011
3312.000000	0.003995
3311.000000	0.003999
3310.000000	0.004022
3309.000000	0.004046
3308.000000	0.004056
3307.000000	0.004048
3306.000000	0.004034
3305.000000	0.004022
3304.000000	0.004017
3303.000000	0.004010
3302.000000	0.003996
3301.000000	0.003974
3300.000000	0.003956
3299.000000	0.003957
3298.000000	0.003980
3297.000000	0.004016
3296.000000	0.004050
3295.000000	0.004079
3294.000000	0.004102
3293.000000	0.004121
3292.000000	0.004128
3291.000000	0.004120
3290.000000	0.004097
3289.000000	0.004067
3288.000000	0.004035
3287.000000	0.004010
3286.000000	0.003998
3285.000000	0.004001
3284.000000	0.004010
3283.000000	0.004019
3282.000000	0.004023
3281.000000	0.004023
3280.000000	0.004016
3279.000000	0.004001
3278.000000	0.003984
3277.000000	0.003974
3276.000000	0.003976
3275.000000	0.003986
3274.000000	0.003995
3273.000000	0.003990
3272.000000	0.003971
3271.000000	0.003953
3270.000000	0.003955
3269.000000	0.003985
3268.000000	0.004025
3267.000000	0.004052
3266.000000	0.004052
3265.000000	0.004036
3264.000000	0.004021
3263.000000	0.004016
3262.000000	0.004017
3261.000000	0.004017
3260.000000	0.004013
3259.000000	0.004008
3258.000000	0.004009
3257.000000	0.004018
3256.000000	0.004029
3255.000000	0.004033
3254.000000	0.004023
3253.000000	0.003998
3252.000000	0.003964
3251.000000	0.003931
3250.000000	0.003907
3249.000000	0.003898
3248.000000	0.003902
3247.000000	0.003910
3246.000000	0.003916
3245.000000	0.003919
3244.000000	0.003926
3243.000000	0.003940
3242.000000	0.003957
3241.000000	0.003966
3240.000000	0.003959
3239.000000	0.003936
3238.000000	0.003906
3237.000000	0.003879
3236.000000	0.003858
3235.000000	0.003839
3234.000000	0.003821
3233.000000	0.003805
3232.000000	0.003794
3231.000000	0.003789
3230.000000	0.003783
3229.000000	0.003773
3228.000000	0.003759
3227.000000	0.003749
3226.000000	0.003747
3225.000000	0.003754
3224.000000	0.003767
3223.000000	0.003780
3222.000000	0.003791
3221.000000	0.003798
3220.000000	0.003802
3219.000000	0.003805
3218.000000	0.003807
3217.000000	0.003810
3216.000000	0.003814
3215.000000	0.003820
3214.000000	0.003828
3213.000000	0.003833
3212.000000	0.003830
3211.000000	0.003815
3210.000000	0.003790
3209.000000	0.003761
3208.000000	0.003734
3207.000000	0.003721
3206.000000	0.003724
3205.000000	0.003735
3204.000000	0.003741
3203.000000	0.003737
3202.000000	0.003726
3201.000000	0.003713
3200.000000	0.003695
3199.000000	0.003666
3198.000000	0.003636
3197.000000	0.003622
3196.000000	0.003635
3195.000000	0.003662
3194.000000	0.003683
3193.000000	0.003685
3192.000000	0.003670
3191.000000	0.003650
3190.000000	0.003634
3189.000000	0.003632
3188.000000	0.003641
3187.000000	0.003655
3186.000000	0.003666
3185.000000	0.003668
3184.000000	0.003664
3183.000000	0.003654
3182.000000	0.003643
3181.000000	0.003636
3180.000000	0.003636
3179.000000	0.003640
3178.000000	0.003638
3177.000000	0.003627
3176.000000	0.003614
3175.000000	0.003605
3174.000000	0.003596
3173.000000	0.003579
3172.000000	0.003557
3171.000000	0.003545
3170.000000	0.003550
3169.000000	0.003561
3168.000000	0.003562
3167.000000	0.003548
3166.000000	0.003525
3165.000000	0.003505
3164.000000	0.003493
3163.000000	0.003486
3162.000000	0.003479
3161.000000	0.003471
3160.000000	0.003470
3159.000000	0.003479
3158.000000	0.003496
3157.000000	0.003506
3156.000000	0.003502
3155.000000	0.003493
3154.000000	0.003490
3153.000000	0.003494
3152.000000	0.003495
3151.000000	0.003487
3150.000000	0.003473
3149.000000	0.003462
3148.000000	0.003459
3147.000000	0.003469
3146.000000	0.003489
3145.000000	0.003511
3144.000000	0.003521
3143.000000	0.003513
3142.000000	0.003492
3141.000000	0.003470
3140.000000	0.003456
3139.000000	0.003450
3138.000000	0.003450
3137.000000	0.003450
3136.000000	0.003445
3135.000000	0.003436
3134.000000	0.003430
3133.000000	0.003436
3132.000000	0.003456
3131.000000	0.003485
3130.000000	0.003511
3129.000000	0.003529
3128.000000	0.003535
3127.000000	0.003529
3126.000000	0.003512
3125.000000	0.003488
3124.000000	0.003460
3123.000000	0.003436
3122.000000	0.003425
3121.000000	0.003432
3120.000000	0.003448
3119.000000	0.003458
3118.000000	0.003449
3117.000000	0.003424
3116.000000	0.003397
3115.000000	0.003384
3114.000000	0.003387
3113.000000	0.003402
3112.000000	0.003424
3111.000000	0.003448
3110.000000	0.003470
3109.000000	0.003476
3108.000000	0.003457
3107.000000	0.003415
3106.000000	0.003364
3105.000000	0.003328
3104.000000	0.003321
3103.000000	0.003340
3102.000000	0.003369
3101.000000	0.003390
3100.000000	0.003395
3099.000000	0.003385
3098.000000	0.003372
3097.000000	0.003363
3096.000000	0.003368
3095.000000	0.003384
3094.000000	0.003405
3093.000000	0.003418
3092.000000	0.003416
3091.000000	0.003398
3090.000000	0.003376
3089.000000	0.003357
3088.000000	0.003345
3087.000000	0.003340
3086.000000	0.003339
3085.000000	0.003341
3084.000000	0.003347
3083.000000	0.003354
3082.000000	0.003362
3081.000000	0.003370
3080.000000	0.003382
3079.000000	0.003397
3078.000000	0.003414
3077.000000	0.003426
3076.000000	0.003424
3075.000000	0.003406
3074.000000	0.003377
3073.000000	0.003349
3072.000000	0.003332
3071.000000	0.003328
3070.000000	0.003332
3069.000000	0.003338
3068.000000	0.003342
3067.000000	0.003348
3066.000000	0.003356
3065.000000	0.003368
3064.000000	0.003379
3063.000000	0.003389
3062.000000	0.003395
3061.000000	0.003396
3060.000000	0.003394
3059.000000	0.003391
3058.000000	0.003392
3057.000000	0.003395
3056.000000	0.003400
3055.000000	0.003406
3054.000000	0.003408
3053.000000	0.003401
3052.000000	0.003383
3051.000000	0.003361
3050.000000	0.003347
3049.000000	0.003343
3048.000000	0.003343
3047.000000	0.003340
3046.000000	0.003335
3045.000000	0.003335
3044.000000	0.003345
3043.000000	0.003362
3042.000000	0.003379
3041.000000	0.003390
3040.000000	0.003391
3039.000000	0.003384
3038.000000	0.003370
3037.000000	0.003356
3036.000000	0.003346
3035.000000	0.003349
3034.000000	0.003364
3033.000000	0.003383
3032.000000	0.003388
3031.000000	0.003375
3030.000000	0.003356
3029.000000	0.003348
3028.000000	0.003357
3027.000000	0.003377
3026.000000	0.003400
3025.000000	0.003421
3024.000000	0.003435
3023.000000	0.003440
3022.000000	0.003439
3021.000000	0.003438
3020.000000	0.003441
3019.000000	0.003444
3018.000000	0.003443
3017.000000	0.003441
3016.000000	0.003447
3015.000000	0.003463
3014.000000	0.003487
3013.000000	0.003511
3012.000000	0.003530
3011.000000	0.003548
3010.000000	0.003574
3009.000000	0.003616
3008.000000	0.003672
3007.000000	0.003729
3006.000000	0.003776
3005.000000	0.003813
3004.000000	0.003844
3003.000000	0.003876
3002.000000	0.003911
3001.000000	0.003955
3000.000000	0.004011
2999.000000	0.004082
2998.000000	0.004161
2997.000000	0.004240
2996.000000	0.004310
2995.000000	0.004369
2994.000000	0.004430
2993.000000	0.004504
2992.000000	0.004597
2991.000000	0.004705
2990.000000	0.004822
2989.000000	0.004941
2988.000000	0.005054
2987.000000	0.005158
2986.000000	0.005260
2985.000000	0.005367
2984.000000	0.005487
2983.000000	0.005615
2982.000000	0.005747
2981.000000	0.005885
2980.000000	0.006034
2979.000000	0.006199
2978.000000	0.006383
2977.000000	0.006584
2976.000000	0.006800
2975.000000	0.007027
2974.000000	0.007258
2973.000000	0.007486
2972.000000	0.007714
2971.000000	0.007955
2970.000000	0.008216
2969.000000	0.008496
2968.000000	0.008777
2967.000000	0.009046
2966.000000	0.009294
2965.000000	0.009529
2964.000000	0.009756
2963.000000	0.009977
2962.000000	0.010184
2961.000000	0.010357
2960.000000	0.010477
2959.000000	0.010536
2958.000000	0.010540
2957.000000	0.010500
2956.000000	0.010422
2955.000000	0.010308
2954.000000	0.010163
2953.000000	0.010004
2952.000000	0.009849
2951.000000	0.009718
2950.000000	0.009622
2949.000000	0.009563
2948.000000	0.009543
2947.000000	0.009561
2946.000000	0.009621
2945.000000	0.009722
2944.000000	0.009860
2943.000000	0.010027
2942.000000	0.010217
2941.000000	0.010430
2940.000000	0.010664
2939.000000	0.010915
2938.000000	0.011174
2937.000000	0.011430
2936.000000	0.011678
2935.000000	0.011914
2934.000000	0.012137
2933.000000	0.012343
2932.000000	0.012524
2931.000000	0.012670
2930.000000	0.012768
2929.000000	0.012811
2928.000000	0.012799
2927.000000	0.012741
2926.000000	0.012655
2925.000000	0.012556
2924.000000	0.012443
2923.000000	0.012305
2922.000000	0.012134
2921.000000	0.011930
2920.000000	0.011702
2919.000000	0.011466
2918.000000	0.011238
2917.000000	0.011033
2916.000000	0.010856
2915.000000	0.010698
2914.000000	0.010549
2913.000000	0.010402
2912.000000	0.010260
2911.000000	0.010122
2910.000000	0.009980
2909.000000	0.009833
2908.000000	0.009682
2907.000000	0.009536
2906.000000	0.009395
2905.000000	0.009253
2904.000000	0.009099
2903.000000	0.008929
2902.000000	0.008746
2901.000000	0.008553
2900.000000	0.008356
2899.000000	0.008156
2898.000000	0.007958
2897.000000	0.007769
2896.000000	0.007594
2895.000000	0.007432
2894.000000	0.007280
2893.000000	0.007129
2892.000000	0.006976
2891.000000	0.006827
2890.000000	0.006695
2889.000000	0.006595
2888.000000	0.006529
2887.000000	0.006492
2886.000000	0.006478
2885.000000	0.006486
2884.000000	0.006518
2883.000000	0.006575
2882.000000	0.006660
2881.000000	0.006776
2880.000000	0.006923
2879.000000	0.007093
2878.000000	0.007268
2877.000000	0.007438
2876.000000	0.007598
2875.000000	0.007748
2874.000000	0.007880
2873.000000	0.007980
2872.000000	0.008037
2871.000000	0.008055
2870.000000	0.008054
2869.000000	0.008058
2868.000000	0.008079
2867.000000	0.008117
2866.000000	0.008168
2865.000000	0.008234
2864.000000	0.008324
2863.000000	0.008439
2862.000000	0.008574
2861.000000	0.008712
2860.000000	0.008835
2859.000000	0.008929
2858.000000	0.008980
2857.000000	0.008975
2856.000000	0.008910
2855.000000	0.008790
2854.000000	0.008626
2853.000000	0.008426
2852.000000	0.008192
2851.000000	0.007923
2850.000000	0.007629
2849.000000	0.007329
2848.000000	0.007046
2847.000000	0.006789
2846.000000	0.006555
2845.000000	0.006336
2844.000000	0.006125
2843.000000	0.005920
2842.000000	0.005720
2841.000000	0.005529
2840.000000	0.005355
2839.000000	0.005209
2838.000000	0.005099
2837.000000	0.005018
2836.000000	0.004953
2835.000000	0.004897
2834.000000	0.004852
2833.000000	0.004815
2832.000000	0.004780
2831.000000	0.004734
2830.000000	0.004673
2829.000000	0.004607
2828.000000	0.004550
2827.000000	0.004509
2826.000000	0.004480
2825.000000	0.004458
2824.000000	0.004442
2823.000000	0.004429
2822.000000	0.004420
2821.000000	0.004409
2820.000000	0.004391
2819.000000	0.004365
2818.000000	0.004331
2817.000000	0.004298
2816.000000	0.004270
2815.000000	0.004246
2814.000000	0.004221
2813.000000	0.004188
2812.000000	0.004149
2811.000000	0.004111
2810.000000	0.004082
2809.000000	0.004064
2808.000000	0.004052
2807.000000	0.004043
2806.000000	0.004033
2805.000000	0.004022
2804.000000	0.004011
2803.000000	0.004000
2802.000000	0.003988
2801.000000	0.003974
2800.000000	0.003960
2799.000000	0.003948
2798.000000	0.003939
2797.000000	0.003932
2796.000000	0.003924
2795.000000	0.003916
2794.000000	0.003911
2793.000000	0.003915
2792.000000	0.003928
2791.000000	0.003940
2790.000000	0.003935
2789.000000	0.003906
2788.000000	0.003860
2787.000000	0.003815
2786.000000	0.003784
2785.000000	0.003770
2784.000000	0.003767
2783.000000	0.003763
2782.000000	0.003759
2781.000000	0.003758
2780.000000	0.003763
2779.000000	0.003771
2778.000000	0.003773
2777.000000	0.003764
2776.000000	0.003750
2775.000000	0.003740
2774.000000	0.003738
2773.000000	0.003746
2772.000000	0.003760
2771.000000	0.003776
2770.000000	0.003790
2769.000000	0.003798
2768.000000	0.003796
2767.000000	0.003785
2766.000000	0.003770
2765.000000	0.003754
2764.000000	0.003742
2763.000000	0.003737
2762.000000	0.003735
2761.000000	0.003736
2760.000000	0.003740
2759.000000	0.003749
2758.000000	0.003762
2757.000000	0.003767
2756.000000	0.003756
2755.000000	0.003728
2754.000000	0.003696
2753.000000	0.003672
2752.000000	0.003663
2751.000000	0.003666
2750.000000	0.003680
2749.000000	0.003701
2748.000000	0.003716
2747.000000	0.003717
2746.000000	0.003704
2745.000000	0.003693
2744.000000	0.003696
2743.000000	0.003713
2742.000000	0.003734
2741.000000	0.003745
2740.000000	0.003739
2739.000000	0.003717
2738.000000	0.003690
2737.000000	0.003672
2736.000000	0.003667
2735.000000	0.003667
2734.000000	0.003665
2733.000000	0.003660
2732.000000	0.003656
2731.000000	0.003659
2730.000000	0.003669
2729.000000	0.003684
2728.000000	0.003700
2727.000000	0.003708
2726.000000	0.003704
2725.000000	0.003693
2724.000000	0.003684
2723.000000	0.003682
2722.000000	0.003681
2721.000000	0.003677
2720.000000	0.003671
2719.000000	0.003669
2718.000000	0.003670
2717.000000	0.003671
2716.000000	0.003663
2715.000000	0.003647
2714.000000	0.003629
2713.000000	0.003617
2712.000000	0.003612
2711.000000	0.003608
2710.000000	0.003603
2709.000000	0.003603
2708.000000	0.003612
2707.000000	0.003625
2706.000000	0.003631
2705.000000	0.003626
2704.000000	0.003614
2703.000000	0.003604
2702.000000	0.003601
2701.000000	0.003603
2700.000000	0.003609
2699.000000	0.003618
2698.000000	0.003633
2697.000000	0.003650
2696.000000	0.003661
2695.000000	0.003656
2694.000000	0.003635
2693.000000	0.003610
2692.000000	0.003593
2691.000000	0.003587
2690.000000	0.003583
2689.000000	0.003578
2688.000000	0.003578
2687.000000	0.003588
2686.000000	0.003604
2685.000000	0.003616
2684.000000	0.003619
2683.000000	0.003618
2682.000000	0.003618
2681.000000	0.003617
2680.000000	0.003612
2679.000000	0.003606
2678.000000	0.003606
2677.000000	0.003619
2676.000000	0.003638
2675.000000	0.003650
2674.000000	0.003646
2673.000000	0.003630
2672.000000	0.003612
2671.000000	0.003602
2670.000000	0.003600
2669.000000	0.003607
2668.000000	0.003623
2667.000000	0.003645
2666.000000	0.003669
2665.000000	0.003690
2664.000000	0.003708
2663.000000	0.003719
2662.000000	0.003718
2661.000000	0.003703
2660.000000	0.003681
2659.000000	0.003661
2658.000000	0.003650
2657.000000	0.003650
2656.000000	0.003653
2655.000000	0.003655
2654.000000	0.003653
2653.000000	0.003648
2652.000000	0.003640
2651.000000	0.003626
2650.000000	0.003610
2649.000000	0.003596
2648.000000	0.003588
2647.000000	0.003584
2646.000000	0.003576
2645.000000	0.003561
2644.000000	0.003544
2643.000000	0.003531
2642.000000	0.003525
2641.000000	0.003519
2640.000000	0.003509
2639.000000	0.003491
2638.000000	0.003468
2637.000000	0.003448
2636.000000	0.003441
2635.000000	0.003450
2634.000000	0.003467
2633.000000	0.003477
2632.000000	0.003470
2631.000000	0.003447
2630.000000	0.003421
2629.000000	0.003404
2628.000000	0.003401
2627.000000	0.003406
2626.000000	0.003405
2625.000000	0.003393
2624.000000	0.003376
2623.000000	0.003363
2622.000000	0.003358
2621.000000	0.003355
2620.000000	0.003347
2619.000000	0.003332
2618.000000	0.003317
2617.000000	0.003308
2616.000000	0.003308
2615.000000	0.003321
2614.000000	0.003344
2613.000000	0.003368
2612.000000	0.003381
2611.000000	0.003382
2610.000000	0.003379
2609.000000	0.003382
2608.000000	0.003384
2607.000000	0.003376
2606.000000	0.003354
2605.000000	0.003326
2604.000000	0.003301
2603.000000	0.003281
2602.000000	0.003262
2601.000000	0.003237
2600.000000	0.003212
2599.000000	0.003197
2598.000000	0.003200
2597.000000	0.003217
2596.000000	0.003239
2595.000000	0.003259
2594.000000	0.003277
2593.000000	0.003283
2592.000000	0.003271
2591.000000	0.003241
2590.000000	0.003207
2589.000000	0.003182
2588.000000	0.003175
2587.000000	0.003186
2586.000000	0.003208
2585.000000	0.003232
2584.000000	0.003251
2583.000000	0.003258
2582.000000	0.003254
2581.000000	0.003235
2580.000000	0.003203
2579.000000	0.003168
2578.000000	0.003144
2577.000000	0.003137
2576.000000	0.003136
2575.000000	0.003134
2574.000000	0.003133
2573.000000	0.003144
2572.000000	0.003169
2571.000000	0.003195
2570.000000	0.003212
2569.000000	0.003213
2568.000000	0.003202
2567.000000	0.003185
2566.000000	0.003164
2565.000000	0.003131
2564.000000	0.003083
2563.000000	0.003032
2562.000000	0.003003
2561.000000	0.003008
2560.000000	0.003031
2559.000000	0.003050
2558.000000	0.003063
2557.000000	0.003084
2556.000000	0.003123
2555.000000	0.003165
2554.000000	0.003191
2553.000000	0.003196
2552.000000	0.003192
2551.000000	0.003190
2550.000000	0.003185
2549.000000	0.003168
2548.000000	0.003139
2547.000000	0.003113
2546.000000	0.003111
2545.000000	0.003137
2544.000000	0.003176
2543.000000	0.003205
2542.000000	0.003220
2541.000000	0.003231
2540.000000	0.003242
2539.000000	0.003247
2538.000000	0.003240
2537.000000	0.003227
2536.000000	0.003218
2535.000000	0.003212
2534.000000	0.003200
2533.000000	0.003178
2532.000000	0.003159
2531.000000	0.003167
2530.000000	0.003215
2529.000000	0.003289
2528.000000	0.003357
2527.000000	0.003397
2526.000000	0.003405
2525.000000	0.003386
2524.000000	0.003350
2523.000000	0.003312
2522.000000	0.003295
2521.000000	0.003318
2520.000000	0.003373
2519.000000	0.003437
2518.000000	0.003495
2517.000000	0.003547
2516.000000	0.003595
2515.000000	0.003630
2514.000000	0.003644
2513.000000	0.003634
2512.000000	0.003606
2511.000000	0.003572
2510.000000	0.003544
2509.000000	0.003526
2508.000000	0.003512
2507.000000	0.003494
2506.000000	0.003468
2505.000000	0.003438
2504.000000	0.003401
2503.000000	0.003354
2502.000000	0.003309
2501.000000	0.003286
2500.000000	0.003290
2499.000000	0.003299
2498.000000	0.003288
2497.000000	0.003257
2496.000000	0.003221
2495.000000	0.003186
2494.000000	0.003149
2493.000000	0.003111
2492.000000	0.003081
2491.000000	0.003064
2490.000000	0.003051
2489.000000	0.003035
2488.000000	0.003017
2487.000000	0.003005
2486.000000	0.003003
2485.000000	0.003016
2484.000000	0.003039
2483.000000	0.003060
2482.000000	0.003055
2481.000000	0.003020
2480.000000	0.002975
2479.000000	0.002951
2478.000000	0.002956
2477.000000	0.002968
2476.000000	0.002955
2475.000000	0.002916
2474.000000	0.002884
2473.000000	0.002889
2472.000000	0.002927
2471.000000	0.002967
2470.000000	0.002981
2469.000000	0.002973
2468.000000	0.002963
2467.000000	0.002958
2466.000000	0.002947
2465.000000	0.002921
2464.000000	0.002897
2463.000000	0.002902
2462.000000	0.002937
2461.000000	0.002968
2460.000000	0.002959
2459.000000	0.002913
2458.000000	0.002863
2457.000000	0.002844
2456.000000	0.002861
2455.000000	0.002903
2454.000000	0.002949
2453.000000	0.002986
2452.000000	0.003001
2451.000000	0.002995
2450.000000	0.002978
2449.000000	0.002953
2448.000000	0.002920
2447.000000	0.002885
2446.000000	0.002867
2445.000000	0.002885
2444.000000	0.002928
2443.000000	0.002965
2442.000000	0.002970
2441.000000	0.002940
2440.000000	0.002893
2439.000000	0.002854
2438.000000	0.002842
2437.000000	0.002857
2436.000000	0.002882
2435.000000	0.002905
2434.000000	0.002932
2433.000000	0.002969
2432.000000	0.003004
2431.000000	0.003014
2430.000000	0.002995
2429.000000	0.002973
2428.000000	0.002972
2427.000000	0.002992
2426.000000	0.003018
2425.000000	0.003035
2424.000000	0.003040
2423.000000	0.003034
2422.000000	0.003014
2421.000000	0.002981
2420.000000	0.002935
2419.000000	0.002884
2418.000000	0.002847
2417.000000	0.002837
2416.000000	0.002855
2415.000000	0.002885
2414.000000	0.002912
2413.000000	0.002931
2412.000000	0.002942
2411.000000	0.002937
2410.000000	0.002910
2409.000000	0.002868
2408.000000	0.002829
2407.000000	0.002810
2406.000000	0.002816
2405.000000	0.002835
2404.000000	0.002849
2403.000000	0.002849
2402.000000	0.002841
2401.000000	0.002836
2400.000000	0.002837
2399.000000	0.002834
2398.000000	0.002825
2397.000000	0.002819
2396.000000	0.002829
2395.000000	0.002855
2394.000000	0.002887
2393.000000	0.002907
2392.000000	0.002908
2391.000000	0.002900
2390.000000	0.002900
2389.000000	0.002915
2388.000000	0.002933
2387.000000	0.002928
2386.000000	0.002887
2385.000000	0.002820
2384.000000	0.002747
2383.000000	0.002683
2382.000000	0.002634
2381.000000	0.002599
2380.000000	0.002573
2379.000000	0.002559
2378.000000	0.002564
2377.000000	0.002590
2376.000000	0.002625
2375.000000	0.002650
2374.000000	0.002658
2373.000000	0.002652
2372.000000	0.002631
2371.000000	0.002596
2370.000000	0.002549
2369.000000	0.002495
2368.000000	0.002441
2367.000000	0.002406
2366.000000	0.002406
2365.000000	0.002434
2364.000000	0.002470
2363.000000	0.002523
2362.000000	0.002609
2361.000000	0.002698
2360.000000	0.002736
2359.000000	0.002709
2358.000000	0.002655
2357.000000	0.002615
2356.000000	0.002596
2355.000000	0.002603
2354.000000	0.002604
2353.000000	0.002562
2352.000000	0.002495
2351.000000	0.002472
2350.000000	0.002529
2349.000000	0.002637
2348.000000	0.002736
2347.000000	0.002769
2346.000000	0.002727
2345.000000	0.002686
2344.000000	0.002714
2343.000000	0.002802
2342.000000	0.002874
2341.000000	0.002877
2340.000000	0.002837
2339.000000	0.002804
2338.000000	0.002790
2337.000000	0.002776
2336.000000	0.002763
2335.000000	0.002760
2334.000000	0.002763
2333.000000	0.002749
2332.000000	0.002732
2331.000000	0.002731
2330.000000	0.002765
2329.000000	0.002821
2328.000000	0.002913
2327.000000	0.003042
2326.000000	0.003184
2325.000000	0.003285
2324.000000	0.003309
2323.000000	0.003265
2322.000000	0.003199
2321.000000	0.003160
2320.000000	0.003175
2319.000000	0.003223
2318.000000	0.003272
2317.000000	0.003286
2316.000000	0.003262
2315.000000	0.003198
2314.000000	0.003115
2313.000000	0.003030
2312.000000	0.002972
2311.000000	0.002940
2310.000000	0.002931
2309.000000	0.002940
2308.000000	0.002971
2307.000000	0.002995
2306.000000	0.002983
2305.000000	0.002931
2304.000000	0.002877
2303.000000	0.002854
2302.000000	0.002859
2301.000000	0.002869
2300.000000	0.002878
2299.000000	0.002895
2298.000000	0.002935
2297.000000	0.002989
2296.000000	0.003035
2295.000000	0.003047
2294.000000	0.003019
2293.000000	0.002969
2292.000000	0.002930
2291.000000	0.002921
2290.000000	0.002942
2289.000000	0.002984
2288.000000	0.003039
2287.000000	0.003102
2286.000000	0.003163
2285.000000	0.003216
2284.000000	0.003262
2283.000000	0.003296
2282.000000	0.003301
2281.000000	0.003270
2280.000000	0.003222
2279.000000	0.003185
2278.000000	0.003157
2277.000000	0.003107
2276.000000	0.003011
2275.000000	0.002892
2274.000000	0.002799
2273.000000	0.002763
2272.000000	0.002773
2271.000000	0.002806
2270.000000	0.002850
2269.000000	0.002901
2268.000000	0.002937
2267.000000	0.002929
2266.000000	0.002869
2265.000000	0.002789
2264.000000	0.002744
2263.000000	0.002774
2262.000000	0.002868
2261.000000	0.002978
2260.000000	0.003052
2259.000000	0.003076
2258.000000	0.003072
2257.000000	0.003063
2256.000000	0.003056
2255.000000	0.003044
2254.000000	0.003027
2253.000000	0.003011
2252.000000	0.002989
2251.000000	0.002949
2250.000000	0.002894
2249.000000	0.002840
2248.000000	0.002807
2247.000000	0.002799
2246.000000	0.002812
2245.000000	0.002843
2244.000000	0.002879
2243.000000	0.002908
2242.000000	0.002929
2241.000000	0.002950
2240.000000	0.002971
2239.000000	0.002987
2238.000000	0.002996
2237.000000	0.003000
2236.000000	0.002987
2235.000000	0.002937
2234.000000	0.002856
2233.000000	0.002787
2232.000000	0.002776
2231.000000	0.002824
2230.000000	0.002883
2229.000000	0.002884
2228.000000	0.002796
2227.000000	0.002657
2226.000000	0.002557
2225.000000	0.002557
2224.000000	0.002631
2223.000000	0.002710
2222.000000	0.002761
2221.000000	0.002795
2220.000000	0.002793
2219.000000	0.002700
2218.000000	0.002516
2217.000000	0.002352
2216.000000	0.002334
2215.000000	0.002468
2214.000000	0.002636
2213.000000	0.002708
2212.000000	0.002636
2211.000000	0.002459
2210.000000	0.002274
2209.000000	0.002184
2208.000000	0.002232
2207.000000	0.002367
2206.000000	0.002478
2205.000000	0.002493
2204.000000	0.002434
2203.000000	0.002386
2202.000000	0.002420
2201.000000	0.002532
2200.000000	0.002655
2199.000000	0.002730
2198.000000	0.002767
2197.000000	0.002818
2196.000000	0.002886
2195.000000	0.002900
2194.000000	0.002796
2193.000000	0.002603
2192.000000	0.002419
2191.000000	0.002323
2190.000000	0.002342
2189.000000	0.002460
2188.000000	0.002614
2187.000000	0.002717
2186.000000	0.002724
2185.000000	0.002668
2184.000000	0.002605
2183.000000	0.002520
2182.000000	0.002364
2181.000000	0.002156
2180.000000	0.002003
2179.000000	0.001977
2178.000000	0.002051
2177.000000	0.002154
2176.000000	0.002243
2175.000000	0.002283
2174.000000	0.002227
2173.000000	0.002057
2172.000000	0.001871
2171.000000	0.001841
2170.000000	0.002070
2169.000000	0.002478
2168.000000	0.002849
2167.000000	0.003003
2166.000000	0.002934
2165.000000	0.002783
2164.000000	0.002713
2163.000000	0.002787
2162.000000	0.002946
2161.000000	0.003043
2160.000000	0.002910
2159.000000	0.002486
2158.000000	0.001899
2157.000000	0.001396
2156.000000	0.001147
2155.000000	0.001155
2154.000000	0.001330
2153.000000	0.001563
2152.000000	0.001760
2151.000000	0.001869
2150.000000	0.001894
2149.000000	0.001865
2148.000000	0.001787
2147.000000	0.001645
2146.000000	0.001466
2145.000000	0.001341
2144.000000	0.001366
2143.000000	0.001561
2142.000000	0.001859
2141.000000	0.002157
2140.000000	0.002362
2139.000000	0.002427
2138.000000	0.002369
2137.000000	0.002256
2136.000000	0.002156
2135.000000	0.002096
2134.000000	0.002067
2133.000000	0.002064
2132.000000	0.002092
2131.000000	0.002143
2130.000000	0.002196
2129.000000	0.002235
2128.000000	0.002261
2127.000000	0.002286
2126.000000	0.002311
2125.000000	0.002328
2124.000000	0.002342
2123.000000	0.002372
2122.000000	0.002433
2121.000000	0.002515
2120.000000	0.002597
2119.000000	0.002667
2118.000000	0.002735
2117.000000	0.002799
2116.000000	0.002836
2115.000000	0.002823
2114.000000	0.002754
2113.000000	0.002654
2112.000000	0.002561
2111.000000	0.002516
2110.000000	0.002544
2109.000000	0.002626
2108.000000	0.002710
2107.000000	0.002755
2106.000000	0.002767
2105.000000	0.002777
2104.000000	0.002804
2103.000000	0.002837
2102.000000	0.002856
2101.000000	0.002850
2100.000000	0.002815
2099.000000	0.002768
2098.000000	0.002732
2097.000000	0.002719
2096.000000	0.002716
2095.000000	0.002716
2094.000000	0.002729
2093.000000	0.002766
2092.000000	0.002814
2091.000000	0.002854
2090.000000	0.002883
2089.000000	0.002903
2088.000000	0.002904
2087.000000	0.002876
2086.000000	0.002841
2085.000000	0.002824
2084.000000	0.002824
2083.000000	0.002829
2082.000000	0.002852
2081.000000	0.002904
2080.000000	0.002955
2079.000000	0.002959
2078.000000	0.002928
2077.000000	0.002918
2076.000000	0.002944
2075.000000	0.002956
2074.000000	0.002910
2073.000000	0.002819
2072.000000	0.002720
2071.000000	0.002627
2070.000000	0.002554
2069.000000	0.002539
2068.000000	0.002598
2067.000000	0.002684
2066.000000	0.002737
2065.000000	0.002745
2064.000000	0.002748
2063.000000	0.002773
2062.000000	0.002809
2061.000000	0.002817
2060.000000	0.002766
2059.000000	0.002670
2058.000000	0.002583
2057.000000	0.002552
2056.000000	0.002571
2055.000000	0.002610
2054.000000	0.002688
2053.000000	0.002855
2052.000000	0.003076
2051.000000	0.003219
2050.000000	0.003169
2049.000000	0.002951
2048.000000	0.002708
2047.000000	0.002575
2046.000000	0.002589
2045.000000	0.002708
2044.000000	0.002841
2043.000000	0.002890
2042.000000	0.002804
2041.000000	0.002591
2040.000000	0.002310
2039.000000	0.002054
2038.000000	0.001929
2037.000000	0.001976
2036.000000	0.002087
2035.000000	0.002093
2034.000000	0.001965
2033.000000	0.001834
2032.000000	0.001791
2031.000000	0.001785
2030.000000	0.001750
2029.000000	0.001731
2028.000000	0.001772
2027.000000	0.001811
2026.000000	0.001757
2025.000000	0.001618
2024.000000	0.001471
2023.000000	0.001380
2022.000000	0.001383
2021.000000	0.001485
2020.000000	0.001584
2019.000000	0.001523
2018.000000	0.001278
2017.000000	0.001048
2016.000000	0.001055
2015.000000	0.001289
2014.000000	0.001576
2013.000000	0.001807
2012.000000	0.001994
2011.000000	0.002158
2010.000000	0.002262
2009.000000	0.002253
2008.000000	0.002143
2007.000000	0.002021
2006.000000	0.001986
2005.000000	0.002058
2004.000000	0.002146
2003.000000	0.002144
2002.000000	0.002058
2001.000000	0.001994
2000.000000	0.002019
1999.000000	0.002094
1998.000000	0.002172
1997.000000	0.002267
1996.000000	0.002392
1995.000000	0.002492
1994.000000	0.002507
1993.000000	0.002442
1992.000000	0.002338
1991.000000	0.002210
1990.000000	0.002080
1989.000000	0.002013
1988.000000	0.002063
1987.000000	0.002191
1986.000000	0.002325
1985.000000	0.002427
1984.000000	0.002478
1983.000000	0.002430
1982.000000	0.002274
1981.000000	0.002091
1980.000000	0.001979
1979.000000	0.001926
1978.000000	0.001855
1977.000000	0.001773
1976.000000	0.001773
1975.000000	0.001883
1974.000000	0.002030
1973.000000	0.002131
1972.000000	0.002134
1971.000000	0.002014
1970.000000	0.001812
1969.000000	0.001659
1968.000000	0.001678
1967.000000	0.001822
1966.000000	0.001907
1965.000000	0.001809
1964.000000	0.001578
1963.000000	0.001356
1962.000000	0.001249
1961.000000	0.001267
1960.000000	0.001334
1959.000000	0.001363
1958.000000	0.001340
1957.000000	0.001325
1956.000000	0.001375
1955.000000	0.001485
1954.000000	0.001607
1953.000000	0.001704
1952.000000	0.001765
1951.000000	0.001797
1950.000000	0.001820
1949.000000	0.001838
1948.000000	0.001840
1947.000000	0.001816
1946.000000	0.001790
1945.000000	0.001798
1944.000000	0.001820
1943.000000	0.001796
1942.000000	0.001728
1941.000000	0.001704
1940.000000	0.001787
1939.000000	0.001941
1938.000000	0.002084
1937.000000	0.002170
1936.000000	0.002188
1935.000000	0.002139
1934.000000	0.002034
1933.000000	0.001915
1932.000000	0.001826
1931.000000	0.001784
1930.000000	0.001786
1929.000000	0.001828
1928.000000	0.001891
1927.000000	0.001932
1926.000000	0.001922
1925.000000	0.001872
1924.000000	0.001822
1923.000000	0.001797
1922.000000	0.001800
1921.000000	0.001822
1920.000000	0.001847
1919.000000	0.001858
1918.000000	0.001853
1917.000000	0.001857
1916.000000	0.001890
1915.000000	0.001937
1914.000000	0.001970
1913.000000	0.001975
1912.000000	0.001953
1911.000000	0.001913
1910.000000	0.001875
1909.000000	0.001864
1908.000000	0.001876
1907.000000	0.001872
1906.000000	0.001832
1905.000000	0.001782
1904.000000	0.001760
1903.000000	0.001758
1902.000000	0.001755
1901.000000	0.001761
1900.000000	0.001809
1899.000000	0.001888
1898.000000	0.001952
1897.000000	0.001971
1896.000000	0.001966
1895.000000	0.001965
1894.000000	0.001964
1893.000000	0.001935
1892.000000	0.001859
1891.000000	0.001748
1890.000000	0.001651
1889.000000	0.001629
1888.000000	0.001688
1887.000000	0.001769
1886.000000	0.001812
1885.000000	0.001814
1884.000000	0.001810
1883.000000	0.001818
1882.000000	0.001819
1881.000000	0.001800
1880.000000	0.001769
1879.000000	0.001728
1878.000000	0.001673
1877.000000	0.001610
1876.000000	0.001564
1875.000000	0.001548
1874.000000	0.001554
1873.000000	0.001558
1872.000000	0.001544
1871.000000	0.001504
1870.000000	0.001453
1869.000000	0.001427
1868.000000	0.001456
1867.000000	0.001533
1866.000000	0.001622
1865.000000	0.001695
1864.000000	0.001737
1863.000000	0.001736
1862.000000	0.001684
1861.000000	0.001605
1860.000000	0.001537
1859.000000	0.001502
1858.000000	0.001494
1857.000000	0.001512
1856.000000	0.001559
1855.000000	0.001619
1854.000000	0.001668
1853.000000	0.001695
1852.000000	0.001705
1851.000000	0.001693
1850.000000	0.001640
1849.000000	0.001555
1848.000000	0.001475
1847.000000	0.001423
1846.000000	0.001391
1845.000000	0.001373
1844.000000	0.001379
1843.000000	0.001410
1842.000000	0.001440
1841.000000	0.001456
1840.000000	0.001468
1839.000000	0.001491
1838.000000	0.001517
1837.000000	0.001526
1836.000000	0.001510
1835.000000	0.001483
1834.000000	0.001459
1833.000000	0.001448
1832.000000	0.001447
1831.000000	0.001453
1830.000000	0.001471
1829.000000	0.001495
1828.000000	0.001493
1827.000000	0.001438
1826.000000	0.001345
1825.000000	0.001279
1824.000000	0.001288
1823.000000	0.001355
1822.000000	0.001419
1821.000000	0.001448
1820.000000	0.001444
1819.000000	0.001426
1818.000000	0.001410
1817.000000	0.001404
1816.000000	0.001401
1815.000000	0.001390
1814.000000	0.001363
1813.000000	0.001335
1812.000000	0.001328
1811.000000	0.001352
1810.000000	0.001391
1809.000000	0.001429
1808.000000	0.001471
1807.000000	0.001534
1806.000000	0.001617
1805.000000	0.001706
1804.000000	0.001788
1803.000000	0.001875
1802.000000	0.001984
1801.000000	0.002108
1800.000000	0.002217
1799.000000	0.002291
1798.000000	0.002322
1797.000000	0.002328
1796.000000	0.002335
1795.000000	0.002343
1794.000000	0.002319
1793.000000	0.002233
1792.000000	0.002102
1791.000000	0.001982
1790.000000	0.001895
1789.000000	0.001818
1788.000000	0.001726
1787.000000	0.001621
1786.000000	0.001523
1785.000000	0.001461
1784.000000	0.001446
1783.000000	0.001464
1782.000000	0.001487
1781.000000	0.001510
1780.000000	0.001537
1779.000000	0.001561
1778.000000	0.001562
1777.000000	0.001535
1776.000000	0.001505
1775.000000	0.001499
1774.000000	0.001527
1773.000000	0.001594
1772.000000	0.001683
1771.000000	0.001747
1770.000000	0.001762
1769.000000	0.001769
1768.000000	0.001827
1767.000000	0.001960
1766.000000	0.002132
1765.000000	0.002302
1764.000000	0.002470
1763.000000	0.002678
1762.000000	0.002978
1761.000000	0.003376
1760.000000	0.003831
1759.000000	0.004320
1758.000000	0.004896
1757.000000	0.005648
1756.000000	0.006570
1755.000000	0.007535
1754.000000	0.008474
1753.000000	0.009460
1752.000000	0.010609
1751.000000	0.011910
1750.000000	0.013228
1749.000000	0.014480
1748.000000	0.015644
1747.000000	0.016675
1746.000000	0.017557
1745.000000	0.018328
1744.000000	0.019007
1743.000000	0.019577
1742.000000	0.020036
1741.000000	0.020398
1740.000000	0.020620
1739.000000	0.020645
1738.000000	0.020531
1737.000000	0.020356
1736.000000	0.020068
1735.000000	0.019475
1734.000000	0.018493
1733.000000	0.017442
1732.000000	0.016557
1731.000000	0.015705
1730.000000	0.014757
1729.000000	0.013747
1728.000000	0.012764
1727.000000	0.011830
1726.000000	0.010926
1725.000000	0.010040
1724.000000	0.009178
1723.000000	0.008368
1722.000000	0.007656
1721.000000	0.007056
1720.000000	0.006517
1719.000000	0.005968
1718.000000	0.005412
1717.000000	0.004920
1716.000000	0.004527
1715.000000	0.004201
1714.000000	0.003930
1713.000000	0.003715
1712.000000	0.003532
1711.000000	0.003352
1710.000000	0.003183
1709.000000	0.003052
1708.000000	0.002952
1707.000000	0.002846
1706.000000	0.002739
1705.000000	0.002674
1704.000000	0.002665
1703.000000	0.002680
1702.000000	0.002687
1701.000000	0.002675
1700.000000	0.002652
1699.000000	0.002644
1698.000000	0.002655
1697.000000	0.002667
1696.000000	0.002663
1695.000000	0.002656
1694.000000	0.002670
1693.000000	0.002694
1692.000000	0.002714
1691.000000	0.002724
1690.000000	0.002734
1689.000000	0.002764
1688.000000	0.002807
1687.000000	0.002830
1686.000000	0.002809
1685.000000	0.002756
1684.000000	0.002730
1683.000000	0.002759
1682.000000	0.002821
1681.000000	0.002881
1680.000000	0.002924
1679.000000	0.002949
1678.000000	0.002974
1677.000000	0.003013
1676.000000	0.003066
1675.000000	0.003110
1674.000000	0.003146
1673.000000	0.003192
1672.000000	0.003249
1671.000000	0.003309
1670.000000	0.003370
1669.000000	0.003440
1668.000000	0.003506
1667.000000	0.003545
1666.000000	0.003563
1665.000000	0.003583
1664.000000	0.003618
1663.000000	0.003670
1662.000000	0.003736
1661.000000	0.003811
1660.000000	0.003877
1659.000000	0.003910
1658.000000	0.003909
1657.000000	0.003904
1656.000000	0.003922
1655.000000	0.003966
1654.000000	0.004010
1653.000000	0.004024
1652.000000	0.004053
1651.000000	0.004073
1650.000000	0.004076
1649.000000	0.004094
1648.000000	0.004130
1647.000000	0.004143
1646.000000	0.004126
1645.000000	0.004134
1644.000000	0.004162
1643.000000	0.004174
1642.000000	0.004166
1641.000000	0.004149
1640.000000	0.004132
1639.000000	0.004122
1638.000000	0.004126
1637.000000	0.004139
1636.000000	0.004120
1635.000000	0.004044
1634.000000	0.003970
1633.000000	0.003938
1632.000000	0.003933
1631.000000	0.003920
1630.000000	0.003879
1629.000000	0.003825
1628.000000	0.003784
1627.000000	0.003766
1626.000000	0.003763
1625.000000	0.003759
1624.000000	0.003730
1623.000000	0.003655
1622.000000	0.003559
1621.000000	0.003488
1620.000000	0.003449
1619.000000	0.003414
1618.000000	0.003355
1617.000000	0.003264
1616.000000	0.003154
1615.000000	0.003040
1614.000000	0.002937
1613.000000	0.002861
1612.000000	0.002804
1611.000000	0.002747
1610.000000	0.002688
1609.000000	0.002636
1608.000000	0.002585
1607.000000	0.002512
1606.000000	0.002427
1605.000000	0.002364
1604.000000	0.002330
1603.000000	0.002293
1602.000000	0.002236
1601.000000	0.002178
1600.000000	0.002138
1599.000000	0.002108
1598.000000	0.002077
1597.000000	0.002054
1596.000000	0.002045
1595.000000	0.002042
1594.000000	0.002038
1593.000000	0.002040
1592.000000	0.002050
1591.000000	0.002055
1590.000000	0.002050
1589.000000	0.002050
1588.000000	0.002062
1587.000000	0.002071
1586.000000	0.002065
1585.000000	0.002055
1584.000000	0.002052
1583.000000	0.002046
1582.000000	0.002027
1581.000000	0.002004
1580.000000	0.001999
1579.000000	0.002025
1578.000000	0.002081
1577.000000	0.002143
1576.000000	0.002169
1575.000000	0.002153
1574.000000	0.002146
1573.000000	0.002185
1572.000000	0.002257
1571.000000	0.002319
1570.000000	0.002347
1569.000000	0.002366
1568.000000	0.002402
1567.000000	0.002450
1566.000000	0.002505
1565.000000	0.002578
1564.000000	0.002657
1563.000000	0.002717
1562.000000	0.002753
1561.000000	0.002793
1560.000000	0.002884
1559.000000	0.002995
1558.000000	0.003037
1557.000000	0.003109
1556.000000	0.003201
1555.000000	0.003290
1554.000000	0.003394
1553.000000	0.003522
1552.000000	0.003652
1551.000000	0.003776
1550.000000	0.003920
1549.000000	0.004094
1548.000000	0.004263
1547.000000	0.004384
1546.000000	0.004484
1545.000000	0.004631
1544.000000	0.004843
1543.000000	0.005077
1542.000000	0.005317
1541.000000	0.005576
1540.000000	0.005823
1539.000000	0.006014
1538.000000	0.006176
1537.000000	0.006328
1536.000000	0.006476
1535.000000	0.006627
1534.000000	0.006803
1533.000000	0.007017
1532.000000	0.007241
1531.000000	0.007446
1530.000000	0.007623
1529.000000	0.007779
1528.000000	0.007934
1527.000000	0.008109
1526.000000	0.008319
1525.000000	0.008552
1524.000000	0.008759
1523.000000	0.008901
1522.000000	0.008994
1521.000000	0.009094
1520.000000	0.009235
1519.000000	0.009406
1518.000000	0.009605
1517.000000	0.009841
1516.000000	0.010079
1515.000000	0.010282
1514.000000	0.010458
1513.000000	0.010629
1512.000000	0.010796
1511.000000	0.010946
1510.000000	0.011102
1509.000000	0.011314
1508.000000	0.011594
1507.000000	0.011832
1506.000000	0.012009
1505.000000	0.012249
1504.000000	0.012488
1503.000000	0.012678
1502.000000	0.012858
1501.000000	0.013064
1500.000000	0.013284
1499.000000	0.013487
1498.000000	0.013698
1497.000000	0.013967
1496.000000	0.014272
1495.000000	0.014557
1494.000000	0.014813
1493.000000	0.015055
1492.000000	0.015285
1491.000000	0.015511
1490.000000	0.015769
1489.000000	0.016076
1488.000000	0.016406
1487.000000	0.016729
1486.000000	0.017042
1485.000000	0.017358
1484.000000	0.017674
1483.000000	0.017982
1482.000000	0.018304
1481.000000	0.018661
1480.000000	0.019018
1479.000000	0.019333
1478.000000	0.019631
1477.000000	0.019972
1476.000000	0.020367
1475.000000	0.020790
1474.000000	0.021264
1473.000000	0.021822
1472.000000	0.022393
1471.000000	0.022901
1470.000000	0.023378
1469.000000	0.023857
1468.000000	0.024317
1467.000000	0.024725
1466.000000	0.025085
1465.000000	0.025413
1464.000000	0.025694
1463.000000	0.025924
1462.000000	0.026134
1461.000000	0.026348
1460.000000	0.026554
1459.000000	0.026759
1458.000000	0.027043
1457.000000	0.027459
1456.000000	0.027874
1455.000000	0.028189
1454.000000	0.028453
1453.000000	0.028720
1452.000000	0.028976
1451.000000	0.029191
1450.000000	0.029386
1449.000000	0.029602
1448.000000	0.029828
1447.000000	0.030036
1446.000000	0.030255
1445.000000	0.030520
1444.000000	0.030812
1443.000000	0.031100
1442.000000	0.031402
1441.000000	0.031739
1440.000000	0.032081
1439.000000	0.032396
1438.000000	0.032738
1437.000000	0.033196
1436.000000	0.033706
1435.000000	0.034127
1434.000000	0.034464
1433.000000	0.034777
1432.000000	0.035076
1431.000000	0.035348
1430.000000	0.035642
1429.000000	0.036017
1428.000000	0.036441
1427.000000	0.036841
1426.000000	0.037201
1425.000000	0.037536
1424.000000	0.037796
1423.000000	0.037930
1422.000000	0.038003
1421.000000	0.038108
1420.000000	0.038247
1419.000000	0.038343
1418.000000	0.038390
1417.000000	0.038450
1416.000000	0.038488
1415.000000	0.038439
1414.000000	0.038315
1413.000000	0.038157
1412.000000	0.037940
1411.000000	0.037621
1410.000000	0.037235
1409.000000	0.036844
1408.000000	0.036443
1407.000000	0.036003
1406.000000	0.035548
1405.000000	0.035127
1404.000000	0.034756
1403.000000	0.034441
1402.000000	0.034205
1401.000000	0.034040
1400.000000	0.033890
1399.000000	0.033707
1398.000000	0.033522
1397.000000	0.033378
1396.000000	0.033238
1395.000000	0.033053
1394.000000	0.032862
1393.000000	0.032735
1392.000000	0.032641
1391.000000	0.032508
1390.000000	0.032316
1389.000000	0.032074
1388.000000	0.031779
1387.000000	0.031437
1386.000000	0.031118
1385.000000	0.030870
1384.000000	0.030655
1383.000000	0.030421
1382.000000	0.030169
1381.000000	0.029912
1380.000000	0.029626
1379.000000	0.029287
1378.000000	0.028909
1377.000000	0.028512
1376.000000	0.028078
1375.000000	0.027586
1374.000000	0.027073
1373.000000	0.026615
1372.000000	0.026235
1371.000000	0.025899
1370.000000	0.025574
1369.000000	0.025257
1368.000000	0.024952
1367.000000	0.024663
1366.000000	0.024395
1365.000000	0.024134
1364.000000	0.023853
1363.000000	0.023549
1362.000000	0.023264
1361.000000	0.023049
1360.000000	0.022906
1359.000000	0.022800
1358.000000	0.022706
1357.000000	0.022610
1356.000000	0.022490
1355.000000	0.022336
1354.000000	0.022155
1353.000000	0.021954
1352.000000	0.021730
1351.000000	0.021492
1350.000000	0.021259
1349.000000	0.021047
1348.000000	0.020859
1347.000000	0.020700
1346.000000	0.020577
1345.000000	0.020488
1344.000000	0.020413
1343.000000	0.020336
1342.000000	0.020258
1341.000000	0.020199
1340.000000	0.020171
1339.000000	0.020180
1338.000000	0.020228
1337.000000	0.020292
1336.000000	0.020331
1335.000000	0.020316
1334.000000	0.020250
1333.000000	0.020139
1332.000000	0.019988
1331.000000	0.019807
1330.000000	0.019610
1329.000000	0.019401
1328.000000	0.019177
1327.000000	0.018951
1326.000000	0.018744
1325.000000	0.018565
1324.000000	0.018393
1323.000000	0.018211
1322.000000	0.018025
1321.000000	0.017844
1320.000000	0.017662
1319.000000	0.017468
1318.000000	0.017267
1317.000000	0.017065
1316.000000	0.016861
1315.000000	0.016653
1314.000000	0.016453
1313.000000	0.016263
1312.000000	0.016070
1311.000000	0.015869
1310.000000	0.015676
1309.000000	0.015508
1308.000000	0.015361
1307.000000	0.015212
1306.000000	0.015043
1305.000000	0.014852
1304.000000	0.014642
1303.000000	0.014423
1302.000000	0.014207
1301.000000	0.013997
1300.000000	0.013786
1299.000000	0.013573
1298.000000	0.013369
1297.000000	0.013183
1296.000000	0.013014
1295.000000	0.012857
1294.000000	0.012715
1293.000000	0.012592
1292.000000	0.012487
1291.000000	0.012400
1290.000000	0.012324
1289.000000	0.012245
1288.000000	0.012149
1287.000000	0.012045
1286.000000	0.011950
1285.000000	0.011868
1284.000000	0.011784
1283.000000	0.011694
1282.000000	0.011607
1281.000000	0.011535
1280.000000	0.011481
1279.000000	0.011446
1278.000000	0.011434
1277.000000	0.011453
1276.000000	0.011502
1275.000000	0.011588
1274.000000	0.011721
1273.000000	0.011906
1272.000000	0.012143
1271.000000	0.012426
1270.000000	0.012753
1269.000000	0.013110
1268.000000	0.013476
1267.000000	0.013838
1266.000000	0.014194
1265.000000	0.014547
1264.000000	0.014889
1263.000000	0.015214
1262.000000	0.015530
1261.000000	0.015850
1260.000000	0.016174
1259.000000	0.016492
1258.000000	0.016794
1257.000000	0.017067
1256.000000	0.017288
1255.000000	0.017434
1254.000000	0.017502
1253.000000	0.017515
1252.000000	0.017504
1251.000000	0.017485
1250.000000	0.017467
1249.000000	0.017449
1248.000000	0.017432
1247.000000	0.017421
1246.000000	0.017423
1245.000000	0.017444
1244.000000	0.017475
1243.000000	0.017503
1242.000000	0.017514
1241.000000	0.017494
1240.000000	0.017430
1239.000000	0.017322
1238.000000	0.017185
1237.000000	0.017033
1236.000000	0.016866
1235.000000	0.016677
1234.000000	0.016464
1233.000000	0.016235
1232.000000	0.015993
1231.000000	0.015736
1230.000000	0.015450
1229.000000	0.015117
1228.000000	0.014727
1227.000000	0.014291
1226.000000	0.013835
1225.000000	0.013381
1224.000000	0.012938
1223.000000	0.012512
1222.000000	0.012115
1221.000000	0.011762
1220.000000	0.011458
1219.000000	0.011199
1218.000000	0.010969
1217.000000	0.010751
1216.000000	0.010536
1215.000000	0.010327
1214.000000	0.010131
1213.000000	0.009949
1212.000000	0.009786
1211.000000	0.009662
1210.000000	0.009593
1209.000000	0.009565
1208.000000	0.009553
1207.000000	0.009544
1206.000000	0.009550
1205.000000	0.009580
1204.000000	0.009634
1203.000000	0.009708
1202.000000	0.009797
1201.000000	0.009895
1200.000000	0.009995
1199.000000	0.010105
1198.000000	0.010237
1197.000000	0.010401
1196.000000	0.010591
1195.000000	0.010793
1194.000000	0.010994
1193.000000	0.011186
1192.000000	0.011372
1191.000000	0.011574
1190.000000	0.011810
1189.000000	0.012076
1188.000000	0.012356
1187.000000	0.012649
1186.000000	0.012966
1185.000000	0.013309
1184.000000	0.013664
1183.000000	0.014021
1182.000000	0.014393
1181.000000	0.014802
1180.000000	0.015257
1179.000000	0.015742
1178.000000	0.016234
1177.000000	0.016707
1176.000000	0.017154
1175.000000	0.017586
1174.000000	0.018018
1173.000000	0.018449
1172.000000	0.018860
1171.000000	0.019237
1170.000000	0.019591
1169.000000	0.019938
1168.000000	0.020286
1167.000000	0.020624
1166.000000	0.020935
1165.000000	0.021199
1164.000000	0.021398
1163.000000	0.021530
1162.000000	0.021609
1161.000000	0.021646
1160.000000	0.021631
1159.000000	0.021553
1158.000000	0.021422
1157.000000	0.021249
1156.000000	0.021023
1155.000000	0.020727
1154.000000	0.020366
1153.000000	0.019962
1152.000000	0.019527
1151.000000	0.019051
1150.000000	0.018526
1149.000000	0.017953
1148.000000	0.017336
1147.000000	0.016686
1146.000000	0.016021
1145.000000	0.015360
1144.000000	0.014711
1143.000000	0.014073
1142.000000	0.013440
1141.000000	0.012810
1140.000000	0.012193
1139.000000	0.011613
1138.000000	0.011091
1137.000000	0.010619
1136.000000	0.010172
1135.000000	0.009746
1134.000000	0.009362
1133.000000	0.009039
1132.000000	0.008770
1131.000000	0.008537
1130.000000	0.008331
1129.000000	0.008151
1128.000000	0.007999
1127.000000	0.007884
1126.000000	0.007818
1125.000000	0.007804
1124.000000	0.007842
1123.000000	0.007928
1122.000000	0.008065
1121.000000	0.008245
1120.000000	0.008450
1119.000000	0.008674
1118.000000	0.008938
1117.000000	0.009280
1116.000000	0.009728
1115.000000	0.010268
1114.000000	0.010849
1113.000000	0.011415
1112.000000	0.011930
1111.000000	0.012388
1110.000000	0.012776
1109.000000	0.013069
1108.000000	0.013240
1107.000000	0.013301
1106.000000	0.013296
1105.000000	0.013264
1104.000000	0.013225
1103.000000	0.013187
1102.000000	0.013169
1101.000000	0.013199
1100.000000	0.013292
1099.000000	0.013451
1098.000000	0.013661
1097.000000	0.013887
1096.000000	0.014085
1095.000000	0.014229
1094.000000	0.014314
1093.000000	0.014340
1092.000000	0.014292
1091.000000	0.014156
1090.000000	0.013928
1089.000000	0.013616
1088.000000	0.013225
1087.000000	0.012763
1086.000000	0.012247
1085.000000	0.011699
1084.000000	0.011147
1083.000000	0.010616
1082.000000	0.010126
1081.000000	0.009683
1080.000000	0.009281
1079.000000	0.008929
1078.000000	0.008629
1077.000000	0.008365
1076.000000	0.008109
1075.000000	0.007856
1074.000000	0.007634
1073.000000	0.007469
1072.000000	0.007358
1071.000000	0.007282
1070.000000	0.007236
1069.000000	0.007231
1068.000000	0.007277
1067.000000	0.007371
1066.000000	0.007497
1065.000000	0.007628
1064.000000	0.007746
1063.000000	0.007851
1062.000000	0.007951
1061.000000	0.008039
1060.000000	0.008092
1059.000000	0.008097
1058.000000	0.008070
1057.000000	0.008036
1056.000000	0.008015
1055.000000	0.008011
1054.000000	0.008021
1053.000000	0.008033
1052.000000	0.008036
1051.000000	0.008022
1050.000000	0.007990
1049.000000	0.007951
1048.000000	0.007923
1047.000000	0.007933
1046.000000	0.008002
1045.000000	0.008130
1044.000000	0.008294
1043.000000	0.008459
1042.000000	0.008594
1041.000000	0.008692
1040.000000	0.008781
1039.000000	0.008900
1038.000000	0.009061
1037.000000	0.009231
1036.000000	0.009374
1035.000000	0.009482
1034.000000	0.009580
1033.000000	0.009673
1032.000000	0.009743
1031.000000	0.009784
1030.000000	0.009822
1029.000000	0.009890
1028.000000	0.009995
1027.000000	0.010116
1026.000000	0.010231
1025.000000	0.010326
1024.000000	0.010390
1023.000000	0.010418
1022.000000	0.010408
1021.000000	0.010369
1020.000000	0.010306
1019.000000	0.010230
1018.000000	0.010152
1017.000000	0.010080
1016.000000	0.010005
1015.000000	0.009913
1014.000000	0.009800
1013.000000	0.009676
1012.000000	0.009550
1011.000000	0.009416
1010.000000	0.009266
1009.000000	0.009093
1008.000000	0.008908
1007.000000	0.008724
1006.000000	0.008548
1005.000000	0.008374
1004.000000	0.008191
1003.000000	0.008003
1002.000000	0.007832
1001.000000	0.007696
1000.000000	0.007598
999.000000	0.007518
998.000000	0.007432
997.000000	0.007340
996.000000	0.007258
995.000000	0.007204
994.000000	0.007173
993.000000	0.007144
992.000000	0.007106
991.000000	0.007064
990.000000	0.007024
989.000000	0.006980
988.000000	0.006930
987.000000	0.006887
986.000000	0.006865
985.000000	0.006860
984.000000	0.006853
983.000000	0.006831
982.000000	0.006795
981.000000	0.006758
980.000000	0.006730
979.000000	0.006717
978.000000	0.006720
977.000000	0.006740
976.000000	0.006776
975.000000	0.006829
974.000000	0.006891
973.000000	0.006955
972.000000	0.007019
971.000000	0.007087
970.000000	0.007158
969.000000	0.007215
968.000000	0.007241
967.000000	0.007230
966.000000	0.007189
965.000000	0.007128
964.000000	0.007060
963.000000	0.006993
962.000000	0.006927
961.000000	0.006848
960.000000	0.006748
959.000000	0.006627
958.000000	0.006490
957.000000	0.006334
956.000000	0.006166
955.000000	0.006002
954.000000	0.005854
953.000000	0.005710
952.000000	0.005553
951.000000	0.005391
950.000000	0.005249
949.000000	0.005138
948.000000	0.005037
947.000000	0.004924
946.000000	0.004794
945.000000	0.004659
944.000000	0.004532
943.000000	0.004415
942.000000	0.004302
941.000000	0.004187
940.000000	0.004071
939.000000	0.003960
938.000000	0.003847
937.000000	0.003718
936.000000	0.003580
935.000000	0.003462
934.000000	0.003387
933.000000	0.003349
932.000000	0.003321
931.000000	0.003290
930.000000	0.003258
929.000000	0.003226
928.000000	0.003185
927.000000	0.003135
926.000000	0.003072
925.000000	0.002990
924.000000	0.002887
923.000000	0.002784
922.000000	0.002707
921.000000	0.002664
920.000000	0.002640
919.000000	0.002616
918.000000	0.002581
917.000000	0.002528
916.000000	0.002457
915.000000	0.002382
914.000000	0.002327
913.000000	0.002295
912.000000	0.002262
911.000000	0.002194
910.000000	0.002081
909.000000	0.001952
908.000000	0.001853
907.000000	0.001806
906.000000	0.001786
905.000000	0.001743
904.000000	0.001654
903.000000	0.001539
902.000000	0.001437
901.000000	0.001370
900.000000	0.001336
899.000000	0.001320
898.000000	0.001312
897.000000	0.001308
896.000000	0.001324
895.000000	0.001368
894.000000	0.001425
893.000000	0.001473
892.000000	0.001520
891.000000	0.001618
890.000000	0.001824
889.000000	0.002202
888.000000	0.002850
887.000000	0.003882
886.000000	0.005329
885.000000	0.007063
884.000000	0.008853
883.000000	0.010528
882.000000	0.012095
881.000000	0.013713
880.000000	0.015560
879.000000	0.017687
878.000000	0.019977
877.000000	0.022198
876.000000	0.024098
875.000000	0.025465
874.000000	0.026132
873.000000	0.025979
872.000000	0.024973
871.000000	0.023237
870.000000	0.021054
869.000000	0.018749
868.000000	0.016567
867.000000	0.014624
866.000000	0.012947
865.000000	0.011529
864.000000	0.010358
863.000000	0.009401
862.000000	0.008585
861.000000	0.007826
860.000000	0.007084
859.000000	0.006383
858.000000	0.005757
857.000000	0.005210
856.000000	0.004739
855.000000	0.004364
854.000000	0.004089
853.000000	0.003882
852.000000	0.003726
851.000000	0.003682
850.000000	0.003811
849.000000	0.004041
848.000000	0.004166
847.000000	0.004018
846.000000	0.003607
845.000000	0.003092
844.000000	0.002636
843.000000	0.002320
842.000000	0.002140
841.000000	0.002043
840.000000	0.001968
839.000000	0.001885
838.000000	0.001810
837.000000	0.001774
836.000000	0.001784
835.000000	0.001813
834.000000	0.001825
833.000000	0.001804
832.000000	0.001758
831.000000	0.001699
830.000000	0.001631
829.000000	0.001547
828.000000	0.001454
827.000000	0.001375
826.000000	0.001320
825.000000	0.001283
824.000000	0.001263
823.000000	0.001291
822.000000	0.001404
821.000000	0.001596
820.000000	0.001821
819.000000	0.002042
818.000000	0.002254
817.000000	0.002456
816.000000	0.002626
815.000000	0.002716
814.000000	0.002686
813.000000	0.002528
812.000000	0.002274
811.000000	0.001990
810.000000	0.001742
809.000000	0.001563
808.000000	0.001444
807.000000	0.001364
806.000000	0.001309
805.000000	0.001280
804.000000	0.001280
803.000000	0.001312
802.000000	0.001362
801.000000	0.001400
800.000000	0.001409
799.000000	0.001395
798.000000	0.001377
797.000000	0.001368
796.000000	0.001366
795.000000	0.001369
794.000000	0.001375
793.000000	0.001383
792.000000	0.001397
791.000000	0.001419
790.000000	0.001441
789.000000	0.001445
788.000000	0.001421
787.000000	0.001388
786.000000	0.001388
785.000000	0.001452
784.000000	0.001576
783.000000	0.001722
782.000000	0.001838
781.000000	0.001885
780.000000	0.001872
779.000000	0.001850
778.000000	0.001865
777.000000	0.001911
776.000000	0.001943
775.000000	0.001926
774.000000	0.001874
773.000000	0.001833
772.000000	0.001830
771.000000	0.001854
770.000000	0.001882
769.000000	0.001904
768.000000	0.001932
767.000000	0.001970
766.000000	0.002005
765.000000	0.002023
764.000000	0.002036
763.000000	0.002079
762.000000	0.002178
761.000000	0.002328
760.000000	0.002495
759.000000	0.002638
758.000000	0.002739
757.000000	0.002825
756.000000	0.002948
755.000000	0.003122
754.000000	0.003291
753.000000	0.003391
752.000000	0.003419
751.000000	0.003429
750.000000	0.003464
749.000000	0.003508
748.000000	0.003524
747.000000	0.003497
746.000000	0.003440
745.000000	0.003385
744.000000	0.003362
743.000000	0.003377
742.000000	0.003395
741.000000	0.003370
740.000000	0.003303
739.000000	0.003234
738.000000	0.003194
737.000000	0.003180
736.000000	0.003200
735.000000	0.003281
734.000000	0.003429
733.000000	0.003604
732.000000	0.003760
731.000000	0.003873
730.000000	0.003917
729.000000	0.003866
728.000000	0.003737
727.000000	0.003597
726.000000	0.003520
725.000000	0.003525
724.000000	0.003576
723.000000	0.003627
722.000000	0.003651
721.000000	0.003671
720.000000	0.003774
719.000000	0.004076
718.000000	0.004676
717.000000	0.005639
716.000000	0.007010
715.000000	0.008740
714.000000	0.010541
713.000000	0.011904
712.000000	0.012377
711.000000	0.011891
710.000000	0.010785
709.000000	0.009544
708.000000	0.008515
707.000000	0.007808
706.000000	0.007368
705.000000	0.007095
704.000000	0.006912
703.000000	0.006786
702.000000	0.006710
701.000000	0.006675
700.000000	0.006684
699.000000	0.006747
698.000000	0.006857
697.000000	0.006975
696.000000	0.007052
695.000000	0.007071
694.000000	0.007045
693.000000	0.006994
692.000000	0.006957
691.000000	0.006955
690.000000	0.006954
689.000000	0.006881
688.000000	0.006715
687.000000	0.006528
686.000000	0.006382
685.000000	0.006252
684.000000	0.006109
683.000000	0.005992
682.000000	0.005949
681.000000	0.005958
680.000000	0.005974
679.000000	0.005980
678.000000	0.005952
677.000000	0.005868
676.000000	0.005737
675.000000	0.005602
674.000000	0.005470
673.000000	0.005285
672.000000	0.004990
671.000000	0.004564
670.000000	0.003981
669.000000	0.003239
668.000000	0.002660
667.000000	0.002671
666.000000	0.002921
665.000000	0.003171
664.000000	0.003349
663.000000	0.003366
662.000000	0.003230
661.000000	0.003039
660.000000	0.002861
659.000000	0.002692
658.000000	0.002526
657.000000	0.002436
656.000000	0.002480
655.000000	0.002633
654.000000	0.002861
653.000000	0.003148
652.000000	0.003436
651.000000	0.003652
650.000000	0.003803
649.000000	0.003985
648.000000	0.004231
647.000000	0.004477
646.000000	0.004684
645.000000	0.004881
644.000000	0.005064
643.000000	0.005183
642.000000	0.005246
641.000000	0.005345
640.000000	0.005540
639.000000	0.005760
638.000000	0.005902
637.000000	0.005936
636.000000	0.005885
635.000000	0.005779
634.000000	0.005678
633.000000	0.005653
632.000000	0.005713
631.000000	0.005785
630.000000	0.005807
629.000000	0.005783
628.000000	0.005735
627.000000	0.005660
626.000000	0.005576
625.000000	0.005526
624.000000	0.005521
623.000000	0.005524
622.000000	0.005511
621.000000	0.005516
620.000000	0.005589
619.000000	0.005739
618.000000	0.005935
617.000000	0.006125
616.000000	0.006253
615.000000	0.006298
614.000000	0.006291
613.000000	0.006286
612.000000	0.006295
611.000000	0.006309
610.000000	0.006343
609.000000	0.006418
608.000000	0.006506
607.000000	0.006544
606.000000	0.006518
605.000000	0.006456
604.000000	0.006339
603.000000	0.006100
602.000000	0.005712
601.000000	0.005230
600.000000	0.004736
599.000000	0.004292
598.000000	0.003938
597.000000	0.003689
596.000000	0.003511
595.000000	0.003352
594.000000	0.003194
593.000000	0.003064
592.000000	0.002982
591.000000	0.002940
590.000000	0.002932
589.000000	0.002944
588.000000	0.002929
587.000000	0.002854
586.000000	0.002777
585.000000	0.002797
584.000000	0.002910
583.000000	0.002989
582.000000	0.002961
581.000000	0.002912
580.000000	0.002971
579.000000	0.003120
578.000000	0.003216
577.000000	0.003162
576.000000	0.002998
575.000000	0.002839
574.000000	0.002766
573.000000	0.002768
572.000000	0.002785
571.000000	0.002776
570.000000	0.002749
569.000000	0.002718
568.000000	0.002652
567.000000	0.002522
566.000000	0.002373
565.000000	0.002278
564.000000	0.002232
563.000000	0.002163
562.000000	0.002053
561.000000	0.001961
560.000000	0.001921
559.000000	0.001895
558.000000	0.001864
557.000000	0.001857
556.000000	0.001869
555.000000	0.001820
554.000000	0.001672
553.000000	0.001507
552.000000	0.001429
551.000000	0.001449
550.000000	0.001518
549.000000	0.001611
548.000000	0.001709
547.000000	0.001746
546.000000	0.001653
545.000000	0.001451
544.000000	0.001238
543.000000	0.001103
542.000000	0.001085
541.000000	0.001187
540.000000	0.001374
539.000000	0.001577
538.000000	0.001749
537.000000	0.001894
536.000000	0.002026
535.000000	0.002120
534.000000	0.002161
533.000000	0.002196
532.000000	0.002295
531.000000	0.002467
530.000000	0.002636
529.000000	0.002730
528.000000	0.002741
527.000000	0.002717
526.000000	0.002710
525.000000	0.002752
524.000000	0.002833
523.000000	0.002937
522.000000	0.003070
521.000000	0.003235
520.000000	0.003386
519.000000	0.003456
518.000000	0.003445
517.000000	0.003421
516.000000	0.003425
515.000000	0.003447
514.000000	0.003484
513.000000	0.003539
512.000000	0.003564
511.000000	0.003489
510.000000	0.003347
509.000000	0.003265
508.000000	0.003324
507.000000	0.003470
506.000000	0.003613
505.000000	0.003747
504.000000	0.003908
503.000000	0.004096
502.000000	0.004293
501.000000	0.004489
500.000000	0.004626
499.000000	0.004604
498.000000	0.004428
497.000000	0.004272
496.000000	0.004285
495.000000	0.004400
494.000000	0.004440
493.000000	0.004332
492.000000	0.004144
491.000000	0.003939
490.000000	0.003757
489.000000	0.003666
488.000000	0.003697
487.000000	0.003739
486.000000	0.003633
485.000000	0.003384
484.000000	0.003169
483.000000	0.003105
482.000000	0.003157
481.000000	0.003273
480.000000	0.003440
479.000000	0.003583
478.000000	0.003570
477.000000	0.003379
476.000000	0.003130
475.000000	0.002899
474.000000	0.002664
473.000000	0.002452
472.000000	0.002394
471.000000	0.002515
470.000000	0.002643
469.000000	0.002622
468.000000	0.002472
467.000000	0.002328
466.000000	0.002301
465.000000	0.002392
464.000000	0.002516
463.000000	0.002581
462.000000	0.002550
461.000000	0.002480
460.000000	0.002429
459.000000	0.002372
458.000000	0.002275
457.000000	0.002214
456.000000	0.002267
455.000000	0.002325
454.000000	0.002213
453.000000	0.001903
452.000000	0.001565
451.000000	0.001354
450.000000	0.001234
