PE IR       SUBTECH     SPECTRUM    ASCII       PEDS        4.00        
   -1
P12-Vert036_1.ASC
23/06/09
11:04:27.00
23/06/09
11:23:17.00
uco
Sample 036 By uco Date Friday, June 09 2023
450.000000
#HDR
-1
-1
#GR
cm-1
A
1.0
0.0
4000.000000
-1.000000
3551
8
0.006795
0.000609
#DATA
4000.000000	0.001090
3999.000000	0.001082
3998.000000	0.001090
3997.000000	0.001105
3996.000000	0.001113
3995.000000	0.001104
3994.000000	0.001085
3993.000000	0.001068
3992.000000	0.001063
3991.000000	0.001073
3990.000000	0.001089
3989.000000	0.001104
3988.000000	0.001113
3987.000000	0.001121
3986.000000	0.001130
3985.000000	0.001144
3984.000000	0.001160
3983.000000	0.001174
3982.000000	0.001181
3981.000000	0.001177
3980.000000	0.001166
3979.000000	0.001156
3978.000000	0.001152
3977.000000	0.001151
3976.000000	0.001147
3975.000000	0.001135
3974.000000	0.001119
3973.000000	0.001106
3972.000000	0.001101
3971.000000	0.001102
3970.000000	0.001104
3969.000000	0.001106
3968.000000	0.001107
3967.000000	0.001111
3966.000000	0.001121
3965.000000	0.001137
3964.000000	0.001156
3963.000000	0.001169
3962.000000	0.001172
3961.000000	0.001165
3960.000000	0.001156
3959.000000	0.001151
3958.000000	0.001152
3957.000000	0.001157
3956.000000	0.001162
3955.000000	0.001163
3954.000000	0.001160
3953.000000	0.001154
3952.000000	0.001147
3951.000000	0.001140
3950.000000	0.001136
3949.000000	0.001137
3948.000000	0.001141
3947.000000	0.001144
3946.000000	0.001144
3945.000000	0.001138
3944.000000	0.001130
3943.000000	0.001124
3942.000000	0.001121
3941.000000	0.001121
3940.000000	0.001124
3939.000000	0.001128
3938.000000	0.001133
3937.000000	0.001137
3936.000000	0.001138
3935.000000	0.001136
3934.000000	0.001133
3933.000000	0.001132
3932.000000	0.001131
3931.000000	0.001129
3930.000000	0.001128
3929.000000	0.001130
3928.000000	0.001137
3927.000000	0.001151
3926.000000	0.001176
3925.000000	0.001212
3924.000000	0.001252
3923.000000	0.001281
3922.000000	0.001290
3921.000000	0.001282
3920.000000	0.001264
3919.000000	0.001244
3918.000000	0.001222
3917.000000	0.001196
3916.000000	0.001173
3915.000000	0.001159
3914.000000	0.001160
3913.000000	0.001172
3912.000000	0.001189
3911.000000	0.001200
3910.000000	0.001199
3909.000000	0.001184
3908.000000	0.001154
3907.000000	0.001116
3906.000000	0.001077
3905.000000	0.001051
3904.000000	0.001050
3903.000000	0.001076
3902.000000	0.001116
3901.000000	0.001150
3900.000000	0.001164
3899.000000	0.001154
3898.000000	0.001132
3897.000000	0.001110
3896.000000	0.001096
3895.000000	0.001089
3894.000000	0.001087
3893.000000	0.001090
3892.000000	0.001098
3891.000000	0.001109
3890.000000	0.001117
3889.000000	0.001117
3888.000000	0.001114
3887.000000	0.001118
3886.000000	0.001133
3885.000000	0.001151
3884.000000	0.001157
3883.000000	0.001145
3882.000000	0.001118
3881.000000	0.001089
3880.000000	0.001074
3879.000000	0.001078
3878.000000	0.001097
3877.000000	0.001122
3876.000000	0.001147
3875.000000	0.001165
3874.000000	0.001172
3873.000000	0.001167
3872.000000	0.001159
3871.000000	0.001158
3870.000000	0.001164
3869.000000	0.001171
3868.000000	0.001168
3867.000000	0.001156
3866.000000	0.001146
3865.000000	0.001144
3864.000000	0.001147
3863.000000	0.001145
3862.000000	0.001144
3861.000000	0.001154
3860.000000	0.001180
3859.000000	0.001213
3858.000000	0.001244
3857.000000	0.001269
3856.000000	0.001289
3855.000000	0.001303
3854.000000	0.001308
3853.000000	0.001304
3852.000000	0.001294
3851.000000	0.001279
3850.000000	0.001263
3849.000000	0.001252
3848.000000	0.001240
3847.000000	0.001223
3846.000000	0.001204
3845.000000	0.001193
3844.000000	0.001199
3843.000000	0.001217
3842.000000	0.001235
3841.000000	0.001245
3840.000000	0.001241
3839.000000	0.001227
3838.000000	0.001209
3837.000000	0.001191
3836.000000	0.001178
3835.000000	0.001173
3834.000000	0.001178
3833.000000	0.001193
3832.000000	0.001212
3831.000000	0.001227
3830.000000	0.001233
3829.000000	0.001232
3828.000000	0.001228
3827.000000	0.001219
3826.000000	0.001206
3825.000000	0.001193
3824.000000	0.001185
3823.000000	0.001192
3822.000000	0.001214
3821.000000	0.001240
3820.000000	0.001258
3819.000000	0.001260
3818.000000	0.001250
3817.000000	0.001241
3816.000000	0.001235
3815.000000	0.001230
3814.000000	0.001216
3813.000000	0.001193
3812.000000	0.001169
3811.000000	0.001155
3810.000000	0.001152
3809.000000	0.001155
3808.000000	0.001157
3807.000000	0.001157
3806.000000	0.001155
3805.000000	0.001153
3804.000000	0.001152
3803.000000	0.001161
3802.000000	0.001182
3801.000000	0.001210
3800.000000	0.001233
3799.000000	0.001243
3798.000000	0.001244
3797.000000	0.001246
3796.000000	0.001254
3795.000000	0.001263
3794.000000	0.001269
3793.000000	0.001269
3792.000000	0.001264
3791.000000	0.001250
3790.000000	0.001227
3789.000000	0.001205
3788.000000	0.001197
3787.000000	0.001212
3786.000000	0.001236
3785.000000	0.001250
3784.000000	0.001242
3783.000000	0.001218
3782.000000	0.001191
3781.000000	0.001171
3780.000000	0.001165
3779.000000	0.001176
3778.000000	0.001198
3777.000000	0.001220
3776.000000	0.001232
3775.000000	0.001232
3774.000000	0.001226
3773.000000	0.001221
3772.000000	0.001224
3771.000000	0.001240
3770.000000	0.001264
3769.000000	0.001280
3768.000000	0.001276
3767.000000	0.001252
3766.000000	0.001221
3765.000000	0.001198
3764.000000	0.001188
3763.000000	0.001190
3762.000000	0.001201
3761.000000	0.001222
3760.000000	0.001252
3759.000000	0.001280
3758.000000	0.001293
3757.000000	0.001288
3756.000000	0.001271
3755.000000	0.001254
3754.000000	0.001245
3753.000000	0.001247
3752.000000	0.001265
3751.000000	0.001299
3750.000000	0.001342
3749.000000	0.001372
3748.000000	0.001373
3747.000000	0.001347
3746.000000	0.001308
3745.000000	0.001271
3744.000000	0.001244
3743.000000	0.001220
3742.000000	0.001184
3741.000000	0.001143
3740.000000	0.001114
3739.000000	0.001111
3738.000000	0.001132
3737.000000	0.001164
3736.000000	0.001183
3735.000000	0.001167
3734.000000	0.001128
3733.000000	0.001095
3732.000000	0.001088
3731.000000	0.001105
3730.000000	0.001133
3729.000000	0.001160
3728.000000	0.001183
3727.000000	0.001197
3726.000000	0.001200
3725.000000	0.001192
3724.000000	0.001178
3723.000000	0.001161
3722.000000	0.001148
3721.000000	0.001147
3720.000000	0.001159
3719.000000	0.001180
3718.000000	0.001197
3717.000000	0.001199
3716.000000	0.001184
3715.000000	0.001159
3714.000000	0.001143
3713.000000	0.001151
3712.000000	0.001182
3711.000000	0.001218
3710.000000	0.001246
3709.000000	0.001261
3708.000000	0.001264
3707.000000	0.001256
3706.000000	0.001237
3705.000000	0.001213
3704.000000	0.001192
3703.000000	0.001178
3702.000000	0.001170
3701.000000	0.001167
3700.000000	0.001165
3699.000000	0.001164
3698.000000	0.001169
3697.000000	0.001184
3696.000000	0.001205
3695.000000	0.001227
3694.000000	0.001243
3693.000000	0.001252
3692.000000	0.001253
3691.000000	0.001250
3690.000000	0.001245
3689.000000	0.001240
3688.000000	0.001235
3687.000000	0.001220
3686.000000	0.001193
3685.000000	0.001166
3684.000000	0.001157
3683.000000	0.001175
3682.000000	0.001208
3681.000000	0.001233
3680.000000	0.001230
3679.000000	0.001195
3678.000000	0.001142
3677.000000	0.001090
3676.000000	0.001059
3675.000000	0.001061
3674.000000	0.001084
3673.000000	0.001099
3672.000000	0.001096
3671.000000	0.001081
3670.000000	0.001066
3669.000000	0.001068
3668.000000	0.001091
3667.000000	0.001127
3666.000000	0.001168
3665.000000	0.001209
3664.000000	0.001247
3663.000000	0.001271
3662.000000	0.001274
3661.000000	0.001257
3660.000000	0.001236
3659.000000	0.001224
3658.000000	0.001224
3657.000000	0.001226
3656.000000	0.001224
3655.000000	0.001221
3654.000000	0.001224
3653.000000	0.001236
3652.000000	0.001254
3651.000000	0.001267
3650.000000	0.001265
3649.000000	0.001247
3648.000000	0.001233
3647.000000	0.001231
3646.000000	0.001241
3645.000000	0.001256
3644.000000	0.001273
3643.000000	0.001285
3642.000000	0.001276
3641.000000	0.001237
3640.000000	0.001179
3639.000000	0.001125
3638.000000	0.001097
3637.000000	0.001097
3636.000000	0.001113
3635.000000	0.001135
3634.000000	0.001156
3633.000000	0.001175
3632.000000	0.001192
3631.000000	0.001206
3630.000000	0.001216
3629.000000	0.001221
3628.000000	0.001221
3627.000000	0.001213
3626.000000	0.001192
3625.000000	0.001168
3624.000000	0.001151
3623.000000	0.001145
3622.000000	0.001151
3621.000000	0.001164
3620.000000	0.001180
3619.000000	0.001193
3618.000000	0.001193
3617.000000	0.001176
3616.000000	0.001150
3615.000000	0.001131
3614.000000	0.001139
3613.000000	0.001179
3612.000000	0.001240
3611.000000	0.001303
3610.000000	0.001355
3609.000000	0.001391
3608.000000	0.001405
3607.000000	0.001397
3606.000000	0.001379
3605.000000	0.001361
3604.000000	0.001346
3603.000000	0.001330
3602.000000	0.001309
3601.000000	0.001282
3600.000000	0.001260
3599.000000	0.001250
3598.000000	0.001249
3597.000000	0.001250
3596.000000	0.001249
3595.000000	0.001251
3594.000000	0.001263
3593.000000	0.001286
3592.000000	0.001313
3591.000000	0.001336
3590.000000	0.001352
3589.000000	0.001359
3588.000000	0.001358
3587.000000	0.001355
3586.000000	0.001360
3585.000000	0.001371
3584.000000	0.001383
3583.000000	0.001393
3582.000000	0.001408
3581.000000	0.001431
3580.000000	0.001462
3579.000000	0.001492
3578.000000	0.001513
3577.000000	0.001519
3576.000000	0.001515
3575.000000	0.001507
3574.000000	0.001500
3573.000000	0.001492
3572.000000	0.001481
3571.000000	0.001465
3570.000000	0.001448
3569.000000	0.001432
3568.000000	0.001421
3567.000000	0.001417
3566.000000	0.001426
3565.000000	0.001453
3564.000000	0.001497
3563.000000	0.001546
3562.000000	0.001586
3561.000000	0.001605
3560.000000	0.001602
3559.000000	0.001583
3558.000000	0.001561
3557.000000	0.001537
3556.000000	0.001514
3555.000000	0.001494
3554.000000	0.001485
3553.000000	0.001496
3552.000000	0.001524
3551.000000	0.001555
3550.000000	0.001578
3549.000000	0.001590
3548.000000	0.001594
3547.000000	0.001590
3546.000000	0.001577
3545.000000	0.001563
3544.000000	0.001562
3543.000000	0.001579
3542.000000	0.001606
3541.000000	0.001632
3540.000000	0.001651
3539.000000	0.001665
3538.000000	0.001676
3537.000000	0.001691
3536.000000	0.001714
3535.000000	0.001746
3534.000000	0.001778
3533.000000	0.001800
3532.000000	0.001801
3531.000000	0.001781
3530.000000	0.001752
3529.000000	0.001732
3528.000000	0.001733
3527.000000	0.001755
3526.000000	0.001782
3525.000000	0.001800
3524.000000	0.001803
3523.000000	0.001794
3522.000000	0.001779
3521.000000	0.001767
3520.000000	0.001767
3519.000000	0.001787
3518.000000	0.001825
3517.000000	0.001868
3516.000000	0.001902
3515.000000	0.001920
3514.000000	0.001918
3513.000000	0.001902
3512.000000	0.001881
3511.000000	0.001867
3510.000000	0.001870
3509.000000	0.001885
3508.000000	0.001902
3507.000000	0.001907
3506.000000	0.001897
3505.000000	0.001876
3504.000000	0.001854
3503.000000	0.001842
3502.000000	0.001851
3501.000000	0.001880
3500.000000	0.001912
3499.000000	0.001930
3498.000000	0.001927
3497.000000	0.001914
3496.000000	0.001906
3495.000000	0.001910
3494.000000	0.001920
3493.000000	0.001931
3492.000000	0.001940
3491.000000	0.001944
3490.000000	0.001940
3489.000000	0.001929
3488.000000	0.001920
3487.000000	0.001921
3486.000000	0.001931
3485.000000	0.001941
3484.000000	0.001945
3483.000000	0.001944
3482.000000	0.001945
3481.000000	0.001947
3480.000000	0.001950
3479.000000	0.001953
3478.000000	0.001958
3477.000000	0.001972
3476.000000	0.001995
3475.000000	0.002020
3474.000000	0.002035
3473.000000	0.002032
3472.000000	0.002017
3471.000000	0.002011
3470.000000	0.002031
3469.000000	0.002071
3468.000000	0.002109
3467.000000	0.002127
3466.000000	0.002123
3465.000000	0.002110
3464.000000	0.002098
3463.000000	0.002090
3462.000000	0.002090
3461.000000	0.002099
3460.000000	0.002111
3459.000000	0.002114
3458.000000	0.002101
3457.000000	0.002077
3456.000000	0.002061
3455.000000	0.002063
3454.000000	0.002081
3453.000000	0.002097
3452.000000	0.002097
3451.000000	0.002086
3450.000000	0.002084
3449.000000	0.002103
3448.000000	0.002133
3447.000000	0.002156
3446.000000	0.002163
3445.000000	0.002163
3444.000000	0.002168
3443.000000	0.002179
3442.000000	0.002189
3441.000000	0.002194
3440.000000	0.002195
3439.000000	0.002192
3438.000000	0.002184
3437.000000	0.002172
3436.000000	0.002160
3435.000000	0.002151
3434.000000	0.002153
3433.000000	0.002169
3432.000000	0.002200
3431.000000	0.002241
3430.000000	0.002278
3429.000000	0.002298
3428.000000	0.002294
3427.000000	0.002278
3426.000000	0.002265
3425.000000	0.002266
3424.000000	0.002274
3423.000000	0.002278
3422.000000	0.002273
3421.000000	0.002267
3420.000000	0.002275
3419.000000	0.002300
3418.000000	0.002332
3417.000000	0.002361
3416.000000	0.002381
3415.000000	0.002393
3414.000000	0.002403
3413.000000	0.002416
3412.000000	0.002434
3411.000000	0.002454
3410.000000	0.002473
3409.000000	0.002491
3408.000000	0.002515
3407.000000	0.002550
3406.000000	0.002590
3405.000000	0.002617
3404.000000	0.002615
3403.000000	0.002583
3402.000000	0.002536
3401.000000	0.002495
3400.000000	0.002474
3399.000000	0.002475
3398.000000	0.002490
3397.000000	0.002506
3396.000000	0.002516
3395.000000	0.002520
3394.000000	0.002522
3393.000000	0.002527
3392.000000	0.002534
3391.000000	0.002543
3390.000000	0.002554
3389.000000	0.002564
3388.000000	0.002570
3387.000000	0.002568
3386.000000	0.002565
3385.000000	0.002567
3384.000000	0.002571
3383.000000	0.002567
3382.000000	0.002548
3381.000000	0.002526
3380.000000	0.002514
3379.000000	0.002520
3378.000000	0.002539
3377.000000	0.002563
3376.000000	0.002589
3375.000000	0.002613
3374.000000	0.002634
3373.000000	0.002653
3372.000000	0.002672
3371.000000	0.002690
3370.000000	0.002706
3369.000000	0.002717
3368.000000	0.002719
3367.000000	0.002716
3366.000000	0.002714
3365.000000	0.002716
3364.000000	0.002721
3363.000000	0.002723
3362.000000	0.002718
3361.000000	0.002707
3360.000000	0.002694
3359.000000	0.002685
3358.000000	0.002686
3357.000000	0.002702
3356.000000	0.002725
3355.000000	0.002743
3354.000000	0.002745
3353.000000	0.002742
3352.000000	0.002750
3351.000000	0.002770
3350.000000	0.002790
3349.000000	0.002796
3348.000000	0.002793
3347.000000	0.002795
3346.000000	0.002808
3345.000000	0.002827
3344.000000	0.002844
3343.000000	0.002854
3342.000000	0.002857
3341.000000	0.002856
3340.000000	0.002852
3339.000000	0.002850
3338.000000	0.002852
3337.000000	0.002860
3336.000000	0.002869
3335.000000	0.002874
3334.000000	0.002873
3333.000000	0.002872
3332.000000	0.002878
3331.000000	0.002893
3330.000000	0.002910
3329.000000	0.002924
3328.000000	0.002936
3327.000000	0.002952
3326.000000	0.002974
3325.000000	0.002994
3324.000000	0.003009
3323.000000	0.003018
3322.000000	0.003027
3321.000000	0.003039
3320.000000	0.003055
3319.000000	0.003071
3318.000000	0.003081
3317.000000	0.003078
3316.000000	0.003066
3315.000000	0.003053
3314.000000	0.003047
3313.000000	0.003049
3312.000000	0.003057
3311.000000	0.003063
3310.000000	0.003063
3309.000000	0.003052
3308.000000	0.003036
3307.000000	0.003021
3306.000000	0.003017
3305.000000	0.003022
3304.000000	0.003030
3303.000000	0.003032
3302.000000	0.003028
3301.000000	0.003020
3300.000000	0.003016
3299.000000	0.003015
3298.000000	0.003014
3297.000000	0.003007
3296.000000	0.002997
3295.000000	0.002994
3294.000000	0.003008
3293.000000	0.003039
3292.000000	0.003076
3291.000000	0.003106
3290.000000	0.003117
3289.000000	0.003109
3288.000000	0.003090
3287.000000	0.003072
3286.000000	0.003063
3285.000000	0.003061
3284.000000	0.003064
3283.000000	0.003072
3282.000000	0.003086
3281.000000	0.003109
3280.000000	0.003130
3279.000000	0.003140
3278.000000	0.003130
3277.000000	0.003105
3276.000000	0.003082
3275.000000	0.003077
3274.000000	0.003093
3273.000000	0.003111
3272.000000	0.003110
3271.000000	0.003084
3270.000000	0.003047
3269.000000	0.003023
3268.000000	0.003020
3267.000000	0.003035
3266.000000	0.003056
3265.000000	0.003075
3264.000000	0.003087
3263.000000	0.003091
3262.000000	0.003090
3261.000000	0.003086
3260.000000	0.003081
3259.000000	0.003069
3258.000000	0.003044
3257.000000	0.003008
3256.000000	0.002976
3255.000000	0.002960
3254.000000	0.002969
3253.000000	0.002997
3252.000000	0.003030
3251.000000	0.003058
3250.000000	0.003070
3249.000000	0.003065
3248.000000	0.003043
3247.000000	0.003011
3246.000000	0.002976
3245.000000	0.002949
3244.000000	0.002935
3243.000000	0.002936
3242.000000	0.002948
3241.000000	0.002965
3240.000000	0.002979
3239.000000	0.002988
3238.000000	0.002998
3237.000000	0.003015
3236.000000	0.003040
3235.000000	0.003061
3234.000000	0.003065
3233.000000	0.003044
3232.000000	0.003002
3231.000000	0.002958
3230.000000	0.002926
3229.000000	0.002914
3228.000000	0.002917
3227.000000	0.002924
3226.000000	0.002931
3225.000000	0.002942
3224.000000	0.002958
3223.000000	0.002978
3222.000000	0.002992
3221.000000	0.002994
3220.000000	0.002984
3219.000000	0.002964
3218.000000	0.002940
3217.000000	0.002915
3216.000000	0.002894
3215.000000	0.002880
3214.000000	0.002875
3213.000000	0.002882
3212.000000	0.002897
3211.000000	0.002913
3210.000000	0.002926
3209.000000	0.002936
3208.000000	0.002948
3207.000000	0.002961
3206.000000	0.002970
3205.000000	0.002972
3204.000000	0.002966
3203.000000	0.002952
3202.000000	0.002927
3201.000000	0.002890
3200.000000	0.002848
3199.000000	0.002822
3198.000000	0.002827
3197.000000	0.002860
3196.000000	0.002903
3195.000000	0.002930
3194.000000	0.002932
3193.000000	0.002917
3192.000000	0.002903
3191.000000	0.002902
3190.000000	0.002914
3189.000000	0.002927
3188.000000	0.002933
3187.000000	0.002924
3186.000000	0.002896
3185.000000	0.002852
3184.000000	0.002808
3183.000000	0.002777
3182.000000	0.002767
3181.000000	0.002773
3180.000000	0.002790
3179.000000	0.002817
3178.000000	0.002847
3177.000000	0.002869
3176.000000	0.002869
3175.000000	0.002845
3174.000000	0.002812
3173.000000	0.002785
3172.000000	0.002772
3171.000000	0.002768
3170.000000	0.002768
3169.000000	0.002770
3168.000000	0.002776
3167.000000	0.002789
3166.000000	0.002803
3165.000000	0.002810
3164.000000	0.002807
3163.000000	0.002802
3162.000000	0.002802
3161.000000	0.002800
3160.000000	0.002785
3159.000000	0.002759
3158.000000	0.002740
3157.000000	0.002745
3156.000000	0.002768
3155.000000	0.002786
3154.000000	0.002785
3153.000000	0.002770
3152.000000	0.002757
3151.000000	0.002757
3150.000000	0.002768
3149.000000	0.002780
3148.000000	0.002783
3147.000000	0.002773
3146.000000	0.002748
3145.000000	0.002712
3144.000000	0.002670
3143.000000	0.002633
3142.000000	0.002610
3141.000000	0.002606
3140.000000	0.002619
3139.000000	0.002639
3138.000000	0.002661
3137.000000	0.002682
3136.000000	0.002696
3135.000000	0.002698
3134.000000	0.002688
3133.000000	0.002675
3132.000000	0.002674
3131.000000	0.002688
3130.000000	0.002706
3129.000000	0.002713
3128.000000	0.002705
3127.000000	0.002685
3126.000000	0.002660
3125.000000	0.002633
3124.000000	0.002611
3123.000000	0.002607
3122.000000	0.002625
3121.000000	0.002655
3120.000000	0.002679
3119.000000	0.002689
3118.000000	0.002689
3117.000000	0.002685
3116.000000	0.002681
3115.000000	0.002681
3114.000000	0.002683
3113.000000	0.002682
3112.000000	0.002675
3111.000000	0.002661
3110.000000	0.002645
3109.000000	0.002631
3108.000000	0.002618
3107.000000	0.002608
3106.000000	0.002605
3105.000000	0.002614
3104.000000	0.002634
3103.000000	0.002654
3102.000000	0.002665
3101.000000	0.002663
3100.000000	0.002653
3099.000000	0.002643
3098.000000	0.002637
3097.000000	0.002636
3096.000000	0.002640
3095.000000	0.002654
3094.000000	0.002676
3093.000000	0.002696
3092.000000	0.002702
3091.000000	0.002686
3090.000000	0.002655
3089.000000	0.002621
3088.000000	0.002596
3087.000000	0.002588
3086.000000	0.002598
3085.000000	0.002619
3084.000000	0.002637
3083.000000	0.002643
3082.000000	0.002636
3081.000000	0.002618
3080.000000	0.002597
3079.000000	0.002582
3078.000000	0.002580
3077.000000	0.002594
3076.000000	0.002616
3075.000000	0.002642
3074.000000	0.002666
3073.000000	0.002683
3072.000000	0.002686
3071.000000	0.002680
3070.000000	0.002673
3069.000000	0.002675
3068.000000	0.002683
3067.000000	0.002687
3066.000000	0.002678
3065.000000	0.002656
3064.000000	0.002632
3063.000000	0.002620
3062.000000	0.002629
3061.000000	0.002649
3060.000000	0.002662
3059.000000	0.002660
3058.000000	0.002649
3057.000000	0.002645
3056.000000	0.002654
3055.000000	0.002665
3054.000000	0.002668
3053.000000	0.002659
3052.000000	0.002645
3051.000000	0.002637
3050.000000	0.002641
3049.000000	0.002653
3048.000000	0.002665
3047.000000	0.002668
3046.000000	0.002653
3045.000000	0.002616
3044.000000	0.002566
3043.000000	0.002523
3042.000000	0.002508
3041.000000	0.002526
3040.000000	0.002558
3039.000000	0.002580
3038.000000	0.002579
3037.000000	0.002565
3036.000000	0.002550
3035.000000	0.002542
3034.000000	0.002540
3033.000000	0.002543
3032.000000	0.002549
3031.000000	0.002555
3030.000000	0.002562
3029.000000	0.002571
3028.000000	0.002586
3027.000000	0.002606
3026.000000	0.002626
3025.000000	0.002639
3024.000000	0.002639
3023.000000	0.002628
3022.000000	0.002612
3021.000000	0.002599
3020.000000	0.002592
3019.000000	0.002590
3018.000000	0.002592
3017.000000	0.002593
3016.000000	0.002592
3015.000000	0.002584
3014.000000	0.002571
3013.000000	0.002561
3012.000000	0.002565
3011.000000	0.002581
3010.000000	0.002603
3009.000000	0.002624
3008.000000	0.002645
3007.000000	0.002662
3006.000000	0.002671
3005.000000	0.002667
3004.000000	0.002656
3003.000000	0.002654
3002.000000	0.002673
3001.000000	0.002708
3000.000000	0.002743
2999.000000	0.002761
2998.000000	0.002757
2997.000000	0.002744
2996.000000	0.002735
2995.000000	0.002742
2994.000000	0.002767
2993.000000	0.002806
2992.000000	0.002849
2991.000000	0.002882
2990.000000	0.002895
2989.000000	0.002892
2988.000000	0.002885
2987.000000	0.002882
2986.000000	0.002885
2985.000000	0.002894
2984.000000	0.002911
2983.000000	0.002940
2982.000000	0.002974
2981.000000	0.003000
2980.000000	0.003014
2979.000000	0.003028
2978.000000	0.003058
2977.000000	0.003108
2976.000000	0.003171
2975.000000	0.003235
2974.000000	0.003296
2973.000000	0.003350
2972.000000	0.003395
2971.000000	0.003427
2970.000000	0.003453
2969.000000	0.003486
2968.000000	0.003539
2967.000000	0.003609
2966.000000	0.003679
2965.000000	0.003726
2964.000000	0.003743
2963.000000	0.003742
2962.000000	0.003746
2961.000000	0.003766
2960.000000	0.003801
2959.000000	0.003840
2958.000000	0.003871
2957.000000	0.003884
2956.000000	0.003876
2955.000000	0.003849
2954.000000	0.003810
2953.000000	0.003764
2952.000000	0.003717
2951.000000	0.003678
2950.000000	0.003658
2949.000000	0.003664
2948.000000	0.003689
2947.000000	0.003715
2946.000000	0.003731
2945.000000	0.003739
2944.000000	0.003758
2943.000000	0.003801
2942.000000	0.003862
2941.000000	0.003922
2940.000000	0.003968
2939.000000	0.004005
2938.000000	0.004049
2937.000000	0.004104
2936.000000	0.004163
2935.000000	0.004215
2934.000000	0.004252
2933.000000	0.004274
2932.000000	0.004283
2931.000000	0.004283
2930.000000	0.004279
2929.000000	0.004278
2928.000000	0.004287
2927.000000	0.004303
2926.000000	0.004314
2925.000000	0.004309
2924.000000	0.004291
2923.000000	0.004272
2922.000000	0.004254
2921.000000	0.004228
2920.000000	0.004183
2919.000000	0.004124
2918.000000	0.004064
2917.000000	0.004018
2916.000000	0.003994
2915.000000	0.003983
2914.000000	0.003972
2913.000000	0.003947
2912.000000	0.003908
2911.000000	0.003865
2910.000000	0.003828
2909.000000	0.003798
2908.000000	0.003769
2907.000000	0.003736
2906.000000	0.003696
2905.000000	0.003646
2904.000000	0.003588
2903.000000	0.003536
2902.000000	0.003503
2901.000000	0.003491
2900.000000	0.003487
2899.000000	0.003479
2898.000000	0.003460
2897.000000	0.003433
2896.000000	0.003404
2895.000000	0.003378
2894.000000	0.003360
2893.000000	0.003341
2892.000000	0.003314
2891.000000	0.003280
2890.000000	0.003248
2889.000000	0.003222
2888.000000	0.003193
2887.000000	0.003152
2886.000000	0.003107
2885.000000	0.003077
2884.000000	0.003073
2883.000000	0.003092
2882.000000	0.003128
2881.000000	0.003180
2880.000000	0.003246
2879.000000	0.003314
2878.000000	0.003365
2877.000000	0.003396
2876.000000	0.003412
2875.000000	0.003422
2874.000000	0.003426
2873.000000	0.003419
2872.000000	0.003401
2871.000000	0.003381
2870.000000	0.003369
2869.000000	0.003367
2868.000000	0.003370
2867.000000	0.003376
2866.000000	0.003387
2865.000000	0.003404
2864.000000	0.003422
2863.000000	0.003438
2862.000000	0.003452
2861.000000	0.003470
2860.000000	0.003494
2859.000000	0.003521
2858.000000	0.003541
2857.000000	0.003547
2856.000000	0.003538
2855.000000	0.003519
2854.000000	0.003496
2853.000000	0.003466
2852.000000	0.003421
2851.000000	0.003363
2850.000000	0.003299
2849.000000	0.003238
2848.000000	0.003186
2847.000000	0.003143
2846.000000	0.003109
2845.000000	0.003077
2844.000000	0.003042
2843.000000	0.003000
2842.000000	0.002954
2841.000000	0.002908
2840.000000	0.002867
2839.000000	0.002836
2838.000000	0.002822
2837.000000	0.002820
2836.000000	0.002816
2835.000000	0.002797
2834.000000	0.002765
2833.000000	0.002738
2832.000000	0.002725
2831.000000	0.002722
2830.000000	0.002718
2829.000000	0.002706
2828.000000	0.002694
2827.000000	0.002688
2826.000000	0.002689
2825.000000	0.002691
2824.000000	0.002690
2823.000000	0.002687
2822.000000	0.002683
2821.000000	0.002678
2820.000000	0.002670
2819.000000	0.002656
2818.000000	0.002640
2817.000000	0.002628
2816.000000	0.002617
2815.000000	0.002605
2814.000000	0.002593
2813.000000	0.002585
2812.000000	0.002583
2811.000000	0.002584
2810.000000	0.002585
2809.000000	0.002584
2808.000000	0.002580
2807.000000	0.002571
2806.000000	0.002563
2805.000000	0.002559
2804.000000	0.002563
2803.000000	0.002572
2802.000000	0.002583
2801.000000	0.002592
2800.000000	0.002593
2799.000000	0.002586
2798.000000	0.002573
2797.000000	0.002560
2796.000000	0.002547
2795.000000	0.002529
2794.000000	0.002507
2793.000000	0.002487
2792.000000	0.002479
2791.000000	0.002483
2790.000000	0.002493
2789.000000	0.002502
2788.000000	0.002507
2787.000000	0.002503
2786.000000	0.002494
2785.000000	0.002488
2784.000000	0.002491
2783.000000	0.002501
2782.000000	0.002509
2781.000000	0.002513
2780.000000	0.002517
2779.000000	0.002526
2778.000000	0.002540
2777.000000	0.002556
2776.000000	0.002569
2775.000000	0.002572
2774.000000	0.002562
2773.000000	0.002545
2772.000000	0.002534
2771.000000	0.002532
2770.000000	0.002531
2769.000000	0.002520
2768.000000	0.002503
2767.000000	0.002490
2766.000000	0.002489
2765.000000	0.002495
2764.000000	0.002500
2763.000000	0.002505
2762.000000	0.002514
2761.000000	0.002530
2760.000000	0.002544
2759.000000	0.002546
2758.000000	0.002533
2757.000000	0.002512
2756.000000	0.002492
2755.000000	0.002479
2754.000000	0.002472
2753.000000	0.002471
2752.000000	0.002472
2751.000000	0.002474
2750.000000	0.002472
2749.000000	0.002465
2748.000000	0.002456
2747.000000	0.002445
2746.000000	0.002436
2745.000000	0.002432
2744.000000	0.002433
2743.000000	0.002438
2742.000000	0.002444
2741.000000	0.002452
2740.000000	0.002464
2739.000000	0.002476
2738.000000	0.002481
2737.000000	0.002476
2736.000000	0.002469
2735.000000	0.002465
2734.000000	0.002465
2733.000000	0.002465
2732.000000	0.002465
2731.000000	0.002466
2730.000000	0.002467
2729.000000	0.002460
2728.000000	0.002443
2727.000000	0.002423
2726.000000	0.002407
2725.000000	0.002402
2724.000000	0.002407
2723.000000	0.002421
2722.000000	0.002435
2721.000000	0.002440
2720.000000	0.002435
2719.000000	0.002426
2718.000000	0.002421
2717.000000	0.002422
2716.000000	0.002426
2715.000000	0.002430
2714.000000	0.002433
2713.000000	0.002436
2712.000000	0.002444
2711.000000	0.002457
2710.000000	0.002471
2709.000000	0.002475
2708.000000	0.002467
2707.000000	0.002450
2706.000000	0.002433
2705.000000	0.002425
2704.000000	0.002427
2703.000000	0.002434
2702.000000	0.002438
2701.000000	0.002433
2700.000000	0.002420
2699.000000	0.002407
2698.000000	0.002400
2697.000000	0.002394
2696.000000	0.002385
2695.000000	0.002372
2694.000000	0.002359
2693.000000	0.002351
2692.000000	0.002354
2691.000000	0.002369
2690.000000	0.002390
2689.000000	0.002407
2688.000000	0.002411
2687.000000	0.002406
2686.000000	0.002401
2685.000000	0.002400
2684.000000	0.002400
2683.000000	0.002400
2682.000000	0.002399
2681.000000	0.002400
2680.000000	0.002404
2679.000000	0.002415
2678.000000	0.002432
2677.000000	0.002451
2676.000000	0.002465
2675.000000	0.002471
2674.000000	0.002468
2673.000000	0.002457
2672.000000	0.002439
2671.000000	0.002421
2670.000000	0.002411
2669.000000	0.002410
2668.000000	0.002409
2667.000000	0.002400
2666.000000	0.002385
2665.000000	0.002377
2664.000000	0.002382
2663.000000	0.002400
2662.000000	0.002424
2661.000000	0.002446
2660.000000	0.002459
2659.000000	0.002460
2658.000000	0.002452
2657.000000	0.002444
2656.000000	0.002444
2655.000000	0.002450
2654.000000	0.002456
2653.000000	0.002460
2652.000000	0.002463
2651.000000	0.002466
2650.000000	0.002466
2649.000000	0.002460
2648.000000	0.002448
2647.000000	0.002441
2646.000000	0.002442
2645.000000	0.002448
2644.000000	0.002448
2643.000000	0.002441
2642.000000	0.002435
2641.000000	0.002435
2640.000000	0.002437
2639.000000	0.002434
2638.000000	0.002426
2637.000000	0.002417
2636.000000	0.002413
2635.000000	0.002412
2634.000000	0.002414
2633.000000	0.002419
2632.000000	0.002429
2631.000000	0.002439
2630.000000	0.002437
2629.000000	0.002417
2628.000000	0.002383
2627.000000	0.002349
2626.000000	0.002330
2625.000000	0.002324
2624.000000	0.002321
2623.000000	0.002313
2622.000000	0.002304
2621.000000	0.002297
2620.000000	0.002288
2619.000000	0.002270
2618.000000	0.002252
2617.000000	0.002253
2616.000000	0.002283
2615.000000	0.002320
2614.000000	0.002336
2613.000000	0.002323
2612.000000	0.002297
2611.000000	0.002284
2610.000000	0.002286
2609.000000	0.002288
2608.000000	0.002281
2607.000000	0.002273
2606.000000	0.002278
2605.000000	0.002296
2604.000000	0.002310
2603.000000	0.002305
2602.000000	0.002279
2601.000000	0.002247
2600.000000	0.002229
2599.000000	0.002235
2598.000000	0.002255
2597.000000	0.002274
2596.000000	0.002277
2595.000000	0.002268
2594.000000	0.002255
2593.000000	0.002247
2592.000000	0.002239
2591.000000	0.002224
2590.000000	0.002197
2589.000000	0.002164
2588.000000	0.002138
2587.000000	0.002132
2586.000000	0.002154
2585.000000	0.002196
2584.000000	0.002236
2583.000000	0.002260
2582.000000	0.002266
2581.000000	0.002261
2580.000000	0.002245
2579.000000	0.002219
2578.000000	0.002193
2577.000000	0.002182
2576.000000	0.002184
2575.000000	0.002188
2574.000000	0.002187
2573.000000	0.002190
2572.000000	0.002209
2571.000000	0.002236
2570.000000	0.002256
2569.000000	0.002262
2568.000000	0.002258
2567.000000	0.002249
2566.000000	0.002233
2565.000000	0.002209
2564.000000	0.002181
2563.000000	0.002157
2562.000000	0.002140
2561.000000	0.002122
2560.000000	0.002104
2559.000000	0.002090
2558.000000	0.002087
2557.000000	0.002098
2556.000000	0.002116
2555.000000	0.002129
2554.000000	0.002123
2553.000000	0.002093
2552.000000	0.002051
2551.000000	0.002016
2550.000000	0.002001
2549.000000	0.002004
2548.000000	0.002021
2547.000000	0.002048
2546.000000	0.002083
2545.000000	0.002112
2544.000000	0.002122
2543.000000	0.002106
2542.000000	0.002080
2541.000000	0.002060
2540.000000	0.002056
2539.000000	0.002061
2538.000000	0.002070
2537.000000	0.002082
2536.000000	0.002098
2535.000000	0.002106
2534.000000	0.002096
2533.000000	0.002074
2532.000000	0.002071
2531.000000	0.002109
2530.000000	0.002179
2529.000000	0.002245
2528.000000	0.002277
2527.000000	0.002272
2526.000000	0.002246
2525.000000	0.002216
2524.000000	0.002192
2523.000000	0.002177
2522.000000	0.002172
2521.000000	0.002177
2520.000000	0.002185
2519.000000	0.002183
2518.000000	0.002163
2517.000000	0.002131
2516.000000	0.002104
2515.000000	0.002098
2514.000000	0.002111
2513.000000	0.002130
2512.000000	0.002139
2511.000000	0.002129
2510.000000	0.002103
2509.000000	0.002072
2508.000000	0.002055
2507.000000	0.002064
2506.000000	0.002092
2505.000000	0.002120
2504.000000	0.002132
2503.000000	0.002123
2502.000000	0.002104
2501.000000	0.002087
2500.000000	0.002077
2499.000000	0.002069
2498.000000	0.002052
2497.000000	0.002023
2496.000000	0.001990
2495.000000	0.001967
2494.000000	0.001957
2493.000000	0.001950
2492.000000	0.001943
2491.000000	0.001942
2490.000000	0.001957
2489.000000	0.001988
2488.000000	0.002023
2487.000000	0.002055
2486.000000	0.002084
2485.000000	0.002108
2484.000000	0.002121
2483.000000	0.002121
2482.000000	0.002111
2481.000000	0.002092
2480.000000	0.002066
2479.000000	0.002041
2478.000000	0.002029
2477.000000	0.002034
2476.000000	0.002049
2475.000000	0.002059
2474.000000	0.002052
2473.000000	0.002025
2472.000000	0.001990
2471.000000	0.001956
2470.000000	0.001931
2469.000000	0.001913
2468.000000	0.001906
2467.000000	0.001923
2466.000000	0.001967
2465.000000	0.002021
2464.000000	0.002057
2463.000000	0.002066
2462.000000	0.002065
2461.000000	0.002070
2460.000000	0.002080
2459.000000	0.002089
2458.000000	0.002101
2457.000000	0.002124
2456.000000	0.002154
2455.000000	0.002178
2454.000000	0.002181
2453.000000	0.002166
2452.000000	0.002139
2451.000000	0.002109
2450.000000	0.002080
2449.000000	0.002053
2448.000000	0.002028
2447.000000	0.002005
2446.000000	0.001990
2445.000000	0.001988
2444.000000	0.001998
2443.000000	0.002013
2442.000000	0.002024
2441.000000	0.002026
2440.000000	0.002022
2439.000000	0.002022
2438.000000	0.002039
2437.000000	0.002071
2436.000000	0.002097
2435.000000	0.002094
2434.000000	0.002059
2433.000000	0.002015
2432.000000	0.001995
2431.000000	0.002008
2430.000000	0.002037
2429.000000	0.002058
2428.000000	0.002052
2427.000000	0.002018
2426.000000	0.001963
2425.000000	0.001913
2424.000000	0.001894
2423.000000	0.001918
2422.000000	0.001967
2421.000000	0.002006
2420.000000	0.002020
2419.000000	0.002019
2418.000000	0.002019
2417.000000	0.002017
2416.000000	0.002000
2415.000000	0.001968
2414.000000	0.001935
2413.000000	0.001914
2412.000000	0.001903
2411.000000	0.001900
2410.000000	0.001907
2409.000000	0.001926
2408.000000	0.001952
2407.000000	0.001975
2406.000000	0.001996
2405.000000	0.002019
2404.000000	0.002041
2403.000000	0.002060
2402.000000	0.002073
2401.000000	0.002081
2400.000000	0.002076
2399.000000	0.002052
2398.000000	0.002017
2397.000000	0.001988
2396.000000	0.001976
2395.000000	0.001978
2394.000000	0.001981
2393.000000	0.001978
2392.000000	0.001975
2391.000000	0.001974
2390.000000	0.001969
2389.000000	0.001954
2388.000000	0.001929
2387.000000	0.001901
2386.000000	0.001872
2385.000000	0.001839
2384.000000	0.001800
2383.000000	0.001758
2382.000000	0.001714
2381.000000	0.001670
2380.000000	0.001631
2379.000000	0.001616
2378.000000	0.001640
2377.000000	0.001694
2376.000000	0.001748
2375.000000	0.001781
2374.000000	0.001790
2373.000000	0.001774
2372.000000	0.001723
2371.000000	0.001635
2370.000000	0.001536
2369.000000	0.001456
2368.000000	0.001414
2367.000000	0.001415
2366.000000	0.001456
2365.000000	0.001529
2364.000000	0.001617
2363.000000	0.001711
2362.000000	0.001801
2361.000000	0.001866
2360.000000	0.001885
2359.000000	0.001860
2358.000000	0.001814
2357.000000	0.001773
2356.000000	0.001748
2355.000000	0.001749
2354.000000	0.001751
2353.000000	0.001719
2352.000000	0.001666
2351.000000	0.001643
2350.000000	0.001683
2349.000000	0.001770
2348.000000	0.001864
2347.000000	0.001918
2346.000000	0.001909
2345.000000	0.001866
2344.000000	0.001833
2343.000000	0.001823
2342.000000	0.001821
2341.000000	0.001832
2340.000000	0.001883
2339.000000	0.001975
2338.000000	0.002058
2337.000000	0.002065
2336.000000	0.001992
2335.000000	0.001890
2334.000000	0.001810
2333.000000	0.001757
2332.000000	0.001729
2331.000000	0.001725
2330.000000	0.001750
2329.000000	0.001792
2328.000000	0.001857
2327.000000	0.001952
2326.000000	0.002072
2325.000000	0.002179
2324.000000	0.002232
2323.000000	0.002218
2322.000000	0.002167
2321.000000	0.002126
2320.000000	0.002127
2319.000000	0.002158
2318.000000	0.002183
2317.000000	0.002173
2316.000000	0.002144
2315.000000	0.002128
2314.000000	0.002141
2313.000000	0.002165
2312.000000	0.002176
2311.000000	0.002162
2310.000000	0.002131
2309.000000	0.002092
2308.000000	0.002059
2307.000000	0.002046
2306.000000	0.002060
2305.000000	0.002087
2304.000000	0.002105
2303.000000	0.002106
2302.000000	0.002106
2301.000000	0.002121
2300.000000	0.002149
2299.000000	0.002168
2298.000000	0.002161
2297.000000	0.002127
2296.000000	0.002080
2295.000000	0.002047
2294.000000	0.002054
2293.000000	0.002104
2292.000000	0.002168
2291.000000	0.002200
2290.000000	0.002180
2289.000000	0.002134
2288.000000	0.002114
2287.000000	0.002144
2286.000000	0.002198
2285.000000	0.002223
2284.000000	0.002196
2283.000000	0.002149
2282.000000	0.002134
2281.000000	0.002165
2280.000000	0.002201
2279.000000	0.002192
2278.000000	0.002133
2277.000000	0.002064
2276.000000	0.002022
2275.000000	0.002015
2274.000000	0.002027
2273.000000	0.002034
2272.000000	0.002013
2271.000000	0.001959
2270.000000	0.001899
2269.000000	0.001882
2268.000000	0.001925
2267.000000	0.001996
2266.000000	0.002032
2265.000000	0.002002
2264.000000	0.001938
2263.000000	0.001898
2262.000000	0.001914
2261.000000	0.001982
2260.000000	0.002075
2259.000000	0.002164
2258.000000	0.002216
2257.000000	0.002191
2256.000000	0.002082
2255.000000	0.001934
2254.000000	0.001823
2253.000000	0.001806
2252.000000	0.001882
2251.000000	0.002012
2250.000000	0.002141
2249.000000	0.002223
2248.000000	0.002237
2247.000000	0.002199
2246.000000	0.002139
2245.000000	0.002070
2244.000000	0.001986
2243.000000	0.001904
2242.000000	0.001872
2241.000000	0.001921
2240.000000	0.002033
2239.000000	0.002167
2238.000000	0.002290
2237.000000	0.002366
2236.000000	0.002348
2235.000000	0.002240
2234.000000	0.002139
2233.000000	0.002148
2232.000000	0.002256
2231.000000	0.002329
2230.000000	0.002263
2229.000000	0.002094
2228.000000	0.001936
2227.000000	0.001852
2226.000000	0.001824
2225.000000	0.001825
2224.000000	0.001868
2223.000000	0.001975
2222.000000	0.002123
2221.000000	0.002247
2220.000000	0.002282
2219.000000	0.002217
2218.000000	0.002103
2217.000000	0.002011
2216.000000	0.001969
2215.000000	0.001947
2214.000000	0.001901
2213.000000	0.001832
2212.000000	0.001774
2211.000000	0.001751
2210.000000	0.001754
2209.000000	0.001766
2208.000000	0.001786
2207.000000	0.001819
2206.000000	0.001850
2205.000000	0.001847
2204.000000	0.001796
2203.000000	0.001711
2202.000000	0.001622
2201.000000	0.001558
2200.000000	0.001544
2199.000000	0.001599
2198.000000	0.001708
2197.000000	0.001807
2196.000000	0.001818
2195.000000	0.001724
2194.000000	0.001602
2193.000000	0.001566
2192.000000	0.001662
2191.000000	0.001825
2190.000000	0.001948
2189.000000	0.001991
2188.000000	0.001997
2187.000000	0.002022
2186.000000	0.002064
2185.000000	0.002080
2184.000000	0.002043
2183.000000	0.001965
2182.000000	0.001868
2181.000000	0.001771
2180.000000	0.001707
2179.000000	0.001707
2178.000000	0.001756
2177.000000	0.001777
2176.000000	0.001709
2175.000000	0.001593
2174.000000	0.001528
2173.000000	0.001567
2172.000000	0.001670
2171.000000	0.001769
2170.000000	0.001841
2169.000000	0.001884
2168.000000	0.001895
2167.000000	0.001892
2166.000000	0.001923
2165.000000	0.002018
2164.000000	0.002130
2163.000000	0.002176
2162.000000	0.002119
2161.000000	0.001972
2160.000000	0.001729
2159.000000	0.001373
2158.000000	0.000986
2157.000000	0.000746
2156.000000	0.000765
2155.000000	0.000972
2154.000000	0.001192
2153.000000	0.001285
2152.000000	0.001219
2151.000000	0.001065
2150.000000	0.000943
2149.000000	0.000948
2148.000000	0.001103
2147.000000	0.001343
2146.000000	0.001558
2145.000000	0.001660
2144.000000	0.001638
2143.000000	0.001562
2142.000000	0.001526
2141.000000	0.001564
2140.000000	0.001635
2139.000000	0.001676
2138.000000	0.001670
2137.000000	0.001646
2136.000000	0.001622
2135.000000	0.001587
2134.000000	0.001529
2133.000000	0.001456
2132.000000	0.001379
2131.000000	0.001287
2130.000000	0.001177
2129.000000	0.001089
2128.000000	0.001080
2127.000000	0.001161
2126.000000	0.001273
2125.000000	0.001343
2124.000000	0.001355
2123.000000	0.001360
2122.000000	0.001413
2121.000000	0.001513
2120.000000	0.001616
2119.000000	0.001681
2118.000000	0.001705
2117.000000	0.001710
2116.000000	0.001722
2115.000000	0.001751
2114.000000	0.001792
2113.000000	0.001830
2112.000000	0.001845
2111.000000	0.001831
2110.000000	0.001799
2109.000000	0.001773
2108.000000	0.001771
2107.000000	0.001789
2106.000000	0.001807
2105.000000	0.001818
2104.000000	0.001839
2103.000000	0.001876
2102.000000	0.001909
2101.000000	0.001901
2100.000000	0.001836
2099.000000	0.001729
2098.000000	0.001599
2097.000000	0.001457
2096.000000	0.001326
2095.000000	0.001252
2094.000000	0.001262
2093.000000	0.001344
2092.000000	0.001461
2091.000000	0.001585
2090.000000	0.001694
2089.000000	0.001764
2088.000000	0.001787
2087.000000	0.001790
2086.000000	0.001804
2085.000000	0.001822
2084.000000	0.001811
2083.000000	0.001768
2082.000000	0.001722
2081.000000	0.001696
2080.000000	0.001696
2079.000000	0.001733
2078.000000	0.001818
2077.000000	0.001912
2076.000000	0.001939
2075.000000	0.001871
2074.000000	0.001765
2073.000000	0.001687
2072.000000	0.001630
2071.000000	0.001549
2070.000000	0.001456
2069.000000	0.001420
2068.000000	0.001472
2067.000000	0.001568
2066.000000	0.001651
2065.000000	0.001703
2064.000000	0.001732
2063.000000	0.001740
2062.000000	0.001726
2061.000000	0.001712
2060.000000	0.001728
2059.000000	0.001778
2058.000000	0.001816
2057.000000	0.001770
2056.000000	0.001611
2055.000000	0.001405
2054.000000	0.001287
2053.000000	0.001355
2052.000000	0.001600
2051.000000	0.001934
2050.000000	0.002265
2049.000000	0.002512
2048.000000	0.002600
2047.000000	0.002501
2046.000000	0.002270
2045.000000	0.002004
2044.000000	0.001770
2043.000000	0.001594
2042.000000	0.001509
2041.000000	0.001537
2040.000000	0.001615
2039.000000	0.001591
2038.000000	0.001360
2037.000000	0.000992
2036.000000	0.000708
2035.000000	0.000698
2034.000000	0.000955
2033.000000	0.001272
2032.000000	0.001425
2031.000000	0.001364
2030.000000	0.001210
2029.000000	0.001105
2028.000000	0.001088
2027.000000	0.001120
2026.000000	0.001160
2025.000000	0.001185
2024.000000	0.001173
2023.000000	0.001144
2022.000000	0.001166
2021.000000	0.001277
2020.000000	0.001398
2019.000000	0.001421
2018.000000	0.001331
2017.000000	0.001227
2016.000000	0.001188
2015.000000	0.001208
2014.000000	0.001249
2013.000000	0.001304
2012.000000	0.001388
2011.000000	0.001503
2010.000000	0.001625
2009.000000	0.001685
2008.000000	0.001611
2007.000000	0.001420
2006.000000	0.001276
2005.000000	0.001357
2004.000000	0.001656
2003.000000	0.001973
2002.000000	0.002105
2001.000000	0.002002
2000.000000	0.001760
1999.000000	0.001507
1998.000000	0.001322
1997.000000	0.001221
1996.000000	0.001189
1995.000000	0.001213
1994.000000	0.001300
1993.000000	0.001442
1992.000000	0.001581
1991.000000	0.001657
1990.000000	0.001685
1989.000000	0.001729
1988.000000	0.001808
1987.000000	0.001864
1986.000000	0.001847
1985.000000	0.001790
1984.000000	0.001767
1983.000000	0.001812
1982.000000	0.001885
1981.000000	0.001912
1980.000000	0.001829
1979.000000	0.001633
1978.000000	0.001408
1977.000000	0.001273
1976.000000	0.001267
1975.000000	0.001316
1974.000000	0.001321
1973.000000	0.001246
1972.000000	0.001107
1971.000000	0.000943
1970.000000	0.000824
1969.000000	0.000838
1968.000000	0.001022
1967.000000	0.001309
1966.000000	0.001570
1965.000000	0.001714
1964.000000	0.001736
1963.000000	0.001697
1962.000000	0.001657
1961.000000	0.001619
1960.000000	0.001532
1959.000000	0.001363
1958.000000	0.001169
1957.000000	0.001051
1956.000000	0.001051
1955.000000	0.001109
1954.000000	0.001142
1953.000000	0.001124
1952.000000	0.001089
1951.000000	0.001077
1950.000000	0.001105
1949.000000	0.001153
1948.000000	0.001178
1947.000000	0.001148
1946.000000	0.001080
1945.000000	0.001028
1944.000000	0.001027
1943.000000	0.001053
1942.000000	0.001069
1941.000000	0.001079
1940.000000	0.001117
1939.000000	0.001196
1938.000000	0.001287
1937.000000	0.001351
1936.000000	0.001370
1935.000000	0.001357
1934.000000	0.001341
1933.000000	0.001334
1932.000000	0.001325
1931.000000	0.001299
1930.000000	0.001271
1929.000000	0.001275
1928.000000	0.001328
1927.000000	0.001412
1926.000000	0.001497
1925.000000	0.001561
1924.000000	0.001591
1923.000000	0.001573
1922.000000	0.001505
1921.000000	0.001414
1920.000000	0.001340
1919.000000	0.001299
1918.000000	0.001284
1917.000000	0.001287
1916.000000	0.001318
1915.000000	0.001387
1914.000000	0.001478
1913.000000	0.001553
1912.000000	0.001571
1911.000000	0.001525
1910.000000	0.001439
1909.000000	0.001348
1908.000000	0.001284
1907.000000	0.001256
1906.000000	0.001256
1905.000000	0.001261
1904.000000	0.001250
1903.000000	0.001228
1902.000000	0.001216
1901.000000	0.001232
1900.000000	0.001271
1899.000000	0.001315
1898.000000	0.001344
1897.000000	0.001355
1896.000000	0.001359
1895.000000	0.001367
1894.000000	0.001373
1893.000000	0.001357
1892.000000	0.001305
1891.000000	0.001240
1890.000000	0.001212
1889.000000	0.001248
1888.000000	0.001314
1887.000000	0.001357
1886.000000	0.001365
1885.000000	0.001366
1884.000000	0.001378
1883.000000	0.001392
1882.000000	0.001389
1881.000000	0.001370
1880.000000	0.001353
1879.000000	0.001344
1878.000000	0.001320
1877.000000	0.001261
1876.000000	0.001175
1875.000000	0.001101
1874.000000	0.001076
1873.000000	0.001091
1872.000000	0.001108
1871.000000	0.001102
1870.000000	0.001091
1869.000000	0.001119
1868.000000	0.001194
1867.000000	0.001273
1866.000000	0.001322
1865.000000	0.001336
1864.000000	0.001333
1863.000000	0.001327
1862.000000	0.001322
1861.000000	0.001315
1860.000000	0.001293
1859.000000	0.001250
1858.000000	0.001195
1857.000000	0.001153
1856.000000	0.001146
1855.000000	0.001178
1854.000000	0.001231
1853.000000	0.001278
1852.000000	0.001299
1851.000000	0.001288
1850.000000	0.001261
1849.000000	0.001239
1848.000000	0.001229
1847.000000	0.001218
1846.000000	0.001200
1845.000000	0.001183
1844.000000	0.001178
1843.000000	0.001185
1842.000000	0.001192
1841.000000	0.001201
1840.000000	0.001220
1839.000000	0.001253
1838.000000	0.001281
1837.000000	0.001287
1836.000000	0.001268
1835.000000	0.001248
1834.000000	0.001241
1833.000000	0.001236
1832.000000	0.001203
1831.000000	0.001132
1830.000000	0.001063
1829.000000	0.001045
1828.000000	0.001072
1827.000000	0.001104
1826.000000	0.001125
1825.000000	0.001134
1824.000000	0.001129
1823.000000	0.001110
1822.000000	0.001093
1821.000000	0.001092
1820.000000	0.001095
1819.000000	0.001081
1818.000000	0.001057
1817.000000	0.001054
1816.000000	0.001083
1815.000000	0.001124
1814.000000	0.001148
1813.000000	0.001148
1812.000000	0.001128
1811.000000	0.001095
1810.000000	0.001066
1809.000000	0.001062
1808.000000	0.001089
1807.000000	0.001132
1806.000000	0.001176
1805.000000	0.001215
1804.000000	0.001247
1803.000000	0.001259
1802.000000	0.001245
1801.000000	0.001218
1800.000000	0.001208
1799.000000	0.001220
1798.000000	0.001233
1797.000000	0.001228
1796.000000	0.001209
1795.000000	0.001197
1794.000000	0.001205
1793.000000	0.001235
1792.000000	0.001267
1791.000000	0.001278
1790.000000	0.001266
1789.000000	0.001245
1788.000000	0.001229
1787.000000	0.001224
1786.000000	0.001226
1785.000000	0.001225
1784.000000	0.001207
1783.000000	0.001169
1782.000000	0.001119
1781.000000	0.001088
1780.000000	0.001091
1779.000000	0.001108
1778.000000	0.001102
1777.000000	0.001067
1776.000000	0.001029
1775.000000	0.001022
1774.000000	0.001063
1773.000000	0.001135
1772.000000	0.001187
1771.000000	0.001181
1770.000000	0.001137
1769.000000	0.001103
1768.000000	0.001110
1767.000000	0.001160
1766.000000	0.001228
1765.000000	0.001296
1764.000000	0.001359
1763.000000	0.001415
1762.000000	0.001468
1761.000000	0.001522
1760.000000	0.001578
1759.000000	0.001645
1758.000000	0.001746
1757.000000	0.001897
1756.000000	0.002070
1755.000000	0.002215
1754.000000	0.002329
1753.000000	0.002462
1752.000000	0.002654
1751.000000	0.002897
1750.000000	0.003149
1749.000000	0.003393
1748.000000	0.003618
1747.000000	0.003792
1746.000000	0.003905
1745.000000	0.003988
1744.000000	0.004073
1743.000000	0.004144
1742.000000	0.004174
1741.000000	0.004159
1740.000000	0.004114
1739.000000	0.004045
1738.000000	0.003942
1737.000000	0.003810
1736.000000	0.003673
1735.000000	0.003557
1734.000000	0.003465
1733.000000	0.003358
1732.000000	0.003200
1731.000000	0.003009
1730.000000	0.002820
1729.000000	0.002654
1728.000000	0.002503
1727.000000	0.002349
1726.000000	0.002192
1725.000000	0.002048
1724.000000	0.001922
1723.000000	0.001804
1722.000000	0.001688
1721.000000	0.001577
1720.000000	0.001475
1719.000000	0.001389
1718.000000	0.001334
1717.000000	0.001319
1716.000000	0.001311
1715.000000	0.001282
1714.000000	0.001235
1713.000000	0.001189
1712.000000	0.001151
1711.000000	0.001119
1710.000000	0.001088
1709.000000	0.001063
1708.000000	0.001056
1707.000000	0.001076
1706.000000	0.001119
1705.000000	0.001162
1704.000000	0.001178
1703.000000	0.001170
1702.000000	0.001178
1701.000000	0.001246
1700.000000	0.001361
1699.000000	0.001434
1698.000000	0.001445
1697.000000	0.001439
1696.000000	0.001451
1695.000000	0.001474
1694.000000	0.001486
1693.000000	0.001486
1692.000000	0.001485
1691.000000	0.001485
1690.000000	0.001482
1689.000000	0.001481
1688.000000	0.001492
1687.000000	0.001520
1686.000000	0.001572
1685.000000	0.001655
1684.000000	0.001757
1683.000000	0.001837
1682.000000	0.001871
1681.000000	0.001882
1680.000000	0.001896
1679.000000	0.001921
1678.000000	0.001955
1677.000000	0.002008
1676.000000	0.002090
1675.000000	0.002189
1674.000000	0.002271
1673.000000	0.002327
1672.000000	0.002372
1671.000000	0.002425
1670.000000	0.002487
1669.000000	0.002549
1668.000000	0.002598
1667.000000	0.002629
1666.000000	0.002657
1665.000000	0.002693
1664.000000	0.002737
1663.000000	0.002776
1662.000000	0.002805
1661.000000	0.002830
1660.000000	0.002858
1659.000000	0.002890
1658.000000	0.002933
1657.000000	0.002999
1656.000000	0.003081
1655.000000	0.003150
1654.000000	0.003154
1653.000000	0.003098
1652.000000	0.003094
1651.000000	0.003140
1650.000000	0.003198
1649.000000	0.003263
1648.000000	0.003330
1647.000000	0.003385
1646.000000	0.003405
1645.000000	0.003387
1644.000000	0.003349
1643.000000	0.003313
1642.000000	0.003292
1641.000000	0.003290
1640.000000	0.003307
1639.000000	0.003335
1638.000000	0.003362
1637.000000	0.003360
1636.000000	0.003307
1635.000000	0.003234
1634.000000	0.003194
1633.000000	0.003187
1632.000000	0.003197
1631.000000	0.003211
1630.000000	0.003222
1629.000000	0.003225
1628.000000	0.003217
1627.000000	0.003197
1626.000000	0.003169
1625.000000	0.003126
1624.000000	0.003057
1623.000000	0.002970
1622.000000	0.002898
1621.000000	0.002868
1620.000000	0.002873
1619.000000	0.002886
1618.000000	0.002878
1617.000000	0.002828
1616.000000	0.002751
1615.000000	0.002681
1614.000000	0.002625
1613.000000	0.002575
1612.000000	0.002523
1611.000000	0.002471
1610.000000	0.002425
1609.000000	0.002388
1608.000000	0.002356
1607.000000	0.002324
1606.000000	0.002290
1605.000000	0.002253
1604.000000	0.002209
1603.000000	0.002155
1602.000000	0.002097
1601.000000	0.002041
1600.000000	0.001983
1599.000000	0.001923
1598.000000	0.001872
1597.000000	0.001840
1596.000000	0.001823
1595.000000	0.001810
1594.000000	0.001799
1593.000000	0.001793
1592.000000	0.001791
1591.000000	0.001785
1590.000000	0.001773
1589.000000	0.001763
1588.000000	0.001757
1587.000000	0.001754
1586.000000	0.001753
1585.000000	0.001757
1584.000000	0.001761
1583.000000	0.001760
1582.000000	0.001755
1581.000000	0.001758
1580.000000	0.001774
1579.000000	0.001793
1578.000000	0.001806
1577.000000	0.001810
1576.000000	0.001811
1575.000000	0.001814
1574.000000	0.001818
1573.000000	0.001824
1572.000000	0.001840
1571.000000	0.001871
1570.000000	0.001918
1569.000000	0.001972
1568.000000	0.002015
1567.000000	0.002036
1566.000000	0.002048
1565.000000	0.002069
1564.000000	0.002109
1563.000000	0.002164
1562.000000	0.002229
1561.000000	0.002300
1560.000000	0.002347
1559.000000	0.002343
1558.000000	0.002366
1557.000000	0.002429
1556.000000	0.002486
1555.000000	0.002537
1554.000000	0.002588
1553.000000	0.002644
1552.000000	0.002698
1551.000000	0.002745
1550.000000	0.002791
1549.000000	0.002846
1548.000000	0.002911
1547.000000	0.002982
1546.000000	0.003053
1545.000000	0.003120
1544.000000	0.003176
1543.000000	0.003224
1542.000000	0.003278
1541.000000	0.003348
1540.000000	0.003425
1539.000000	0.003470
1538.000000	0.003474
1537.000000	0.003472
1536.000000	0.003493
1535.000000	0.003548
1534.000000	0.003624
1533.000000	0.003689
1532.000000	0.003722
1531.000000	0.003741
1530.000000	0.003771
1529.000000	0.003814
1528.000000	0.003853
1527.000000	0.003881
1526.000000	0.003910
1525.000000	0.003952
1524.000000	0.003995
1523.000000	0.004018
1522.000000	0.004015
1521.000000	0.004007
1520.000000	0.004020
1519.000000	0.004053
1518.000000	0.004100
1517.000000	0.004153
1516.000000	0.004191
1515.000000	0.004202
1514.000000	0.004199
1513.000000	0.004203
1512.000000	0.004218
1511.000000	0.004233
1510.000000	0.004238
1509.000000	0.004229
1508.000000	0.004199
1507.000000	0.004161
1506.000000	0.004154
1505.000000	0.004169
1504.000000	0.004180
1503.000000	0.004196
1502.000000	0.004225
1501.000000	0.004255
1500.000000	0.004264
1499.000000	0.004244
1498.000000	0.004225
1497.000000	0.004247
1496.000000	0.004298
1495.000000	0.004324
1494.000000	0.004308
1493.000000	0.004273
1492.000000	0.004254
1491.000000	0.004267
1490.000000	0.004307
1489.000000	0.004345
1488.000000	0.004360
1487.000000	0.004362
1486.000000	0.004367
1485.000000	0.004374
1484.000000	0.004379
1483.000000	0.004380
1482.000000	0.004378
1481.000000	0.004374
1480.000000	0.004369
1479.000000	0.004370
1478.000000	0.004392
1477.000000	0.004430
1476.000000	0.004462
1475.000000	0.004480
1474.000000	0.004514
1473.000000	0.004604
1472.000000	0.004726
1471.000000	0.004810
1470.000000	0.004841
1469.000000	0.004845
1468.000000	0.004841
1467.000000	0.004836
1466.000000	0.004845
1465.000000	0.004884
1464.000000	0.004933
1463.000000	0.004952
1462.000000	0.004937
1461.000000	0.004917
1460.000000	0.004918
1459.000000	0.004954
1458.000000	0.005038
1457.000000	0.005163
1456.000000	0.005255
1455.000000	0.005268
1454.000000	0.005243
1453.000000	0.005224
1452.000000	0.005220
1451.000000	0.005216
1450.000000	0.005205
1449.000000	0.005203
1448.000000	0.005219
1447.000000	0.005242
1446.000000	0.005254
1445.000000	0.005257
1444.000000	0.005264
1443.000000	0.005280
1442.000000	0.005300
1441.000000	0.005322
1440.000000	0.005342
1439.000000	0.005363
1438.000000	0.005403
1437.000000	0.005483
1436.000000	0.005586
1435.000000	0.005661
1434.000000	0.005698
1433.000000	0.005727
1432.000000	0.005770
1431.000000	0.005826
1430.000000	0.005886
1429.000000	0.005944
1428.000000	0.005989
1427.000000	0.006015
1426.000000	0.006031
1425.000000	0.006062
1424.000000	0.006108
1423.000000	0.006143
1422.000000	0.006156
1421.000000	0.006171
1420.000000	0.006217
1419.000000	0.006289
1418.000000	0.006349
1417.000000	0.006384
1416.000000	0.006408
1415.000000	0.006430
1414.000000	0.006444
1413.000000	0.006444
1412.000000	0.006434
1411.000000	0.006422
1410.000000	0.006416
1409.000000	0.006413
1408.000000	0.006403
1407.000000	0.006384
1406.000000	0.006371
1405.000000	0.006383
1404.000000	0.006410
1403.000000	0.006420
1402.000000	0.006405
1401.000000	0.006391
1400.000000	0.006408
1399.000000	0.006459
1398.000000	0.006514
1397.000000	0.006563
1396.000000	0.006617
1395.000000	0.006683
1394.000000	0.006737
1393.000000	0.006759
1392.000000	0.006755
1391.000000	0.006742
1390.000000	0.006732
1389.000000	0.006729
1388.000000	0.006736
1387.000000	0.006755
1386.000000	0.006781
1385.000000	0.006795
1384.000000	0.006785
1383.000000	0.006753
1382.000000	0.006710
1381.000000	0.006672
1380.000000	0.006642
1379.000000	0.006610
1378.000000	0.006568
1377.000000	0.006517
1376.000000	0.006464
1375.000000	0.006421
1374.000000	0.006396
1373.000000	0.006378
1372.000000	0.006350
1371.000000	0.006306
1370.000000	0.006251
1369.000000	0.006190
1368.000000	0.006122
1367.000000	0.006049
1366.000000	0.005982
1365.000000	0.005932
1364.000000	0.005891
1363.000000	0.005848
1362.000000	0.005802
1361.000000	0.005758
1360.000000	0.005715
1359.000000	0.005670
1358.000000	0.005627
1357.000000	0.005591
1356.000000	0.005563
1355.000000	0.005535
1354.000000	0.005501
1353.000000	0.005464
1352.000000	0.005429
1351.000000	0.005399
1350.000000	0.005376
1349.000000	0.005359
1348.000000	0.005339
1347.000000	0.005313
1346.000000	0.005288
1345.000000	0.005275
1344.000000	0.005269
1343.000000	0.005261
1342.000000	0.005243
1341.000000	0.005218
1340.000000	0.005191
1339.000000	0.005163
1338.000000	0.005139
1337.000000	0.005127
1336.000000	0.005124
1335.000000	0.005121
1334.000000	0.005105
1333.000000	0.005078
1332.000000	0.005046
1331.000000	0.005018
1330.000000	0.004993
1329.000000	0.004965
1328.000000	0.004920
1327.000000	0.004853
1326.000000	0.004770
1325.000000	0.004688
1324.000000	0.004624
1323.000000	0.004584
1322.000000	0.004566
1321.000000	0.004561
1320.000000	0.004552
1319.000000	0.004527
1318.000000	0.004485
1317.000000	0.004434
1316.000000	0.004384
1315.000000	0.004338
1314.000000	0.004297
1313.000000	0.004257
1312.000000	0.004212
1311.000000	0.004157
1310.000000	0.004097
1309.000000	0.004040
1308.000000	0.003992
1307.000000	0.003947
1306.000000	0.003897
1305.000000	0.003840
1304.000000	0.003784
1303.000000	0.003735
1302.000000	0.003694
1301.000000	0.003653
1300.000000	0.003608
1299.000000	0.003562
1298.000000	0.003525
1297.000000	0.003499
1296.000000	0.003473
1295.000000	0.003435
1294.000000	0.003389
1293.000000	0.003349
1292.000000	0.003325
1291.000000	0.003315
1290.000000	0.003309
1289.000000	0.003305
1288.000000	0.003298
1287.000000	0.003281
1286.000000	0.003246
1285.000000	0.003200
1284.000000	0.003160
1283.000000	0.003131
1282.000000	0.003107
1281.000000	0.003079
1280.000000	0.003049
1279.000000	0.003024
1278.000000	0.003007
1277.000000	0.002998
1276.000000	0.003002
1275.000000	0.003025
1274.000000	0.003059
1273.000000	0.003083
1272.000000	0.003085
1271.000000	0.003071
1270.000000	0.003062
1269.000000	0.003072
1268.000000	0.003099
1267.000000	0.003135
1266.000000	0.003174
1265.000000	0.003215
1264.000000	0.003254
1263.000000	0.003285
1262.000000	0.003305
1261.000000	0.003324
1260.000000	0.003351
1259.000000	0.003389
1258.000000	0.003426
1257.000000	0.003453
1256.000000	0.003471
1255.000000	0.003485
1254.000000	0.003497
1253.000000	0.003508
1252.000000	0.003519
1251.000000	0.003537
1250.000000	0.003556
1249.000000	0.003562
1248.000000	0.003551
1247.000000	0.003540
1246.000000	0.003545
1245.000000	0.003563
1244.000000	0.003570
1243.000000	0.003559
1242.000000	0.003547
1241.000000	0.003560
1240.000000	0.003595
1239.000000	0.003624
1238.000000	0.003629
1237.000000	0.003615
1236.000000	0.003600
1235.000000	0.003594
1234.000000	0.003584
1233.000000	0.003553
1232.000000	0.003492
1231.000000	0.003416
1230.000000	0.003347
1229.000000	0.003290
1228.000000	0.003235
1227.000000	0.003166
1226.000000	0.003081
1225.000000	0.002988
1224.000000	0.002894
1223.000000	0.002801
1222.000000	0.002708
1221.000000	0.002619
1220.000000	0.002546
1219.000000	0.002499
1218.000000	0.002478
1217.000000	0.002463
1216.000000	0.002426
1215.000000	0.002359
1214.000000	0.002280
1213.000000	0.002216
1212.000000	0.002174
1211.000000	0.002139
1210.000000	0.002103
1209.000000	0.002075
1208.000000	0.002072
1207.000000	0.002095
1206.000000	0.002123
1205.000000	0.002134
1204.000000	0.002123
1203.000000	0.002105
1202.000000	0.002097
1201.000000	0.002101
1200.000000	0.002109
1199.000000	0.002117
1198.000000	0.002130
1197.000000	0.002149
1196.000000	0.002165
1195.000000	0.002172
1194.000000	0.002177
1193.000000	0.002196
1192.000000	0.002228
1191.000000	0.002256
1190.000000	0.002271
1189.000000	0.002277
1188.000000	0.002287
1187.000000	0.002309
1186.000000	0.002346
1185.000000	0.002394
1184.000000	0.002444
1183.000000	0.002486
1182.000000	0.002522
1181.000000	0.002563
1180.000000	0.002622
1179.000000	0.002699
1178.000000	0.002789
1177.000000	0.002886
1176.000000	0.002976
1175.000000	0.003039
1174.000000	0.003074
1173.000000	0.003103
1172.000000	0.003152
1171.000000	0.003218
1170.000000	0.003276
1169.000000	0.003314
1168.000000	0.003347
1167.000000	0.003394
1166.000000	0.003457
1165.000000	0.003526
1164.000000	0.003585
1163.000000	0.003618
1162.000000	0.003609
1161.000000	0.003562
1160.000000	0.003501
1159.000000	0.003453
1158.000000	0.003429
1157.000000	0.003417
1156.000000	0.003404
1155.000000	0.003386
1154.000000	0.003359
1153.000000	0.003316
1152.000000	0.003255
1151.000000	0.003185
1150.000000	0.003112
1149.000000	0.003030
1148.000000	0.002933
1147.000000	0.002826
1146.000000	0.002720
1145.000000	0.002623
1144.000000	0.002531
1143.000000	0.002434
1142.000000	0.002323
1141.000000	0.002203
1140.000000	0.002092
1139.000000	0.002008
1138.000000	0.001951
1137.000000	0.001899
1136.000000	0.001836
1135.000000	0.001772
1134.000000	0.001729
1133.000000	0.001707
1132.000000	0.001697
1131.000000	0.001691
1130.000000	0.001683
1129.000000	0.001666
1128.000000	0.001627
1127.000000	0.001581
1126.000000	0.001558
1125.000000	0.001576
1124.000000	0.001616
1123.000000	0.001648
1122.000000	0.001657
1121.000000	0.001658
1120.000000	0.001672
1119.000000	0.001719
1118.000000	0.001803
1117.000000	0.001911
1116.000000	0.002019
1115.000000	0.002116
1114.000000	0.002203
1113.000000	0.002285
1112.000000	0.002361
1111.000000	0.002422
1110.000000	0.002470
1109.000000	0.002512
1108.000000	0.002552
1107.000000	0.002594
1106.000000	0.002641
1105.000000	0.002689
1104.000000	0.002726
1103.000000	0.002751
1102.000000	0.002778
1101.000000	0.002830
1100.000000	0.002912
1099.000000	0.003008
1098.000000	0.003096
1097.000000	0.003162
1096.000000	0.003202
1095.000000	0.003217
1094.000000	0.003209
1093.000000	0.003177
1092.000000	0.003116
1091.000000	0.003029
1090.000000	0.002930
1089.000000	0.002838
1088.000000	0.002764
1087.000000	0.002704
1086.000000	0.002642
1085.000000	0.002554
1084.000000	0.002433
1083.000000	0.002304
1082.000000	0.002201
1081.000000	0.002136
1080.000000	0.002091
1079.000000	0.002053
1078.000000	0.002034
1077.000000	0.002045
1076.000000	0.002069
1075.000000	0.002081
1074.000000	0.002075
1073.000000	0.002060
1072.000000	0.002039
1071.000000	0.002011
1070.000000	0.002004
1069.000000	0.002050
1068.000000	0.002151
1067.000000	0.002264
1066.000000	0.002350
1065.000000	0.002416
1064.000000	0.002494
1063.000000	0.002598
1062.000000	0.002713
1061.000000	0.002809
1060.000000	0.002872
1059.000000	0.002913
1058.000000	0.002953
1057.000000	0.003009
1056.000000	0.003089
1055.000000	0.003191
1054.000000	0.003307
1053.000000	0.003426
1052.000000	0.003530
1051.000000	0.003608
1050.000000	0.003663
1049.000000	0.003708
1048.000000	0.003750
1047.000000	0.003797
1046.000000	0.003857
1045.000000	0.003929
1044.000000	0.004002
1043.000000	0.004061
1042.000000	0.004111
1041.000000	0.004165
1040.000000	0.004230
1039.000000	0.004295
1038.000000	0.004351
1037.000000	0.004391
1036.000000	0.004412
1035.000000	0.004419
1034.000000	0.004424
1033.000000	0.004439
1032.000000	0.004451
1031.000000	0.004438
1030.000000	0.004399
1029.000000	0.004357
1028.000000	0.004326
1027.000000	0.004305
1026.000000	0.004289
1025.000000	0.004285
1024.000000	0.004296
1023.000000	0.004301
1022.000000	0.004281
1021.000000	0.004234
1020.000000	0.004175
1019.000000	0.004118
1018.000000	0.004063
1017.000000	0.004010
1016.000000	0.003958
1015.000000	0.003914
1014.000000	0.003881
1013.000000	0.003850
1012.000000	0.003805
1011.000000	0.003733
1010.000000	0.003648
1009.000000	0.003572
1008.000000	0.003515
1007.000000	0.003467
1006.000000	0.003424
1005.000000	0.003391
1004.000000	0.003370
1003.000000	0.003337
1002.000000	0.003272
1001.000000	0.003177
1000.000000	0.003083
999.000000	0.003017
998.000000	0.002980
997.000000	0.002956
996.000000	0.002933
995.000000	0.002910
994.000000	0.002887
993.000000	0.002862
992.000000	0.002830
991.000000	0.002795
990.000000	0.002763
989.000000	0.002732
988.000000	0.002696
987.000000	0.002653
986.000000	0.002607
985.000000	0.002555
984.000000	0.002489
983.000000	0.002419
982.000000	0.002373
981.000000	0.002371
980.000000	0.002398
979.000000	0.002418
978.000000	0.002417
977.000000	0.002400
976.000000	0.002376
975.000000	0.002345
974.000000	0.002319
973.000000	0.002310
972.000000	0.002313
971.000000	0.002304
970.000000	0.002267
969.000000	0.002207
968.000000	0.002134
967.000000	0.002053
966.000000	0.001971
965.000000	0.001903
964.000000	0.001851
963.000000	0.001806
962.000000	0.001764
961.000000	0.001743
960.000000	0.001751
959.000000	0.001766
958.000000	0.001752
957.000000	0.001702
956.000000	0.001640
955.000000	0.001590
954.000000	0.001559
953.000000	0.001541
952.000000	0.001526
951.000000	0.001501
950.000000	0.001460
949.000000	0.001410
948.000000	0.001370
947.000000	0.001348
946.000000	0.001332
945.000000	0.001304
944.000000	0.001256
943.000000	0.001200
942.000000	0.001157
941.000000	0.001145
940.000000	0.001166
939.000000	0.001201
938.000000	0.001223
937.000000	0.001216
936.000000	0.001188
935.000000	0.001158
934.000000	0.001136
933.000000	0.001120
932.000000	0.001106
931.000000	0.001097
930.000000	0.001109
929.000000	0.001146
928.000000	0.001190
927.000000	0.001217
926.000000	0.001215
925.000000	0.001199
924.000000	0.001185
923.000000	0.001175
922.000000	0.001153
921.000000	0.001116
920.000000	0.001078
919.000000	0.001058
918.000000	0.001061
917.000000	0.001072
916.000000	0.001081
915.000000	0.001087
914.000000	0.001097
913.000000	0.001105
912.000000	0.001104
911.000000	0.001095
910.000000	0.001100
909.000000	0.001134
908.000000	0.001182
907.000000	0.001218
906.000000	0.001243
905.000000	0.001278
904.000000	0.001324
903.000000	0.001355
902.000000	0.001345
901.000000	0.001305
900.000000	0.001268
899.000000	0.001251
898.000000	0.001243
897.000000	0.001236
896.000000	0.001235
895.000000	0.001245
894.000000	0.001264
893.000000	0.001288
892.000000	0.001318
891.000000	0.001350
890.000000	0.001379
889.000000	0.001413
888.000000	0.001485
887.000000	0.001637
886.000000	0.001875
885.000000	0.002153
884.000000	0.002408
883.000000	0.002609
882.000000	0.002782
881.000000	0.002972
880.000000	0.003197
879.000000	0.003447
878.000000	0.003706
877.000000	0.003961
876.000000	0.004197
875.000000	0.004384
874.000000	0.004498
873.000000	0.004536
872.000000	0.004507
871.000000	0.004416
870.000000	0.004267
869.000000	0.004071
868.000000	0.003855
867.000000	0.003654
866.000000	0.003495
865.000000	0.003378
864.000000	0.003278
863.000000	0.003164
862.000000	0.003031
861.000000	0.002889
860.000000	0.002745
859.000000	0.002596
858.000000	0.002449
857.000000	0.002323
856.000000	0.002230
855.000000	0.002161
854.000000	0.002094
853.000000	0.002023
852.000000	0.001963
851.000000	0.001933
850.000000	0.001928
849.000000	0.001915
848.000000	0.001853
847.000000	0.001738
846.000000	0.001611
845.000000	0.001528
844.000000	0.001492
843.000000	0.001456
842.000000	0.001384
841.000000	0.001291
840.000000	0.001218
839.000000	0.001173
838.000000	0.001134
837.000000	0.001085
836.000000	0.001039
835.000000	0.001017
834.000000	0.001026
833.000000	0.001061
832.000000	0.001108
831.000000	0.001135
830.000000	0.001116
829.000000	0.001063
828.000000	0.001023
827.000000	0.001030
826.000000	0.001082
825.000000	0.001155
824.000000	0.001252
823.000000	0.001395
822.000000	0.001591
821.000000	0.001825
820.000000	0.002086
819.000000	0.002374
818.000000	0.002677
817.000000	0.002948
816.000000	0.003137
815.000000	0.003224
814.000000	0.003217
813.000000	0.003126
812.000000	0.002956
811.000000	0.002728
810.000000	0.002496
809.000000	0.002315
808.000000	0.002188
807.000000	0.002078
806.000000	0.001952
805.000000	0.001812
804.000000	0.001692
803.000000	0.001619
802.000000	0.001598
801.000000	0.001614
800.000000	0.001650
799.000000	0.001688
798.000000	0.001712
797.000000	0.001708
796.000000	0.001667
795.000000	0.001606
794.000000	0.001557
793.000000	0.001545
792.000000	0.001568
791.000000	0.001598
790.000000	0.001611
789.000000	0.001597
788.000000	0.001549
787.000000	0.001471
786.000000	0.001394
785.000000	0.001361
784.000000	0.001389
783.000000	0.001445
782.000000	0.001489
781.000000	0.001506
780.000000	0.001509
779.000000	0.001511
778.000000	0.001529
777.000000	0.001578
776.000000	0.001652
775.000000	0.001711
774.000000	0.001715
773.000000	0.001667
772.000000	0.001613
771.000000	0.001590
770.000000	0.001596
769.000000	0.001608
768.000000	0.001609
767.000000	0.001581
766.000000	0.001510
765.000000	0.001411
764.000000	0.001344
763.000000	0.001362
762.000000	0.001460
761.000000	0.001581
760.000000	0.001679
759.000000	0.001752
758.000000	0.001821
757.000000	0.001901
756.000000	0.001990
755.000000	0.002087
754.000000	0.002196
753.000000	0.002319
752.000000	0.002441
751.000000	0.002542
750.000000	0.002608
749.000000	0.002636
748.000000	0.002633
747.000000	0.002614
746.000000	0.002598
745.000000	0.002593
744.000000	0.002586
743.000000	0.002548
742.000000	0.002468
741.000000	0.002364
740.000000	0.002271
739.000000	0.002215
738.000000	0.002199
737.000000	0.002220
736.000000	0.002268
735.000000	0.002320
734.000000	0.002337
733.000000	0.002304
732.000000	0.002244
731.000000	0.002197
730.000000	0.002171
729.000000	0.002148
728.000000	0.002121
727.000000	0.002104
726.000000	0.002111
725.000000	0.002133
724.000000	0.002141
723.000000	0.002104
722.000000	0.002020
721.000000	0.001927
720.000000	0.001884
719.000000	0.001923
718.000000	0.002032
717.000000	0.002175
716.000000	0.002344
715.000000	0.002558
714.000000	0.002805
713.000000	0.003024
712.000000	0.003140
711.000000	0.003129
710.000000	0.003028
709.000000	0.002890
708.000000	0.002746
707.000000	0.002607
706.000000	0.002483
705.000000	0.002384
704.000000	0.002309
703.000000	0.002252
702.000000	0.002220
701.000000	0.002227
700.000000	0.002277
699.000000	0.002352
698.000000	0.002427
697.000000	0.002498
696.000000	0.002566
695.000000	0.002623
694.000000	0.002632
693.000000	0.002563
692.000000	0.002430
691.000000	0.002284
690.000000	0.002172
689.000000	0.002112
688.000000	0.002089
687.000000	0.002070
686.000000	0.002013
685.000000	0.001909
684.000000	0.001809
683.000000	0.001774
682.000000	0.001791
681.000000	0.001786
680.000000	0.001717
679.000000	0.001632
678.000000	0.001587
677.000000	0.001600
676.000000	0.001657
675.000000	0.001733
674.000000	0.001796
673.000000	0.001804
672.000000	0.001725
671.000000	0.001547
670.000000	0.001265
669.000000	0.000912
668.000000	0.000683
667.000000	0.000763
666.000000	0.000946
665.000000	0.001141
664.000000	0.001320
663.000000	0.001430
662.000000	0.001460
661.000000	0.001461
660.000000	0.001470
659.000000	0.001461
658.000000	0.001396
657.000000	0.001303
656.000000	0.001235
655.000000	0.001208
654.000000	0.001220
653.000000	0.001283
652.000000	0.001375
651.000000	0.001441
650.000000	0.001454
649.000000	0.001447
648.000000	0.001457
647.000000	0.001471
646.000000	0.001470
645.000000	0.001454
644.000000	0.001427
643.000000	0.001395
642.000000	0.001399
641.000000	0.001482
640.000000	0.001620
639.000000	0.001714
638.000000	0.001695
637.000000	0.001584
636.000000	0.001445
635.000000	0.001325
634.000000	0.001265
633.000000	0.001282
632.000000	0.001335
631.000000	0.001342
630.000000	0.001272
629.000000	0.001183
628.000000	0.001137
627.000000	0.001145
626.000000	0.001200
625.000000	0.001291
624.000000	0.001360
623.000000	0.001315
622.000000	0.001146
621.000000	0.000984
620.000000	0.000970
619.000000	0.001104
618.000000	0.001261
617.000000	0.001335
616.000000	0.001312
615.000000	0.001226
614.000000	0.001119
613.000000	0.001047
612.000000	0.001062
611.000000	0.001147
610.000000	0.001227
609.000000	0.001236
608.000000	0.001180
607.000000	0.001111
606.000000	0.001076
605.000000	0.001088
604.000000	0.001138
603.000000	0.001194
602.000000	0.001206
601.000000	0.001135
600.000000	0.000990
599.000000	0.000848
598.000000	0.000812
597.000000	0.000924
596.000000	0.001129
595.000000	0.001330
594.000000	0.001468
593.000000	0.001552
592.000000	0.001613
591.000000	0.001660
590.000000	0.001708
589.000000	0.001795
588.000000	0.001953
587.000000	0.002155
586.000000	0.002322
585.000000	0.002376
584.000000	0.002292
583.000000	0.002115
582.000000	0.001947
581.000000	0.001892
580.000000	0.001987
579.000000	0.002173
578.000000	0.002342
577.000000	0.002421
576.000000	0.002415
575.000000	0.002408
574.000000	0.002491
573.000000	0.002669
572.000000	0.002838
571.000000	0.002886
570.000000	0.002805
569.000000	0.002683
568.000000	0.002591
567.000000	0.002528
566.000000	0.002470
565.000000	0.002401
564.000000	0.002292
563.000000	0.002108
562.000000	0.001883
561.000000	0.001710
560.000000	0.001625
559.000000	0.001573
558.000000	0.001500
557.000000	0.001433
556.000000	0.001410
555.000000	0.001414
554.000000	0.001405
553.000000	0.001386
552.000000	0.001367
551.000000	0.001324
550.000000	0.001252
549.000000	0.001218
548.000000	0.001267
547.000000	0.001334
546.000000	0.001302
545.000000	0.001173
544.000000	0.001060
543.000000	0.001041
542.000000	0.001071
541.000000	0.001067
540.000000	0.001019
539.000000	0.000981
538.000000	0.000998
537.000000	0.001045
536.000000	0.001060
535.000000	0.001014
534.000000	0.000964
533.000000	0.001018
532.000000	0.001249
531.000000	0.001634
530.000000	0.002079
529.000000	0.002461
528.000000	0.002663
527.000000	0.002642
526.000000	0.002512
525.000000	0.002488
524.000000	0.002634
523.000000	0.002778
522.000000	0.002738
521.000000	0.002546
520.000000	0.002405
519.000000	0.002448
518.000000	0.002611
517.000000	0.002739
516.000000	0.002761
515.000000	0.002704
514.000000	0.002614
513.000000	0.002524
512.000000	0.002457
511.000000	0.002427
510.000000	0.002449
509.000000	0.002539
508.000000	0.002705
507.000000	0.002933
506.000000	0.003193
505.000000	0.003449
504.000000	0.003640
503.000000	0.003688
502.000000	0.003569
501.000000	0.003358
500.000000	0.003139
499.000000	0.002946
498.000000	0.002811
497.000000	0.002779
496.000000	0.002814
495.000000	0.002791
494.000000	0.002656
493.000000	0.002529
492.000000	0.002552
491.000000	0.002685
490.000000	0.002770
489.000000	0.002759
488.000000	0.002721
487.000000	0.002673
486.000000	0.002531
485.000000	0.002238
484.000000	0.001878
483.000000	0.001602
482.000000	0.001513
481.000000	0.001623
480.000000	0.001847
479.000000	0.002049
478.000000	0.002162
477.000000	0.002252
476.000000	0.002398
475.000000	0.002531
474.000000	0.002486
473.000000	0.002207
472.000000	0.001828
471.000000	0.001500
470.000000	0.001250
469.000000	0.001101
468.000000	0.001142
467.000000	0.001394
466.000000	0.001704
465.000000	0.001883
464.000000	0.001867
463.000000	0.001724
462.000000	0.001574
461.000000	0.001493
460.000000	0.001453
459.000000	0.001330
458.000000	0.001060
457.000000	0.000771
456.000000	0.000628
455.000000	0.000609
454.000000	0.000640
453.000000	0.000760
452.000000	0.001026
451.000000	0.001302
450.000000	0.001356
