PE IR       SUBTECH     SPECTRUM    ASCII       PEDS        4.00        
   -1
P12-Vert005_1.ASC
23/06/08
16:07:59.00
23/06/08
16:23:55.00
uco
Sample 005 By uco Date Thursday, June 08 2023
450.000000
#HDR
-1
-1
#GR
cm-1
A
1.0
0.0
4000.000000
-1.000000
3551
8
0.032547
0.001924
#DATA
4000.000000	0.002214
3999.000000	0.002240
3998.000000	0.002270
3997.000000	0.002290
3996.000000	0.002293
3995.000000	0.002288
3994.000000	0.002287
3993.000000	0.002296
3992.000000	0.002311
3991.000000	0.002325
3990.000000	0.002338
3989.000000	0.002353
3988.000000	0.002372
3987.000000	0.002392
3986.000000	0.002402
3985.000000	0.002397
3984.000000	0.002380
3983.000000	0.002362
3982.000000	0.002355
3981.000000	0.002363
3980.000000	0.002380
3979.000000	0.002396
3978.000000	0.002403
3977.000000	0.002400
3976.000000	0.002389
3975.000000	0.002378
3974.000000	0.002369
3973.000000	0.002367
3972.000000	0.002369
3971.000000	0.002366
3970.000000	0.002353
3969.000000	0.002333
3968.000000	0.002317
3967.000000	0.002317
3966.000000	0.002334
3965.000000	0.002362
3964.000000	0.002388
3963.000000	0.002402
3962.000000	0.002404
3961.000000	0.002403
3960.000000	0.002402
3959.000000	0.002405
3958.000000	0.002404
3957.000000	0.002397
3956.000000	0.002387
3955.000000	0.002378
3954.000000	0.002376
3953.000000	0.002382
3952.000000	0.002396
3951.000000	0.002415
3950.000000	0.002433
3949.000000	0.002444
3948.000000	0.002443
3947.000000	0.002433
3946.000000	0.002420
3945.000000	0.002405
3944.000000	0.002390
3943.000000	0.002382
3942.000000	0.002389
3941.000000	0.002415
3940.000000	0.002450
3939.000000	0.002476
3938.000000	0.002482
3937.000000	0.002475
3936.000000	0.002469
3935.000000	0.002475
3934.000000	0.002485
3933.000000	0.002484
3932.000000	0.002466
3931.000000	0.002444
3930.000000	0.002438
3929.000000	0.002452
3928.000000	0.002475
3927.000000	0.002492
3926.000000	0.002497
3925.000000	0.002490
3924.000000	0.002475
3923.000000	0.002465
3922.000000	0.002472
3921.000000	0.002499
3920.000000	0.002534
3919.000000	0.002559
3918.000000	0.002555
3917.000000	0.002523
3916.000000	0.002481
3915.000000	0.002450
3914.000000	0.002433
3913.000000	0.002423
3912.000000	0.002415
3911.000000	0.002412
3910.000000	0.002420
3909.000000	0.002434
3908.000000	0.002446
3907.000000	0.002453
3906.000000	0.002460
3905.000000	0.002474
3904.000000	0.002494
3903.000000	0.002511
3902.000000	0.002517
3901.000000	0.002515
3900.000000	0.002512
3899.000000	0.002508
3898.000000	0.002503
3897.000000	0.002496
3896.000000	0.002485
3895.000000	0.002469
3894.000000	0.002450
3893.000000	0.002435
3892.000000	0.002428
3891.000000	0.002428
3890.000000	0.002428
3889.000000	0.002430
3888.000000	0.002436
3887.000000	0.002450
3886.000000	0.002469
3885.000000	0.002489
3884.000000	0.002498
3883.000000	0.002487
3882.000000	0.002452
3881.000000	0.002404
3880.000000	0.002368
3879.000000	0.002366
3878.000000	0.002392
3877.000000	0.002419
3876.000000	0.002426
3875.000000	0.002412
3874.000000	0.002396
3873.000000	0.002408
3872.000000	0.002456
3871.000000	0.002515
3870.000000	0.002547
3869.000000	0.002537
3868.000000	0.002506
3867.000000	0.002478
3866.000000	0.002454
3865.000000	0.002427
3864.000000	0.002405
3863.000000	0.002401
3862.000000	0.002416
3861.000000	0.002442
3860.000000	0.002470
3859.000000	0.002494
3858.000000	0.002513
3857.000000	0.002525
3856.000000	0.002524
3855.000000	0.002504
3854.000000	0.002482
3853.000000	0.002473
3852.000000	0.002468
3851.000000	0.002456
3850.000000	0.002444
3849.000000	0.002442
3848.000000	0.002453
3847.000000	0.002479
3846.000000	0.002511
3845.000000	0.002534
3844.000000	0.002536
3843.000000	0.002516
3842.000000	0.002488
3841.000000	0.002467
3840.000000	0.002461
3839.000000	0.002465
3838.000000	0.002471
3837.000000	0.002473
3836.000000	0.002467
3835.000000	0.002455
3834.000000	0.002442
3833.000000	0.002430
3832.000000	0.002416
3831.000000	0.002404
3830.000000	0.002401
3829.000000	0.002407
3828.000000	0.002419
3827.000000	0.002432
3826.000000	0.002441
3825.000000	0.002451
3824.000000	0.002465
3823.000000	0.002475
3822.000000	0.002467
3821.000000	0.002440
3820.000000	0.002412
3819.000000	0.002403
3818.000000	0.002415
3817.000000	0.002431
3816.000000	0.002437
3815.000000	0.002438
3814.000000	0.002449
3813.000000	0.002471
3812.000000	0.002491
3811.000000	0.002498
3810.000000	0.002492
3809.000000	0.002478
3808.000000	0.002456
3807.000000	0.002425
3806.000000	0.002398
3805.000000	0.002391
3804.000000	0.002402
3803.000000	0.002410
3802.000000	0.002391
3801.000000	0.002349
3800.000000	0.002316
3799.000000	0.002307
3798.000000	0.002321
3797.000000	0.002349
3796.000000	0.002382
3795.000000	0.002412
3794.000000	0.002433
3793.000000	0.002444
3792.000000	0.002447
3791.000000	0.002450
3790.000000	0.002456
3789.000000	0.002459
3788.000000	0.002450
3787.000000	0.002430
3786.000000	0.002410
3785.000000	0.002398
3784.000000	0.002396
3783.000000	0.002402
3782.000000	0.002410
3781.000000	0.002417
3780.000000	0.002420
3779.000000	0.002422
3778.000000	0.002425
3777.000000	0.002426
3776.000000	0.002420
3775.000000	0.002403
3774.000000	0.002377
3773.000000	0.002349
3772.000000	0.002323
3771.000000	0.002295
3770.000000	0.002267
3769.000000	0.002255
3768.000000	0.002265
3767.000000	0.002292
3766.000000	0.002322
3765.000000	0.002349
3764.000000	0.002370
3763.000000	0.002387
3762.000000	0.002395
3761.000000	0.002385
3760.000000	0.002361
3759.000000	0.002339
3758.000000	0.002331
3757.000000	0.002340
3756.000000	0.002363
3755.000000	0.002396
3754.000000	0.002438
3753.000000	0.002487
3752.000000	0.002543
3751.000000	0.002603
3750.000000	0.002638
3749.000000	0.002630
3748.000000	0.002591
3747.000000	0.002552
3746.000000	0.002520
3745.000000	0.002481
3744.000000	0.002428
3743.000000	0.002374
3742.000000	0.002333
3741.000000	0.002310
3740.000000	0.002301
3739.000000	0.002301
3738.000000	0.002310
3737.000000	0.002322
3736.000000	0.002312
3735.000000	0.002267
3734.000000	0.002219
3733.000000	0.002210
3732.000000	0.002238
3731.000000	0.002276
3730.000000	0.002312
3729.000000	0.002351
3728.000000	0.002395
3727.000000	0.002434
3726.000000	0.002459
3725.000000	0.002471
3724.000000	0.002474
3723.000000	0.002466
3722.000000	0.002442
3721.000000	0.002406
3720.000000	0.002366
3719.000000	0.002332
3718.000000	0.002306
3717.000000	0.002289
3716.000000	0.002278
3715.000000	0.002273
3714.000000	0.002276
3713.000000	0.002297
3712.000000	0.002340
3711.000000	0.002385
3710.000000	0.002401
3709.000000	0.002385
3708.000000	0.002353
3707.000000	0.002322
3706.000000	0.002299
3705.000000	0.002281
3704.000000	0.002260
3703.000000	0.002230
3702.000000	0.002199
3701.000000	0.002179
3700.000000	0.002182
3699.000000	0.002210
3698.000000	0.002257
3697.000000	0.002307
3696.000000	0.002343
3695.000000	0.002358
3694.000000	0.002352
3693.000000	0.002328
3692.000000	0.002292
3691.000000	0.002256
3690.000000	0.002234
3689.000000	0.002233
3688.000000	0.002239
3687.000000	0.002237
3686.000000	0.002224
3685.000000	0.002214
3684.000000	0.002219
3683.000000	0.002236
3682.000000	0.002254
3681.000000	0.002263
3680.000000	0.002265
3679.000000	0.002272
3678.000000	0.002297
3677.000000	0.002331
3676.000000	0.002350
3675.000000	0.002339
3674.000000	0.002319
3673.000000	0.002314
3672.000000	0.002325
3671.000000	0.002334
3670.000000	0.002333
3669.000000	0.002327
3668.000000	0.002323
3667.000000	0.002313
3666.000000	0.002293
3665.000000	0.002269
3664.000000	0.002255
3663.000000	0.002265
3662.000000	0.002293
3661.000000	0.002320
3660.000000	0.002328
3659.000000	0.002316
3658.000000	0.002300
3657.000000	0.002297
3656.000000	0.002311
3655.000000	0.002328
3654.000000	0.002333
3653.000000	0.002321
3652.000000	0.002296
3651.000000	0.002280
3650.000000	0.002306
3649.000000	0.002379
3648.000000	0.002456
3647.000000	0.002495
3646.000000	0.002487
3645.000000	0.002446
3644.000000	0.002395
3643.000000	0.002355
3642.000000	0.002340
3641.000000	0.002351
3640.000000	0.002379
3639.000000	0.002413
3638.000000	0.002444
3637.000000	0.002464
3636.000000	0.002473
3635.000000	0.002473
3634.000000	0.002472
3633.000000	0.002479
3632.000000	0.002498
3631.000000	0.002527
3630.000000	0.002565
3629.000000	0.002611
3628.000000	0.002652
3627.000000	0.002675
3626.000000	0.002673
3625.000000	0.002648
3624.000000	0.002603
3623.000000	0.002551
3622.000000	0.002501
3621.000000	0.002464
3620.000000	0.002453
3619.000000	0.002477
3618.000000	0.002530
3617.000000	0.002595
3616.000000	0.002656
3615.000000	0.002706
3614.000000	0.002745
3613.000000	0.002778
3612.000000	0.002810
3611.000000	0.002841
3610.000000	0.002866
3609.000000	0.002878
3608.000000	0.002867
3607.000000	0.002839
3606.000000	0.002810
3605.000000	0.002794
3604.000000	0.002790
3603.000000	0.002792
3602.000000	0.002793
3601.000000	0.002793
3600.000000	0.002794
3599.000000	0.002803
3598.000000	0.002814
3597.000000	0.002826
3596.000000	0.002843
3595.000000	0.002874
3594.000000	0.002921
3593.000000	0.002972
3592.000000	0.003011
3591.000000	0.003025
3590.000000	0.003016
3589.000000	0.003002
3588.000000	0.003005
3587.000000	0.003030
3586.000000	0.003065
3585.000000	0.003089
3584.000000	0.003089
3583.000000	0.003067
3582.000000	0.003037
3581.000000	0.003016
3580.000000	0.003014
3579.000000	0.003029
3578.000000	0.003053
3577.000000	0.003079
3576.000000	0.003109
3575.000000	0.003145
3574.000000	0.003186
3573.000000	0.003224
3572.000000	0.003260
3571.000000	0.003299
3570.000000	0.003352
3569.000000	0.003421
3568.000000	0.003490
3567.000000	0.003527
3566.000000	0.003522
3565.000000	0.003503
3564.000000	0.003487
3563.000000	0.003476
3562.000000	0.003469
3561.000000	0.003472
3560.000000	0.003491
3559.000000	0.003519
3558.000000	0.003539
3557.000000	0.003544
3556.000000	0.003544
3555.000000	0.003559
3554.000000	0.003602
3553.000000	0.003664
3552.000000	0.003725
3551.000000	0.003769
3550.000000	0.003795
3549.000000	0.003809
3548.000000	0.003820
3547.000000	0.003831
3546.000000	0.003844
3545.000000	0.003857
3544.000000	0.003867
3543.000000	0.003868
3542.000000	0.003854
3541.000000	0.003827
3540.000000	0.003802
3539.000000	0.003793
3538.000000	0.003809
3537.000000	0.003841
3536.000000	0.003869
3535.000000	0.003879
3534.000000	0.003872
3533.000000	0.003860
3532.000000	0.003855
3531.000000	0.003859
3530.000000	0.003871
3529.000000	0.003891
3528.000000	0.003921
3527.000000	0.003962
3526.000000	0.004007
3525.000000	0.004043
3524.000000	0.004059
3523.000000	0.004051
3522.000000	0.004028
3521.000000	0.004004
3520.000000	0.003994
3519.000000	0.004003
3518.000000	0.004027
3517.000000	0.004054
3516.000000	0.004071
3515.000000	0.004073
3514.000000	0.004066
3513.000000	0.004064
3512.000000	0.004072
3511.000000	0.004087
3510.000000	0.004101
3509.000000	0.004110
3508.000000	0.004119
3507.000000	0.004136
3506.000000	0.004161
3505.000000	0.004191
3504.000000	0.004219
3503.000000	0.004233
3502.000000	0.004226
3501.000000	0.004204
3500.000000	0.004188
3499.000000	0.004191
3498.000000	0.004210
3497.000000	0.004231
3496.000000	0.004243
3495.000000	0.004244
3494.000000	0.004238
3493.000000	0.004233
3492.000000	0.004236
3491.000000	0.004253
3490.000000	0.004283
3489.000000	0.004314
3488.000000	0.004338
3487.000000	0.004352
3486.000000	0.004363
3485.000000	0.004377
3484.000000	0.004393
3483.000000	0.004407
3482.000000	0.004412
3481.000000	0.004408
3480.000000	0.004404
3479.000000	0.004409
3478.000000	0.004428
3477.000000	0.004455
3476.000000	0.004478
3475.000000	0.004493
3474.000000	0.004506
3473.000000	0.004521
3472.000000	0.004539
3471.000000	0.004553
3470.000000	0.004555
3469.000000	0.004547
3468.000000	0.004535
3467.000000	0.004532
3466.000000	0.004543
3465.000000	0.004566
3464.000000	0.004598
3463.000000	0.004633
3462.000000	0.004659
3461.000000	0.004666
3460.000000	0.004649
3459.000000	0.004622
3458.000000	0.004607
3457.000000	0.004619
3456.000000	0.004655
3455.000000	0.004702
3454.000000	0.004741
3453.000000	0.004763
3452.000000	0.004771
3451.000000	0.004775
3450.000000	0.004786
3449.000000	0.004805
3448.000000	0.004826
3447.000000	0.004847
3446.000000	0.004869
3445.000000	0.004891
3444.000000	0.004910
3443.000000	0.004921
3442.000000	0.004926
3441.000000	0.004934
3440.000000	0.004952
3439.000000	0.004980
3438.000000	0.005007
3437.000000	0.005021
3436.000000	0.005026
3435.000000	0.005033
3434.000000	0.005050
3433.000000	0.005069
3432.000000	0.005081
3431.000000	0.005085
3430.000000	0.005093
3429.000000	0.005114
3428.000000	0.005146
3427.000000	0.005178
3426.000000	0.005209
3425.000000	0.005243
3424.000000	0.005288
3423.000000	0.005342
3422.000000	0.005395
3421.000000	0.005434
3420.000000	0.005456
3419.000000	0.005466
3418.000000	0.005478
3417.000000	0.005503
3416.000000	0.005547
3415.000000	0.005601
3414.000000	0.005657
3413.000000	0.005711
3412.000000	0.005767
3411.000000	0.005824
3410.000000	0.005876
3409.000000	0.005910
3408.000000	0.005922
3407.000000	0.005919
3406.000000	0.005912
3405.000000	0.005908
3404.000000	0.005912
3403.000000	0.005928
3402.000000	0.005961
3401.000000	0.006004
3400.000000	0.006045
3399.000000	0.006067
3398.000000	0.006066
3397.000000	0.006055
3396.000000	0.006056
3395.000000	0.006074
3394.000000	0.006091
3393.000000	0.006081
3392.000000	0.006036
3391.000000	0.005975
3390.000000	0.005930
3389.000000	0.005924
3388.000000	0.005955
3387.000000	0.006003
3386.000000	0.006044
3385.000000	0.006064
3384.000000	0.006065
3383.000000	0.006060
3382.000000	0.006061
3381.000000	0.006071
3380.000000	0.006086
3379.000000	0.006094
3378.000000	0.006090
3377.000000	0.006073
3376.000000	0.006052
3375.000000	0.006038
3374.000000	0.006038
3373.000000	0.006052
3372.000000	0.006077
3371.000000	0.006109
3370.000000	0.006144
3369.000000	0.006174
3368.000000	0.006193
3367.000000	0.006199
3366.000000	0.006194
3365.000000	0.006181
3364.000000	0.006163
3363.000000	0.006143
3362.000000	0.006128
3361.000000	0.006125
3360.000000	0.006137
3359.000000	0.006161
3358.000000	0.006189
3357.000000	0.006214
3356.000000	0.006232
3355.000000	0.006243
3354.000000	0.006257
3353.000000	0.006277
3352.000000	0.006302
3351.000000	0.006324
3350.000000	0.006333
3349.000000	0.006324
3348.000000	0.006298
3347.000000	0.006267
3346.000000	0.006247
3345.000000	0.006245
3344.000000	0.006258
3343.000000	0.006279
3342.000000	0.006306
3341.000000	0.006339
3340.000000	0.006373
3339.000000	0.006399
3338.000000	0.006418
3337.000000	0.006432
3336.000000	0.006443
3335.000000	0.006450
3334.000000	0.006455
3333.000000	0.006459
3332.000000	0.006463
3331.000000	0.006463
3330.000000	0.006462
3329.000000	0.006470
3328.000000	0.006492
3327.000000	0.006522
3326.000000	0.006549
3325.000000	0.006564
3324.000000	0.006565
3323.000000	0.006555
3322.000000	0.006536
3321.000000	0.006511
3320.000000	0.006490
3319.000000	0.006487
3318.000000	0.006517
3317.000000	0.006581
3316.000000	0.006659
3315.000000	0.006723
3314.000000	0.006751
3313.000000	0.006747
3312.000000	0.006734
3311.000000	0.006731
3310.000000	0.006740
3309.000000	0.006751
3308.000000	0.006750
3307.000000	0.006739
3306.000000	0.006729
3305.000000	0.006728
3304.000000	0.006736
3303.000000	0.006742
3302.000000	0.006740
3301.000000	0.006732
3300.000000	0.006725
3299.000000	0.006720
3298.000000	0.006713
3297.000000	0.006703
3296.000000	0.006701
3295.000000	0.006718
3294.000000	0.006752
3293.000000	0.006786
3292.000000	0.006800
3291.000000	0.006787
3290.000000	0.006758
3289.000000	0.006728
3288.000000	0.006711
3287.000000	0.006708
3286.000000	0.006712
3285.000000	0.006715
3284.000000	0.006717
3283.000000	0.006718
3282.000000	0.006719
3281.000000	0.006715
3280.000000	0.006699
3279.000000	0.006672
3278.000000	0.006646
3277.000000	0.006634
3276.000000	0.006644
3275.000000	0.006668
3274.000000	0.006688
3273.000000	0.006694
3272.000000	0.006686
3271.000000	0.006675
3270.000000	0.006674
3269.000000	0.006689
3268.000000	0.006713
3267.000000	0.006730
3266.000000	0.006726
3265.000000	0.006701
3264.000000	0.006672
3263.000000	0.006652
3262.000000	0.006646
3261.000000	0.006647
3260.000000	0.006645
3259.000000	0.006640
3258.000000	0.006632
3257.000000	0.006625
3256.000000	0.006620
3255.000000	0.006615
3254.000000	0.006611
3253.000000	0.006604
3252.000000	0.006588
3251.000000	0.006562
3250.000000	0.006535
3249.000000	0.006521
3248.000000	0.006528
3247.000000	0.006554
3246.000000	0.006585
3245.000000	0.006602
3244.000000	0.006596
3243.000000	0.006571
3242.000000	0.006538
3241.000000	0.006512
3240.000000	0.006496
3239.000000	0.006486
3238.000000	0.006470
3237.000000	0.006445
3236.000000	0.006417
3235.000000	0.006395
3234.000000	0.006384
3233.000000	0.006387
3232.000000	0.006401
3231.000000	0.006422
3230.000000	0.006437
3229.000000	0.006438
3228.000000	0.006422
3227.000000	0.006397
3226.000000	0.006377
3225.000000	0.006369
3224.000000	0.006375
3223.000000	0.006391
3222.000000	0.006409
3221.000000	0.006422
3220.000000	0.006424
3219.000000	0.006415
3218.000000	0.006398
3217.000000	0.006377
3216.000000	0.006356
3215.000000	0.006339
3214.000000	0.006334
3213.000000	0.006344
3212.000000	0.006358
3211.000000	0.006359
3210.000000	0.006336
3209.000000	0.006297
3208.000000	0.006266
3207.000000	0.006265
3206.000000	0.006298
3205.000000	0.006346
3204.000000	0.006383
3203.000000	0.006392
3202.000000	0.006372
3201.000000	0.006332
3200.000000	0.006286
3199.000000	0.006245
3198.000000	0.006211
3197.000000	0.006186
3196.000000	0.006167
3195.000000	0.006151
3194.000000	0.006136
3193.000000	0.006122
3192.000000	0.006110
3191.000000	0.006105
3190.000000	0.006111
3189.000000	0.006128
3188.000000	0.006147
3187.000000	0.006157
3186.000000	0.006152
3185.000000	0.006136
3184.000000	0.006122
3183.000000	0.006122
3182.000000	0.006137
3181.000000	0.006159
3180.000000	0.006181
3179.000000	0.006192
3178.000000	0.006187
3177.000000	0.006164
3176.000000	0.006127
3175.000000	0.006084
3174.000000	0.006041
3173.000000	0.006006
3172.000000	0.005988
3171.000000	0.005990
3170.000000	0.006006
3169.000000	0.006021
3168.000000	0.006021
3167.000000	0.006000
3166.000000	0.005966
3165.000000	0.005935
3164.000000	0.005921
3163.000000	0.005931
3162.000000	0.005954
3161.000000	0.005975
3160.000000	0.005985
3159.000000	0.005982
3158.000000	0.005972
3157.000000	0.005961
3156.000000	0.005954
3155.000000	0.005955
3154.000000	0.005962
3153.000000	0.005966
3152.000000	0.005957
3151.000000	0.005937
3150.000000	0.005918
3149.000000	0.005909
3148.000000	0.005911
3147.000000	0.005917
3146.000000	0.005922
3145.000000	0.005920
3144.000000	0.005910
3143.000000	0.005896
3142.000000	0.005884
3141.000000	0.005877
3140.000000	0.005872
3139.000000	0.005865
3138.000000	0.005859
3137.000000	0.005856
3136.000000	0.005852
3135.000000	0.005844
3134.000000	0.005829
3133.000000	0.005815
3132.000000	0.005805
3131.000000	0.005800
3130.000000	0.005792
3129.000000	0.005779
3128.000000	0.005765
3127.000000	0.005758
3126.000000	0.005757
3125.000000	0.005758
3124.000000	0.005755
3123.000000	0.005750
3122.000000	0.005748
3121.000000	0.005751
3120.000000	0.005757
3119.000000	0.005762
3118.000000	0.005766
3117.000000	0.005774
3116.000000	0.005786
3115.000000	0.005798
3114.000000	0.005802
3113.000000	0.005796
3112.000000	0.005784
3111.000000	0.005776
3110.000000	0.005774
3109.000000	0.005773
3108.000000	0.005760
3107.000000	0.005735
3106.000000	0.005710
3105.000000	0.005693
3104.000000	0.005686
3103.000000	0.005683
3102.000000	0.005679
3101.000000	0.005674
3100.000000	0.005665
3099.000000	0.005654
3098.000000	0.005649
3097.000000	0.005655
3096.000000	0.005671
3095.000000	0.005683
3094.000000	0.005680
3093.000000	0.005665
3092.000000	0.005649
3091.000000	0.005638
3090.000000	0.005628
3089.000000	0.005613
3088.000000	0.005596
3087.000000	0.005584
3086.000000	0.005578
3085.000000	0.005572
3084.000000	0.005563
3083.000000	0.005554
3082.000000	0.005555
3081.000000	0.005568
3080.000000	0.005593
3079.000000	0.005622
3078.000000	0.005643
3077.000000	0.005643
3076.000000	0.005619
3075.000000	0.005578
3074.000000	0.005538
3073.000000	0.005510
3072.000000	0.005496
3071.000000	0.005490
3070.000000	0.005484
3069.000000	0.005479
3068.000000	0.005477
3067.000000	0.005484
3066.000000	0.005502
3065.000000	0.005524
3064.000000	0.005542
3063.000000	0.005550
3062.000000	0.005547
3061.000000	0.005538
3060.000000	0.005528
3059.000000	0.005524
3058.000000	0.005528
3057.000000	0.005539
3056.000000	0.005550
3055.000000	0.005553
3054.000000	0.005542
3053.000000	0.005509
3052.000000	0.005456
3051.000000	0.005404
3050.000000	0.005376
3049.000000	0.005380
3048.000000	0.005399
3047.000000	0.005410
3046.000000	0.005408
3045.000000	0.005399
3044.000000	0.005394
3043.000000	0.005399
3042.000000	0.005411
3041.000000	0.005426
3040.000000	0.005436
3039.000000	0.005431
3038.000000	0.005408
3037.000000	0.005372
3036.000000	0.005336
3035.000000	0.005316
3034.000000	0.005318
3033.000000	0.005334
3032.000000	0.005350
3031.000000	0.005353
3030.000000	0.005341
3029.000000	0.005322
3028.000000	0.005305
3027.000000	0.005296
3026.000000	0.005301
3025.000000	0.005321
3024.000000	0.005350
3023.000000	0.005376
3022.000000	0.005391
3021.000000	0.005395
3020.000000	0.005392
3019.000000	0.005382
3018.000000	0.005369
3017.000000	0.005360
3016.000000	0.005362
3015.000000	0.005372
3014.000000	0.005381
3013.000000	0.005385
3012.000000	0.005389
3011.000000	0.005404
3010.000000	0.005434
3009.000000	0.005472
3008.000000	0.005506
3007.000000	0.005529
3006.000000	0.005541
3005.000000	0.005546
3004.000000	0.005553
3003.000000	0.005572
3002.000000	0.005610
3001.000000	0.005659
3000.000000	0.005704
2999.000000	0.005736
2998.000000	0.005759
2997.000000	0.005783
2996.000000	0.005816
2995.000000	0.005857
2994.000000	0.005903
2993.000000	0.005952
2992.000000	0.005998
2991.000000	0.006040
2990.000000	0.006086
2989.000000	0.006149
2988.000000	0.006229
2987.000000	0.006317
2986.000000	0.006401
2985.000000	0.006481
2984.000000	0.006563
2983.000000	0.006656
2982.000000	0.006757
2981.000000	0.006863
2980.000000	0.006965
2979.000000	0.007065
2978.000000	0.007169
2977.000000	0.007288
2976.000000	0.007422
2975.000000	0.007561
2974.000000	0.007696
2973.000000	0.007826
2972.000000	0.007960
2971.000000	0.008109
2970.000000	0.008279
2969.000000	0.008463
2968.000000	0.008649
2967.000000	0.008822
2966.000000	0.008977
2965.000000	0.009116
2964.000000	0.009249
2963.000000	0.009377
2962.000000	0.009499
2961.000000	0.009604
2960.000000	0.009678
2959.000000	0.009714
2958.000000	0.009715
2957.000000	0.009690
2956.000000	0.009646
2955.000000	0.009583
2954.000000	0.009500
2953.000000	0.009406
2952.000000	0.009320
2951.000000	0.009261
2950.000000	0.009234
2949.000000	0.009222
2948.000000	0.009210
2947.000000	0.009199
2946.000000	0.009209
2945.000000	0.009261
2944.000000	0.009360
2943.000000	0.009490
2942.000000	0.009631
2941.000000	0.009775
2940.000000	0.009920
2939.000000	0.010070
2938.000000	0.010227
2937.000000	0.010391
2936.000000	0.010557
2935.000000	0.010716
2934.000000	0.010861
2933.000000	0.010985
2932.000000	0.011085
2931.000000	0.011157
2930.000000	0.011197
2929.000000	0.011201
2928.000000	0.011173
2927.000000	0.011127
2926.000000	0.011080
2925.000000	0.011035
2924.000000	0.010980
2923.000000	0.010902
2922.000000	0.010794
2921.000000	0.010657
2920.000000	0.010499
2919.000000	0.010335
2918.000000	0.010186
2917.000000	0.010070
2916.000000	0.009987
2915.000000	0.009920
2914.000000	0.009849
2913.000000	0.009772
2912.000000	0.009696
2911.000000	0.009626
2910.000000	0.009555
2909.000000	0.009473
2908.000000	0.009378
2907.000000	0.009275
2906.000000	0.009175
2905.000000	0.009074
2904.000000	0.008963
2903.000000	0.008836
2902.000000	0.008697
2901.000000	0.008561
2900.000000	0.008438
2899.000000	0.008324
2898.000000	0.008211
2897.000000	0.008098
2896.000000	0.007986
2895.000000	0.007882
2894.000000	0.007789
2893.000000	0.007702
2892.000000	0.007614
2891.000000	0.007524
2890.000000	0.007439
2889.000000	0.007371
2888.000000	0.007324
2887.000000	0.007292
2886.000000	0.007272
2885.000000	0.007263
2884.000000	0.007265
2883.000000	0.007282
2882.000000	0.007316
2881.000000	0.007373
2880.000000	0.007459
2879.000000	0.007568
2878.000000	0.007685
2877.000000	0.007795
2876.000000	0.007891
2875.000000	0.007976
2874.000000	0.008052
2873.000000	0.008115
2872.000000	0.008156
2871.000000	0.008171
2870.000000	0.008171
2869.000000	0.008170
2868.000000	0.008182
2867.000000	0.008208
2866.000000	0.008243
2865.000000	0.008286
2864.000000	0.008341
2863.000000	0.008409
2862.000000	0.008485
2861.000000	0.008561
2860.000000	0.008629
2859.000000	0.008683
2858.000000	0.008713
2857.000000	0.008707
2856.000000	0.008659
2855.000000	0.008574
2854.000000	0.008466
2853.000000	0.008339
2852.000000	0.008189
2851.000000	0.008013
2850.000000	0.007820
2849.000000	0.007629
2848.000000	0.007459
2847.000000	0.007319
2846.000000	0.007207
2845.000000	0.007114
2844.000000	0.007025
2843.000000	0.006928
2842.000000	0.006817
2841.000000	0.006696
2840.000000	0.006577
2839.000000	0.006473
2838.000000	0.006388
2837.000000	0.006321
2836.000000	0.006265
2835.000000	0.006217
2834.000000	0.006179
2833.000000	0.006154
2832.000000	0.006137
2831.000000	0.006120
2830.000000	0.006096
2829.000000	0.006064
2828.000000	0.006028
2827.000000	0.005993
2826.000000	0.005964
2825.000000	0.005948
2824.000000	0.005945
2823.000000	0.005951
2822.000000	0.005960
2821.000000	0.005966
2820.000000	0.005963
2819.000000	0.005944
2818.000000	0.005909
2817.000000	0.005869
2816.000000	0.005839
2815.000000	0.005819
2814.000000	0.005798
2813.000000	0.005766
2812.000000	0.005725
2811.000000	0.005690
2810.000000	0.005672
2809.000000	0.005670
2808.000000	0.005675
2807.000000	0.005681
2806.000000	0.005685
2805.000000	0.005683
2804.000000	0.005668
2803.000000	0.005644
2802.000000	0.005617
2801.000000	0.005597
2800.000000	0.005586
2799.000000	0.005578
2798.000000	0.005567
2797.000000	0.005558
2796.000000	0.005554
2795.000000	0.005553
2794.000000	0.005548
2793.000000	0.005538
2792.000000	0.005531
2791.000000	0.005536
2790.000000	0.005546
2789.000000	0.005548
2788.000000	0.005531
2787.000000	0.005502
2786.000000	0.005475
2785.000000	0.005457
2784.000000	0.005449
2783.000000	0.005448
2782.000000	0.005450
2781.000000	0.005452
2780.000000	0.005452
2779.000000	0.005450
2778.000000	0.005447
2777.000000	0.005444
2776.000000	0.005439
2775.000000	0.005428
2774.000000	0.005411
2773.000000	0.005394
2772.000000	0.005386
2771.000000	0.005391
2770.000000	0.005406
2769.000000	0.005420
2768.000000	0.005425
2767.000000	0.005417
2766.000000	0.005400
2765.000000	0.005385
2764.000000	0.005379
2763.000000	0.005384
2762.000000	0.005397
2761.000000	0.005411
2760.000000	0.005421
2759.000000	0.005428
2758.000000	0.005432
2757.000000	0.005428
2756.000000	0.005413
2755.000000	0.005388
2754.000000	0.005361
2753.000000	0.005342
2752.000000	0.005334
2751.000000	0.005334
2750.000000	0.005342
2749.000000	0.005356
2748.000000	0.005365
2747.000000	0.005358
2746.000000	0.005336
2745.000000	0.005313
2744.000000	0.005304
2743.000000	0.005315
2742.000000	0.005342
2741.000000	0.005370
2740.000000	0.005381
2739.000000	0.005367
2738.000000	0.005337
2737.000000	0.005307
2736.000000	0.005288
2735.000000	0.005280
2734.000000	0.005277
2733.000000	0.005276
2732.000000	0.005279
2731.000000	0.005287
2730.000000	0.005296
2729.000000	0.005307
2728.000000	0.005319
2727.000000	0.005327
2726.000000	0.005327
2725.000000	0.005320
2724.000000	0.005313
2723.000000	0.005308
2722.000000	0.005301
2721.000000	0.005290
2720.000000	0.005278
2719.000000	0.005271
2718.000000	0.005273
2717.000000	0.005279
2716.000000	0.005282
2715.000000	0.005278
2714.000000	0.005269
2713.000000	0.005259
2712.000000	0.005251
2711.000000	0.005243
2710.000000	0.005234
2709.000000	0.005231
2708.000000	0.005236
2707.000000	0.005246
2706.000000	0.005247
2705.000000	0.005237
2704.000000	0.005226
2703.000000	0.005224
2702.000000	0.005233
2701.000000	0.005245
2700.000000	0.005256
2699.000000	0.005264
2698.000000	0.005269
2697.000000	0.005268
2696.000000	0.005256
2695.000000	0.005235
2694.000000	0.005211
2693.000000	0.005194
2692.000000	0.005186
2691.000000	0.005184
2690.000000	0.005186
2689.000000	0.005191
2688.000000	0.005200
2687.000000	0.005210
2686.000000	0.005213
2685.000000	0.005206
2684.000000	0.005193
2683.000000	0.005184
2682.000000	0.005183
2681.000000	0.005188
2680.000000	0.005191
2679.000000	0.005190
2678.000000	0.005188
2677.000000	0.005191
2676.000000	0.005199
2675.000000	0.005207
2674.000000	0.005209
2673.000000	0.005202
2672.000000	0.005188
2671.000000	0.005172
2670.000000	0.005159
2669.000000	0.005156
2668.000000	0.005167
2667.000000	0.005194
2666.000000	0.005229
2665.000000	0.005266
2664.000000	0.005296
2663.000000	0.005315
2662.000000	0.005320
2661.000000	0.005307
2660.000000	0.005284
2659.000000	0.005261
2658.000000	0.005246
2657.000000	0.005236
2656.000000	0.005229
2655.000000	0.005226
2654.000000	0.005236
2653.000000	0.005251
2652.000000	0.005258
2651.000000	0.005246
2650.000000	0.005220
2649.000000	0.005192
2648.000000	0.005171
2647.000000	0.005157
2646.000000	0.005144
2645.000000	0.005134
2644.000000	0.005127
2643.000000	0.005126
2642.000000	0.005125
2641.000000	0.005118
2640.000000	0.005102
2639.000000	0.005080
2638.000000	0.005062
2637.000000	0.005056
2636.000000	0.005060
2635.000000	0.005065
2634.000000	0.005059
2633.000000	0.005039
2632.000000	0.005011
2631.000000	0.004990
2630.000000	0.004985
2629.000000	0.004992
2628.000000	0.004996
2627.000000	0.004987
2626.000000	0.004966
2625.000000	0.004938
2624.000000	0.004912
2623.000000	0.004893
2622.000000	0.004887
2621.000000	0.004890
2620.000000	0.004896
2619.000000	0.004896
2618.000000	0.004887
2617.000000	0.004880
2616.000000	0.004883
2615.000000	0.004896
2614.000000	0.004910
2613.000000	0.004909
2612.000000	0.004895
2611.000000	0.004880
2610.000000	0.004878
2609.000000	0.004890
2608.000000	0.004902
2607.000000	0.004898
2606.000000	0.004876
2605.000000	0.004842
2604.000000	0.004809
2603.000000	0.004787
2602.000000	0.004780
2601.000000	0.004776
2600.000000	0.004765
2599.000000	0.004741
2598.000000	0.004710
2597.000000	0.004680
2596.000000	0.004663
2595.000000	0.004666
2594.000000	0.004691
2593.000000	0.004721
2592.000000	0.004734
2591.000000	0.004724
2590.000000	0.004707
2589.000000	0.004695
2588.000000	0.004690
2587.000000	0.004685
2586.000000	0.004676
2585.000000	0.004666
2584.000000	0.004659
2583.000000	0.004658
2582.000000	0.004667
2581.000000	0.004682
2580.000000	0.004686
2579.000000	0.004672
2578.000000	0.004645
2577.000000	0.004618
2576.000000	0.004595
2575.000000	0.004577
2574.000000	0.004566
2573.000000	0.004567
2572.000000	0.004577
2571.000000	0.004589
2570.000000	0.004601
2569.000000	0.004620
2568.000000	0.004644
2567.000000	0.004660
2566.000000	0.004652
2565.000000	0.004620
2564.000000	0.004578
2563.000000	0.004549
2562.000000	0.004542
2561.000000	0.004551
2560.000000	0.004552
2559.000000	0.004533
2558.000000	0.004504
2557.000000	0.004487
2556.000000	0.004491
2555.000000	0.004500
2554.000000	0.004495
2553.000000	0.004474
2552.000000	0.004454
2551.000000	0.004447
2550.000000	0.004455
2549.000000	0.004473
2548.000000	0.004498
2547.000000	0.004532
2546.000000	0.004574
2545.000000	0.004615
2544.000000	0.004643
2543.000000	0.004655
2542.000000	0.004657
2541.000000	0.004660
2540.000000	0.004664
2539.000000	0.004666
2538.000000	0.004665
2537.000000	0.004666
2536.000000	0.004671
2535.000000	0.004679
2534.000000	0.004691
2533.000000	0.004704
2532.000000	0.004720
2531.000000	0.004736
2530.000000	0.004752
2529.000000	0.004765
2528.000000	0.004774
2527.000000	0.004780
2526.000000	0.004782
2525.000000	0.004775
2524.000000	0.004756
2523.000000	0.004734
2522.000000	0.004735
2521.000000	0.004774
2520.000000	0.004839
2519.000000	0.004901
2518.000000	0.004940
2517.000000	0.004954
2516.000000	0.004954
2515.000000	0.004950
2514.000000	0.004945
2513.000000	0.004940
2512.000000	0.004932
2511.000000	0.004920
2510.000000	0.004909
2509.000000	0.004902
2508.000000	0.004893
2507.000000	0.004870
2506.000000	0.004831
2505.000000	0.004777
2504.000000	0.004715
2503.000000	0.004655
2502.000000	0.004611
2501.000000	0.004599
2500.000000	0.004612
2499.000000	0.004632
2498.000000	0.004644
2497.000000	0.004648
2496.000000	0.004648
2495.000000	0.004639
2494.000000	0.004614
2493.000000	0.004572
2492.000000	0.004521
2491.000000	0.004466
2490.000000	0.004415
2489.000000	0.004379
2488.000000	0.004365
2487.000000	0.004373
2486.000000	0.004389
2485.000000	0.004401
2484.000000	0.004401
2483.000000	0.004395
2482.000000	0.004389
2481.000000	0.004389
2480.000000	0.004394
2479.000000	0.004401
2478.000000	0.004404
2477.000000	0.004393
2476.000000	0.004356
2475.000000	0.004302
2474.000000	0.004259
2473.000000	0.004259
2472.000000	0.004305
2471.000000	0.004369
2470.000000	0.004415
2469.000000	0.004426
2468.000000	0.004409
2467.000000	0.004384
2466.000000	0.004360
2465.000000	0.004344
2464.000000	0.004341
2463.000000	0.004362
2462.000000	0.004407
2461.000000	0.004456
2460.000000	0.004475
2459.000000	0.004444
2458.000000	0.004381
2457.000000	0.004325
2456.000000	0.004309
2455.000000	0.004338
2454.000000	0.004394
2453.000000	0.004455
2452.000000	0.004495
2451.000000	0.004497
2450.000000	0.004465
2449.000000	0.004417
2448.000000	0.004369
2447.000000	0.004329
2446.000000	0.004294
2445.000000	0.004265
2444.000000	0.004246
2443.000000	0.004240
2442.000000	0.004238
2441.000000	0.004226
2440.000000	0.004202
2439.000000	0.004181
2438.000000	0.004184
2437.000000	0.004214
2436.000000	0.004250
2435.000000	0.004277
2434.000000	0.004303
2433.000000	0.004346
2432.000000	0.004398
2431.000000	0.004430
2430.000000	0.004421
2429.000000	0.004383
2428.000000	0.004343
2427.000000	0.004325
2426.000000	0.004332
2425.000000	0.004354
2424.000000	0.004368
2423.000000	0.004359
2422.000000	0.004326
2421.000000	0.004285
2420.000000	0.004253
2419.000000	0.004233
2418.000000	0.004225
2417.000000	0.004228
2416.000000	0.004242
2415.000000	0.004257
2414.000000	0.004262
2413.000000	0.004257
2412.000000	0.004252
2411.000000	0.004255
2410.000000	0.004265
2409.000000	0.004273
2408.000000	0.004271
2407.000000	0.004262
2406.000000	0.004252
2405.000000	0.004249
2404.000000	0.004251
2403.000000	0.004259
2402.000000	0.004271
2401.000000	0.004282
2400.000000	0.004283
2399.000000	0.004268
2398.000000	0.004249
2397.000000	0.004241
2396.000000	0.004256
2395.000000	0.004292
2394.000000	0.004332
2393.000000	0.004353
2392.000000	0.004345
2391.000000	0.004319
2390.000000	0.004295
2389.000000	0.004284
2388.000000	0.004275
2387.000000	0.004253
2386.000000	0.004213
2385.000000	0.004157
2384.000000	0.004088
2383.000000	0.004018
2382.000000	0.003967
2381.000000	0.003952
2380.000000	0.003976
2379.000000	0.004029
2378.000000	0.004096
2377.000000	0.004155
2376.000000	0.004188
2375.000000	0.004191
2374.000000	0.004181
2373.000000	0.004172
2372.000000	0.004162
2371.000000	0.004153
2370.000000	0.004160
2369.000000	0.004182
2368.000000	0.004194
2367.000000	0.004180
2366.000000	0.004160
2365.000000	0.004156
2364.000000	0.004169
2363.000000	0.004205
2362.000000	0.004279
2361.000000	0.004373
2360.000000	0.004438
2359.000000	0.004437
2358.000000	0.004381
2357.000000	0.004307
2356.000000	0.004254
2355.000000	0.004251
2354.000000	0.004272
2353.000000	0.004272
2352.000000	0.004243
2351.000000	0.004228
2350.000000	0.004252
2349.000000	0.004304
2348.000000	0.004352
2347.000000	0.004361
2346.000000	0.004334
2345.000000	0.004328
2344.000000	0.004376
2343.000000	0.004451
2342.000000	0.004498
2341.000000	0.004500
2340.000000	0.004488
2339.000000	0.004487
2338.000000	0.004483
2337.000000	0.004445
2336.000000	0.004382
2335.000000	0.004327
2334.000000	0.004296
2333.000000	0.004274
2332.000000	0.004268
2331.000000	0.004291
2330.000000	0.004355
2329.000000	0.004440
2328.000000	0.004540
2327.000000	0.004650
2326.000000	0.004765
2325.000000	0.004859
2324.000000	0.004914
2323.000000	0.004918
2322.000000	0.004878
2321.000000	0.004820
2320.000000	0.004780
2319.000000	0.004776
2318.000000	0.004805
2317.000000	0.004833
2316.000000	0.004825
2315.000000	0.004761
2314.000000	0.004666
2313.000000	0.004583
2312.000000	0.004541
2311.000000	0.004525
2310.000000	0.004515
2309.000000	0.004506
2308.000000	0.004504
2307.000000	0.004489
2306.000000	0.004443
2305.000000	0.004371
2304.000000	0.004309
2303.000000	0.004273
2302.000000	0.004259
2301.000000	0.004257
2300.000000	0.004279
2299.000000	0.004328
2298.000000	0.004390
2297.000000	0.004433
2296.000000	0.004446
2295.000000	0.004437
2294.000000	0.004432
2293.000000	0.004444
2292.000000	0.004465
2291.000000	0.004481
2290.000000	0.004487
2289.000000	0.004503
2288.000000	0.004550
2287.000000	0.004619
2286.000000	0.004677
2285.000000	0.004701
2284.000000	0.004698
2283.000000	0.004684
2282.000000	0.004656
2281.000000	0.004603
2280.000000	0.004526
2279.000000	0.004448
2278.000000	0.004392
2277.000000	0.004356
2276.000000	0.004317
2275.000000	0.004254
2274.000000	0.004180
2273.000000	0.004129
2272.000000	0.004123
2271.000000	0.004148
2270.000000	0.004183
2269.000000	0.004219
2268.000000	0.004251
2267.000000	0.004256
2266.000000	0.004209
2265.000000	0.004127
2264.000000	0.004075
2263.000000	0.004104
2262.000000	0.004209
2261.000000	0.004334
2260.000000	0.004423
2259.000000	0.004453
2258.000000	0.004425
2257.000000	0.004358
2256.000000	0.004273
2255.000000	0.004188
2254.000000	0.004122
2253.000000	0.004078
2252.000000	0.004048
2251.000000	0.004016
2250.000000	0.003982
2249.000000	0.003962
2248.000000	0.003967
2247.000000	0.003981
2246.000000	0.003982
2245.000000	0.003972
2244.000000	0.003983
2243.000000	0.004039
2242.000000	0.004124
2241.000000	0.004197
2240.000000	0.004233
2239.000000	0.004241
2238.000000	0.004239
2237.000000	0.004226
2236.000000	0.004187
2235.000000	0.004131
2234.000000	0.004101
2233.000000	0.004131
2232.000000	0.004207
2231.000000	0.004275
2230.000000	0.004290
2229.000000	0.004236
2228.000000	0.004122
2227.000000	0.003981
2226.000000	0.003878
2225.000000	0.003864
2224.000000	0.003923
2223.000000	0.003979
2222.000000	0.003980
2221.000000	0.003954
2220.000000	0.003951
2219.000000	0.003969
2218.000000	0.003957
2217.000000	0.003893
2216.000000	0.003817
2215.000000	0.003777
2214.000000	0.003780
2213.000000	0.003787
2212.000000	0.003755
2211.000000	0.003669
2210.000000	0.003565
2209.000000	0.003504
2208.000000	0.003524
2207.000000	0.003607
2206.000000	0.003701
2205.000000	0.003764
2204.000000	0.003781
2203.000000	0.003752
2202.000000	0.003687
2201.000000	0.003604
2200.000000	0.003523
2199.000000	0.003464
2198.000000	0.003454
2197.000000	0.003501
2196.000000	0.003572
2195.000000	0.003613
2194.000000	0.003615
2193.000000	0.003630
2192.000000	0.003704
2191.000000	0.003818
2190.000000	0.003923
2189.000000	0.003998
2188.000000	0.004036
2187.000000	0.004011
2186.000000	0.003921
2185.000000	0.003824
2184.000000	0.003787
2183.000000	0.003789
2182.000000	0.003737
2181.000000	0.003608
2180.000000	0.003487
2179.000000	0.003453
2178.000000	0.003481
2177.000000	0.003507
2176.000000	0.003514
2175.000000	0.003523
2174.000000	0.003521
2173.000000	0.003473
2172.000000	0.003405
2171.000000	0.003418
2170.000000	0.003586
2169.000000	0.003868
2168.000000	0.004122
2167.000000	0.004213
2166.000000	0.004117
2165.000000	0.003945
2164.000000	0.003873
2163.000000	0.004002
2162.000000	0.004263
2161.000000	0.004428
2160.000000	0.004258
2159.000000	0.003696
2158.000000	0.002961
2157.000000	0.002389
2156.000000	0.002161
2155.000000	0.002223
2154.000000	0.002424
2153.000000	0.002668
2152.000000	0.002925
2151.000000	0.003153
2150.000000	0.003262
2149.000000	0.003178
2148.000000	0.002942
2147.000000	0.002694
2146.000000	0.002560
2145.000000	0.002568
2144.000000	0.002681
2143.000000	0.002872
2142.000000	0.003125
2141.000000	0.003384
2140.000000	0.003552
2139.000000	0.003561
2138.000000	0.003432
2137.000000	0.003242
2136.000000	0.003054
2135.000000	0.002890
2134.000000	0.002766
2133.000000	0.002715
2132.000000	0.002756
2131.000000	0.002853
2130.000000	0.002941
2129.000000	0.002992
2128.000000	0.003044
2127.000000	0.003144
2126.000000	0.003289
2125.000000	0.003427
2124.000000	0.003535
2123.000000	0.003644
2122.000000	0.003789
2121.000000	0.003945
2120.000000	0.004050
2119.000000	0.004077
2118.000000	0.004056
2117.000000	0.004029
2116.000000	0.004015
2115.000000	0.004001
2114.000000	0.003968
2113.000000	0.003898
2112.000000	0.003795
2111.000000	0.003705
2110.000000	0.003684
2109.000000	0.003742
2108.000000	0.003815
2107.000000	0.003829
2106.000000	0.003768
2105.000000	0.003689
2104.000000	0.003671
2103.000000	0.003744
2102.000000	0.003865
2101.000000	0.003944
2100.000000	0.003921
2099.000000	0.003829
2098.000000	0.003747
2097.000000	0.003717
2096.000000	0.003715
2095.000000	0.003709
2094.000000	0.003705
2093.000000	0.003724
2092.000000	0.003765
2091.000000	0.003810
2090.000000	0.003851
2089.000000	0.003878
2088.000000	0.003884
2087.000000	0.003885
2086.000000	0.003920
2085.000000	0.003992
2084.000000	0.004047
2083.000000	0.004041
2082.000000	0.003999
2081.000000	0.003970
2080.000000	0.003955
2079.000000	0.003932
2078.000000	0.003912
2077.000000	0.003931
2076.000000	0.003973
2075.000000	0.003982
2074.000000	0.003937
2073.000000	0.003869
2072.000000	0.003799
2071.000000	0.003708
2070.000000	0.003592
2069.000000	0.003503
2068.000000	0.003494
2067.000000	0.003564
2066.000000	0.003673
2065.000000	0.003774
2064.000000	0.003819
2063.000000	0.003781
2062.000000	0.003678
2061.000000	0.003565
2060.000000	0.003479
2059.000000	0.003426
2058.000000	0.003415
2057.000000	0.003463
2056.000000	0.003568
2055.000000	0.003710
2054.000000	0.003897
2053.000000	0.004144
2052.000000	0.004390
2051.000000	0.004497
2050.000000	0.004362
2049.000000	0.004037
2048.000000	0.003702
2047.000000	0.003515
2046.000000	0.003497
2045.000000	0.003559
2044.000000	0.003577
2043.000000	0.003474
2042.000000	0.003267
2041.000000	0.003053
2040.000000	0.002931
2039.000000	0.002937
2038.000000	0.003036
2037.000000	0.003148
2036.000000	0.003161
2035.000000	0.003019
2034.000000	0.002773
2033.000000	0.002531
2032.000000	0.002337
2031.000000	0.002179
2030.000000	0.002078
2029.000000	0.002088
2028.000000	0.002182
2027.000000	0.002258
2026.000000	0.002273
2025.000000	0.002273
2024.000000	0.002284
2023.000000	0.002275
2022.000000	0.002264
2021.000000	0.002335
2020.000000	0.002486
2019.000000	0.002579
2018.000000	0.002525
2017.000000	0.002431
2016.000000	0.002467
2015.000000	0.002615
2014.000000	0.002691
2013.000000	0.002578
2012.000000	0.002352
2011.000000	0.002192
2010.000000	0.002211
2009.000000	0.002397
2008.000000	0.002645
2007.000000	0.002846
2006.000000	0.002942
2005.000000	0.002911
2004.000000	0.002758
2003.000000	0.002536
2002.000000	0.002362
2001.000000	0.002350
2000.000000	0.002501
1999.000000	0.002708
1998.000000	0.002891
1997.000000	0.003059
1996.000000	0.003232
1995.000000	0.003375
1994.000000	0.003432
1993.000000	0.003401
1992.000000	0.003336
1991.000000	0.003293
1990.000000	0.003299
1989.000000	0.003348
1988.000000	0.003403
1987.000000	0.003412
1986.000000	0.003363
1985.000000	0.003308
1984.000000	0.003308
1983.000000	0.003364
1982.000000	0.003416
1981.000000	0.003392
1980.000000	0.003242
1979.000000	0.002981
1978.000000	0.002713
1977.000000	0.002580
1976.000000	0.002626
1975.000000	0.002760
1974.000000	0.002876
1973.000000	0.002934
1972.000000	0.002928
1971.000000	0.002856
1970.000000	0.002758
1969.000000	0.002727
1968.000000	0.002812
1967.000000	0.002944
1966.000000	0.002995
1965.000000	0.002907
1964.000000	0.002719
1963.000000	0.002497
1962.000000	0.002295
1961.000000	0.002134
1960.000000	0.002016
1959.000000	0.001950
1958.000000	0.001976
1957.000000	0.002126
1956.000000	0.002370
1955.000000	0.002610
1954.000000	0.002761
1953.000000	0.002799
1952.000000	0.002768
1951.000000	0.002737
1950.000000	0.002746
1949.000000	0.002781
1948.000000	0.002797
1947.000000	0.002789
1946.000000	0.002803
1945.000000	0.002868
1944.000000	0.002926
1943.000000	0.002898
1942.000000	0.002801
1941.000000	0.002739
1940.000000	0.002762
1939.000000	0.002823
1938.000000	0.002864
1937.000000	0.002878
1936.000000	0.002873
1935.000000	0.002847
1934.000000	0.002804
1933.000000	0.002781
1932.000000	0.002803
1931.000000	0.002852
1930.000000	0.002888
1929.000000	0.002892
1928.000000	0.002871
1927.000000	0.002843
1926.000000	0.002817
1925.000000	0.002802
1924.000000	0.002804
1923.000000	0.002837
1922.000000	0.002915
1921.000000	0.003029
1920.000000	0.003134
1919.000000	0.003171
1918.000000	0.003119
1917.000000	0.003028
1916.000000	0.002966
1915.000000	0.002961
1914.000000	0.002998
1913.000000	0.003042
1912.000000	0.003055
1911.000000	0.003018
1910.000000	0.002957
1909.000000	0.002917
1908.000000	0.002915
1907.000000	0.002928
1906.000000	0.002933
1905.000000	0.002926
1904.000000	0.002907
1903.000000	0.002870
1902.000000	0.002836
1901.000000	0.002852
1900.000000	0.002939
1899.000000	0.003046
1898.000000	0.003103
1897.000000	0.003084
1896.000000	0.003025
1895.000000	0.002979
1894.000000	0.002963
1893.000000	0.002949
1892.000000	0.002899
1891.000000	0.002808
1890.000000	0.002732
1889.000000	0.002737
1888.000000	0.002816
1887.000000	0.002891
1886.000000	0.002907
1885.000000	0.002882
1884.000000	0.002866
1883.000000	0.002868
1882.000000	0.002859
1881.000000	0.002834
1880.000000	0.002819
1879.000000	0.002821
1878.000000	0.002820
1877.000000	0.002795
1876.000000	0.002761
1875.000000	0.002740
1874.000000	0.002737
1873.000000	0.002732
1872.000000	0.002708
1871.000000	0.002668
1870.000000	0.002640
1869.000000	0.002639
1868.000000	0.002653
1867.000000	0.002667
1866.000000	0.002683
1865.000000	0.002713
1864.000000	0.002746
1863.000000	0.002752
1862.000000	0.002710
1861.000000	0.002637
1860.000000	0.002571
1859.000000	0.002535
1858.000000	0.002528
1857.000000	0.002545
1856.000000	0.002576
1855.000000	0.002601
1854.000000	0.002605
1853.000000	0.002593
1852.000000	0.002580
1851.000000	0.002559
1850.000000	0.002513
1849.000000	0.002443
1848.000000	0.002378
1847.000000	0.002345
1846.000000	0.002347
1845.000000	0.002375
1844.000000	0.002411
1843.000000	0.002431
1842.000000	0.002424
1841.000000	0.002399
1840.000000	0.002367
1839.000000	0.002339
1838.000000	0.002333
1837.000000	0.002352
1836.000000	0.002383
1835.000000	0.002397
1834.000000	0.002383
1833.000000	0.002354
1832.000000	0.002321
1831.000000	0.002299
1830.000000	0.002301
1829.000000	0.002328
1828.000000	0.002355
1827.000000	0.002356
1826.000000	0.002334
1825.000000	0.002316
1824.000000	0.002321
1823.000000	0.002339
1822.000000	0.002349
1821.000000	0.002342
1820.000000	0.002317
1819.000000	0.002282
1818.000000	0.002252
1817.000000	0.002242
1816.000000	0.002246
1815.000000	0.002242
1814.000000	0.002214
1813.000000	0.002179
1812.000000	0.002170
1811.000000	0.002205
1810.000000	0.002270
1809.000000	0.002332
1808.000000	0.002382
1807.000000	0.002430
1806.000000	0.002482
1805.000000	0.002527
1804.000000	0.002557
1803.000000	0.002592
1802.000000	0.002672
1801.000000	0.002806
1800.000000	0.002952
1799.000000	0.003053
1798.000000	0.003090
1797.000000	0.003079
1796.000000	0.003050
1795.000000	0.003010
1794.000000	0.002946
1793.000000	0.002856
1792.000000	0.002768
1791.000000	0.002708
1790.000000	0.002665
1789.000000	0.002609
1788.000000	0.002524
1787.000000	0.002420
1786.000000	0.002327
1785.000000	0.002268
1784.000000	0.002238
1783.000000	0.002221
1782.000000	0.002213
1781.000000	0.002225
1780.000000	0.002261
1779.000000	0.002298
1778.000000	0.002305
1777.000000	0.002276
1776.000000	0.002228
1775.000000	0.002183
1774.000000	0.002159
1773.000000	0.002180
1772.000000	0.002241
1771.000000	0.002283
1770.000000	0.002277
1769.000000	0.002262
1768.000000	0.002281
1767.000000	0.002345
1766.000000	0.002430
1765.000000	0.002512
1764.000000	0.002591
1763.000000	0.002686
1762.000000	0.002833
1761.000000	0.003053
1760.000000	0.003322
1759.000000	0.003621
1758.000000	0.003979
1757.000000	0.004456
1756.000000	0.005040
1755.000000	0.005636
1754.000000	0.006203
1753.000000	0.006804
1752.000000	0.007521
1751.000000	0.008338
1750.000000	0.009153
1749.000000	0.009921
1748.000000	0.010634
1747.000000	0.011257
1746.000000	0.011780
1745.000000	0.012244
1744.000000	0.012673
1743.000000	0.013030
1742.000000	0.013301
1741.000000	0.013527
1740.000000	0.013713
1739.000000	0.013776
1738.000000	0.013665
1737.000000	0.013428
1736.000000	0.013124
1735.000000	0.012775
1734.000000	0.012392
1733.000000	0.011970
1732.000000	0.011476
1731.000000	0.010897
1730.000000	0.010258
1729.000000	0.009606
1728.000000	0.008973
1727.000000	0.008355
1726.000000	0.007750
1725.000000	0.007180
1724.000000	0.006656
1723.000000	0.006165
1722.000000	0.005702
1721.000000	0.005273
1720.000000	0.004873
1719.000000	0.004496
1718.000000	0.004178
1717.000000	0.003940
1716.000000	0.003744
1715.000000	0.003565
1714.000000	0.003414
1713.000000	0.003297
1712.000000	0.003196
1711.000000	0.003087
1710.000000	0.002975
1709.000000	0.002877
1708.000000	0.002791
1707.000000	0.002712
1706.000000	0.002654
1705.000000	0.002626
1704.000000	0.002618
1703.000000	0.002620
1702.000000	0.002630
1701.000000	0.002639
1700.000000	0.002646
1699.000000	0.002646
1698.000000	0.002646
1697.000000	0.002656
1696.000000	0.002661
1695.000000	0.002667
1694.000000	0.002686
1693.000000	0.002720
1692.000000	0.002761
1691.000000	0.002791
1690.000000	0.002813
1689.000000	0.002849
1688.000000	0.002900
1687.000000	0.002944
1686.000000	0.002943
1685.000000	0.002904
1684.000000	0.002891
1683.000000	0.002925
1682.000000	0.002979
1681.000000	0.003040
1680.000000	0.003087
1679.000000	0.003103
1678.000000	0.003101
1677.000000	0.003108
1676.000000	0.003135
1675.000000	0.003168
1674.000000	0.003196
1673.000000	0.003224
1672.000000	0.003260
1671.000000	0.003297
1670.000000	0.003341
1669.000000	0.003404
1668.000000	0.003477
1667.000000	0.003530
1666.000000	0.003564
1665.000000	0.003596
1664.000000	0.003629
1663.000000	0.003662
1662.000000	0.003698
1661.000000	0.003744
1660.000000	0.003791
1659.000000	0.003818
1658.000000	0.003821
1657.000000	0.003826
1656.000000	0.003869
1655.000000	0.003941
1654.000000	0.003998
1653.000000	0.004019
1652.000000	0.004030
1651.000000	0.003988
1650.000000	0.003929
1649.000000	0.003911
1648.000000	0.003943
1647.000000	0.003982
1646.000000	0.003990
1645.000000	0.003988
1644.000000	0.003990
1643.000000	0.003994
1642.000000	0.003993
1641.000000	0.003974
1640.000000	0.003930
1639.000000	0.003879
1638.000000	0.003846
1637.000000	0.003833
1636.000000	0.003806
1635.000000	0.003746
1634.000000	0.003691
1633.000000	0.003675
1632.000000	0.003692
1631.000000	0.003707
1630.000000	0.003688
1629.000000	0.003636
1628.000000	0.003578
1627.000000	0.003536
1626.000000	0.003510
1625.000000	0.003490
1624.000000	0.003460
1623.000000	0.003408
1622.000000	0.003348
1621.000000	0.003305
1620.000000	0.003289
1619.000000	0.003285
1618.000000	0.003263
1617.000000	0.003207
1616.000000	0.003127
1615.000000	0.003035
1614.000000	0.002953
1613.000000	0.002900
1612.000000	0.002868
1611.000000	0.002832
1610.000000	0.002790
1609.000000	0.002752
1608.000000	0.002714
1607.000000	0.002660
1606.000000	0.002597
1605.000000	0.002547
1604.000000	0.002517
1603.000000	0.002490
1602.000000	0.002454
1601.000000	0.002416
1600.000000	0.002386
1599.000000	0.002366
1598.000000	0.002352
1597.000000	0.002346
1596.000000	0.002341
1595.000000	0.002330
1594.000000	0.002320
1593.000000	0.002323
1592.000000	0.002334
1591.000000	0.002333
1590.000000	0.002316
1589.000000	0.002299
1588.000000	0.002294
1587.000000	0.002296
1586.000000	0.002296
1585.000000	0.002294
1584.000000	0.002285
1583.000000	0.002262
1582.000000	0.002229
1581.000000	0.002199
1580.000000	0.002185
1579.000000	0.002196
1578.000000	0.002230
1577.000000	0.002268
1576.000000	0.002283
1575.000000	0.002266
1574.000000	0.002242
1573.000000	0.002245
1572.000000	0.002264
1571.000000	0.002266
1570.000000	0.002249
1569.000000	0.002260
1568.000000	0.002306
1567.000000	0.002360
1566.000000	0.002411
1565.000000	0.002463
1564.000000	0.002505
1563.000000	0.002531
1562.000000	0.002549
1561.000000	0.002569
1560.000000	0.002611
1559.000000	0.002701
1558.000000	0.002761
1557.000000	0.002821
1556.000000	0.002900
1555.000000	0.003003
1554.000000	0.003133
1553.000000	0.003265
1552.000000	0.003375
1551.000000	0.003481
1550.000000	0.003621
1549.000000	0.003797
1548.000000	0.003955
1547.000000	0.004062
1546.000000	0.004157
1545.000000	0.004309
1544.000000	0.004516
1543.000000	0.004719
1542.000000	0.004910
1541.000000	0.005153
1540.000000	0.005476
1539.000000	0.005780
1538.000000	0.005982
1537.000000	0.006115
1536.000000	0.006240
1535.000000	0.006407
1534.000000	0.006655
1533.000000	0.006968
1532.000000	0.007258
1531.000000	0.007484
1530.000000	0.007666
1529.000000	0.007830
1528.000000	0.008005
1527.000000	0.008213
1526.000000	0.008459
1525.000000	0.008705
1524.000000	0.008906
1523.000000	0.009065
1522.000000	0.009253
1521.000000	0.009492
1520.000000	0.009707
1519.000000	0.009870
1518.000000	0.010056
1517.000000	0.010319
1516.000000	0.010604
1515.000000	0.010827
1514.000000	0.011002
1513.000000	0.011181
1512.000000	0.011368
1511.000000	0.011531
1510.000000	0.011665
1509.000000	0.011827
1508.000000	0.012092
1507.000000	0.012469
1506.000000	0.012857
1505.000000	0.013158
1504.000000	0.013325
1503.000000	0.013426
1502.000000	0.013548
1501.000000	0.013717
1500.000000	0.013899
1499.000000	0.014067
1498.000000	0.014283
1497.000000	0.014615
1496.000000	0.014990
1495.000000	0.015269
1494.000000	0.015432
1493.000000	0.015540
1492.000000	0.015654
1491.000000	0.015831
1490.000000	0.016107
1489.000000	0.016426
1488.000000	0.016702
1487.000000	0.016916
1486.000000	0.017095
1485.000000	0.017261
1484.000000	0.017415
1483.000000	0.017566
1482.000000	0.017743
1481.000000	0.017946
1480.000000	0.018124
1479.000000	0.018246
1478.000000	0.018350
1477.000000	0.018494
1476.000000	0.018677
1475.000000	0.018872
1474.000000	0.019118
1473.000000	0.019472
1472.000000	0.019863
1471.000000	0.020169
1470.000000	0.020391
1469.000000	0.020575
1468.000000	0.020737
1467.000000	0.020887
1466.000000	0.021066
1465.000000	0.021295
1464.000000	0.021510
1463.000000	0.021639
1462.000000	0.021692
1461.000000	0.021711
1460.000000	0.021725
1459.000000	0.021793
1458.000000	0.022069
1457.000000	0.022598
1456.000000	0.023055
1455.000000	0.023226
1454.000000	0.023256
1453.000000	0.023312
1452.000000	0.023430
1451.000000	0.023564
1450.000000	0.023700
1449.000000	0.023873
1448.000000	0.024095
1447.000000	0.024324
1446.000000	0.024540
1445.000000	0.024755
1444.000000	0.024975
1443.000000	0.025200
1442.000000	0.025440
1441.000000	0.025690
1440.000000	0.025912
1439.000000	0.026108
1438.000000	0.026400
1437.000000	0.026940
1436.000000	0.027609
1435.000000	0.028104
1434.000000	0.028387
1433.000000	0.028601
1432.000000	0.028832
1431.000000	0.029100
1430.000000	0.029435
1429.000000	0.029851
1428.000000	0.030271
1427.000000	0.030603
1426.000000	0.030874
1425.000000	0.031169
1424.000000	0.031465
1423.000000	0.031632
1422.000000	0.031657
1421.000000	0.031674
1420.000000	0.031815
1419.000000	0.032085
1418.000000	0.032343
1417.000000	0.032499
1416.000000	0.032547
1415.000000	0.032506
1414.000000	0.032420
1413.000000	0.032338
1412.000000	0.032254
1411.000000	0.032120
1410.000000	0.031922
1409.000000	0.031684
1408.000000	0.031407
1407.000000	0.031094
1406.000000	0.030804
1405.000000	0.030601
1404.000000	0.030458
1403.000000	0.030303
1402.000000	0.030139
1401.000000	0.030031
1400.000000	0.030020
1399.000000	0.030057
1398.000000	0.030069
1397.000000	0.030050
1396.000000	0.030032
1395.000000	0.030028
1394.000000	0.030027
1393.000000	0.030012
1392.000000	0.029944
1391.000000	0.029799
1390.000000	0.029601
1389.000000	0.029400
1388.000000	0.029233
1387.000000	0.029092
1386.000000	0.028959
1385.000000	0.028821
1384.000000	0.028663
1383.000000	0.028479
1382.000000	0.028287
1381.000000	0.028094
1380.000000	0.027876
1379.000000	0.027608
1378.000000	0.027298
1377.000000	0.026968
1376.000000	0.026627
1375.000000	0.026277
1374.000000	0.025939
1373.000000	0.025623
1372.000000	0.025314
1371.000000	0.024997
1370.000000	0.024686
1369.000000	0.024407
1368.000000	0.024152
1367.000000	0.023887
1366.000000	0.023600
1365.000000	0.023302
1364.000000	0.023019
1363.000000	0.022769
1362.000000	0.022555
1361.000000	0.022365
1360.000000	0.022184
1359.000000	0.022012
1358.000000	0.021858
1357.000000	0.021717
1356.000000	0.021564
1355.000000	0.021389
1354.000000	0.021198
1353.000000	0.020990
1352.000000	0.020753
1351.000000	0.020495
1350.000000	0.020247
1349.000000	0.020031
1348.000000	0.019841
1347.000000	0.019662
1346.000000	0.019499
1345.000000	0.019357
1344.000000	0.019223
1343.000000	0.019080
1342.000000	0.018938
1341.000000	0.018828
1340.000000	0.018774
1339.000000	0.018769
1338.000000	0.018786
1337.000000	0.018800
1336.000000	0.018788
1335.000000	0.018735
1334.000000	0.018638
1333.000000	0.018497
1332.000000	0.018317
1331.000000	0.018117
1330.000000	0.017925
1329.000000	0.017744
1328.000000	0.017553
1327.000000	0.017342
1326.000000	0.017126
1325.000000	0.016919
1324.000000	0.016719
1323.000000	0.016516
1322.000000	0.016313
1321.000000	0.016121
1320.000000	0.015939
1319.000000	0.015756
1318.000000	0.015565
1317.000000	0.015364
1316.000000	0.015149
1315.000000	0.014928
1314.000000	0.014726
1313.000000	0.014554
1312.000000	0.014394
1311.000000	0.014219
1310.000000	0.014027
1309.000000	0.013833
1308.000000	0.013649
1307.000000	0.013473
1306.000000	0.013296
1305.000000	0.013114
1304.000000	0.012919
1303.000000	0.012714
1302.000000	0.012508
1301.000000	0.012308
1300.000000	0.012108
1299.000000	0.011906
1298.000000	0.011706
1297.000000	0.011514
1296.000000	0.011327
1295.000000	0.011142
1294.000000	0.010969
1293.000000	0.010819
1292.000000	0.010693
1291.000000	0.010587
1290.000000	0.010488
1289.000000	0.010381
1288.000000	0.010261
1287.000000	0.010139
1286.000000	0.010024
1285.000000	0.009911
1284.000000	0.009788
1283.000000	0.009657
1282.000000	0.009534
1281.000000	0.009429
1280.000000	0.009334
1279.000000	0.009250
1278.000000	0.009190
1277.000000	0.009164
1276.000000	0.009166
1275.000000	0.009190
1274.000000	0.009235
1273.000000	0.009308
1272.000000	0.009415
1271.000000	0.009555
1270.000000	0.009724
1269.000000	0.009915
1268.000000	0.010121
1267.000000	0.010336
1266.000000	0.010559
1265.000000	0.010780
1264.000000	0.010984
1263.000000	0.011163
1262.000000	0.011333
1261.000000	0.011516
1260.000000	0.011719
1259.000000	0.011927
1258.000000	0.012126
1257.000000	0.012297
1256.000000	0.012421
1255.000000	0.012480
1254.000000	0.012478
1253.000000	0.012437
1252.000000	0.012378
1251.000000	0.012316
1250.000000	0.012257
1249.000000	0.012202
1248.000000	0.012147
1247.000000	0.012092
1246.000000	0.012045
1245.000000	0.012012
1244.000000	0.011990
1243.000000	0.011964
1242.000000	0.011919
1241.000000	0.011845
1240.000000	0.011745
1239.000000	0.011628
1238.000000	0.011499
1237.000000	0.011353
1236.000000	0.011186
1235.000000	0.011006
1234.000000	0.010825
1233.000000	0.010646
1232.000000	0.010456
1231.000000	0.010248
1230.000000	0.010025
1229.000000	0.009787
1228.000000	0.009518
1227.000000	0.009209
1226.000000	0.008867
1225.000000	0.008512
1224.000000	0.008162
1223.000000	0.007826
1222.000000	0.007512
1221.000000	0.007224
1220.000000	0.006969
1219.000000	0.006754
1218.000000	0.006580
1217.000000	0.006427
1216.000000	0.006270
1215.000000	0.006105
1214.000000	0.005946
1213.000000	0.005804
1212.000000	0.005680
1211.000000	0.005578
1210.000000	0.005505
1209.000000	0.005461
1208.000000	0.005434
1207.000000	0.005413
1206.000000	0.005401
1205.000000	0.005405
1204.000000	0.005428
1203.000000	0.005467
1202.000000	0.005512
1201.000000	0.005552
1200.000000	0.005582
1199.000000	0.005609
1198.000000	0.005652
1197.000000	0.005727
1196.000000	0.005834
1195.000000	0.005964
1194.000000	0.006100
1193.000000	0.006225
1192.000000	0.006341
1191.000000	0.006463
1190.000000	0.006608
1189.000000	0.006769
1188.000000	0.006928
1187.000000	0.007085
1186.000000	0.007258
1185.000000	0.007461
1184.000000	0.007687
1183.000000	0.007920
1182.000000	0.008166
1181.000000	0.008444
1180.000000	0.008763
1179.000000	0.009110
1178.000000	0.009458
1177.000000	0.009787
1176.000000	0.010096
1175.000000	0.010396
1174.000000	0.010693
1173.000000	0.010983
1172.000000	0.011262
1171.000000	0.011534
1170.000000	0.011808
1169.000000	0.012086
1168.000000	0.012357
1167.000000	0.012612
1166.000000	0.012839
1165.000000	0.013019
1164.000000	0.013133
1163.000000	0.013186
1162.000000	0.013198
1161.000000	0.013182
1160.000000	0.013130
1159.000000	0.013041
1158.000000	0.012938
1157.000000	0.012838
1156.000000	0.012729
1155.000000	0.012585
1154.000000	0.012395
1153.000000	0.012169
1152.000000	0.011918
1151.000000	0.011643
1150.000000	0.011340
1149.000000	0.011004
1148.000000	0.010632
1147.000000	0.010230
1146.000000	0.009812
1145.000000	0.009391
1144.000000	0.008973
1143.000000	0.008574
1142.000000	0.008205
1141.000000	0.007861
1140.000000	0.007527
1139.000000	0.007196
1138.000000	0.006886
1137.000000	0.006604
1136.000000	0.006346
1135.000000	0.006115
1134.000000	0.005923
1133.000000	0.005775
1132.000000	0.005648
1131.000000	0.005518
1130.000000	0.005385
1129.000000	0.005265
1128.000000	0.005173
1127.000000	0.005122
1126.000000	0.005123
1125.000000	0.005178
1124.000000	0.005271
1123.000000	0.005384
1122.000000	0.005516
1121.000000	0.005674
1120.000000	0.005859
1119.000000	0.006065
1118.000000	0.006292
1117.000000	0.006555
1116.000000	0.006869
1115.000000	0.007235
1114.000000	0.007635
1113.000000	0.008033
1112.000000	0.008394
1111.000000	0.008698
1110.000000	0.008946
1109.000000	0.009144
1108.000000	0.009296
1107.000000	0.009409
1106.000000	0.009506
1105.000000	0.009604
1104.000000	0.009701
1103.000000	0.009790
1102.000000	0.009884
1101.000000	0.010013
1100.000000	0.010189
1099.000000	0.010397
1098.000000	0.010607
1097.000000	0.010791
1096.000000	0.010925
1095.000000	0.010989
1094.000000	0.010975
1093.000000	0.010889
1092.000000	0.010745
1091.000000	0.010555
1090.000000	0.010329
1089.000000	0.010071
1088.000000	0.009777
1087.000000	0.009450
1086.000000	0.009095
1085.000000	0.008720
1084.000000	0.008334
1083.000000	0.007956
1082.000000	0.007614
1081.000000	0.007329
1080.000000	0.007104
1079.000000	0.006921
1078.000000	0.006762
1077.000000	0.006617
1076.000000	0.006481
1075.000000	0.006363
1074.000000	0.006273
1073.000000	0.006214
1072.000000	0.006182
1071.000000	0.006177
1070.000000	0.006209
1069.000000	0.006286
1068.000000	0.006409
1067.000000	0.006575
1066.000000	0.006776
1065.000000	0.006992
1064.000000	0.007200
1063.000000	0.007392
1062.000000	0.007576
1061.000000	0.007763
1060.000000	0.007946
1059.000000	0.008121
1058.000000	0.008298
1057.000000	0.008485
1056.000000	0.008671
1055.000000	0.008839
1054.000000	0.008991
1053.000000	0.009146
1052.000000	0.009310
1051.000000	0.009478
1050.000000	0.009647
1049.000000	0.009824
1048.000000	0.010019
1047.000000	0.010229
1046.000000	0.010448
1045.000000	0.010666
1044.000000	0.010863
1043.000000	0.011020
1042.000000	0.011140
1041.000000	0.011244
1040.000000	0.011351
1039.000000	0.011464
1038.000000	0.011571
1037.000000	0.011656
1036.000000	0.011716
1035.000000	0.011763
1034.000000	0.011812
1033.000000	0.011868
1032.000000	0.011914
1031.000000	0.011935
1030.000000	0.011934
1029.000000	0.011926
1028.000000	0.011913
1027.000000	0.011897
1026.000000	0.011890
1025.000000	0.011906
1024.000000	0.011933
1023.000000	0.011943
1022.000000	0.011921
1021.000000	0.011876
1020.000000	0.011822
1019.000000	0.011763
1018.000000	0.011699
1017.000000	0.011630
1016.000000	0.011546
1015.000000	0.011440
1014.000000	0.011329
1013.000000	0.011233
1012.000000	0.011146
1011.000000	0.011031
1010.000000	0.010866
1009.000000	0.010667
1008.000000	0.010471
1007.000000	0.010294
1006.000000	0.010129
1005.000000	0.009968
1004.000000	0.009814
1003.000000	0.009670
1002.000000	0.009535
1001.000000	0.009402
1000.000000	0.009271
999.000000	0.009149
998.000000	0.009044
997.000000	0.008959
996.000000	0.008884
995.000000	0.008802
994.000000	0.008701
993.000000	0.008585
992.000000	0.008477
991.000000	0.008406
990.000000	0.008380
989.000000	0.008381
988.000000	0.008378
987.000000	0.008353
986.000000	0.008312
985.000000	0.008265
984.000000	0.008212
983.000000	0.008149
982.000000	0.008075
981.000000	0.007996
980.000000	0.007917
979.000000	0.007845
978.000000	0.007793
977.000000	0.007771
976.000000	0.007773
975.000000	0.007783
974.000000	0.007792
973.000000	0.007803
972.000000	0.007811
971.000000	0.007802
970.000000	0.007770
969.000000	0.007720
968.000000	0.007659
967.000000	0.007584
966.000000	0.007492
965.000000	0.007385
964.000000	0.007272
963.000000	0.007157
962.000000	0.007037
961.000000	0.006914
960.000000	0.006789
959.000000	0.006655
958.000000	0.006500
957.000000	0.006322
956.000000	0.006138
955.000000	0.005970
954.000000	0.005819
953.000000	0.005659
952.000000	0.005477
951.000000	0.005292
950.000000	0.005137
949.000000	0.005017
948.000000	0.004906
947.000000	0.004777
946.000000	0.004631
945.000000	0.004489
944.000000	0.004364
943.000000	0.004251
942.000000	0.004139
941.000000	0.004023
940.000000	0.003907
939.000000	0.003791
938.000000	0.003672
937.000000	0.003551
936.000000	0.003440
935.000000	0.003357
934.000000	0.003306
933.000000	0.003272
932.000000	0.003231
931.000000	0.003177
930.000000	0.003124
929.000000	0.003089
928.000000	0.003082
927.000000	0.003094
926.000000	0.003107
925.000000	0.003098
924.000000	0.003056
923.000000	0.003001
922.000000	0.002958
921.000000	0.002936
920.000000	0.002927
919.000000	0.002918
918.000000	0.002907
917.000000	0.002894
916.000000	0.002870
915.000000	0.002829
914.000000	0.002783
913.000000	0.002750
912.000000	0.002737
911.000000	0.002730
910.000000	0.002712
909.000000	0.002683
908.000000	0.002651
907.000000	0.002619
906.000000	0.002576
905.000000	0.002516
904.000000	0.002449
903.000000	0.002394
902.000000	0.002357
901.000000	0.002334
900.000000	0.002321
899.000000	0.002324
898.000000	0.002348
897.000000	0.002396
896.000000	0.002460
895.000000	0.002532
894.000000	0.002603
893.000000	0.002673
892.000000	0.002762
891.000000	0.002897
890.000000	0.003107
889.000000	0.003437
888.000000	0.003968
887.000000	0.004793
886.000000	0.005929
885.000000	0.007270
884.000000	0.008649
883.000000	0.009968
882.000000	0.011262
881.000000	0.012654
880.000000	0.014237
879.000000	0.015995
878.000000	0.017812
877.000000	0.019526
876.000000	0.020977
875.000000	0.022022
874.000000	0.022537
873.000000	0.022432
872.000000	0.021689
871.000000	0.020401
870.000000	0.018778
869.000000	0.017060
868.000000	0.015431
867.000000	0.013974
866.000000	0.012702
865.000000	0.011607
864.000000	0.010679
863.000000	0.009901
862.000000	0.009224
861.000000	0.008588
860.000000	0.007955
859.000000	0.007340
858.000000	0.006769
857.000000	0.006247
856.000000	0.005770
855.000000	0.005355
854.000000	0.005022
853.000000	0.004767
852.000000	0.004575
851.000000	0.004469
850.000000	0.004475
849.000000	0.004548
848.000000	0.004559
847.000000	0.004395
846.000000	0.004057
845.000000	0.003635
844.000000	0.003228
843.000000	0.002897
842.000000	0.002678
841.000000	0.002562
840.000000	0.002487
839.000000	0.002385
838.000000	0.002253
837.000000	0.002153
836.000000	0.002138
835.000000	0.002187
834.000000	0.002243
833.000000	0.002271
832.000000	0.002274
831.000000	0.002258
830.000000	0.002222
829.000000	0.002171
828.000000	0.002126
827.000000	0.002106
826.000000	0.002116
825.000000	0.002163
824.000000	0.002281
823.000000	0.002523
822.000000	0.002941
821.000000	0.003552
820.000000	0.004336
819.000000	0.005223
818.000000	0.006091
817.000000	0.006799
816.000000	0.007227
815.000000	0.007318
814.000000	0.007090
813.000000	0.006622
812.000000	0.006028
811.000000	0.005418
810.000000	0.004865
809.000000	0.004401
808.000000	0.004040
807.000000	0.003791
806.000000	0.003646
805.000000	0.003556
804.000000	0.003464
803.000000	0.003365
802.000000	0.003298
801.000000	0.003295
800.000000	0.003326
799.000000	0.003338
798.000000	0.003315
797.000000	0.003281
796.000000	0.003259
795.000000	0.003237
794.000000	0.003197
793.000000	0.003140
792.000000	0.003081
791.000000	0.003024
790.000000	0.002959
789.000000	0.002884
788.000000	0.002816
787.000000	0.002787
786.000000	0.002823
785.000000	0.002923
784.000000	0.003054
783.000000	0.003165
782.000000	0.003230
781.000000	0.003264
780.000000	0.003302
779.000000	0.003364
778.000000	0.003435
777.000000	0.003487
776.000000	0.003502
775.000000	0.003479
774.000000	0.003430
773.000000	0.003372
772.000000	0.003329
771.000000	0.003315
770.000000	0.003328
769.000000	0.003353
768.000000	0.003367
767.000000	0.003357
766.000000	0.003323
765.000000	0.003285
764.000000	0.003269
763.000000	0.003298
762.000000	0.003387
761.000000	0.003533
760.000000	0.003709
759.000000	0.003871
758.000000	0.004000
757.000000	0.004132
756.000000	0.004332
755.000000	0.004618
754.000000	0.004928
753.000000	0.005189
752.000000	0.005387
751.000000	0.005562
750.000000	0.005730
749.000000	0.005868
748.000000	0.005941
747.000000	0.005950
746.000000	0.005913
745.000000	0.005843
744.000000	0.005750
743.000000	0.005645
742.000000	0.005538
741.000000	0.005434
740.000000	0.005340
739.000000	0.005247
738.000000	0.005139
737.000000	0.005019
736.000000	0.004932
735.000000	0.004921
734.000000	0.004978
733.000000	0.005048
732.000000	0.005089
731.000000	0.005091
730.000000	0.005045
729.000000	0.004943
728.000000	0.004804
727.000000	0.004675
726.000000	0.004583
725.000000	0.004513
724.000000	0.004440
723.000000	0.004368
722.000000	0.004326
721.000000	0.004351
720.000000	0.004485
719.000000	0.004783
718.000000	0.005302
717.000000	0.006090
716.000000	0.007167
715.000000	0.008471
714.000000	0.009785
713.000000	0.010765
712.000000	0.011109
711.000000	0.010759
710.000000	0.009936
709.000000	0.008987
708.000000	0.008189
707.000000	0.007642
706.000000	0.007302
705.000000	0.007079
704.000000	0.006895
703.000000	0.006717
702.000000	0.006559
701.000000	0.006462
700.000000	0.006477
699.000000	0.006605
698.000000	0.006779
697.000000	0.006918
696.000000	0.006980
695.000000	0.006981
694.000000	0.006948
693.000000	0.006888
692.000000	0.006818
691.000000	0.006748
690.000000	0.006655
689.000000	0.006510
688.000000	0.006345
687.000000	0.006242
686.000000	0.006213
685.000000	0.006164
684.000000	0.006020
683.000000	0.005826
682.000000	0.005668
681.000000	0.005570
680.000000	0.005508
679.000000	0.005464
678.000000	0.005411
677.000000	0.005325
676.000000	0.005206
675.000000	0.005075
674.000000	0.004927
673.000000	0.004721
672.000000	0.004430
671.000000	0.004059
670.000000	0.003604
669.000000	0.003101
668.000000	0.002830
667.000000	0.002968
666.000000	0.003094
665.000000	0.003143
664.000000	0.003159
663.000000	0.003091
662.000000	0.002928
661.000000	0.002724
660.000000	0.002527
659.000000	0.002327
658.000000	0.002120
657.000000	0.001977
656.000000	0.001958
655.000000	0.002042
654.000000	0.002179
653.000000	0.002346
652.000000	0.002512
651.000000	0.002641
650.000000	0.002739
649.000000	0.002855
648.000000	0.003000
647.000000	0.003128
646.000000	0.003239
645.000000	0.003384
644.000000	0.003570
643.000000	0.003734
642.000000	0.003830
641.000000	0.003889
640.000000	0.003959
639.000000	0.004038
638.000000	0.004107
637.000000	0.004156
636.000000	0.004172
635.000000	0.004138
634.000000	0.004074
633.000000	0.004021
632.000000	0.003986
631.000000	0.003947
630.000000	0.003907
629.000000	0.003895
628.000000	0.003893
627.000000	0.003844
626.000000	0.003740
625.000000	0.003638
624.000000	0.003573
623.000000	0.003534
622.000000	0.003515
621.000000	0.003535
620.000000	0.003595
619.000000	0.003676
618.000000	0.003769
617.000000	0.003872
616.000000	0.003962
615.000000	0.004006
614.000000	0.004024
613.000000	0.004059
612.000000	0.004102
611.000000	0.004105
610.000000	0.004083
609.000000	0.004122
608.000000	0.004256
607.000000	0.004402
606.000000	0.004472
605.000000	0.004454
604.000000	0.004374
603.000000	0.004237
602.000000	0.004044
601.000000	0.003822
600.000000	0.003596
599.000000	0.003361
598.000000	0.003123
597.000000	0.002921
596.000000	0.002782
595.000000	0.002686
594.000000	0.002607
593.000000	0.002551
592.000000	0.002549
591.000000	0.002618
590.000000	0.002748
589.000000	0.002903
588.000000	0.003021
587.000000	0.003058
586.000000	0.003058
585.000000	0.003113
584.000000	0.003241
583.000000	0.003353
582.000000	0.003387
581.000000	0.003390
580.000000	0.003453
579.000000	0.003590
578.000000	0.003750
577.000000	0.003901
576.000000	0.004029
575.000000	0.004114
574.000000	0.004157
573.000000	0.004193
572.000000	0.004246
571.000000	0.004298
570.000000	0.004324
569.000000	0.004326
568.000000	0.004284
567.000000	0.004157
566.000000	0.003957
565.000000	0.003761
564.000000	0.003611
563.000000	0.003461
562.000000	0.003279
561.000000	0.003107
560.000000	0.002998
559.000000	0.002937
558.000000	0.002885
557.000000	0.002825
556.000000	0.002727
555.000000	0.002540
554.000000	0.002298
553.000000	0.002146
552.000000	0.002178
551.000000	0.002311
550.000000	0.002398
549.000000	0.002407
548.000000	0.002396
547.000000	0.002357
546.000000	0.002223
545.000000	0.002029
544.000000	0.001924
543.000000	0.001985
542.000000	0.002131
541.000000	0.002233
540.000000	0.002259
539.000000	0.002257
538.000000	0.002279
537.000000	0.002341
536.000000	0.002434
535.000000	0.002531
534.000000	0.002613
533.000000	0.002703
532.000000	0.002863
531.000000	0.003117
530.000000	0.003409
529.000000	0.003665
528.000000	0.003869
527.000000	0.004049
526.000000	0.004220
525.000000	0.004373
524.000000	0.004520
523.000000	0.004697
522.000000	0.004920
521.000000	0.005131
520.000000	0.005232
519.000000	0.005199
518.000000	0.005128
517.000000	0.005117
516.000000	0.005124
515.000000	0.005051
514.000000	0.004922
513.000000	0.004853
512.000000	0.004888
511.000000	0.004952
510.000000	0.004995
509.000000	0.005079
508.000000	0.005275
507.000000	0.005542
506.000000	0.005772
505.000000	0.005917
504.000000	0.005990
503.000000	0.006003
502.000000	0.005968
501.000000	0.005917
500.000000	0.005850
499.000000	0.005723
498.000000	0.005551
497.000000	0.005436
496.000000	0.005430
495.000000	0.005462
494.000000	0.005452
493.000000	0.005429
492.000000	0.005448
491.000000	0.005468
490.000000	0.005427
489.000000	0.005343
488.000000	0.005235
487.000000	0.005027
486.000000	0.004642
485.000000	0.004172
484.000000	0.003824
483.000000	0.003709
482.000000	0.003793
481.000000	0.004004
480.000000	0.004248
479.000000	0.004389
478.000000	0.004360
477.000000	0.004259
476.000000	0.004210
475.000000	0.004173
474.000000	0.004067
473.000000	0.003972
472.000000	0.004035
471.000000	0.004206
470.000000	0.004317
469.000000	0.004355
468.000000	0.004400
467.000000	0.004418
466.000000	0.004341
465.000000	0.004258
464.000000	0.004307
463.000000	0.004403
462.000000	0.004273
461.000000	0.003826
460.000000	0.003241
459.000000	0.002714
458.000000	0.002345
457.000000	0.002179
456.000000	0.002184
455.000000	0.002595
454.000000	0.002464
453.000000	0.002339
452.000000	0.002297
451.000000	0.002353
450.000000	0.002374
