PE IR       SUBTECH     SPECTRUM    ASCII       PEDS        4.00        
   -1
P12-Vert013_1.ASC
23/06/08
16:16:33.00
23/06/08
16:23:55.00
uco
Sample 013 By uco Date Thursday, June 08 2023
450.000000
#HDR
-1
-1
#GR
cm-1
A
1.0
0.0
4000.000000
-1.000000
3551
8
0.044437
0.001195
#DATA
4000.000000	0.001621
3999.000000	0.001646
3998.000000	0.001673
3997.000000	0.001648
3996.000000	0.001638
3995.000000	0.001624
3994.000000	0.001621
3993.000000	0.001635
3992.000000	0.001661
3991.000000	0.001688
3990.000000	0.001707
3989.000000	0.001716
3988.000000	0.001714
3987.000000	0.001700
3986.000000	0.001677
3985.000000	0.001652
3984.000000	0.001637
3983.000000	0.001641
3982.000000	0.001664
3981.000000	0.001696
3980.000000	0.001719
3979.000000	0.001724
3978.000000	0.001711
3977.000000	0.001694
3976.000000	0.001684
3975.000000	0.001685
3974.000000	0.001692
3973.000000	0.001698
3972.000000	0.001702
3971.000000	0.001707
3970.000000	0.001713
3969.000000	0.001718
3968.000000	0.001720
3967.000000	0.001721
3966.000000	0.001720
3965.000000	0.001720
3964.000000	0.001720
3963.000000	0.001722
3962.000000	0.001726
3961.000000	0.001734
3960.000000	0.001743
3959.000000	0.001748
3958.000000	0.001746
3957.000000	0.001736
3956.000000	0.001724
3955.000000	0.001715
3954.000000	0.001712
3953.000000	0.001718
3952.000000	0.001733
3951.000000	0.001756
3950.000000	0.001776
3949.000000	0.001785
3948.000000	0.001777
3947.000000	0.001761
3946.000000	0.001744
3945.000000	0.001730
3944.000000	0.001720
3943.000000	0.001719
3942.000000	0.001731
3941.000000	0.001760
3940.000000	0.001795
3939.000000	0.001821
3938.000000	0.001828
3937.000000	0.001819
3936.000000	0.001807
3935.000000	0.001802
3934.000000	0.001802
3933.000000	0.001799
3932.000000	0.001787
3931.000000	0.001771
3930.000000	0.001761
3929.000000	0.001764
3928.000000	0.001772
3927.000000	0.001780
3926.000000	0.001785
3925.000000	0.001784
3924.000000	0.001779
3923.000000	0.001775
3922.000000	0.001778
3921.000000	0.001789
3920.000000	0.001804
3919.000000	0.001817
3918.000000	0.001820
3917.000000	0.001805
3916.000000	0.001778
3915.000000	0.001750
3914.000000	0.001726
3913.000000	0.001708
3912.000000	0.001699
3911.000000	0.001701
3910.000000	0.001711
3909.000000	0.001720
3908.000000	0.001714
3907.000000	0.001696
3906.000000	0.001680
3905.000000	0.001681
3904.000000	0.001702
3903.000000	0.001731
3902.000000	0.001752
3901.000000	0.001758
3900.000000	0.001749
3899.000000	0.001738
3898.000000	0.001737
3897.000000	0.001752
3896.000000	0.001771
3895.000000	0.001784
3894.000000	0.001786
3893.000000	0.001784
3892.000000	0.001788
3891.000000	0.001800
3890.000000	0.001822
3889.000000	0.001847
3888.000000	0.001866
3887.000000	0.001870
3886.000000	0.001855
3885.000000	0.001831
3884.000000	0.001810
3883.000000	0.001787
3882.000000	0.001754
3881.000000	0.001715
3880.000000	0.001696
3879.000000	0.001717
3878.000000	0.001770
3877.000000	0.001819
3876.000000	0.001839
3875.000000	0.001826
3874.000000	0.001806
3873.000000	0.001806
3872.000000	0.001832
3871.000000	0.001854
3870.000000	0.001842
3869.000000	0.001807
3868.000000	0.001784
3867.000000	0.001785
3866.000000	0.001784
3865.000000	0.001761
3864.000000	0.001731
3863.000000	0.001723
3862.000000	0.001748
3861.000000	0.001790
3860.000000	0.001830
3859.000000	0.001857
3858.000000	0.001871
3857.000000	0.001874
3856.000000	0.001873
3855.000000	0.001868
3854.000000	0.001863
3853.000000	0.001850
3852.000000	0.001828
3851.000000	0.001813
3850.000000	0.001808
3849.000000	0.001810
3848.000000	0.001817
3847.000000	0.001830
3846.000000	0.001849
3845.000000	0.001865
3844.000000	0.001870
3843.000000	0.001864
3842.000000	0.001861
3841.000000	0.001869
3840.000000	0.001881
3839.000000	0.001884
3838.000000	0.001875
3837.000000	0.001866
3836.000000	0.001865
3835.000000	0.001870
3834.000000	0.001872
3833.000000	0.001861
3832.000000	0.001836
3831.000000	0.001811
3830.000000	0.001804
3829.000000	0.001817
3828.000000	0.001839
3827.000000	0.001857
3826.000000	0.001867
3825.000000	0.001879
3824.000000	0.001896
3823.000000	0.001898
3822.000000	0.001862
3821.000000	0.001799
3820.000000	0.001755
3819.000000	0.001760
3818.000000	0.001795
3817.000000	0.001812
3816.000000	0.001786
3815.000000	0.001749
3814.000000	0.001745
3813.000000	0.001778
3812.000000	0.001814
3811.000000	0.001831
3810.000000	0.001830
3809.000000	0.001825
3808.000000	0.001821
3807.000000	0.001810
3806.000000	0.001799
3805.000000	0.001807
3804.000000	0.001845
3803.000000	0.001887
3802.000000	0.001890
3801.000000	0.001843
3800.000000	0.001786
3799.000000	0.001755
3798.000000	0.001753
3797.000000	0.001762
3796.000000	0.001765
3795.000000	0.001763
3794.000000	0.001764
3793.000000	0.001771
3792.000000	0.001781
3791.000000	0.001793
3790.000000	0.001804
3789.000000	0.001813
3788.000000	0.001818
3787.000000	0.001817
3786.000000	0.001810
3785.000000	0.001795
3784.000000	0.001778
3783.000000	0.001772
3782.000000	0.001780
3781.000000	0.001799
3780.000000	0.001813
3779.000000	0.001810
3778.000000	0.001790
3777.000000	0.001761
3776.000000	0.001729
3775.000000	0.001702
3774.000000	0.001691
3773.000000	0.001704
3772.000000	0.001735
3771.000000	0.001760
3770.000000	0.001753
3769.000000	0.001716
3768.000000	0.001672
3767.000000	0.001644
3766.000000	0.001643
3765.000000	0.001666
3764.000000	0.001702
3763.000000	0.001736
3762.000000	0.001752
3761.000000	0.001741
3760.000000	0.001713
3759.000000	0.001685
3758.000000	0.001672
3757.000000	0.001672
3756.000000	0.001684
3755.000000	0.001708
3754.000000	0.001744
3753.000000	0.001790
3752.000000	0.001835
3751.000000	0.001859
3750.000000	0.001844
3749.000000	0.001797
3748.000000	0.001748
3747.000000	0.001719
3746.000000	0.001707
3745.000000	0.001692
3744.000000	0.001668
3743.000000	0.001656
3742.000000	0.001667
3741.000000	0.001685
3740.000000	0.001691
3739.000000	0.001681
3738.000000	0.001671
3737.000000	0.001672
3736.000000	0.001672
3735.000000	0.001646
3734.000000	0.001606
3733.000000	0.001582
3732.000000	0.001582
3731.000000	0.001599
3730.000000	0.001631
3729.000000	0.001682
3728.000000	0.001744
3727.000000	0.001804
3726.000000	0.001848
3725.000000	0.001875
3724.000000	0.001886
3723.000000	0.001872
3722.000000	0.001834
3721.000000	0.001782
3720.000000	0.001729
3719.000000	0.001687
3718.000000	0.001660
3717.000000	0.001648
3716.000000	0.001652
3715.000000	0.001675
3714.000000	0.001717
3713.000000	0.001774
3712.000000	0.001831
3711.000000	0.001864
3710.000000	0.001858
3709.000000	0.001821
3708.000000	0.001774
3707.000000	0.001727
3706.000000	0.001689
3705.000000	0.001662
3704.000000	0.001637
3703.000000	0.001607
3702.000000	0.001577
3701.000000	0.001565
3700.000000	0.001583
3699.000000	0.001630
3698.000000	0.001685
3697.000000	0.001728
3696.000000	0.001753
3695.000000	0.001768
3694.000000	0.001780
3693.000000	0.001785
3692.000000	0.001774
3691.000000	0.001750
3690.000000	0.001723
3689.000000	0.001707
3688.000000	0.001704
3687.000000	0.001709
3686.000000	0.001716
3685.000000	0.001726
3684.000000	0.001737
3683.000000	0.001753
3682.000000	0.001776
3681.000000	0.001810
3680.000000	0.001849
3679.000000	0.001891
3678.000000	0.001934
3677.000000	0.001961
3676.000000	0.001946
3675.000000	0.001884
3674.000000	0.001825
3673.000000	0.001804
3672.000000	0.001817
3671.000000	0.001835
3670.000000	0.001841
3669.000000	0.001839
3668.000000	0.001841
3667.000000	0.001844
3666.000000	0.001836
3665.000000	0.001818
3664.000000	0.001800
3663.000000	0.001797
3662.000000	0.001811
3661.000000	0.001829
3660.000000	0.001837
3659.000000	0.001832
3658.000000	0.001829
3657.000000	0.001841
3656.000000	0.001870
3655.000000	0.001909
3654.000000	0.001944
3653.000000	0.001969
3652.000000	0.001980
3651.000000	0.001982
3650.000000	0.001986
3649.000000	0.001994
3648.000000	0.001993
3647.000000	0.001980
3646.000000	0.001964
3645.000000	0.001953
3644.000000	0.001949
3643.000000	0.001957
3642.000000	0.001980
3641.000000	0.002014
3640.000000	0.002054
3639.000000	0.002088
3638.000000	0.002107
3637.000000	0.002110
3636.000000	0.002100
3635.000000	0.002085
3634.000000	0.002073
3633.000000	0.002070
3632.000000	0.002075
3631.000000	0.002087
3630.000000	0.002101
3629.000000	0.002114
3628.000000	0.002136
3627.000000	0.002183
3626.000000	0.002239
3625.000000	0.002271
3624.000000	0.002259
3623.000000	0.002209
3622.000000	0.002147
3621.000000	0.002103
3620.000000	0.002097
3619.000000	0.002137
3618.000000	0.002213
3617.000000	0.002302
3616.000000	0.002385
3615.000000	0.002443
3614.000000	0.002467
3613.000000	0.002462
3612.000000	0.002448
3611.000000	0.002443
3610.000000	0.002457
3609.000000	0.002481
3608.000000	0.002499
3607.000000	0.002500
3606.000000	0.002498
3605.000000	0.002506
3604.000000	0.002524
3603.000000	0.002543
3602.000000	0.002553
3601.000000	0.002552
3600.000000	0.002548
3599.000000	0.002553
3598.000000	0.002575
3597.000000	0.002616
3596.000000	0.002676
3595.000000	0.002747
3594.000000	0.002810
3593.000000	0.002848
3592.000000	0.002853
3591.000000	0.002834
3590.000000	0.002807
3589.000000	0.002791
3588.000000	0.002792
3587.000000	0.002802
3586.000000	0.002823
3585.000000	0.002862
3584.000000	0.002914
3583.000000	0.002960
3582.000000	0.002991
3581.000000	0.003004
3580.000000	0.003009
3579.000000	0.003014
3578.000000	0.003025
3577.000000	0.003041
3576.000000	0.003061
3575.000000	0.003084
3574.000000	0.003112
3573.000000	0.003148
3572.000000	0.003194
3571.000000	0.003247
3570.000000	0.003305
3569.000000	0.003366
3568.000000	0.003419
3567.000000	0.003447
3566.000000	0.003454
3565.000000	0.003468
3564.000000	0.003500
3563.000000	0.003535
3562.000000	0.003557
3561.000000	0.003571
3560.000000	0.003587
3559.000000	0.003613
3558.000000	0.003643
3557.000000	0.003673
3556.000000	0.003702
3555.000000	0.003740
3554.000000	0.003791
3553.000000	0.003847
3552.000000	0.003891
3551.000000	0.003917
3550.000000	0.003929
3549.000000	0.003943
3548.000000	0.003967
3547.000000	0.004003
3546.000000	0.004039
3545.000000	0.004063
3544.000000	0.004077
3543.000000	0.004088
3542.000000	0.004102
3541.000000	0.004116
3540.000000	0.004131
3539.000000	0.004152
3538.000000	0.004187
3537.000000	0.004230
3536.000000	0.004267
3535.000000	0.004284
3534.000000	0.004282
3533.000000	0.004276
3532.000000	0.004276
3531.000000	0.004287
3530.000000	0.004306
3529.000000	0.004331
3528.000000	0.004355
3527.000000	0.004374
3526.000000	0.004384
3525.000000	0.004387
3524.000000	0.004386
3523.000000	0.004380
3522.000000	0.004370
3521.000000	0.004358
3520.000000	0.004348
3519.000000	0.004345
3518.000000	0.004349
3517.000000	0.004358
3516.000000	0.004364
3515.000000	0.004362
3514.000000	0.004353
3513.000000	0.004347
3512.000000	0.004355
3511.000000	0.004379
3510.000000	0.004410
3509.000000	0.004440
3508.000000	0.004467
3507.000000	0.004491
3506.000000	0.004504
3505.000000	0.004496
3504.000000	0.004471
3503.000000	0.004442
3502.000000	0.004426
3501.000000	0.004431
3500.000000	0.004448
3499.000000	0.004465
3498.000000	0.004479
3497.000000	0.004494
3496.000000	0.004514
3495.000000	0.004537
3494.000000	0.004555
3493.000000	0.004566
3492.000000	0.004578
3491.000000	0.004599
3490.000000	0.004628
3489.000000	0.004655
3488.000000	0.004667
3487.000000	0.004666
3486.000000	0.004663
3485.000000	0.004674
3484.000000	0.004700
3483.000000	0.004727
3482.000000	0.004739
3481.000000	0.004728
3480.000000	0.004708
3479.000000	0.004698
3478.000000	0.004707
3477.000000	0.004731
3476.000000	0.004761
3475.000000	0.004797
3474.000000	0.004839
3473.000000	0.004883
3472.000000	0.004918
3471.000000	0.004934
3470.000000	0.004930
3469.000000	0.004914
3468.000000	0.004897
3467.000000	0.004887
3466.000000	0.004891
3465.000000	0.004910
3464.000000	0.004942
3463.000000	0.004974
3462.000000	0.004997
3461.000000	0.005005
3460.000000	0.005001
3459.000000	0.004997
3458.000000	0.004999
3457.000000	0.005011
3456.000000	0.005028
3455.000000	0.005045
3454.000000	0.005058
3453.000000	0.005066
3452.000000	0.005073
3451.000000	0.005083
3450.000000	0.005099
3449.000000	0.005111
3448.000000	0.005111
3447.000000	0.005102
3446.000000	0.005100
3445.000000	0.005114
3444.000000	0.005141
3443.000000	0.005166
3442.000000	0.005182
3441.000000	0.005194
3440.000000	0.005207
3439.000000	0.005223
3438.000000	0.005239
3437.000000	0.005253
3436.000000	0.005271
3435.000000	0.005297
3434.000000	0.005331
3433.000000	0.005364
3432.000000	0.005390
3431.000000	0.005403
3430.000000	0.005408
3429.000000	0.005415
3428.000000	0.005427
3427.000000	0.005447
3426.000000	0.005475
3425.000000	0.005514
3424.000000	0.005566
3423.000000	0.005621
3422.000000	0.005668
3421.000000	0.005696
3420.000000	0.005709
3419.000000	0.005713
3418.000000	0.005719
3417.000000	0.005735
3416.000000	0.005767
3415.000000	0.005814
3414.000000	0.005863
3413.000000	0.005903
3412.000000	0.005934
3411.000000	0.005961
3410.000000	0.005990
3409.000000	0.006015
3408.000000	0.006031
3407.000000	0.006037
3406.000000	0.006039
3405.000000	0.006046
3404.000000	0.006067
3403.000000	0.006100
3402.000000	0.006140
3401.000000	0.006176
3400.000000	0.006199
3399.000000	0.006205
3398.000000	0.006202
3397.000000	0.006204
3396.000000	0.006221
3395.000000	0.006248
3394.000000	0.006269
3393.000000	0.006269
3392.000000	0.006249
3391.000000	0.006224
3390.000000	0.006214
3389.000000	0.006224
3388.000000	0.006245
3387.000000	0.006264
3386.000000	0.006276
3385.000000	0.006287
3384.000000	0.006303
3383.000000	0.006323
3382.000000	0.006334
3381.000000	0.006328
3380.000000	0.006306
3379.000000	0.006282
3378.000000	0.006267
3377.000000	0.006264
3376.000000	0.006274
3375.000000	0.006292
3374.000000	0.006314
3373.000000	0.006333
3372.000000	0.006345
3371.000000	0.006353
3370.000000	0.006369
3369.000000	0.006398
3368.000000	0.006434
3367.000000	0.006465
3366.000000	0.006480
3365.000000	0.006474
3364.000000	0.006451
3363.000000	0.006424
3362.000000	0.006407
3361.000000	0.006406
3360.000000	0.006420
3359.000000	0.006443
3358.000000	0.006466
3357.000000	0.006483
3356.000000	0.006494
3355.000000	0.006503
3354.000000	0.006515
3353.000000	0.006536
3352.000000	0.006561
3351.000000	0.006576
3350.000000	0.006574
3349.000000	0.006556
3348.000000	0.006532
3347.000000	0.006516
3346.000000	0.006517
3345.000000	0.006534
3344.000000	0.006560
3343.000000	0.006583
3342.000000	0.006600
3341.000000	0.006614
3340.000000	0.006632
3339.000000	0.006654
3338.000000	0.006675
3337.000000	0.006692
3336.000000	0.006700
3335.000000	0.006703
3334.000000	0.006706
3333.000000	0.006718
3332.000000	0.006741
3331.000000	0.006765
3330.000000	0.006781
3329.000000	0.006787
3328.000000	0.006792
3327.000000	0.006807
3326.000000	0.006837
3325.000000	0.006878
3324.000000	0.006921
3323.000000	0.006958
3322.000000	0.006981
3321.000000	0.006987
3320.000000	0.006983
3319.000000	0.006984
3318.000000	0.007000
3317.000000	0.007032
3316.000000	0.007066
3315.000000	0.007090
3314.000000	0.007101
3313.000000	0.007102
3312.000000	0.007103
3311.000000	0.007109
3310.000000	0.007119
3309.000000	0.007128
3308.000000	0.007133
3307.000000	0.007139
3306.000000	0.007147
3305.000000	0.007159
3304.000000	0.007171
3303.000000	0.007177
3302.000000	0.007173
3301.000000	0.007158
3300.000000	0.007135
3299.000000	0.007113
3298.000000	0.007103
3297.000000	0.007108
3296.000000	0.007124
3295.000000	0.007147
3294.000000	0.007172
3293.000000	0.007194
3292.000000	0.007209
3291.000000	0.007215
3290.000000	0.007212
3289.000000	0.007201
3288.000000	0.007182
3287.000000	0.007155
3286.000000	0.007125
3285.000000	0.007097
3284.000000	0.007078
3283.000000	0.007069
3282.000000	0.007067
3281.000000	0.007065
3280.000000	0.007051
3279.000000	0.007025
3278.000000	0.006994
3277.000000	0.006976
3276.000000	0.006972
3275.000000	0.006977
3274.000000	0.006976
3273.000000	0.006962
3272.000000	0.006939
3271.000000	0.006917
3270.000000	0.006912
3269.000000	0.006931
3268.000000	0.006967
3267.000000	0.006998
3266.000000	0.007013
3265.000000	0.007011
3264.000000	0.007002
3263.000000	0.006989
3262.000000	0.006970
3261.000000	0.006941
3260.000000	0.006905
3259.000000	0.006877
3258.000000	0.006866
3257.000000	0.006872
3256.000000	0.006878
3255.000000	0.006869
3254.000000	0.006847
3253.000000	0.006826
3252.000000	0.006818
3251.000000	0.006817
3250.000000	0.006811
3249.000000	0.006793
3248.000000	0.006767
3247.000000	0.006740
3246.000000	0.006721
3245.000000	0.006716
3244.000000	0.006724
3243.000000	0.006736
3242.000000	0.006738
3241.000000	0.006723
3240.000000	0.006693
3239.000000	0.006656
3238.000000	0.006621
3237.000000	0.006594
3236.000000	0.006573
3235.000000	0.006554
3234.000000	0.006535
3233.000000	0.006521
3232.000000	0.006520
3231.000000	0.006533
3230.000000	0.006547
3229.000000	0.006546
3228.000000	0.006525
3227.000000	0.006489
3226.000000	0.006454
3225.000000	0.006434
3224.000000	0.006434
3223.000000	0.006446
3222.000000	0.006452
3221.000000	0.006441
3220.000000	0.006419
3219.000000	0.006409
3218.000000	0.006420
3217.000000	0.006440
3216.000000	0.006442
3215.000000	0.006415
3214.000000	0.006372
3213.000000	0.006337
3212.000000	0.006319
3211.000000	0.006310
3210.000000	0.006304
3209.000000	0.006297
3208.000000	0.006289
3207.000000	0.006280
3206.000000	0.006277
3205.000000	0.006287
3204.000000	0.006304
3203.000000	0.006314
3202.000000	0.006303
3201.000000	0.006275
3200.000000	0.006247
3199.000000	0.006228
3198.000000	0.006217
3197.000000	0.006205
3196.000000	0.006188
3195.000000	0.006166
3194.000000	0.006141
3193.000000	0.006115
3192.000000	0.006090
3191.000000	0.006072
3190.000000	0.006066
3189.000000	0.006073
3188.000000	0.006086
3187.000000	0.006089
3186.000000	0.006073
3185.000000	0.006040
3184.000000	0.006008
3183.000000	0.005994
3182.000000	0.005999
3181.000000	0.006014
3180.000000	0.006024
3179.000000	0.006019
3178.000000	0.005999
3177.000000	0.005968
3176.000000	0.005935
3175.000000	0.005902
3174.000000	0.005869
3173.000000	0.005835
3172.000000	0.005809
3171.000000	0.005801
3170.000000	0.005817
3169.000000	0.005847
3168.000000	0.005869
3167.000000	0.005869
3166.000000	0.005849
3165.000000	0.005823
3164.000000	0.005801
3163.000000	0.005781
3162.000000	0.005753
3161.000000	0.005714
3160.000000	0.005671
3159.000000	0.005637
3158.000000	0.005623
3157.000000	0.005635
3156.000000	0.005667
3155.000000	0.005702
3154.000000	0.005725
3153.000000	0.005726
3152.000000	0.005708
3151.000000	0.005681
3150.000000	0.005655
3149.000000	0.005634
3148.000000	0.005622
3147.000000	0.005618
3146.000000	0.005617
3145.000000	0.005610
3144.000000	0.005594
3143.000000	0.005569
3142.000000	0.005539
3141.000000	0.005505
3140.000000	0.005470
3139.000000	0.005445
3138.000000	0.005440
3137.000000	0.005451
3136.000000	0.005462
3135.000000	0.005459
3134.000000	0.005442
3133.000000	0.005424
3132.000000	0.005416
3131.000000	0.005419
3130.000000	0.005431
3129.000000	0.005444
3128.000000	0.005448
3127.000000	0.005437
3126.000000	0.005415
3125.000000	0.005391
3124.000000	0.005372
3123.000000	0.005359
3122.000000	0.005348
3121.000000	0.005338
3120.000000	0.005329
3119.000000	0.005318
3118.000000	0.005305
3117.000000	0.005291
3116.000000	0.005283
3115.000000	0.005284
3114.000000	0.005292
3113.000000	0.005305
3112.000000	0.005319
3111.000000	0.005332
3110.000000	0.005338
3109.000000	0.005328
3108.000000	0.005300
3107.000000	0.005266
3106.000000	0.005241
3105.000000	0.005236
3104.000000	0.005245
3103.000000	0.005256
3102.000000	0.005257
3101.000000	0.005249
3100.000000	0.005240
3099.000000	0.005231
3098.000000	0.005225
3097.000000	0.005221
3096.000000	0.005224
3095.000000	0.005236
3094.000000	0.005250
3093.000000	0.005257
3092.000000	0.005248
3091.000000	0.005226
3090.000000	0.005195
3089.000000	0.005163
3088.000000	0.005138
3087.000000	0.005123
3086.000000	0.005119
3085.000000	0.005121
3084.000000	0.005121
3083.000000	0.005114
3082.000000	0.005103
3081.000000	0.005093
3080.000000	0.005091
3079.000000	0.005101
3078.000000	0.005123
3077.000000	0.005149
3076.000000	0.005166
3075.000000	0.005163
3074.000000	0.005145
3073.000000	0.005125
3072.000000	0.005112
3071.000000	0.005106
3070.000000	0.005100
3069.000000	0.005093
3068.000000	0.005083
3067.000000	0.005070
3066.000000	0.005056
3065.000000	0.005046
3064.000000	0.005045
3063.000000	0.005050
3062.000000	0.005054
3061.000000	0.005050
3060.000000	0.005040
3059.000000	0.005032
3058.000000	0.005034
3057.000000	0.005046
3056.000000	0.005060
3055.000000	0.005070
3054.000000	0.005073
3053.000000	0.005068
3052.000000	0.005052
3051.000000	0.005028
3050.000000	0.005008
3049.000000	0.004998
3048.000000	0.004996
3047.000000	0.004990
3046.000000	0.004973
3045.000000	0.004952
3044.000000	0.004932
3043.000000	0.004917
3042.000000	0.004905
3041.000000	0.004900
3040.000000	0.004899
3039.000000	0.004894
3038.000000	0.004878
3037.000000	0.004858
3036.000000	0.004846
3035.000000	0.004856
3034.000000	0.004879
3033.000000	0.004898
3032.000000	0.004899
3031.000000	0.004885
3030.000000	0.004873
3029.000000	0.004873
3028.000000	0.004881
3027.000000	0.004889
3026.000000	0.004893
3025.000000	0.004903
3024.000000	0.004919
3023.000000	0.004932
3022.000000	0.004932
3021.000000	0.004926
3020.000000	0.004930
3019.000000	0.004950
3018.000000	0.004976
3017.000000	0.004994
3016.000000	0.005002
3015.000000	0.005007
3014.000000	0.005014
3013.000000	0.005027
3012.000000	0.005049
3011.000000	0.005081
3010.000000	0.005128
3009.000000	0.005184
3008.000000	0.005241
3007.000000	0.005291
3006.000000	0.005332
3005.000000	0.005367
3004.000000	0.005397
3003.000000	0.005425
3002.000000	0.005454
3001.000000	0.005492
3000.000000	0.005542
2999.000000	0.005608
2998.000000	0.005686
2997.000000	0.005769
2996.000000	0.005850
2995.000000	0.005927
2994.000000	0.006008
2993.000000	0.006099
2992.000000	0.006201
2991.000000	0.006311
2990.000000	0.006423
2989.000000	0.006539
2988.000000	0.006658
2987.000000	0.006780
2986.000000	0.006902
2985.000000	0.007026
2984.000000	0.007160
2983.000000	0.007306
2982.000000	0.007462
2981.000000	0.007626
2980.000000	0.007802
2979.000000	0.007996
2978.000000	0.008209
2977.000000	0.008434
2976.000000	0.008664
2975.000000	0.008899
2974.000000	0.009145
2973.000000	0.009404
2972.000000	0.009673
2971.000000	0.009953
2970.000000	0.010248
2969.000000	0.010557
2968.000000	0.010867
2967.000000	0.011161
2966.000000	0.011435
2965.000000	0.011700
2964.000000	0.011960
2963.000000	0.012209
2962.000000	0.012431
2961.000000	0.012614
2960.000000	0.012745
2959.000000	0.012815
2958.000000	0.012822
2957.000000	0.012773
2956.000000	0.012679
2955.000000	0.012553
2954.000000	0.012403
2953.000000	0.012248
2952.000000	0.012107
2951.000000	0.011996
2950.000000	0.011917
2949.000000	0.011859
2948.000000	0.011821
2947.000000	0.011813
2946.000000	0.011854
2945.000000	0.011958
2944.000000	0.012117
2943.000000	0.012318
2942.000000	0.012547
2941.000000	0.012798
2940.000000	0.013069
2939.000000	0.013356
2938.000000	0.013653
2937.000000	0.013960
2936.000000	0.014275
2935.000000	0.014589
2934.000000	0.014883
2933.000000	0.015135
2932.000000	0.015333
2931.000000	0.015478
2930.000000	0.015579
2929.000000	0.015639
2928.000000	0.015655
2927.000000	0.015628
2926.000000	0.015559
2925.000000	0.015457
2924.000000	0.015325
2923.000000	0.015165
2922.000000	0.014979
2921.000000	0.014765
2920.000000	0.014521
2919.000000	0.014256
2918.000000	0.013991
2917.000000	0.013745
2916.000000	0.013523
2915.000000	0.013315
2914.000000	0.013111
2913.000000	0.012913
2912.000000	0.012729
2911.000000	0.012559
2910.000000	0.012395
2909.000000	0.012228
2908.000000	0.012059
2907.000000	0.011890
2906.000000	0.011720
2905.000000	0.011541
2904.000000	0.011344
2903.000000	0.011131
2902.000000	0.010915
2901.000000	0.010700
2900.000000	0.010484
2899.000000	0.010261
2898.000000	0.010032
2897.000000	0.009802
2896.000000	0.009583
2895.000000	0.009379
2894.000000	0.009197
2893.000000	0.009036
2892.000000	0.008892
2891.000000	0.008759
2890.000000	0.008635
2889.000000	0.008529
2888.000000	0.008448
2887.000000	0.008394
2886.000000	0.008365
2885.000000	0.008359
2884.000000	0.008377
2883.000000	0.008425
2882.000000	0.008510
2881.000000	0.008633
2880.000000	0.008787
2879.000000	0.008955
2878.000000	0.009127
2877.000000	0.009296
2876.000000	0.009460
2875.000000	0.009613
2874.000000	0.009745
2873.000000	0.009845
2872.000000	0.009907
2871.000000	0.009934
2870.000000	0.009941
2869.000000	0.009947
2868.000000	0.009966
2867.000000	0.010005
2866.000000	0.010067
2865.000000	0.010155
2864.000000	0.010270
2863.000000	0.010405
2862.000000	0.010550
2861.000000	0.010697
2860.000000	0.010835
2859.000000	0.010945
2858.000000	0.011009
2857.000000	0.011014
2856.000000	0.010959
2855.000000	0.010852
2854.000000	0.010699
2853.000000	0.010505
2852.000000	0.010265
2851.000000	0.009977
2850.000000	0.009647
2849.000000	0.009294
2848.000000	0.008946
2847.000000	0.008625
2846.000000	0.008339
2845.000000	0.008081
2844.000000	0.007839
2843.000000	0.007605
2842.000000	0.007378
2841.000000	0.007170
2840.000000	0.006987
2839.000000	0.006828
2838.000000	0.006686
2837.000000	0.006556
2836.000000	0.006438
2835.000000	0.006340
2834.000000	0.006266
2833.000000	0.006214
2832.000000	0.006173
2831.000000	0.006130
2830.000000	0.006080
2829.000000	0.006026
2828.000000	0.005977
2827.000000	0.005934
2826.000000	0.005892
2825.000000	0.005852
2824.000000	0.005816
2823.000000	0.005791
2822.000000	0.005776
2821.000000	0.005766
2820.000000	0.005753
2819.000000	0.005730
2818.000000	0.005696
2817.000000	0.005656
2816.000000	0.005619
2815.000000	0.005581
2814.000000	0.005535
2813.000000	0.005476
2812.000000	0.005411
2811.000000	0.005358
2810.000000	0.005327
2809.000000	0.005317
2808.000000	0.005314
2807.000000	0.005308
2806.000000	0.005294
2805.000000	0.005272
2804.000000	0.005245
2803.000000	0.005215
2802.000000	0.005191
2801.000000	0.005176
2800.000000	0.005171
2799.000000	0.005168
2798.000000	0.005160
2797.000000	0.005145
2796.000000	0.005128
2795.000000	0.005109
2794.000000	0.005093
2793.000000	0.005085
2792.000000	0.005087
2791.000000	0.005095
2790.000000	0.005098
2789.000000	0.005092
2788.000000	0.005075
2787.000000	0.005056
2786.000000	0.005037
2785.000000	0.005017
2784.000000	0.004997
2783.000000	0.004978
2782.000000	0.004962
2781.000000	0.004947
2780.000000	0.004934
2779.000000	0.004927
2778.000000	0.004933
2777.000000	0.004953
2776.000000	0.004975
2775.000000	0.004982
2774.000000	0.004967
2773.000000	0.004936
2772.000000	0.004905
2771.000000	0.004885
2770.000000	0.004880
2769.000000	0.004882
2768.000000	0.004882
2767.000000	0.004878
2766.000000	0.004872
2765.000000	0.004865
2764.000000	0.004854
2763.000000	0.004840
2762.000000	0.004831
2761.000000	0.004839
2760.000000	0.004862
2759.000000	0.004888
2758.000000	0.004905
2757.000000	0.004905
2756.000000	0.004887
2755.000000	0.004859
2754.000000	0.004832
2753.000000	0.004818
2752.000000	0.004817
2751.000000	0.004822
2750.000000	0.004825
2749.000000	0.004829
2748.000000	0.004834
2747.000000	0.004833
2746.000000	0.004823
2745.000000	0.004808
2744.000000	0.004800
2743.000000	0.004804
2742.000000	0.004813
2741.000000	0.004816
2740.000000	0.004811
2739.000000	0.004801
2738.000000	0.004796
2737.000000	0.004796
2736.000000	0.004795
2735.000000	0.004785
2734.000000	0.004765
2733.000000	0.004741
2732.000000	0.004721
2731.000000	0.004709
2730.000000	0.004708
2729.000000	0.004720
2728.000000	0.004737
2727.000000	0.004745
2726.000000	0.004739
2725.000000	0.004729
2724.000000	0.004731
2723.000000	0.004745
2722.000000	0.004760
2721.000000	0.004763
2720.000000	0.004752
2719.000000	0.004733
2718.000000	0.004716
2717.000000	0.004706
2716.000000	0.004703
2715.000000	0.004701
2714.000000	0.004701
2713.000000	0.004704
2712.000000	0.004709
2711.000000	0.004710
2710.000000	0.004706
2709.000000	0.004700
2708.000000	0.004695
2707.000000	0.004688
2706.000000	0.004676
2705.000000	0.004667
2704.000000	0.004668
2703.000000	0.004676
2702.000000	0.004682
2701.000000	0.004679
2700.000000	0.004677
2699.000000	0.004683
2698.000000	0.004697
2697.000000	0.004707
2696.000000	0.004704
2695.000000	0.004683
2694.000000	0.004655
2693.000000	0.004636
2692.000000	0.004634
2691.000000	0.004646
2690.000000	0.004660
2689.000000	0.004668
2688.000000	0.004675
2687.000000	0.004680
2686.000000	0.004677
2685.000000	0.004662
2684.000000	0.004643
2683.000000	0.004630
2682.000000	0.004626
2681.000000	0.004626
2680.000000	0.004626
2679.000000	0.004624
2678.000000	0.004622
2677.000000	0.004622
2676.000000	0.004624
2675.000000	0.004628
2674.000000	0.004630
2673.000000	0.004625
2672.000000	0.004615
2671.000000	0.004605
2670.000000	0.004602
2669.000000	0.004606
2668.000000	0.004612
2667.000000	0.004619
2666.000000	0.004628
2665.000000	0.004642
2664.000000	0.004655
2663.000000	0.004659
2662.000000	0.004650
2661.000000	0.004634
2660.000000	0.004625
2659.000000	0.004631
2658.000000	0.004647
2657.000000	0.004657
2656.000000	0.004654
2655.000000	0.004642
2654.000000	0.004633
2653.000000	0.004631
2652.000000	0.004630
2651.000000	0.004620
2650.000000	0.004600
2649.000000	0.004571
2648.000000	0.004540
2647.000000	0.004509
2646.000000	0.004481
2645.000000	0.004460
2644.000000	0.004447
2643.000000	0.004443
2642.000000	0.004448
2641.000000	0.004455
2640.000000	0.004455
2639.000000	0.004439
2638.000000	0.004411
2637.000000	0.004385
2636.000000	0.004375
2635.000000	0.004381
2634.000000	0.004387
2633.000000	0.004377
2632.000000	0.004353
2631.000000	0.004327
2630.000000	0.004311
2629.000000	0.004310
2628.000000	0.004315
2627.000000	0.004317
2626.000000	0.004306
2625.000000	0.004286
2624.000000	0.004263
2623.000000	0.004244
2622.000000	0.004234
2621.000000	0.004234
2620.000000	0.004238
2619.000000	0.004237
2618.000000	0.004227
2617.000000	0.004214
2616.000000	0.004208
2615.000000	0.004216
2614.000000	0.004229
2613.000000	0.004237
2612.000000	0.004234
2611.000000	0.004226
2610.000000	0.004221
2609.000000	0.004220
2608.000000	0.004218
2607.000000	0.004214
2606.000000	0.004212
2605.000000	0.004213
2604.000000	0.004212
2603.000000	0.004203
2602.000000	0.004185
2601.000000	0.004160
2600.000000	0.004136
2599.000000	0.004116
2598.000000	0.004098
2597.000000	0.004073
2596.000000	0.004044
2595.000000	0.004021
2594.000000	0.004016
2593.000000	0.004033
2592.000000	0.004057
2591.000000	0.004072
2590.000000	0.004072
2589.000000	0.004061
2588.000000	0.004047
2587.000000	0.004032
2586.000000	0.004015
2585.000000	0.003994
2584.000000	0.003977
2583.000000	0.003979
2582.000000	0.004007
2581.000000	0.004042
2580.000000	0.004051
2579.000000	0.004022
2578.000000	0.003982
2577.000000	0.003968
2576.000000	0.003995
2575.000000	0.004039
2574.000000	0.004070
2573.000000	0.004074
2572.000000	0.004055
2571.000000	0.004029
2570.000000	0.004013
2569.000000	0.004015
2568.000000	0.004029
2567.000000	0.004043
2566.000000	0.004051
2565.000000	0.004051
2564.000000	0.004038
2563.000000	0.004013
2562.000000	0.003985
2561.000000	0.003970
2560.000000	0.003968
2559.000000	0.003970
2558.000000	0.003971
2557.000000	0.003978
2556.000000	0.003988
2555.000000	0.003986
2554.000000	0.003960
2553.000000	0.003914
2552.000000	0.003864
2551.000000	0.003827
2550.000000	0.003817
2549.000000	0.003842
2548.000000	0.003896
2547.000000	0.003959
2546.000000	0.004010
2545.000000	0.004045
2544.000000	0.004066
2543.000000	0.004075
2542.000000	0.004074
2541.000000	0.004070
2540.000000	0.004071
2539.000000	0.004073
2538.000000	0.004075
2537.000000	0.004082
2536.000000	0.004102
2535.000000	0.004133
2534.000000	0.004162
2533.000000	0.004181
2532.000000	0.004191
2531.000000	0.004203
2530.000000	0.004224
2529.000000	0.004254
2528.000000	0.004284
2527.000000	0.004305
2526.000000	0.004315
2525.000000	0.004314
2524.000000	0.004302
2523.000000	0.004285
2522.000000	0.004281
2521.000000	0.004309
2520.000000	0.004363
2519.000000	0.004421
2518.000000	0.004463
2517.000000	0.004488
2516.000000	0.004502
2515.000000	0.004509
2514.000000	0.004512
2513.000000	0.004519
2512.000000	0.004531
2511.000000	0.004538
2510.000000	0.004525
2509.000000	0.004491
2508.000000	0.004446
2507.000000	0.004397
2506.000000	0.004350
2505.000000	0.004307
2504.000000	0.004267
2503.000000	0.004224
2502.000000	0.004180
2501.000000	0.004143
2500.000000	0.004112
2499.000000	0.004067
2498.000000	0.004003
2497.000000	0.003944
2496.000000	0.003924
2495.000000	0.003947
2494.000000	0.003979
2493.000000	0.003985
2492.000000	0.003960
2491.000000	0.003923
2490.000000	0.003893
2489.000000	0.003874
2488.000000	0.003863
2487.000000	0.003850
2486.000000	0.003832
2485.000000	0.003810
2484.000000	0.003790
2483.000000	0.003774
2482.000000	0.003760
2481.000000	0.003746
2480.000000	0.003736
2479.000000	0.003737
2478.000000	0.003750
2477.000000	0.003763
2476.000000	0.003756
2475.000000	0.003721
2474.000000	0.003675
2473.000000	0.003652
2472.000000	0.003671
2471.000000	0.003718
2470.000000	0.003760
2469.000000	0.003780
2468.000000	0.003780
2467.000000	0.003769
2466.000000	0.003749
2465.000000	0.003727
2464.000000	0.003715
2463.000000	0.003720
2462.000000	0.003731
2461.000000	0.003733
2460.000000	0.003724
2459.000000	0.003718
2458.000000	0.003724
2457.000000	0.003737
2456.000000	0.003744
2455.000000	0.003741
2454.000000	0.003741
2453.000000	0.003752
2452.000000	0.003770
2451.000000	0.003783
2450.000000	0.003785
2449.000000	0.003777
2448.000000	0.003765
2447.000000	0.003751
2446.000000	0.003736
2445.000000	0.003722
2444.000000	0.003713
2443.000000	0.003710
2442.000000	0.003702
2441.000000	0.003675
2440.000000	0.003633
2439.000000	0.003596
2438.000000	0.003595
2437.000000	0.003634
2436.000000	0.003689
2435.000000	0.003731
2434.000000	0.003752
2433.000000	0.003762
2432.000000	0.003765
2431.000000	0.003755
2430.000000	0.003733
2429.000000	0.003717
2428.000000	0.003726
2427.000000	0.003757
2426.000000	0.003793
2425.000000	0.003810
2424.000000	0.003799
2423.000000	0.003762
2422.000000	0.003715
2421.000000	0.003674
2420.000000	0.003641
2419.000000	0.003615
2418.000000	0.003592
2417.000000	0.003580
2416.000000	0.003582
2415.000000	0.003591
2414.000000	0.003603
2413.000000	0.003617
2412.000000	0.003634
2411.000000	0.003647
2410.000000	0.003651
2409.000000	0.003646
2408.000000	0.003636
2407.000000	0.003624
2406.000000	0.003611
2405.000000	0.003598
2404.000000	0.003585
2403.000000	0.003570
2402.000000	0.003558
2401.000000	0.003555
2400.000000	0.003564
2399.000000	0.003577
2398.000000	0.003579
2397.000000	0.003565
2396.000000	0.003547
2395.000000	0.003541
2394.000000	0.003551
2393.000000	0.003567
2392.000000	0.003580
2391.000000	0.003591
2390.000000	0.003600
2389.000000	0.003608
2388.000000	0.003613
2387.000000	0.003615
2386.000000	0.003609
2385.000000	0.003586
2384.000000	0.003548
2383.000000	0.003505
2382.000000	0.003472
2381.000000	0.003450
2380.000000	0.003429
2379.000000	0.003412
2378.000000	0.003413
2377.000000	0.003441
2376.000000	0.003481
2375.000000	0.003511
2374.000000	0.003520
2373.000000	0.003508
2372.000000	0.003476
2371.000000	0.003441
2370.000000	0.003422
2369.000000	0.003412
2368.000000	0.003382
2367.000000	0.003335
2366.000000	0.003320
2365.000000	0.003362
2364.000000	0.003425
2363.000000	0.003475
2362.000000	0.003519
2361.000000	0.003568
2360.000000	0.003608
2359.000000	0.003611
2358.000000	0.003573
2357.000000	0.003519
2356.000000	0.003475
2355.000000	0.003480
2354.000000	0.003510
2353.000000	0.003497
2352.000000	0.003418
2351.000000	0.003340
2350.000000	0.003335
2349.000000	0.003411
2348.000000	0.003523
2347.000000	0.003600
2346.000000	0.003612
2345.000000	0.003607
2344.000000	0.003629
2343.000000	0.003681
2342.000000	0.003718
2341.000000	0.003717
2340.000000	0.003704
2339.000000	0.003703
2338.000000	0.003704
2337.000000	0.003680
2336.000000	0.003640
2335.000000	0.003605
2334.000000	0.003586
2333.000000	0.003576
2332.000000	0.003592
2331.000000	0.003638
2330.000000	0.003720
2329.000000	0.003811
2328.000000	0.003918
2327.000000	0.004035
2326.000000	0.004145
2325.000000	0.004212
2324.000000	0.004215
2323.000000	0.004159
2322.000000	0.004071
2321.000000	0.003997
2320.000000	0.003985
2319.000000	0.004032
2318.000000	0.004109
2317.000000	0.004157
2316.000000	0.004150
2315.000000	0.004079
2314.000000	0.003984
2313.000000	0.003906
2312.000000	0.003876
2311.000000	0.003868
2310.000000	0.003865
2309.000000	0.003865
2308.000000	0.003888
2307.000000	0.003916
2306.000000	0.003919
2305.000000	0.003883
2304.000000	0.003837
2303.000000	0.003800
2302.000000	0.003778
2301.000000	0.003765
2300.000000	0.003773
2299.000000	0.003805
2298.000000	0.003846
2297.000000	0.003869
2296.000000	0.003863
2295.000000	0.003833
2294.000000	0.003801
2293.000000	0.003785
2292.000000	0.003796
2291.000000	0.003831
2290.000000	0.003879
2289.000000	0.003937
2288.000000	0.003999
2287.000000	0.004047
2286.000000	0.004061
2285.000000	0.004047
2284.000000	0.004023
2283.000000	0.003991
2282.000000	0.003939
2281.000000	0.003868
2280.000000	0.003801
2279.000000	0.003759
2278.000000	0.003738
2277.000000	0.003722
2276.000000	0.003702
2275.000000	0.003667
2274.000000	0.003615
2273.000000	0.003561
2272.000000	0.003535
2271.000000	0.003559
2270.000000	0.003621
2269.000000	0.003693
2268.000000	0.003737
2267.000000	0.003725
2266.000000	0.003648
2265.000000	0.003542
2264.000000	0.003471
2263.000000	0.003480
2262.000000	0.003564
2261.000000	0.003686
2260.000000	0.003804
2259.000000	0.003882
2258.000000	0.003886
2257.000000	0.003806
2256.000000	0.003676
2255.000000	0.003553
2254.000000	0.003486
2253.000000	0.003477
2252.000000	0.003496
2251.000000	0.003505
2250.000000	0.003484
2249.000000	0.003435
2248.000000	0.003378
2247.000000	0.003340
2246.000000	0.003349
2245.000000	0.003411
2244.000000	0.003496
2243.000000	0.003555
2242.000000	0.003562
2241.000000	0.003538
2240.000000	0.003517
2239.000000	0.003508
2238.000000	0.003490
2237.000000	0.003443
2236.000000	0.003368
2235.000000	0.003290
2234.000000	0.003243
2233.000000	0.003251
2232.000000	0.003302
2231.000000	0.003348
2230.000000	0.003337
2229.000000	0.003254
2228.000000	0.003122
2227.000000	0.002993
2226.000000	0.002932
2225.000000	0.002976
2224.000000	0.003098
2223.000000	0.003212
2222.000000	0.003261
2221.000000	0.003263
2220.000000	0.003255
2219.000000	0.003226
2218.000000	0.003146
2217.000000	0.003038
2216.000000	0.002972
2215.000000	0.002973
2214.000000	0.002978
2213.000000	0.002911
2212.000000	0.002761
2211.000000	0.002594
2210.000000	0.002499
2209.000000	0.002535
2208.000000	0.002693
2207.000000	0.002899
2206.000000	0.003056
2205.000000	0.003106
2204.000000	0.003061
2203.000000	0.002971
2202.000000	0.002883
2201.000000	0.002821
2200.000000	0.002786
2199.000000	0.002772
2198.000000	0.002795
2197.000000	0.002879
2196.000000	0.003008
2195.000000	0.003111
2194.000000	0.003119
2193.000000	0.003034
2192.000000	0.002915
2191.000000	0.002823
2190.000000	0.002788
2189.000000	0.002823
2188.000000	0.002910
2187.000000	0.002989
2186.000000	0.003000
2185.000000	0.002947
2184.000000	0.002878
2183.000000	0.002799
2182.000000	0.002679
2181.000000	0.002527
2180.000000	0.002425
2179.000000	0.002438
2178.000000	0.002541
2177.000000	0.002656
2176.000000	0.002722
2175.000000	0.002722
2174.000000	0.002653
2173.000000	0.002530
2172.000000	0.002410
2171.000000	0.002375
2170.000000	0.002483
2169.000000	0.002712
2168.000000	0.002965
2167.000000	0.003135
2166.000000	0.003183
2165.000000	0.003165
2164.000000	0.003164
2163.000000	0.003192
2162.000000	0.003165
2161.000000	0.002976
2160.000000	0.002587
2159.000000	0.002065
2158.000000	0.001569
2157.000000	0.001260
2156.000000	0.001195
2155.000000	0.001312
2154.000000	0.001508
2153.000000	0.001715
2152.000000	0.001899
2151.000000	0.002034
2150.000000	0.002093
2149.000000	0.002084
2148.000000	0.002059
2147.000000	0.002071
2146.000000	0.002129
2145.000000	0.002202
2144.000000	0.002283
2143.000000	0.002400
2142.000000	0.002570
2141.000000	0.002751
2140.000000	0.002858
2139.000000	0.002862
2138.000000	0.002823
2137.000000	0.002818
2136.000000	0.002853
2135.000000	0.002853
2134.000000	0.002768
2133.000000	0.002635
2132.000000	0.002540
2131.000000	0.002533
2130.000000	0.002597
2129.000000	0.002682
2128.000000	0.002750
2127.000000	0.002794
2126.000000	0.002828
2125.000000	0.002879
2124.000000	0.002964
2123.000000	0.003083
2122.000000	0.003211
2121.000000	0.003311
2120.000000	0.003364
2119.000000	0.003387
2118.000000	0.003428
2117.000000	0.003515
2116.000000	0.003628
2115.000000	0.003708
2114.000000	0.003709
2113.000000	0.003638
2112.000000	0.003547
2111.000000	0.003488
2110.000000	0.003483
2109.000000	0.003519
2108.000000	0.003565
2107.000000	0.003592
2106.000000	0.003595
2105.000000	0.003593
2104.000000	0.003616
2103.000000	0.003664
2102.000000	0.003695
2101.000000	0.003667
2100.000000	0.003585
2099.000000	0.003508
2098.000000	0.003476
2097.000000	0.003476
2096.000000	0.003473
2095.000000	0.003463
2094.000000	0.003469
2093.000000	0.003482
2092.000000	0.003465
2091.000000	0.003405
2090.000000	0.003347
2089.000000	0.003340
2088.000000	0.003397
2087.000000	0.003489
2086.000000	0.003575
2085.000000	0.003609
2084.000000	0.003561
2083.000000	0.003456
2082.000000	0.003376
2081.000000	0.003373
2080.000000	0.003416
2079.000000	0.003442
2078.000000	0.003450
2077.000000	0.003482
2076.000000	0.003534
2075.000000	0.003544
2074.000000	0.003474
2073.000000	0.003355
2072.000000	0.003238
2071.000000	0.003145
2070.000000	0.003084
2069.000000	0.003071
2068.000000	0.003113
2067.000000	0.003184
2066.000000	0.003251
2065.000000	0.003294
2064.000000	0.003291
2063.000000	0.003220
2062.000000	0.003086
2061.000000	0.002930
2060.000000	0.002800
2059.000000	0.002735
2058.000000	0.002756
2057.000000	0.002855
2056.000000	0.002984
2055.000000	0.003093
2054.000000	0.003191
2053.000000	0.003312
2052.000000	0.003425
2051.000000	0.003434
2050.000000	0.003291
2049.000000	0.003076
2048.000000	0.002937
2047.000000	0.002938
2046.000000	0.003029
2045.000000	0.003098
2044.000000	0.003050
2043.000000	0.002856
2042.000000	0.002576
2041.000000	0.002315
2040.000000	0.002145
2039.000000	0.002095
2038.000000	0.002196
2037.000000	0.002436
2036.000000	0.002672
2035.000000	0.002691
2034.000000	0.002423
2033.000000	0.002028
2032.000000	0.001714
2031.000000	0.001549
2030.000000	0.001491
2029.000000	0.001498
2028.000000	0.001538
2027.000000	0.001571
2026.000000	0.001596
2025.000000	0.001654
2024.000000	0.001740
2023.000000	0.001786
2022.000000	0.001764
2021.000000	0.001733
2020.000000	0.001737
2019.000000	0.001737
2018.000000	0.001707
2017.000000	0.001705
2016.000000	0.001783
2015.000000	0.001893
2014.000000	0.001966
2013.000000	0.002022
2012.000000	0.002125
2011.000000	0.002264
2010.000000	0.002359
2009.000000	0.002357
2008.000000	0.002297
2007.000000	0.002252
2006.000000	0.002250
2005.000000	0.002245
2004.000000	0.002170
2003.000000	0.002025
2002.000000	0.001901
2001.000000	0.001887
2000.000000	0.001969
1999.000000	0.002071
1998.000000	0.002176
1997.000000	0.002325
1996.000000	0.002495
1995.000000	0.002581
1994.000000	0.002531
1993.000000	0.002406
1992.000000	0.002285
1991.000000	0.002172
1990.000000	0.002071
1989.000000	0.002069
1988.000000	0.002235
1987.000000	0.002490
1986.000000	0.002660
1985.000000	0.002647
1984.000000	0.002491
1983.000000	0.002299
1982.000000	0.002159
1981.000000	0.002108
1980.000000	0.002098
1979.000000	0.002021
1978.000000	0.001813
1977.000000	0.001554
1976.000000	0.001397
1975.000000	0.001421
1974.000000	0.001600
1973.000000	0.001857
1972.000000	0.002085
1971.000000	0.002173
1970.000000	0.002116
1969.000000	0.002037
1968.000000	0.002064
1967.000000	0.002183
1966.000000	0.002270
1965.000000	0.002242
1964.000000	0.002128
1963.000000	0.001995
1962.000000	0.001878
1961.000000	0.001778
1960.000000	0.001678
1959.000000	0.001566
1958.000000	0.001464
1957.000000	0.001413
1956.000000	0.001442
1955.000000	0.001553
1954.000000	0.001733
1953.000000	0.001957
1952.000000	0.002164
1951.000000	0.002289
1950.000000	0.002304
1949.000000	0.002232
1948.000000	0.002114
1947.000000	0.001994
1946.000000	0.001915
1945.000000	0.001904
1944.000000	0.001948
1943.000000	0.002010
1942.000000	0.002080
1941.000000	0.002162
1940.000000	0.002226
1939.000000	0.002226
1938.000000	0.002167
1937.000000	0.002111
1936.000000	0.002093
1935.000000	0.002084
1934.000000	0.002051
1933.000000	0.002018
1932.000000	0.002023
1931.000000	0.002061
1930.000000	0.002100
1929.000000	0.002128
1928.000000	0.002150
1927.000000	0.002159
1926.000000	0.002131
1925.000000	0.002070
1924.000000	0.002013
1923.000000	0.002004
1922.000000	0.002056
1921.000000	0.002147
1920.000000	0.002232
1919.000000	0.002265
1918.000000	0.002217
1917.000000	0.002116
1916.000000	0.002044
1915.000000	0.002056
1914.000000	0.002133
1913.000000	0.002195
1912.000000	0.002174
1911.000000	0.002087
1910.000000	0.002028
1909.000000	0.002067
1908.000000	0.002171
1907.000000	0.002254
1906.000000	0.002271
1905.000000	0.002239
1904.000000	0.002184
1903.000000	0.002118
1902.000000	0.002064
1901.000000	0.002063
1900.000000	0.002127
1899.000000	0.002213
1898.000000	0.002263
1897.000000	0.002254
1896.000000	0.002204
1895.000000	0.002149
1894.000000	0.002114
1893.000000	0.002096
1892.000000	0.002066
1891.000000	0.002010
1890.000000	0.001963
1889.000000	0.001976
1888.000000	0.002042
1887.000000	0.002094
1886.000000	0.002098
1885.000000	0.002080
1884.000000	0.002077
1883.000000	0.002083
1882.000000	0.002076
1881.000000	0.002068
1880.000000	0.002082
1879.000000	0.002109
1878.000000	0.002118
1877.000000	0.002099
1876.000000	0.002067
1875.000000	0.002035
1874.000000	0.002000
1873.000000	0.001954
1872.000000	0.001900
1871.000000	0.001850
1870.000000	0.001832
1869.000000	0.001870
1868.000000	0.001943
1867.000000	0.002004
1866.000000	0.002031
1865.000000	0.002041
1864.000000	0.002048
1863.000000	0.002043
1862.000000	0.002009
1861.000000	0.001950
1860.000000	0.001884
1859.000000	0.001827
1858.000000	0.001795
1857.000000	0.001806
1856.000000	0.001852
1855.000000	0.001895
1854.000000	0.001909
1853.000000	0.001907
1852.000000	0.001907
1851.000000	0.001897
1850.000000	0.001850
1849.000000	0.001774
1848.000000	0.001699
1847.000000	0.001647
1846.000000	0.001623
1845.000000	0.001638
1844.000000	0.001685
1843.000000	0.001715
1842.000000	0.001700
1841.000000	0.001669
1840.000000	0.001659
1839.000000	0.001672
1838.000000	0.001689
1837.000000	0.001695
1836.000000	0.001690
1835.000000	0.001674
1834.000000	0.001653
1833.000000	0.001637
1832.000000	0.001626
1831.000000	0.001619
1830.000000	0.001623
1829.000000	0.001646
1828.000000	0.001667
1827.000000	0.001656
1826.000000	0.001614
1825.000000	0.001587
1824.000000	0.001613
1823.000000	0.001675
1822.000000	0.001732
1821.000000	0.001761
1820.000000	0.001765
1819.000000	0.001752
1818.000000	0.001730
1817.000000	0.001709
1816.000000	0.001690
1815.000000	0.001658
1814.000000	0.001602
1813.000000	0.001544
1812.000000	0.001519
1811.000000	0.001545
1810.000000	0.001604
1809.000000	0.001670
1808.000000	0.001736
1807.000000	0.001811
1806.000000	0.001896
1805.000000	0.001986
1804.000000	0.002078
1803.000000	0.002182
1802.000000	0.002305
1801.000000	0.002431
1800.000000	0.002534
1799.000000	0.002601
1798.000000	0.002639
1797.000000	0.002666
1796.000000	0.002694
1795.000000	0.002701
1794.000000	0.002649
1793.000000	0.002530
1792.000000	0.002384
1791.000000	0.002258
1790.000000	0.002153
1789.000000	0.002050
1788.000000	0.001944
1787.000000	0.001850
1786.000000	0.001783
1785.000000	0.001747
1784.000000	0.001731
1783.000000	0.001721
1782.000000	0.001711
1781.000000	0.001705
1780.000000	0.001708
1779.000000	0.001706
1778.000000	0.001683
1777.000000	0.001645
1776.000000	0.001624
1775.000000	0.001643
1774.000000	0.001704
1773.000000	0.001799
1772.000000	0.001893
1771.000000	0.001931
1770.000000	0.001915
1769.000000	0.001911
1768.000000	0.001976
1767.000000	0.002105
1766.000000	0.002260
1765.000000	0.002422
1764.000000	0.002606
1763.000000	0.002845
1762.000000	0.003167
1761.000000	0.003571
1760.000000	0.004029
1759.000000	0.004543
1758.000000	0.005178
1757.000000	0.006011
1756.000000	0.007005
1755.000000	0.008014
1754.000000	0.008992
1753.000000	0.010043
1752.000000	0.011290
1751.000000	0.012707
1750.000000	0.014131
1749.000000	0.015475
1748.000000	0.016714
1747.000000	0.017798
1746.000000	0.018722
1745.000000	0.019551
1744.000000	0.020303
1743.000000	0.020921
1742.000000	0.021379
1741.000000	0.021709
1740.000000	0.021904
1739.000000	0.021909
1738.000000	0.021764
1737.000000	0.021557
1736.000000	0.021242
1735.000000	0.020631
1734.000000	0.019638
1733.000000	0.018562
1732.000000	0.017630
1731.000000	0.016726
1730.000000	0.015724
1729.000000	0.014650
1728.000000	0.013589
1727.000000	0.012572
1726.000000	0.011593
1725.000000	0.010659
1724.000000	0.009778
1723.000000	0.008956
1722.000000	0.008218
1721.000000	0.007585
1720.000000	0.007016
1719.000000	0.006444
1718.000000	0.005876
1717.000000	0.005391
1716.000000	0.005020
1715.000000	0.004721
1714.000000	0.004468
1713.000000	0.004261
1712.000000	0.004089
1711.000000	0.003923
1710.000000	0.003760
1709.000000	0.003622
1708.000000	0.003508
1707.000000	0.003402
1706.000000	0.003317
1705.000000	0.003289
1704.000000	0.003317
1703.000000	0.003372
1702.000000	0.003433
1701.000000	0.003498
1700.000000	0.003573
1699.000000	0.003634
1698.000000	0.003679
1697.000000	0.003735
1696.000000	0.003793
1695.000000	0.003840
1694.000000	0.003891
1693.000000	0.003961
1692.000000	0.004043
1691.000000	0.004115
1690.000000	0.004183
1689.000000	0.004273
1688.000000	0.004384
1687.000000	0.004480
1686.000000	0.004526
1685.000000	0.004551
1684.000000	0.004639
1683.000000	0.004773
1682.000000	0.004909
1681.000000	0.005050
1680.000000	0.005173
1679.000000	0.005253
1678.000000	0.005309
1677.000000	0.005382
1676.000000	0.005488
1675.000000	0.005600
1674.000000	0.005699
1673.000000	0.005802
1672.000000	0.005919
1671.000000	0.006032
1670.000000	0.006143
1669.000000	0.006274
1668.000000	0.006409
1667.000000	0.006515
1666.000000	0.006601
1665.000000	0.006699
1664.000000	0.006817
1663.000000	0.006936
1662.000000	0.007041
1661.000000	0.007143
1660.000000	0.007249
1659.000000	0.007336
1658.000000	0.007396
1657.000000	0.007460
1656.000000	0.007559
1655.000000	0.007665
1654.000000	0.007728
1653.000000	0.007760
1652.000000	0.007815
1651.000000	0.007848
1650.000000	0.007885
1649.000000	0.007955
1648.000000	0.008053
1647.000000	0.008123
1646.000000	0.008129
1645.000000	0.008123
1644.000000	0.008146
1643.000000	0.008187
1642.000000	0.008227
1641.000000	0.008259
1640.000000	0.008285
1639.000000	0.008320
1638.000000	0.008369
1637.000000	0.008409
1636.000000	0.008386
1635.000000	0.008280
1634.000000	0.008175
1633.000000	0.008142
1632.000000	0.008166
1631.000000	0.008193
1630.000000	0.008183
1629.000000	0.008145
1628.000000	0.008111
1627.000000	0.008093
1626.000000	0.008089
1625.000000	0.008089
1624.000000	0.008069
1623.000000	0.008012
1622.000000	0.007938
1621.000000	0.007893
1620.000000	0.007887
1619.000000	0.007875
1618.000000	0.007798
1617.000000	0.007632
1616.000000	0.007422
1615.000000	0.007224
1614.000000	0.007068
1613.000000	0.006955
1612.000000	0.006857
1611.000000	0.006743
1610.000000	0.006610
1609.000000	0.006481
1608.000000	0.006359
1607.000000	0.006231
1606.000000	0.006104
1605.000000	0.006000
1604.000000	0.005918
1603.000000	0.005833
1602.000000	0.005740
1601.000000	0.005661
1600.000000	0.005601
1599.000000	0.005544
1598.000000	0.005482
1597.000000	0.005428
1596.000000	0.005387
1595.000000	0.005352
1594.000000	0.005322
1593.000000	0.005311
1592.000000	0.005316
1591.000000	0.005311
1590.000000	0.005287
1589.000000	0.005266
1588.000000	0.005260
1587.000000	0.005262
1586.000000	0.005264
1585.000000	0.005273
1584.000000	0.005282
1583.000000	0.005271
1582.000000	0.005231
1581.000000	0.005188
1580.000000	0.005174
1579.000000	0.005195
1578.000000	0.005223
1577.000000	0.005222
1576.000000	0.005179
1575.000000	0.005127
1574.000000	0.005119
1573.000000	0.005176
1572.000000	0.005258
1571.000000	0.005300
1570.000000	0.005288
1569.000000	0.005281
1568.000000	0.005319
1567.000000	0.005376
1566.000000	0.005428
1565.000000	0.005472
1564.000000	0.005510
1563.000000	0.005552
1562.000000	0.005607
1561.000000	0.005666
1560.000000	0.005711
1559.000000	0.005769
1558.000000	0.005820
1557.000000	0.005920
1556.000000	0.006055
1555.000000	0.006197
1554.000000	0.006342
1553.000000	0.006486
1552.000000	0.006620
1551.000000	0.006749
1550.000000	0.006897
1549.000000	0.007068
1548.000000	0.007228
1547.000000	0.007348
1546.000000	0.007452
1545.000000	0.007602
1544.000000	0.007804
1543.000000	0.008013
1542.000000	0.008212
1541.000000	0.008440
1540.000000	0.008707
1539.000000	0.008933
1538.000000	0.009093
1537.000000	0.009239
1536.000000	0.009394
1535.000000	0.009553
1534.000000	0.009724
1533.000000	0.009919
1532.000000	0.010116
1531.000000	0.010292
1530.000000	0.010441
1529.000000	0.010574
1528.000000	0.010712
1527.000000	0.010866
1526.000000	0.011039
1525.000000	0.011221
1524.000000	0.011391
1523.000000	0.011536
1522.000000	0.011678
1521.000000	0.011835
1520.000000	0.011986
1519.000000	0.012117
1518.000000	0.012254
1517.000000	0.012424
1516.000000	0.012607
1515.000000	0.012777
1514.000000	0.012949
1513.000000	0.013130
1512.000000	0.013293
1511.000000	0.013412
1510.000000	0.013509
1509.000000	0.013647
1508.000000	0.013849
1507.000000	0.014049
1506.000000	0.014216
1505.000000	0.014424
1504.000000	0.014631
1503.000000	0.014818
1502.000000	0.015016
1501.000000	0.015241
1500.000000	0.015463
1499.000000	0.015654
1498.000000	0.015855
1497.000000	0.016131
1496.000000	0.016446
1495.000000	0.016718
1494.000000	0.016953
1493.000000	0.017194
1492.000000	0.017448
1491.000000	0.017710
1490.000000	0.018011
1489.000000	0.018365
1488.000000	0.018736
1487.000000	0.019087
1486.000000	0.019416
1485.000000	0.019749
1484.000000	0.020091
1483.000000	0.020434
1482.000000	0.020805
1481.000000	0.021227
1480.000000	0.021664
1479.000000	0.022063
1478.000000	0.022444
1477.000000	0.022868
1476.000000	0.023344
1475.000000	0.023838
1474.000000	0.024367
1473.000000	0.024976
1472.000000	0.025604
1471.000000	0.026177
1470.000000	0.026727
1469.000000	0.027294
1468.000000	0.027852
1467.000000	0.028360
1466.000000	0.028815
1465.000000	0.029229
1464.000000	0.029576
1463.000000	0.029846
1462.000000	0.030093
1461.000000	0.030357
1460.000000	0.030636
1459.000000	0.030940
1458.000000	0.031368
1457.000000	0.031955
1456.000000	0.032455
1455.000000	0.032751
1454.000000	0.032982
1453.000000	0.033248
1452.000000	0.033536
1451.000000	0.033798
1450.000000	0.034052
1449.000000	0.034346
1448.000000	0.034667
1447.000000	0.034963
1446.000000	0.035246
1445.000000	0.035550
1444.000000	0.035866
1443.000000	0.036174
1442.000000	0.036493
1441.000000	0.036848
1440.000000	0.037214
1439.000000	0.037570
1438.000000	0.037984
1437.000000	0.038543
1436.000000	0.039137
1435.000000	0.039587
1434.000000	0.039925
1433.000000	0.040246
1432.000000	0.040564
1431.000000	0.040859
1430.000000	0.041183
1429.000000	0.041598
1428.000000	0.042063
1427.000000	0.042491
1426.000000	0.042875
1425.000000	0.043236
1424.000000	0.043520
1423.000000	0.043670
1422.000000	0.043761
1421.000000	0.043894
1420.000000	0.044065
1419.000000	0.044199
1418.000000	0.044288
1417.000000	0.044383
1416.000000	0.044437
1415.000000	0.044379
1414.000000	0.044237
1413.000000	0.044071
1412.000000	0.043866
1411.000000	0.043560
1410.000000	0.043167
1409.000000	0.042746
1408.000000	0.042300
1407.000000	0.041809
1406.000000	0.041304
1405.000000	0.040831
1404.000000	0.040397
1403.000000	0.040016
1402.000000	0.039729
1401.000000	0.039536
1400.000000	0.039375
1399.000000	0.039180
1398.000000	0.038971
1397.000000	0.038788
1396.000000	0.038596
1395.000000	0.038344
1394.000000	0.038081
1393.000000	0.037882
1392.000000	0.037714
1391.000000	0.037505
1390.000000	0.037238
1389.000000	0.036925
1388.000000	0.036556
1387.000000	0.036136
1386.000000	0.035739
1385.000000	0.035419
1384.000000	0.035134
1383.000000	0.034822
1382.000000	0.034481
1381.000000	0.034128
1380.000000	0.033748
1379.000000	0.033322
1378.000000	0.032865
1377.000000	0.032396
1376.000000	0.031889
1375.000000	0.031321
1374.000000	0.030733
1373.000000	0.030201
1372.000000	0.029747
1371.000000	0.029338
1370.000000	0.028943
1369.000000	0.028556
1368.000000	0.028177
1367.000000	0.027819
1366.000000	0.027496
1365.000000	0.027194
1364.000000	0.026874
1363.000000	0.026527
1362.000000	0.026200
1361.000000	0.025950
1360.000000	0.025776
1359.000000	0.025643
1358.000000	0.025520
1357.000000	0.025377
1356.000000	0.025187
1355.000000	0.024956
1354.000000	0.024717
1353.000000	0.024489
1352.000000	0.024254
1351.000000	0.024002
1350.000000	0.023744
1349.000000	0.023502
1348.000000	0.023284
1347.000000	0.023094
1346.000000	0.022941
1345.000000	0.022817
1344.000000	0.022705
1343.000000	0.022599
1342.000000	0.022518
1341.000000	0.022480
1340.000000	0.022484
1339.000000	0.022518
1338.000000	0.022578
1337.000000	0.022647
1336.000000	0.022690
1335.000000	0.022675
1334.000000	0.022598
1333.000000	0.022461
1332.000000	0.022273
1331.000000	0.022056
1330.000000	0.021837
1329.000000	0.021620
1328.000000	0.021391
1327.000000	0.021150
1326.000000	0.020923
1325.000000	0.020720
1324.000000	0.020519
1323.000000	0.020305
1322.000000	0.020093
1321.000000	0.019900
1320.000000	0.019716
1319.000000	0.019510
1318.000000	0.019273
1317.000000	0.019018
1316.000000	0.018751
1315.000000	0.018481
1314.000000	0.018222
1313.000000	0.017983
1312.000000	0.017757
1311.000000	0.017530
1310.000000	0.017303
1309.000000	0.017085
1308.000000	0.016881
1307.000000	0.016690
1306.000000	0.016497
1305.000000	0.016285
1304.000000	0.016045
1303.000000	0.015796
1302.000000	0.015561
1301.000000	0.015344
1300.000000	0.015128
1299.000000	0.014901
1298.000000	0.014671
1297.000000	0.014451
1296.000000	0.014244
1295.000000	0.014054
1294.000000	0.013890
1293.000000	0.013754
1292.000000	0.013641
1291.000000	0.013548
1290.000000	0.013469
1289.000000	0.013386
1288.000000	0.013286
1287.000000	0.013172
1286.000000	0.013058
1285.000000	0.012944
1284.000000	0.012819
1283.000000	0.012685
1282.000000	0.012558
1281.000000	0.012452
1280.000000	0.012369
1279.000000	0.012321
1278.000000	0.012318
1277.000000	0.012359
1276.000000	0.012427
1275.000000	0.012520
1274.000000	0.012653
1273.000000	0.012840
1272.000000	0.013080
1271.000000	0.013369
1270.000000	0.013701
1269.000000	0.014067
1268.000000	0.014455
1267.000000	0.014857
1266.000000	0.015271
1265.000000	0.015687
1264.000000	0.016082
1263.000000	0.016448
1262.000000	0.016794
1261.000000	0.017140
1260.000000	0.017495
1259.000000	0.017853
1258.000000	0.018206
1257.000000	0.018532
1256.000000	0.018794
1255.000000	0.018964
1254.000000	0.019040
1253.000000	0.019050
1252.000000	0.019023
1251.000000	0.018986
1250.000000	0.018961
1249.000000	0.018956
1248.000000	0.018966
1247.000000	0.018982
1246.000000	0.019001
1245.000000	0.019023
1244.000000	0.019044
1243.000000	0.019056
1242.000000	0.019051
1241.000000	0.019022
1240.000000	0.018961
1239.000000	0.018868
1238.000000	0.018741
1237.000000	0.018575
1236.000000	0.018361
1235.000000	0.018113
1234.000000	0.017858
1233.000000	0.017609
1232.000000	0.017356
1231.000000	0.017083
1230.000000	0.016781
1229.000000	0.016432
1228.000000	0.016016
1227.000000	0.015534
1226.000000	0.015018
1225.000000	0.014496
1224.000000	0.013983
1223.000000	0.013491
1222.000000	0.013036
1221.000000	0.012629
1220.000000	0.012275
1219.000000	0.011977
1218.000000	0.011737
1217.000000	0.011539
1216.000000	0.011360
1215.000000	0.011196
1214.000000	0.011055
1213.000000	0.010939
1212.000000	0.010849
1211.000000	0.010804
1210.000000	0.010831
1209.000000	0.010929
1208.000000	0.011070
1207.000000	0.011230
1206.000000	0.011418
1205.000000	0.011648
1204.000000	0.011913
1203.000000	0.012195
1202.000000	0.012478
1201.000000	0.012759
1200.000000	0.013039
1199.000000	0.013332
1198.000000	0.013654
1197.000000	0.014004
1196.000000	0.014359
1195.000000	0.014694
1194.000000	0.015002
1193.000000	0.015287
1192.000000	0.015547
1191.000000	0.015783
1190.000000	0.016000
1189.000000	0.016201
1188.000000	0.016382
1187.000000	0.016548
1186.000000	0.016725
1185.000000	0.016942
1184.000000	0.017200
1183.000000	0.017482
1182.000000	0.017790
1181.000000	0.018143
1180.000000	0.018555
1179.000000	0.019010
1178.000000	0.019483
1177.000000	0.019962
1176.000000	0.020449
1175.000000	0.020947
1174.000000	0.021454
1173.000000	0.021961
1172.000000	0.022469
1171.000000	0.022981
1170.000000	0.023506
1169.000000	0.024041
1168.000000	0.024575
1167.000000	0.025098
1166.000000	0.025598
1165.000000	0.026058
1164.000000	0.026458
1163.000000	0.026793
1162.000000	0.027075
1161.000000	0.027305
1160.000000	0.027466
1159.000000	0.027551
1158.000000	0.027577
1157.000000	0.027563
1156.000000	0.027492
1155.000000	0.027335
1154.000000	0.027096
1153.000000	0.026803
1152.000000	0.026470
1151.000000	0.026094
1150.000000	0.025677
1149.000000	0.025232
1148.000000	0.024763
1147.000000	0.024261
1146.000000	0.023727
1145.000000	0.023173
1144.000000	0.022619
1143.000000	0.022086
1142.000000	0.021591
1141.000000	0.021129
1140.000000	0.020680
1139.000000	0.020235
1138.000000	0.019798
1137.000000	0.019367
1136.000000	0.018927
1135.000000	0.018476
1134.000000	0.018041
1133.000000	0.017655
1132.000000	0.017328
1131.000000	0.017063
1130.000000	0.016881
1129.000000	0.016806
1128.000000	0.016839
1127.000000	0.016967
1126.000000	0.017167
1125.000000	0.017420
1124.000000	0.017697
1123.000000	0.017973
1122.000000	0.018239
1121.000000	0.018496
1120.000000	0.018747
1119.000000	0.018999
1118.000000	0.019280
1117.000000	0.019624
1116.000000	0.020054
1115.000000	0.020567
1114.000000	0.021138
1113.000000	0.021729
1112.000000	0.022292
1111.000000	0.022788
1110.000000	0.023191
1109.000000	0.023488
1108.000000	0.023676
1107.000000	0.023768
1106.000000	0.023797
1105.000000	0.023799
1104.000000	0.023787
1103.000000	0.023779
1102.000000	0.023808
1101.000000	0.023910
1100.000000	0.024091
1099.000000	0.024340
1098.000000	0.024646
1097.000000	0.024995
1096.000000	0.025354
1095.000000	0.025684
1094.000000	0.025964
1093.000000	0.026179
1092.000000	0.026305
1091.000000	0.026312
1090.000000	0.026196
1089.000000	0.025971
1088.000000	0.025647
1087.000000	0.025230
1086.000000	0.024743
1085.000000	0.024219
1084.000000	0.023681
1083.000000	0.023140
1082.000000	0.022612
1081.000000	0.022108
1080.000000	0.021630
1079.000000	0.021180
1078.000000	0.020769
1077.000000	0.020396
1076.000000	0.020037
1075.000000	0.019676
1074.000000	0.019336
1073.000000	0.019046
1072.000000	0.018809
1071.000000	0.018606
1070.000000	0.018436
1069.000000	0.018313
1068.000000	0.018238
1067.000000	0.018190
1066.000000	0.018144
1065.000000	0.018092
1064.000000	0.018034
1063.000000	0.017968
1062.000000	0.017897
1061.000000	0.017828
1060.000000	0.017763
1059.000000	0.017694
1058.000000	0.017619
1057.000000	0.017536
1056.000000	0.017439
1055.000000	0.017320
1054.000000	0.017186
1053.000000	0.017048
1052.000000	0.016911
1051.000000	0.016768
1050.000000	0.016618
1049.000000	0.016479
1048.000000	0.016378
1047.000000	0.016333
1046.000000	0.016347
1045.000000	0.016406
1044.000000	0.016488
1043.000000	0.016568
1042.000000	0.016632
1041.000000	0.016690
1040.000000	0.016765
1039.000000	0.016879
1038.000000	0.017034
1037.000000	0.017205
1036.000000	0.017359
1035.000000	0.017480
1034.000000	0.017574
1033.000000	0.017656
1032.000000	0.017729
1031.000000	0.017790
1030.000000	0.017839
1029.000000	0.017883
1028.000000	0.017930
1027.000000	0.017988
1026.000000	0.018049
1025.000000	0.018094
1024.000000	0.018099
1023.000000	0.018067
1022.000000	0.018023
1021.000000	0.017985
1020.000000	0.017942
1019.000000	0.017871
1018.000000	0.017766
1017.000000	0.017639
1016.000000	0.017500
1015.000000	0.017352
1014.000000	0.017195
1013.000000	0.017031
1012.000000	0.016850
1011.000000	0.016638
1010.000000	0.016386
1009.000000	0.016112
1008.000000	0.015845
1007.000000	0.015607
1006.000000	0.015391
1005.000000	0.015170
1004.000000	0.014933
1003.000000	0.014695
1002.000000	0.014478
1001.000000	0.014283
1000.000000	0.014097
999.000000	0.013916
998.000000	0.013752
997.000000	0.013613
996.000000	0.013496
995.000000	0.013391
994.000000	0.013287
993.000000	0.013176
992.000000	0.013057
991.000000	0.012938
990.000000	0.012831
989.000000	0.012740
988.000000	0.012663
987.000000	0.012601
986.000000	0.012556
985.000000	0.012529
984.000000	0.012509
983.000000	0.012486
982.000000	0.012441
981.000000	0.012359
980.000000	0.012245
979.000000	0.012125
978.000000	0.012028
977.000000	0.011963
976.000000	0.011922
975.000000	0.011901
974.000000	0.011899
973.000000	0.011911
972.000000	0.011924
971.000000	0.011928
970.000000	0.011915
969.000000	0.011872
968.000000	0.011794
967.000000	0.011692
966.000000	0.011580
965.000000	0.011458
964.000000	0.011313
963.000000	0.011146
962.000000	0.010969
961.000000	0.010789
960.000000	0.010604
959.000000	0.010416
958.000000	0.010219
957.000000	0.009999
956.000000	0.009750
955.000000	0.009492
954.000000	0.009253
953.000000	0.009027
952.000000	0.008786
951.000000	0.008530
950.000000	0.008296
949.000000	0.008109
948.000000	0.007947
947.000000	0.007768
946.000000	0.007553
945.000000	0.007319
944.000000	0.007086
943.000000	0.006867
942.000000	0.006661
941.000000	0.006465
940.000000	0.006281
939.000000	0.006119
938.000000	0.005975
937.000000	0.005830
936.000000	0.005665
935.000000	0.005487
934.000000	0.005318
933.000000	0.005168
932.000000	0.005037
931.000000	0.004927
930.000000	0.004842
929.000000	0.004767
928.000000	0.004677
927.000000	0.004565
926.000000	0.004447
925.000000	0.004328
924.000000	0.004201
923.000000	0.004066
922.000000	0.003937
921.000000	0.003822
920.000000	0.003717
919.000000	0.003621
918.000000	0.003544
917.000000	0.003482
916.000000	0.003409
915.000000	0.003304
914.000000	0.003180
913.000000	0.003063
912.000000	0.002965
911.000000	0.002876
910.000000	0.002778
909.000000	0.002669
908.000000	0.002562
907.000000	0.002468
906.000000	0.002387
905.000000	0.002307
904.000000	0.002214
903.000000	0.002107
902.000000	0.001992
901.000000	0.001878
900.000000	0.001777
899.000000	0.001703
898.000000	0.001657
897.000000	0.001619
896.000000	0.001572
895.000000	0.001527
894.000000	0.001506
893.000000	0.001521
892.000000	0.001567
891.000000	0.001650
890.000000	0.001820
889.000000	0.002183
888.000000	0.002887
887.000000	0.004059
886.000000	0.005701
885.000000	0.007643
884.000000	0.009626
883.000000	0.011480
882.000000	0.013239
881.000000	0.015094
880.000000	0.017227
879.000000	0.019666
878.000000	0.022262
877.000000	0.024770
876.000000	0.026929
875.000000	0.028509
874.000000	0.029306
873.000000	0.029182
872.000000	0.028114
871.000000	0.026240
870.000000	0.023855
869.000000	0.021298
868.000000	0.018844
867.000000	0.016646
866.000000	0.014739
865.000000	0.013091
864.000000	0.011666
863.000000	0.010449
862.000000	0.009417
861.000000	0.008516
860.000000	0.007689
859.000000	0.006924
858.000000	0.006240
857.000000	0.005654
856.000000	0.005170
855.000000	0.004795
854.000000	0.004519
853.000000	0.004299
852.000000	0.004124
851.000000	0.004067
850.000000	0.004202
849.000000	0.004450
848.000000	0.004584
847.000000	0.004427
846.000000	0.004005
845.000000	0.003488
844.000000	0.003031
843.000000	0.002704
842.000000	0.002523
841.000000	0.002466
840.000000	0.002463
839.000000	0.002443
838.000000	0.002393
837.000000	0.002350
836.000000	0.002337
835.000000	0.002333
834.000000	0.002316
833.000000	0.002284
832.000000	0.002240
831.000000	0.002172
830.000000	0.002065
829.000000	0.001928
828.000000	0.001783
827.000000	0.001654
826.000000	0.001558
825.000000	0.001501
824.000000	0.001477
823.000000	0.001479
822.000000	0.001522
821.000000	0.001624
820.000000	0.001784
819.000000	0.001976
818.000000	0.002167
817.000000	0.002329
816.000000	0.002429
815.000000	0.002433
814.000000	0.002340
813.000000	0.002185
812.000000	0.002016
811.000000	0.001850
810.000000	0.001689
809.000000	0.001544
808.000000	0.001444
807.000000	0.001410
806.000000	0.001434
805.000000	0.001491
804.000000	0.001557
803.000000	0.001623
802.000000	0.001689
801.000000	0.001750
800.000000	0.001796
799.000000	0.001814
798.000000	0.001800
797.000000	0.001772
796.000000	0.001749
795.000000	0.001736
794.000000	0.001727
793.000000	0.001717
792.000000	0.001712
791.000000	0.001714
790.000000	0.001723
789.000000	0.001738
788.000000	0.001759
787.000000	0.001781
786.000000	0.001805
785.000000	0.001842
784.000000	0.001905
783.000000	0.001982
782.000000	0.002039
781.000000	0.002059
780.000000	0.002074
779.000000	0.002126
778.000000	0.002225
777.000000	0.002336
776.000000	0.002414
775.000000	0.002431
774.000000	0.002397
773.000000	0.002353
772.000000	0.002350
771.000000	0.002413
770.000000	0.002517
769.000000	0.002616
768.000000	0.002696
767.000000	0.002786
766.000000	0.002916
765.000000	0.003077
764.000000	0.003228
763.000000	0.003338
762.000000	0.003416
761.000000	0.003506
760.000000	0.003645
759.000000	0.003823
758.000000	0.004001
757.000000	0.004156
756.000000	0.004304
755.000000	0.004458
754.000000	0.004598
753.000000	0.004692
752.000000	0.004738
751.000000	0.004763
750.000000	0.004780
749.000000	0.004781
748.000000	0.004755
747.000000	0.004710
746.000000	0.004653
745.000000	0.004585
744.000000	0.004511
743.000000	0.004438
742.000000	0.004359
741.000000	0.004264
740.000000	0.004156
739.000000	0.004053
738.000000	0.003971
737.000000	0.003924
736.000000	0.003929
735.000000	0.003992
734.000000	0.004074
733.000000	0.004128
732.000000	0.004146
731.000000	0.004157
730.000000	0.004166
729.000000	0.004145
728.000000	0.004079
727.000000	0.003990
726.000000	0.003908
725.000000	0.003842
724.000000	0.003794
723.000000	0.003775
722.000000	0.003796
721.000000	0.003871
720.000000	0.004038
719.000000	0.004380
718.000000	0.005002
717.000000	0.006014
716.000000	0.007510
715.000000	0.009450
714.000000	0.011502
713.000000	0.013067
712.000000	0.013608
711.000000	0.013029
710.000000	0.011720
709.000000	0.010250
708.000000	0.009018
707.000000	0.008151
706.000000	0.007605
705.000000	0.007288
704.000000	0.007103
703.000000	0.006967
702.000000	0.006841
701.000000	0.006736
700.000000	0.006695
699.000000	0.006745
698.000000	0.006864
697.000000	0.006990
696.000000	0.007061
695.000000	0.007070
694.000000	0.007050
693.000000	0.007028
692.000000	0.007010
691.000000	0.006976
690.000000	0.006917
689.000000	0.006845
688.000000	0.006794
687.000000	0.006784
686.000000	0.006789
685.000000	0.006760
684.000000	0.006715
683.000000	0.006714
682.000000	0.006776
681.000000	0.006843
680.000000	0.006869
679.000000	0.006867
678.000000	0.006852
677.000000	0.006820
676.000000	0.006759
675.000000	0.006664
674.000000	0.006508
673.000000	0.006252
672.000000	0.005888
671.000000	0.005429
670.000000	0.004830
669.000000	0.004034
668.000000	0.003326
667.000000	0.003233
666.000000	0.003459
665.000000	0.003723
664.000000	0.003952
663.000000	0.004078
662.000000	0.004158
661.000000	0.004356
660.000000	0.004765
659.000000	0.005289
658.000000	0.005753
657.000000	0.006083
656.000000	0.006269
655.000000	0.006275
654.000000	0.006114
653.000000	0.005881
652.000000	0.005646
651.000000	0.005422
650.000000	0.005274
649.000000	0.005353
648.000000	0.005737
647.000000	0.006341
646.000000	0.007024
645.000000	0.007697
644.000000	0.008280
643.000000	0.008669
642.000000	0.008807
641.000000	0.008753
640.000000	0.008604
639.000000	0.008402
638.000000	0.008174
637.000000	0.007964
636.000000	0.007773
635.000000	0.007549
634.000000	0.007281
633.000000	0.007024
632.000000	0.006819
631.000000	0.006646
630.000000	0.006485
629.000000	0.006360
628.000000	0.006270
627.000000	0.006158
626.000000	0.006010
625.000000	0.005897
624.000000	0.005906
623.000000	0.006041
622.000000	0.006258
621.000000	0.006535
620.000000	0.006883
619.000000	0.007315
618.000000	0.007826
617.000000	0.008386
616.000000	0.008920
615.000000	0.009350
614.000000	0.009661
613.000000	0.009901
612.000000	0.010120
611.000000	0.010333
610.000000	0.010572
609.000000	0.010890
608.000000	0.011295
607.000000	0.011732
606.000000	0.012150
605.000000	0.012514
604.000000	0.012752
603.000000	0.012794
602.000000	0.012670
601.000000	0.012507
600.000000	0.012387
599.000000	0.012278
598.000000	0.012128
597.000000	0.011951
596.000000	0.011768
595.000000	0.011554
594.000000	0.011299
593.000000	0.011045
592.000000	0.010831
591.000000	0.010640
590.000000	0.010447
589.000000	0.010258
588.000000	0.010068
587.000000	0.009842
586.000000	0.009597
585.000000	0.009404
584.000000	0.009275
583.000000	0.009119
582.000000	0.008880
581.000000	0.008622
580.000000	0.008427
579.000000	0.008267
578.000000	0.008068
577.000000	0.007832
576.000000	0.007607
575.000000	0.007390
574.000000	0.007147
573.000000	0.006889
572.000000	0.006654
571.000000	0.006458
570.000000	0.006313
569.000000	0.006237
568.000000	0.006189
567.000000	0.006068
566.000000	0.005819
565.000000	0.005515
564.000000	0.005255
563.000000	0.005049
562.000000	0.004862
561.000000	0.004709
560.000000	0.004625
559.000000	0.004588
558.000000	0.004542
557.000000	0.004464
556.000000	0.004357
555.000000	0.004203
554.000000	0.004015
553.000000	0.003863
552.000000	0.003797
551.000000	0.003765
550.000000	0.003683
549.000000	0.003551
548.000000	0.003419
547.000000	0.003290
546.000000	0.003133
545.000000	0.002973
544.000000	0.002864
543.000000	0.002801
542.000000	0.002733
541.000000	0.002644
540.000000	0.002565
539.000000	0.002508
538.000000	0.002485
537.000000	0.002539
536.000000	0.002702
535.000000	0.002921
534.000000	0.003102
533.000000	0.003218
532.000000	0.003313
531.000000	0.003395
530.000000	0.003422
529.000000	0.003386
528.000000	0.003347
527.000000	0.003355
526.000000	0.003385
525.000000	0.003401
524.000000	0.003427
523.000000	0.003530
522.000000	0.003741
521.000000	0.004004
520.000000	0.004183
519.000000	0.004173
518.000000	0.004022
517.000000	0.003896
516.000000	0.003881
515.000000	0.003905
514.000000	0.003879
513.000000	0.003823
512.000000	0.003806
511.000000	0.003835
510.000000	0.003861
509.000000	0.003847
508.000000	0.003815
507.000000	0.003811
506.000000	0.003878
505.000000	0.004028
504.000000	0.004202
503.000000	0.004317
502.000000	0.004365
501.000000	0.004414
500.000000	0.004477
499.000000	0.004464
498.000000	0.004355
497.000000	0.004272
496.000000	0.004301
495.000000	0.004340
494.000000	0.004251
493.000000	0.004104
492.000000	0.004116
491.000000	0.004364
490.000000	0.004704
489.000000	0.004953
488.000000	0.005021
487.000000	0.004877
486.000000	0.004525
485.000000	0.004067
484.000000	0.003681
483.000000	0.003504
482.000000	0.003583
481.000000	0.003872
480.000000	0.004211
479.000000	0.004371
478.000000	0.004260
477.000000	0.004027
476.000000	0.003861
475.000000	0.003747
474.000000	0.003604
473.000000	0.003521
472.000000	0.003657
471.000000	0.003936
470.000000	0.004144
469.000000	0.004220
468.000000	0.004200
467.000000	0.004051
466.000000	0.003783
465.000000	0.003592
464.000000	0.003673
463.000000	0.003945
462.000000	0.004128
461.000000	0.004103
460.000000	0.003962
459.000000	0.003719
458.000000	0.003302
457.000000	0.002848
456.000000	0.002652
455.000000	0.002707
454.000000	0.002716
453.000000	0.002475
452.000000	0.002060
451.000000	0.001630
450.000000	0.001396
