PE IR       SUBTECH     SPECTRUM    ASCII       PEDS        4.00        
   -1
P12-Vert033_1.ASC
23/06/09
11:01:28.00
23/06/09
11:23:17.00
uco
Sample 033 By uco Date Friday, June 09 2023
450.000000
#HDR
-1
-1
#GR
cm-1
A
1.0
0.0
4000.000000
-1.000000
3551
8
0.007882
-0.001295
#DATA
4000.000000	0.000695
3999.000000	0.000679
3998.000000	0.000674
3997.000000	0.000675
3996.000000	0.000664
3995.000000	0.000664
3994.000000	0.000670
3993.000000	0.000687
3992.000000	0.000715
3991.000000	0.000746
3990.000000	0.000769
3989.000000	0.000775
3988.000000	0.000765
3987.000000	0.000749
3986.000000	0.000738
3985.000000	0.000742
3984.000000	0.000760
3983.000000	0.000787
3982.000000	0.000811
3981.000000	0.000825
3980.000000	0.000824
3979.000000	0.000810
3978.000000	0.000789
3977.000000	0.000766
3976.000000	0.000747
3975.000000	0.000738
3974.000000	0.000741
3973.000000	0.000751
3972.000000	0.000762
3971.000000	0.000772
3970.000000	0.000783
3969.000000	0.000797
3968.000000	0.000812
3967.000000	0.000824
3966.000000	0.000828
3965.000000	0.000823
3964.000000	0.000812
3963.000000	0.000798
3962.000000	0.000788
3961.000000	0.000786
3960.000000	0.000795
3959.000000	0.000813
3958.000000	0.000831
3957.000000	0.000840
3956.000000	0.000838
3955.000000	0.000825
3954.000000	0.000811
3953.000000	0.000803
3952.000000	0.000801
3951.000000	0.000800
3950.000000	0.000792
3949.000000	0.000779
3948.000000	0.000766
3947.000000	0.000764
3946.000000	0.000777
3945.000000	0.000800
3944.000000	0.000823
3943.000000	0.000839
3942.000000	0.000847
3941.000000	0.000850
3940.000000	0.000848
3939.000000	0.000844
3938.000000	0.000834
3937.000000	0.000820
3936.000000	0.000804
3935.000000	0.000787
3934.000000	0.000770
3933.000000	0.000755
3932.000000	0.000747
3931.000000	0.000745
3930.000000	0.000740
3929.000000	0.000726
3928.000000	0.000708
3927.000000	0.000705
3926.000000	0.000731
3925.000000	0.000783
3924.000000	0.000839
3923.000000	0.000878
3922.000000	0.000893
3921.000000	0.000892
3920.000000	0.000888
3919.000000	0.000889
3918.000000	0.000884
3917.000000	0.000863
3916.000000	0.000826
3915.000000	0.000792
3914.000000	0.000775
3913.000000	0.000778
3912.000000	0.000792
3911.000000	0.000810
3910.000000	0.000822
3909.000000	0.000823
3908.000000	0.000814
3907.000000	0.000798
3906.000000	0.000777
3905.000000	0.000750
3904.000000	0.000717
3903.000000	0.000691
3902.000000	0.000689
3901.000000	0.000721
3900.000000	0.000768
3899.000000	0.000806
3898.000000	0.000817
3897.000000	0.000807
3896.000000	0.000789
3895.000000	0.000778
3894.000000	0.000781
3893.000000	0.000796
3892.000000	0.000806
3891.000000	0.000794
3890.000000	0.000768
3889.000000	0.000754
3888.000000	0.000767
3887.000000	0.000794
3886.000000	0.000806
3885.000000	0.000788
3884.000000	0.000760
3883.000000	0.000750
3882.000000	0.000761
3881.000000	0.000775
3880.000000	0.000771
3879.000000	0.000754
3878.000000	0.000747
3877.000000	0.000765
3876.000000	0.000796
3875.000000	0.000807
3874.000000	0.000779
3873.000000	0.000723
3872.000000	0.000673
3871.000000	0.000652
3870.000000	0.000652
3869.000000	0.000656
3868.000000	0.000667
3867.000000	0.000697
3866.000000	0.000743
3865.000000	0.000795
3864.000000	0.000834
3863.000000	0.000852
3862.000000	0.000853
3861.000000	0.000846
3860.000000	0.000839
3859.000000	0.000827
3858.000000	0.000800
3857.000000	0.000762
3856.000000	0.000732
3855.000000	0.000718
3854.000000	0.000699
3853.000000	0.000671
3852.000000	0.000667
3851.000000	0.000711
3850.000000	0.000785
3849.000000	0.000851
3848.000000	0.000889
3847.000000	0.000900
3846.000000	0.000898
3845.000000	0.000890
3844.000000	0.000871
3843.000000	0.000833
3842.000000	0.000776
3841.000000	0.000712
3840.000000	0.000663
3839.000000	0.000645
3838.000000	0.000652
3837.000000	0.000669
3836.000000	0.000687
3835.000000	0.000712
3834.000000	0.000748
3833.000000	0.000789
3832.000000	0.000818
3831.000000	0.000827
3830.000000	0.000822
3829.000000	0.000820
3828.000000	0.000823
3827.000000	0.000820
3826.000000	0.000800
3825.000000	0.000774
3824.000000	0.000770
3823.000000	0.000796
3822.000000	0.000832
3821.000000	0.000837
3820.000000	0.000802
3819.000000	0.000761
3818.000000	0.000748
3817.000000	0.000763
3816.000000	0.000780
3815.000000	0.000789
3814.000000	0.000800
3813.000000	0.000813
3812.000000	0.000823
3811.000000	0.000827
3810.000000	0.000835
3809.000000	0.000847
3808.000000	0.000845
3807.000000	0.000805
3806.000000	0.000736
3805.000000	0.000676
3804.000000	0.000653
3803.000000	0.000670
3802.000000	0.000701
3801.000000	0.000712
3800.000000	0.000708
3799.000000	0.000718
3798.000000	0.000749
3797.000000	0.000789
3796.000000	0.000820
3795.000000	0.000837
3794.000000	0.000845
3793.000000	0.000846
3792.000000	0.000844
3791.000000	0.000846
3790.000000	0.000855
3789.000000	0.000865
3788.000000	0.000874
3787.000000	0.000881
3786.000000	0.000885
3785.000000	0.000879
3784.000000	0.000862
3783.000000	0.000845
3782.000000	0.000842
3781.000000	0.000853
3780.000000	0.000864
3779.000000	0.000865
3778.000000	0.000861
3777.000000	0.000860
3776.000000	0.000865
3775.000000	0.000870
3774.000000	0.000874
3773.000000	0.000882
3772.000000	0.000900
3771.000000	0.000922
3770.000000	0.000937
3769.000000	0.000944
3768.000000	0.000951
3767.000000	0.000959
3766.000000	0.000956
3765.000000	0.000929
3764.000000	0.000888
3763.000000	0.000856
3762.000000	0.000846
3761.000000	0.000847
3760.000000	0.000848
3759.000000	0.000843
3758.000000	0.000832
3757.000000	0.000816
3756.000000	0.000801
3755.000000	0.000790
3754.000000	0.000780
3753.000000	0.000764
3752.000000	0.000753
3751.000000	0.000762
3750.000000	0.000778
3749.000000	0.000770
3748.000000	0.000742
3747.000000	0.000726
3746.000000	0.000741
3745.000000	0.000756
3744.000000	0.000737
3743.000000	0.000711
3742.000000	0.000716
3741.000000	0.000739
3740.000000	0.000756
3739.000000	0.000758
3738.000000	0.000752
3737.000000	0.000741
3736.000000	0.000728
3735.000000	0.000723
3734.000000	0.000728
3733.000000	0.000731
3732.000000	0.000721
3731.000000	0.000707
3730.000000	0.000710
3729.000000	0.000733
3728.000000	0.000763
3727.000000	0.000781
3726.000000	0.000779
3725.000000	0.000767
3724.000000	0.000760
3723.000000	0.000760
3722.000000	0.000763
3721.000000	0.000763
3720.000000	0.000765
3719.000000	0.000776
3718.000000	0.000791
3717.000000	0.000798
3716.000000	0.000790
3715.000000	0.000775
3714.000000	0.000759
3713.000000	0.000746
3712.000000	0.000742
3711.000000	0.000760
3710.000000	0.000798
3709.000000	0.000837
3708.000000	0.000855
3707.000000	0.000850
3706.000000	0.000836
3705.000000	0.000826
3704.000000	0.000824
3703.000000	0.000827
3702.000000	0.000831
3701.000000	0.000838
3700.000000	0.000853
3699.000000	0.000878
3698.000000	0.000900
3697.000000	0.000903
3696.000000	0.000888
3695.000000	0.000873
3694.000000	0.000870
3693.000000	0.000866
3692.000000	0.000849
3691.000000	0.000832
3690.000000	0.000832
3689.000000	0.000842
3688.000000	0.000843
3687.000000	0.000840
3686.000000	0.000841
3685.000000	0.000841
3684.000000	0.000834
3683.000000	0.000828
3682.000000	0.000831
3681.000000	0.000834
3680.000000	0.000818
3679.000000	0.000783
3678.000000	0.000745
3677.000000	0.000715
3676.000000	0.000694
3675.000000	0.000678
3674.000000	0.000668
3673.000000	0.000661
3672.000000	0.000657
3671.000000	0.000656
3670.000000	0.000664
3669.000000	0.000691
3668.000000	0.000735
3667.000000	0.000785
3666.000000	0.000831
3665.000000	0.000865
3664.000000	0.000891
3663.000000	0.000910
3662.000000	0.000918
3661.000000	0.000908
3660.000000	0.000884
3659.000000	0.000868
3658.000000	0.000871
3657.000000	0.000874
3656.000000	0.000852
3655.000000	0.000812
3654.000000	0.000780
3653.000000	0.000771
3652.000000	0.000777
3651.000000	0.000791
3650.000000	0.000821
3649.000000	0.000866
3648.000000	0.000909
3647.000000	0.000936
3646.000000	0.000951
3645.000000	0.000965
3644.000000	0.000982
3643.000000	0.000998
3642.000000	0.001001
3641.000000	0.000984
3640.000000	0.000952
3639.000000	0.000924
3638.000000	0.000912
3637.000000	0.000921
3636.000000	0.000941
3635.000000	0.000960
3634.000000	0.000969
3633.000000	0.000972
3632.000000	0.000985
3631.000000	0.001017
3630.000000	0.001044
3629.000000	0.001024
3628.000000	0.000953
3627.000000	0.000887
3626.000000	0.000864
3625.000000	0.000878
3624.000000	0.000904
3623.000000	0.000930
3622.000000	0.000955
3621.000000	0.000975
3620.000000	0.000992
3619.000000	0.001008
3618.000000	0.001018
3617.000000	0.001019
3616.000000	0.001015
3615.000000	0.001019
3614.000000	0.001037
3613.000000	0.001066
3612.000000	0.001099
3611.000000	0.001132
3610.000000	0.001163
3609.000000	0.001188
3608.000000	0.001200
3607.000000	0.001199
3606.000000	0.001192
3605.000000	0.001182
3604.000000	0.001172
3603.000000	0.001162
3602.000000	0.001154
3601.000000	0.001149
3600.000000	0.001151
3599.000000	0.001162
3598.000000	0.001179
3597.000000	0.001194
3596.000000	0.001206
3595.000000	0.001223
3594.000000	0.001247
3593.000000	0.001270
3592.000000	0.001286
3591.000000	0.001295
3590.000000	0.001297
3589.000000	0.001288
3588.000000	0.001268
3587.000000	0.001251
3586.000000	0.001248
3585.000000	0.001261
3584.000000	0.001290
3583.000000	0.001328
3582.000000	0.001365
3581.000000	0.001390
3580.000000	0.001404
3579.000000	0.001416
3578.000000	0.001432
3577.000000	0.001449
3576.000000	0.001458
3575.000000	0.001462
3574.000000	0.001466
3573.000000	0.001472
3572.000000	0.001478
3571.000000	0.001481
3570.000000	0.001475
3569.000000	0.001450
3568.000000	0.001408
3567.000000	0.001365
3566.000000	0.001343
3565.000000	0.001356
3564.000000	0.001403
3563.000000	0.001478
3562.000000	0.001557
3561.000000	0.001614
3560.000000	0.001635
3559.000000	0.001625
3558.000000	0.001601
3557.000000	0.001576
3556.000000	0.001557
3555.000000	0.001554
3554.000000	0.001570
3553.000000	0.001598
3552.000000	0.001631
3551.000000	0.001661
3550.000000	0.001684
3549.000000	0.001698
3548.000000	0.001703
3547.000000	0.001704
3546.000000	0.001706
3545.000000	0.001708
3544.000000	0.001713
3543.000000	0.001727
3542.000000	0.001750
3541.000000	0.001772
3540.000000	0.001785
3539.000000	0.001797
3538.000000	0.001820
3537.000000	0.001854
3536.000000	0.001889
3535.000000	0.001910
3534.000000	0.001911
3533.000000	0.001894
3532.000000	0.001868
3531.000000	0.001848
3530.000000	0.001845
3529.000000	0.001858
3528.000000	0.001885
3527.000000	0.001918
3526.000000	0.001946
3525.000000	0.001958
3524.000000	0.001950
3523.000000	0.001931
3522.000000	0.001919
3521.000000	0.001925
3520.000000	0.001954
3519.000000	0.002002
3518.000000	0.002059
3517.000000	0.002105
3516.000000	0.002125
3515.000000	0.002119
3514.000000	0.002098
3513.000000	0.002079
3512.000000	0.002077
3511.000000	0.002095
3510.000000	0.002128
3509.000000	0.002155
3508.000000	0.002164
3507.000000	0.002156
3506.000000	0.002138
3505.000000	0.002117
3504.000000	0.002101
3503.000000	0.002098
3502.000000	0.002108
3501.000000	0.002126
3500.000000	0.002143
3499.000000	0.002160
3498.000000	0.002174
3497.000000	0.002182
3496.000000	0.002186
3495.000000	0.002194
3494.000000	0.002209
3493.000000	0.002227
3492.000000	0.002242
3491.000000	0.002256
3490.000000	0.002273
3489.000000	0.002296
3488.000000	0.002320
3487.000000	0.002342
3486.000000	0.002357
3485.000000	0.002360
3484.000000	0.002352
3483.000000	0.002343
3482.000000	0.002344
3481.000000	0.002356
3480.000000	0.002373
3479.000000	0.002387
3478.000000	0.002395
3477.000000	0.002397
3476.000000	0.002401
3475.000000	0.002410
3474.000000	0.002425
3473.000000	0.002435
3472.000000	0.002436
3471.000000	0.002433
3470.000000	0.002431
3469.000000	0.002431
3468.000000	0.002431
3467.000000	0.002432
3466.000000	0.002438
3465.000000	0.002449
3464.000000	0.002463
3463.000000	0.002480
3462.000000	0.002498
3461.000000	0.002513
3460.000000	0.002521
3459.000000	0.002520
3458.000000	0.002509
3457.000000	0.002491
3456.000000	0.002474
3455.000000	0.002470
3454.000000	0.002483
3453.000000	0.002504
3452.000000	0.002527
3451.000000	0.002554
3450.000000	0.002587
3449.000000	0.002621
3448.000000	0.002645
3447.000000	0.002654
3446.000000	0.002652
3445.000000	0.002649
3444.000000	0.002650
3443.000000	0.002662
3442.000000	0.002682
3441.000000	0.002704
3440.000000	0.002719
3439.000000	0.002724
3438.000000	0.002719
3437.000000	0.002707
3436.000000	0.002696
3435.000000	0.002694
3434.000000	0.002701
3433.000000	0.002712
3432.000000	0.002722
3431.000000	0.002728
3430.000000	0.002731
3429.000000	0.002729
3428.000000	0.002721
3427.000000	0.002716
3426.000000	0.002722
3425.000000	0.002738
3424.000000	0.002758
3423.000000	0.002781
3422.000000	0.002803
3421.000000	0.002821
3420.000000	0.002829
3419.000000	0.002831
3418.000000	0.002834
3417.000000	0.002844
3416.000000	0.002861
3415.000000	0.002884
3414.000000	0.002903
3413.000000	0.002912
3412.000000	0.002910
3411.000000	0.002901
3410.000000	0.002896
3409.000000	0.002898
3408.000000	0.002914
3407.000000	0.002946
3406.000000	0.002985
3405.000000	0.003011
3404.000000	0.003010
3403.000000	0.002987
3402.000000	0.002959
3401.000000	0.002942
3400.000000	0.002946
3399.000000	0.002968
3398.000000	0.002994
3397.000000	0.003005
3396.000000	0.002994
3395.000000	0.002975
3394.000000	0.002972
3393.000000	0.002991
3392.000000	0.003023
3391.000000	0.003053
3390.000000	0.003071
3389.000000	0.003078
3388.000000	0.003079
3387.000000	0.003076
3386.000000	0.003069
3385.000000	0.003061
3384.000000	0.003058
3383.000000	0.003067
3382.000000	0.003085
3381.000000	0.003102
3380.000000	0.003112
3379.000000	0.003120
3378.000000	0.003134
3377.000000	0.003159
3376.000000	0.003193
3375.000000	0.003231
3374.000000	0.003264
3373.000000	0.003286
3372.000000	0.003293
3371.000000	0.003287
3370.000000	0.003267
3369.000000	0.003235
3368.000000	0.003206
3367.000000	0.003202
3366.000000	0.003230
3365.000000	0.003272
3364.000000	0.003303
3363.000000	0.003313
3362.000000	0.003312
3361.000000	0.003314
3360.000000	0.003328
3359.000000	0.003351
3358.000000	0.003376
3357.000000	0.003393
3356.000000	0.003398
3355.000000	0.003393
3354.000000	0.003385
3353.000000	0.003382
3352.000000	0.003393
3351.000000	0.003419
3350.000000	0.003448
3349.000000	0.003467
3348.000000	0.003473
3347.000000	0.003474
3346.000000	0.003480
3345.000000	0.003493
3344.000000	0.003513
3343.000000	0.003539
3342.000000	0.003568
3341.000000	0.003591
3340.000000	0.003609
3339.000000	0.003630
3338.000000	0.003660
3337.000000	0.003692
3336.000000	0.003714
3335.000000	0.003720
3334.000000	0.003716
3333.000000	0.003711
3332.000000	0.003716
3331.000000	0.003732
3330.000000	0.003756
3329.000000	0.003778
3328.000000	0.003796
3327.000000	0.003811
3326.000000	0.003825
3325.000000	0.003833
3324.000000	0.003836
3323.000000	0.003841
3322.000000	0.003852
3321.000000	0.003868
3320.000000	0.003889
3319.000000	0.003912
3318.000000	0.003937
3317.000000	0.003957
3316.000000	0.003972
3315.000000	0.003982
3314.000000	0.003987
3313.000000	0.003984
3312.000000	0.003976
3311.000000	0.003971
3310.000000	0.003974
3309.000000	0.003976
3308.000000	0.003969
3307.000000	0.003956
3306.000000	0.003946
3305.000000	0.003943
3304.000000	0.003944
3303.000000	0.003950
3302.000000	0.003961
3301.000000	0.003973
3300.000000	0.003978
3299.000000	0.003975
3298.000000	0.003966
3297.000000	0.003959
3296.000000	0.003965
3295.000000	0.003987
3294.000000	0.004018
3293.000000	0.004043
3292.000000	0.004053
3291.000000	0.004050
3290.000000	0.004044
3289.000000	0.004039
3288.000000	0.004042
3287.000000	0.004055
3286.000000	0.004076
3285.000000	0.004095
3284.000000	0.004108
3283.000000	0.004114
3282.000000	0.004117
3281.000000	0.004115
3280.000000	0.004105
3279.000000	0.004090
3278.000000	0.004073
3277.000000	0.004057
3276.000000	0.004043
3275.000000	0.004035
3274.000000	0.004034
3273.000000	0.004029
3272.000000	0.004014
3271.000000	0.003998
3270.000000	0.003994
3269.000000	0.004002
3268.000000	0.004012
3267.000000	0.004017
3266.000000	0.004020
3265.000000	0.004024
3264.000000	0.004030
3263.000000	0.004034
3262.000000	0.004035
3261.000000	0.004034
3260.000000	0.004029
3259.000000	0.004021
3258.000000	0.004007
3257.000000	0.003990
3256.000000	0.003974
3255.000000	0.003964
3254.000000	0.003959
3253.000000	0.003953
3252.000000	0.003941
3251.000000	0.003925
3250.000000	0.003905
3249.000000	0.003880
3248.000000	0.003849
3247.000000	0.003817
3246.000000	0.003791
3245.000000	0.003777
3244.000000	0.003775
3243.000000	0.003778
3242.000000	0.003780
3241.000000	0.003773
3240.000000	0.003762
3239.000000	0.003753
3238.000000	0.003754
3237.000000	0.003763
3236.000000	0.003776
3235.000000	0.003785
3234.000000	0.003789
3233.000000	0.003787
3232.000000	0.003786
3231.000000	0.003785
3230.000000	0.003785
3229.000000	0.003783
3228.000000	0.003780
3227.000000	0.003781
3226.000000	0.003784
3225.000000	0.003781
3224.000000	0.003775
3223.000000	0.003768
3222.000000	0.003763
3221.000000	0.003755
3220.000000	0.003746
3219.000000	0.003736
3218.000000	0.003725
3217.000000	0.003704
3216.000000	0.003673
3215.000000	0.003641
3214.000000	0.003620
3213.000000	0.003615
3212.000000	0.003622
3211.000000	0.003637
3210.000000	0.003660
3209.000000	0.003690
3208.000000	0.003724
3207.000000	0.003753
3206.000000	0.003760
3205.000000	0.003734
3204.000000	0.003683
3203.000000	0.003630
3202.000000	0.003590
3201.000000	0.003562
3200.000000	0.003544
3199.000000	0.003537
3198.000000	0.003544
3197.000000	0.003560
3196.000000	0.003573
3195.000000	0.003580
3194.000000	0.003584
3193.000000	0.003584
3192.000000	0.003581
3191.000000	0.003578
3190.000000	0.003578
3189.000000	0.003577
3188.000000	0.003571
3187.000000	0.003559
3186.000000	0.003540
3185.000000	0.003515
3184.000000	0.003487
3183.000000	0.003464
3182.000000	0.003452
3181.000000	0.003451
3180.000000	0.003456
3179.000000	0.003463
3178.000000	0.003464
3177.000000	0.003454
3176.000000	0.003432
3175.000000	0.003410
3174.000000	0.003399
3173.000000	0.003404
3172.000000	0.003419
3171.000000	0.003438
3170.000000	0.003453
3169.000000	0.003462
3168.000000	0.003464
3167.000000	0.003463
3166.000000	0.003455
3165.000000	0.003437
3164.000000	0.003408
3163.000000	0.003377
3162.000000	0.003355
3161.000000	0.003343
3160.000000	0.003334
3159.000000	0.003322
3158.000000	0.003309
3157.000000	0.003300
3156.000000	0.003303
3155.000000	0.003314
3154.000000	0.003325
3153.000000	0.003323
3152.000000	0.003309
3151.000000	0.003293
3150.000000	0.003284
3149.000000	0.003278
3148.000000	0.003267
3147.000000	0.003246
3146.000000	0.003217
3145.000000	0.003186
3144.000000	0.003154
3143.000000	0.003124
3142.000000	0.003096
3141.000000	0.003073
3140.000000	0.003066
3139.000000	0.003081
3138.000000	0.003114
3137.000000	0.003145
3136.000000	0.003156
3135.000000	0.003146
3134.000000	0.003131
3133.000000	0.003127
3132.000000	0.003137
3131.000000	0.003156
3130.000000	0.003170
3129.000000	0.003168
3128.000000	0.003150
3127.000000	0.003125
3126.000000	0.003096
3125.000000	0.003065
3124.000000	0.003035
3123.000000	0.003015
3122.000000	0.003013
3121.000000	0.003024
3120.000000	0.003039
3119.000000	0.003051
3118.000000	0.003055
3117.000000	0.003047
3116.000000	0.003025
3115.000000	0.002997
3114.000000	0.002976
3113.000000	0.002967
3112.000000	0.002970
3111.000000	0.002979
3110.000000	0.002989
3109.000000	0.002994
3108.000000	0.002992
3107.000000	0.002990
3106.000000	0.002993
3105.000000	0.003003
3104.000000	0.003012
3103.000000	0.003009
3102.000000	0.002992
3101.000000	0.002972
3100.000000	0.002965
3099.000000	0.002980
3098.000000	0.003006
3097.000000	0.003022
3096.000000	0.003018
3095.000000	0.003008
3094.000000	0.003010
3093.000000	0.003028
3092.000000	0.003052
3091.000000	0.003067
3090.000000	0.003065
3089.000000	0.003049
3088.000000	0.003028
3087.000000	0.003016
3086.000000	0.003019
3085.000000	0.003032
3084.000000	0.003045
3083.000000	0.003054
3082.000000	0.003051
3081.000000	0.003033
3080.000000	0.003006
3079.000000	0.002986
3078.000000	0.002987
3077.000000	0.003008
3076.000000	0.003041
3075.000000	0.003078
3074.000000	0.003112
3073.000000	0.003134
3072.000000	0.003139
3071.000000	0.003129
3070.000000	0.003115
3069.000000	0.003098
3068.000000	0.003079
3067.000000	0.003065
3066.000000	0.003065
3065.000000	0.003077
3064.000000	0.003091
3063.000000	0.003099
3062.000000	0.003100
3061.000000	0.003097
3060.000000	0.003088
3059.000000	0.003072
3058.000000	0.003054
3057.000000	0.003043
3056.000000	0.003040
3055.000000	0.003039
3054.000000	0.003038
3053.000000	0.003039
3052.000000	0.003044
3051.000000	0.003050
3050.000000	0.003055
3049.000000	0.003051
3048.000000	0.003037
3047.000000	0.003013
3046.000000	0.002982
3045.000000	0.002953
3044.000000	0.002937
3043.000000	0.002936
3042.000000	0.002942
3041.000000	0.002944
3040.000000	0.002939
3039.000000	0.002931
3038.000000	0.002930
3037.000000	0.002935
3036.000000	0.002940
3035.000000	0.002932
3034.000000	0.002909
3033.000000	0.002877
3032.000000	0.002849
3031.000000	0.002836
3030.000000	0.002838
3029.000000	0.002849
3028.000000	0.002862
3027.000000	0.002875
3026.000000	0.002890
3025.000000	0.002906
3024.000000	0.002916
3023.000000	0.002916
3022.000000	0.002907
3021.000000	0.002891
3020.000000	0.002874
3019.000000	0.002862
3018.000000	0.002859
3017.000000	0.002867
3016.000000	0.002875
3015.000000	0.002875
3014.000000	0.002862
3013.000000	0.002843
3012.000000	0.002828
3011.000000	0.002822
3010.000000	0.002823
3009.000000	0.002823
3008.000000	0.002820
3007.000000	0.002811
3006.000000	0.002802
3005.000000	0.002795
3004.000000	0.002798
3003.000000	0.002815
3002.000000	0.002844
3001.000000	0.002878
3000.000000	0.002907
2999.000000	0.002927
2998.000000	0.002938
2997.000000	0.002944
2996.000000	0.002953
2995.000000	0.002973
2994.000000	0.003005
2993.000000	0.003039
2992.000000	0.003065
2991.000000	0.003082
2990.000000	0.003092
2989.000000	0.003098
2988.000000	0.003100
2987.000000	0.003101
2986.000000	0.003107
2985.000000	0.003120
2984.000000	0.003144
2983.000000	0.003182
2982.000000	0.003226
2981.000000	0.003265
2980.000000	0.003284
2979.000000	0.003290
2978.000000	0.003300
2977.000000	0.003325
2976.000000	0.003364
2975.000000	0.003407
2974.000000	0.003448
2973.000000	0.003489
2972.000000	0.003528
2971.000000	0.003564
2970.000000	0.003598
2969.000000	0.003636
2968.000000	0.003690
2967.000000	0.003757
2966.000000	0.003819
2965.000000	0.003854
2964.000000	0.003855
2963.000000	0.003840
2962.000000	0.003838
2961.000000	0.003866
2960.000000	0.003918
2959.000000	0.003969
2958.000000	0.003999
2957.000000	0.004005
2956.000000	0.003999
2955.000000	0.003989
2954.000000	0.003975
2953.000000	0.003954
2952.000000	0.003924
2951.000000	0.003895
2950.000000	0.003874
2949.000000	0.003867
2948.000000	0.003871
2947.000000	0.003879
2946.000000	0.003884
2945.000000	0.003892
2944.000000	0.003915
2943.000000	0.003961
2942.000000	0.004024
2941.000000	0.004091
2940.000000	0.004152
2939.000000	0.004209
2938.000000	0.004262
2937.000000	0.004306
2936.000000	0.004339
2935.000000	0.004363
2934.000000	0.004383
2933.000000	0.004399
2932.000000	0.004406
2931.000000	0.004405
2930.000000	0.004403
2929.000000	0.004409
2928.000000	0.004429
2927.000000	0.004458
2926.000000	0.004486
2925.000000	0.004498
2924.000000	0.004489
2923.000000	0.004457
2922.000000	0.004412
2921.000000	0.004364
2920.000000	0.004324
2919.000000	0.004296
2918.000000	0.004280
2917.000000	0.004267
2916.000000	0.004253
2915.000000	0.004236
2914.000000	0.004214
2913.000000	0.004182
2912.000000	0.004137
2911.000000	0.004080
2910.000000	0.004021
2909.000000	0.003974
2908.000000	0.003944
2907.000000	0.003929
2906.000000	0.003919
2905.000000	0.003899
2904.000000	0.003859
2903.000000	0.003803
2902.000000	0.003745
2901.000000	0.003703
2900.000000	0.003682
2899.000000	0.003673
2898.000000	0.003658
2897.000000	0.003629
2896.000000	0.003591
2895.000000	0.003560
2894.000000	0.003544
2893.000000	0.003536
2892.000000	0.003527
2891.000000	0.003512
2890.000000	0.003491
2889.000000	0.003460
2888.000000	0.003418
2887.000000	0.003370
2886.000000	0.003328
2885.000000	0.003303
2884.000000	0.003296
2883.000000	0.003306
2882.000000	0.003332
2881.000000	0.003381
2880.000000	0.003449
2879.000000	0.003519
2878.000000	0.003570
2877.000000	0.003596
2876.000000	0.003606
2875.000000	0.003614
2874.000000	0.003622
2873.000000	0.003624
2872.000000	0.003617
2871.000000	0.003606
2870.000000	0.003595
2869.000000	0.003585
2868.000000	0.003574
2867.000000	0.003564
2866.000000	0.003559
2865.000000	0.003558
2864.000000	0.003559
2863.000000	0.003562
2862.000000	0.003571
2861.000000	0.003591
2860.000000	0.003617
2859.000000	0.003639
2858.000000	0.003651
2857.000000	0.003655
2856.000000	0.003657
2855.000000	0.003662
2854.000000	0.003664
2853.000000	0.003654
2852.000000	0.003622
2851.000000	0.003569
2850.000000	0.003498
2849.000000	0.003418
2848.000000	0.003341
2847.000000	0.003277
2846.000000	0.003233
2845.000000	0.003204
2844.000000	0.003175
2843.000000	0.003136
2842.000000	0.003083
2841.000000	0.003027
2840.000000	0.002981
2839.000000	0.002953
2838.000000	0.002947
2837.000000	0.002952
2836.000000	0.002954
2835.000000	0.002942
2834.000000	0.002916
2833.000000	0.002891
2832.000000	0.002876
2831.000000	0.002870
2830.000000	0.002864
2829.000000	0.002852
2828.000000	0.002835
2827.000000	0.002816
2826.000000	0.002795
2825.000000	0.002770
2824.000000	0.002747
2823.000000	0.002731
2822.000000	0.002723
2821.000000	0.002719
2820.000000	0.002708
2819.000000	0.002691
2818.000000	0.002671
2817.000000	0.002655
2816.000000	0.002651
2815.000000	0.002657
2814.000000	0.002670
2813.000000	0.002678
2812.000000	0.002670
2811.000000	0.002650
2810.000000	0.002633
2809.000000	0.002636
2808.000000	0.002656
2807.000000	0.002670
2806.000000	0.002662
2805.000000	0.002637
2804.000000	0.002615
2803.000000	0.002610
2802.000000	0.002615
2801.000000	0.002618
2800.000000	0.002612
2799.000000	0.002601
2798.000000	0.002592
2797.000000	0.002584
2796.000000	0.002576
2795.000000	0.002563
2794.000000	0.002545
2793.000000	0.002527
2792.000000	0.002517
2791.000000	0.002521
2790.000000	0.002535
2789.000000	0.002548
2788.000000	0.002551
2787.000000	0.002544
2786.000000	0.002534
2785.000000	0.002529
2784.000000	0.002530
2783.000000	0.002536
2782.000000	0.002545
2781.000000	0.002551
2780.000000	0.002552
2779.000000	0.002551
2778.000000	0.002555
2777.000000	0.002571
2776.000000	0.002595
2775.000000	0.002609
2774.000000	0.002599
2773.000000	0.002567
2772.000000	0.002532
2771.000000	0.002511
2770.000000	0.002502
2769.000000	0.002495
2768.000000	0.002484
2767.000000	0.002472
2766.000000	0.002465
2765.000000	0.002465
2764.000000	0.002469
2763.000000	0.002480
2762.000000	0.002502
2761.000000	0.002531
2760.000000	0.002554
2759.000000	0.002552
2758.000000	0.002525
2757.000000	0.002488
2756.000000	0.002462
2755.000000	0.002455
2754.000000	0.002459
2753.000000	0.002464
2752.000000	0.002465
2751.000000	0.002471
2750.000000	0.002485
2749.000000	0.002503
2748.000000	0.002513
2747.000000	0.002506
2746.000000	0.002487
2745.000000	0.002471
2744.000000	0.002463
2743.000000	0.002463
2742.000000	0.002468
2741.000000	0.002477
2740.000000	0.002492
2739.000000	0.002508
2738.000000	0.002520
2737.000000	0.002522
2736.000000	0.002515
2735.000000	0.002504
2734.000000	0.002493
2733.000000	0.002482
2732.000000	0.002471
2731.000000	0.002457
2730.000000	0.002439
2729.000000	0.002421
2728.000000	0.002413
2727.000000	0.002420
2726.000000	0.002437
2725.000000	0.002454
2724.000000	0.002466
2723.000000	0.002475
2722.000000	0.002483
2721.000000	0.002484
2720.000000	0.002475
2719.000000	0.002455
2718.000000	0.002433
2717.000000	0.002420
2716.000000	0.002412
2715.000000	0.002401
2714.000000	0.002388
2713.000000	0.002381
2712.000000	0.002391
2711.000000	0.002412
2710.000000	0.002429
2709.000000	0.002428
2708.000000	0.002413
2707.000000	0.002398
2706.000000	0.002391
2705.000000	0.002395
2704.000000	0.002407
2703.000000	0.002425
2702.000000	0.002445
2701.000000	0.002458
2700.000000	0.002458
2699.000000	0.002441
2698.000000	0.002414
2697.000000	0.002389
2696.000000	0.002371
2695.000000	0.002360
2694.000000	0.002349
2693.000000	0.002337
2692.000000	0.002328
2691.000000	0.002327
2690.000000	0.002338
2689.000000	0.002357
2688.000000	0.002378
2687.000000	0.002392
2686.000000	0.002394
2685.000000	0.002384
2684.000000	0.002368
2683.000000	0.002356
2682.000000	0.002351
2681.000000	0.002353
2680.000000	0.002359
2679.000000	0.002369
2678.000000	0.002380
2677.000000	0.002388
2676.000000	0.002389
2675.000000	0.002386
2674.000000	0.002383
2673.000000	0.002382
2672.000000	0.002379
2671.000000	0.002369
2670.000000	0.002357
2669.000000	0.002355
2668.000000	0.002361
2667.000000	0.002367
2666.000000	0.002366
2665.000000	0.002362
2664.000000	0.002361
2663.000000	0.002364
2662.000000	0.002370
2661.000000	0.002377
2660.000000	0.002384
2659.000000	0.002389
2658.000000	0.002390
2657.000000	0.002390
2656.000000	0.002391
2655.000000	0.002390
2654.000000	0.002382
2653.000000	0.002370
2652.000000	0.002359
2651.000000	0.002353
2650.000000	0.002349
2649.000000	0.002341
2648.000000	0.002330
2647.000000	0.002319
2646.000000	0.002316
2645.000000	0.002319
2644.000000	0.002326
2643.000000	0.002333
2642.000000	0.002337
2641.000000	0.002340
2640.000000	0.002342
2639.000000	0.002340
2638.000000	0.002331
2637.000000	0.002318
2636.000000	0.002306
2635.000000	0.002299
2634.000000	0.002296
2633.000000	0.002295
2632.000000	0.002293
2631.000000	0.002283
2630.000000	0.002263
2629.000000	0.002239
2628.000000	0.002225
2627.000000	0.002230
2626.000000	0.002253
2625.000000	0.002280
2624.000000	0.002295
2623.000000	0.002292
2622.000000	0.002273
2621.000000	0.002246
2620.000000	0.002211
2619.000000	0.002172
2618.000000	0.002140
2617.000000	0.002136
2616.000000	0.002164
2615.000000	0.002209
2614.000000	0.002240
2613.000000	0.002246
2612.000000	0.002236
2611.000000	0.002225
2610.000000	0.002218
2609.000000	0.002208
2608.000000	0.002187
2607.000000	0.002156
2606.000000	0.002128
2605.000000	0.002118
2604.000000	0.002132
2603.000000	0.002151
2602.000000	0.002148
2601.000000	0.002117
2600.000000	0.002081
2599.000000	0.002077
2598.000000	0.002119
2597.000000	0.002184
2596.000000	0.002238
2595.000000	0.002257
2594.000000	0.002241
2593.000000	0.002204
2592.000000	0.002164
2591.000000	0.002138
2590.000000	0.002134
2589.000000	0.002142
2588.000000	0.002144
2587.000000	0.002129
2586.000000	0.002104
2585.000000	0.002087
2584.000000	0.002086
2583.000000	0.002096
2582.000000	0.002104
2581.000000	0.002102
2580.000000	0.002088
2579.000000	0.002066
2578.000000	0.002048
2577.000000	0.002043
2576.000000	0.002054
2575.000000	0.002066
2574.000000	0.002070
2573.000000	0.002067
2572.000000	0.002071
2571.000000	0.002089
2570.000000	0.002112
2569.000000	0.002127
2568.000000	0.002130
2567.000000	0.002133
2566.000000	0.002144
2565.000000	0.002159
2564.000000	0.002160
2563.000000	0.002135
2562.000000	0.002100
2561.000000	0.002081
2560.000000	0.002087
2559.000000	0.002102
2558.000000	0.002097
2557.000000	0.002065
2556.000000	0.002023
2555.000000	0.001989
2554.000000	0.001970
2553.000000	0.001961
2552.000000	0.001958
2551.000000	0.001959
2550.000000	0.001964
2549.000000	0.001969
2548.000000	0.001974
2547.000000	0.001983
2546.000000	0.002002
2545.000000	0.002028
2544.000000	0.002050
2543.000000	0.002062
2542.000000	0.002060
2541.000000	0.002049
2540.000000	0.002031
2539.000000	0.002009
2538.000000	0.001995
2537.000000	0.001995
2536.000000	0.002000
2535.000000	0.001993
2534.000000	0.001964
2533.000000	0.001932
2532.000000	0.001925
2531.000000	0.001953
2530.000000	0.001996
2529.000000	0.002022
2528.000000	0.002016
2527.000000	0.001986
2526.000000	0.001956
2525.000000	0.001947
2524.000000	0.001961
2523.000000	0.001990
2522.000000	0.002019
2521.000000	0.002034
2520.000000	0.002025
2519.000000	0.001999
2518.000000	0.001973
2517.000000	0.001963
2516.000000	0.001971
2515.000000	0.001988
2514.000000	0.002008
2513.000000	0.002025
2512.000000	0.002028
2511.000000	0.002000
2510.000000	0.001940
2509.000000	0.001872
2508.000000	0.001828
2507.000000	0.001825
2506.000000	0.001854
2505.000000	0.001893
2504.000000	0.001922
2503.000000	0.001935
2502.000000	0.001934
2501.000000	0.001924
2500.000000	0.001914
2499.000000	0.001914
2498.000000	0.001928
2497.000000	0.001947
2496.000000	0.001951
2495.000000	0.001930
2494.000000	0.001890
2493.000000	0.001847
2492.000000	0.001811
2491.000000	0.001785
2490.000000	0.001783
2489.000000	0.001815
2488.000000	0.001879
2487.000000	0.001950
2486.000000	0.001996
2485.000000	0.002005
2484.000000	0.001992
2483.000000	0.001981
2482.000000	0.001988
2481.000000	0.001999
2480.000000	0.001994
2479.000000	0.001967
2478.000000	0.001941
2477.000000	0.001930
2476.000000	0.001922
2475.000000	0.001894
2474.000000	0.001851
2473.000000	0.001823
2472.000000	0.001828
2471.000000	0.001850
2470.000000	0.001860
2469.000000	0.001848
2468.000000	0.001823
2467.000000	0.001806
2466.000000	0.001812
2465.000000	0.001844
2464.000000	0.001887
2463.000000	0.001915
2462.000000	0.001920
2461.000000	0.001912
2460.000000	0.001907
2459.000000	0.001908
2458.000000	0.001910
2457.000000	0.001912
2456.000000	0.001915
2455.000000	0.001914
2454.000000	0.001910
2453.000000	0.001908
2452.000000	0.001911
2451.000000	0.001916
2450.000000	0.001912
2449.000000	0.001894
2448.000000	0.001863
2447.000000	0.001829
2446.000000	0.001811
2445.000000	0.001821
2444.000000	0.001850
2443.000000	0.001876
2442.000000	0.001887
2441.000000	0.001889
2440.000000	0.001896
2439.000000	0.001911
2438.000000	0.001930
2437.000000	0.001945
2436.000000	0.001943
2435.000000	0.001915
2434.000000	0.001869
2433.000000	0.001830
2432.000000	0.001814
2431.000000	0.001823
2430.000000	0.001845
2429.000000	0.001867
2428.000000	0.001879
2427.000000	0.001873
2426.000000	0.001853
2425.000000	0.001837
2424.000000	0.001841
2423.000000	0.001869
2422.000000	0.001905
2421.000000	0.001927
2420.000000	0.001921
2419.000000	0.001895
2418.000000	0.001872
2417.000000	0.001863
2416.000000	0.001850
2415.000000	0.001818
2414.000000	0.001772
2413.000000	0.001739
2412.000000	0.001731
2411.000000	0.001744
2410.000000	0.001768
2409.000000	0.001797
2408.000000	0.001819
2407.000000	0.001820
2406.000000	0.001808
2405.000000	0.001809
2404.000000	0.001835
2403.000000	0.001870
2402.000000	0.001893
2401.000000	0.001900
2400.000000	0.001898
2399.000000	0.001895
2398.000000	0.001897
2397.000000	0.001903
2396.000000	0.001907
2395.000000	0.001897
2394.000000	0.001875
2393.000000	0.001851
2392.000000	0.001835
2391.000000	0.001823
2390.000000	0.001812
2389.000000	0.001805
2388.000000	0.001806
2387.000000	0.001809
2386.000000	0.001809
2385.000000	0.001804
2384.000000	0.001791
2383.000000	0.001765
2382.000000	0.001731
2381.000000	0.001705
2380.000000	0.001703
2379.000000	0.001726
2378.000000	0.001759
2377.000000	0.001785
2376.000000	0.001794
2375.000000	0.001790
2374.000000	0.001793
2373.000000	0.001812
2372.000000	0.001830
2371.000000	0.001823
2370.000000	0.001787
2369.000000	0.001739
2368.000000	0.001699
2367.000000	0.001678
2366.000000	0.001682
2365.000000	0.001715
2364.000000	0.001765
2363.000000	0.001818
2362.000000	0.001871
2361.000000	0.001923
2360.000000	0.001952
2359.000000	0.001933
2358.000000	0.001873
2357.000000	0.001819
2356.000000	0.001819
2355.000000	0.001873
2354.000000	0.001915
2353.000000	0.001891
2352.000000	0.001824
2351.000000	0.001779
2350.000000	0.001790
2349.000000	0.001844
2348.000000	0.001905
2347.000000	0.001932
2346.000000	0.001921
2345.000000	0.001913
2344.000000	0.001940
2343.000000	0.001985
2342.000000	0.002013
2341.000000	0.002021
2340.000000	0.002027
2339.000000	0.002049
2338.000000	0.002078
2337.000000	0.002091
2336.000000	0.002076
2335.000000	0.002039
2334.000000	0.001995
2333.000000	0.001952
2332.000000	0.001919
2331.000000	0.001900
2330.000000	0.001898
2329.000000	0.001925
2328.000000	0.001996
2327.000000	0.002107
2326.000000	0.002231
2325.000000	0.002332
2324.000000	0.002384
2323.000000	0.002381
2322.000000	0.002345
2321.000000	0.002316
2320.000000	0.002318
2319.000000	0.002339
2318.000000	0.002348
2317.000000	0.002335
2316.000000	0.002312
2315.000000	0.002293
2314.000000	0.002284
2313.000000	0.002279
2312.000000	0.002268
2311.000000	0.002244
2310.000000	0.002210
2309.000000	0.002179
2308.000000	0.002156
2307.000000	0.002138
2306.000000	0.002121
2305.000000	0.002105
2304.000000	0.002090
2303.000000	0.002072
2302.000000	0.002052
2301.000000	0.002044
2300.000000	0.002054
2299.000000	0.002071
2298.000000	0.002082
2297.000000	0.002085
2296.000000	0.002083
2295.000000	0.002070
2294.000000	0.002047
2293.000000	0.002027
2292.000000	0.002030
2291.000000	0.002058
2290.000000	0.002097
2289.000000	0.002137
2288.000000	0.002172
2287.000000	0.002197
2286.000000	0.002205
2285.000000	0.002185
2284.000000	0.002128
2283.000000	0.002047
2282.000000	0.001979
2281.000000	0.001956
2280.000000	0.001959
2279.000000	0.001943
2278.000000	0.001898
2277.000000	0.001864
2276.000000	0.001878
2275.000000	0.001929
2274.000000	0.001974
2273.000000	0.001988
2272.000000	0.001979
2271.000000	0.001963
2270.000000	0.001962
2269.000000	0.001993
2268.000000	0.002054
2267.000000	0.002114
2266.000000	0.002140
2265.000000	0.002113
2264.000000	0.002036
2263.000000	0.001942
2262.000000	0.001884
2261.000000	0.001897
2260.000000	0.001949
2259.000000	0.001967
2258.000000	0.001919
2257.000000	0.001845
2256.000000	0.001791
2255.000000	0.001768
2254.000000	0.001770
2253.000000	0.001800
2252.000000	0.001844
2251.000000	0.001863
2250.000000	0.001836
2249.000000	0.001784
2248.000000	0.001746
2247.000000	0.001735
2246.000000	0.001757
2245.000000	0.001808
2244.000000	0.001857
2243.000000	0.001860
2242.000000	0.001822
2241.000000	0.001812
2240.000000	0.001882
2239.000000	0.002009
2238.000000	0.002129
2237.000000	0.002197
2236.000000	0.002193
2235.000000	0.002124
2234.000000	0.002039
2233.000000	0.002007
2232.000000	0.002041
2231.000000	0.002073
2230.000000	0.002040
2229.000000	0.001955
2228.000000	0.001862
2227.000000	0.001779
2226.000000	0.001711
2225.000000	0.001677
2224.000000	0.001684
2223.000000	0.001710
2222.000000	0.001741
2221.000000	0.001787
2220.000000	0.001825
2219.000000	0.001795
2218.000000	0.001693
2217.000000	0.001612
2216.000000	0.001623
2215.000000	0.001664
2214.000000	0.001631
2213.000000	0.001526
2212.000000	0.001442
2211.000000	0.001435
2210.000000	0.001476
2209.000000	0.001535
2208.000000	0.001608
2207.000000	0.001688
2206.000000	0.001750
2205.000000	0.001784
2204.000000	0.001789
2203.000000	0.001745
2202.000000	0.001633
2201.000000	0.001478
2200.000000	0.001337
2199.000000	0.001240
2198.000000	0.001181
2197.000000	0.001139
2196.000000	0.001090
2195.000000	0.001028
2194.000000	0.001003
2193.000000	0.001098
2192.000000	0.001319
2191.000000	0.001552
2190.000000	0.001679
2189.000000	0.001702
2188.000000	0.001703
2187.000000	0.001713
2186.000000	0.001699
2185.000000	0.001643
2184.000000	0.001565
2183.000000	0.001463
2182.000000	0.001310
2181.000000	0.001141
2180.000000	0.001062
2179.000000	0.001163
2178.000000	0.001406
2177.000000	0.001629
2176.000000	0.001667
2175.000000	0.001514
2174.000000	0.001344
2173.000000	0.001346
2172.000000	0.001530
2171.000000	0.001752
2170.000000	0.001880
2169.000000	0.001886
2168.000000	0.001778
2167.000000	0.001580
2166.000000	0.001387
2165.000000	0.001344
2164.000000	0.001489
2163.000000	0.001685
2162.000000	0.001783
2161.000000	0.001746
2160.000000	0.001583
2159.000000	0.001273
2158.000000	0.000868
2157.000000	0.000560
2156.000000	0.000484
2155.000000	0.000576
2154.000000	0.000689
2153.000000	0.000741
2152.000000	0.000722
2151.000000	0.000653
2150.000000	0.000592
2149.000000	0.000609
2148.000000	0.000719
2147.000000	0.000869
2146.000000	0.001011
2145.000000	0.001132
2144.000000	0.001211
2143.000000	0.001230
2142.000000	0.001224
2141.000000	0.001264
2140.000000	0.001360
2139.000000	0.001444
2138.000000	0.001471
2137.000000	0.001456
2136.000000	0.001403
2135.000000	0.001285
2134.000000	0.001123
2133.000000	0.001014
2132.000000	0.001019
2131.000000	0.001085
2130.000000	0.001119
2129.000000	0.001103
2128.000000	0.001091
2127.000000	0.001135
2126.000000	0.001242
2125.000000	0.001383
2124.000000	0.001520
2123.000000	0.001623
2122.000000	0.001700
2121.000000	0.001764
2120.000000	0.001793
2119.000000	0.001745
2118.000000	0.001622
2117.000000	0.001501
2116.000000	0.001465
2115.000000	0.001539
2114.000000	0.001675
2113.000000	0.001796
2112.000000	0.001832
2111.000000	0.001766
2110.000000	0.001655
2109.000000	0.001596
2108.000000	0.001630
2107.000000	0.001721
2106.000000	0.001817
2105.000000	0.001894
2104.000000	0.001934
2103.000000	0.001916
2102.000000	0.001845
2101.000000	0.001763
2100.000000	0.001701
2099.000000	0.001640
2098.000000	0.001549
2097.000000	0.001427
2096.000000	0.001298
2095.000000	0.001189
2094.000000	0.001132
2093.000000	0.001157
2092.000000	0.001257
2091.000000	0.001386
2090.000000	0.001503
2089.000000	0.001594
2088.000000	0.001651
2087.000000	0.001681
2086.000000	0.001717
2085.000000	0.001783
2084.000000	0.001852
2083.000000	0.001858
2082.000000	0.001787
2081.000000	0.001704
2080.000000	0.001676
2079.000000	0.001716
2078.000000	0.001789
2077.000000	0.001843
2076.000000	0.001808
2075.000000	0.001657
2074.000000	0.001454
2073.000000	0.001320
2072.000000	0.001301
2071.000000	0.001347
2070.000000	0.001401
2069.000000	0.001447
2068.000000	0.001451
2067.000000	0.001372
2066.000000	0.001252
2065.000000	0.001211
2064.000000	0.001290
2063.000000	0.001395
2062.000000	0.001444
2061.000000	0.001468
2060.000000	0.001531
2059.000000	0.001619
2058.000000	0.001675
2057.000000	0.001673
2056.000000	0.001607
2055.000000	0.001479
2054.000000	0.001357
2053.000000	0.001359
2052.000000	0.001519
2051.000000	0.001740
2050.000000	0.001901
2049.000000	0.001963
2048.000000	0.001918
2047.000000	0.001745
2046.000000	0.001500
2045.000000	0.001329
2044.000000	0.001292
2043.000000	0.001269
2042.000000	0.001148
2041.000000	0.001003
2040.000000	0.000968
2039.000000	0.001028
2038.000000	0.001073
2037.000000	0.001086
2036.000000	0.001129
2035.000000	0.001212
2034.000000	0.001266
2033.000000	0.001210
2032.000000	0.000985
2031.000000	0.000605
2030.000000	0.000251
2029.000000	0.000178
2028.000000	0.000437
2027.000000	0.000795
2026.000000	0.001023
2025.000000	0.001107
2024.000000	0.001133
2023.000000	0.001114
2022.000000	0.001054
2021.000000	0.001024
2020.000000	0.001047
2019.000000	0.001027
2018.000000	0.000904
2017.000000	0.000773
2016.000000	0.000746
2015.000000	0.000810
2014.000000	0.000927
2013.000000	0.001116
2012.000000	0.001333
2011.000000	0.001415
2010.000000	0.001271
2009.000000	0.001014
2008.000000	0.000804
2007.000000	0.000668
2006.000000	0.000590
2005.000000	0.000616
2004.000000	0.000758
2003.000000	0.000910
2002.000000	0.000983
2001.000000	0.001025
2000.000000	0.001094
1999.000000	0.001140
1998.000000	0.001093
1997.000000	0.001001
1996.000000	0.000962
1995.000000	0.000992
1994.000000	0.001051
1993.000000	0.001120
1992.000000	0.001173
1991.000000	0.001155
1990.000000	0.001077
1989.000000	0.001038
1988.000000	0.001095
1987.000000	0.001175
1986.000000	0.001204
1985.000000	0.001227
1984.000000	0.001306
1983.000000	0.001400
1982.000000	0.001429
1981.000000	0.001403
1980.000000	0.001367
1979.000000	0.001311
1978.000000	0.001226
1977.000000	0.001177
1976.000000	0.001196
1975.000000	0.001199
1974.000000	0.001116
1973.000000	0.000978
1972.000000	0.000812
1971.000000	0.000573
1970.000000	0.000285
1969.000000	0.000110
1968.000000	0.000164
1967.000000	0.000363
1966.000000	0.000569
1965.000000	0.000773
1964.000000	0.001008
1963.000000	0.001225
1962.000000	0.001344
1961.000000	0.001356
1960.000000	0.001280
1959.000000	0.001109
1958.000000	0.000864
1957.000000	0.000647
1956.000000	0.000538
1955.000000	0.000523
1954.000000	0.000564
1953.000000	0.000666
1952.000000	0.000815
1951.000000	0.000937
1950.000000	0.000986
1949.000000	0.000995
1948.000000	0.001001
1947.000000	0.000977
1946.000000	0.000907
1945.000000	0.000845
1944.000000	0.000835
1943.000000	0.000829
1942.000000	0.000759
1941.000000	0.000663
1940.000000	0.000629
1939.000000	0.000686
1938.000000	0.000801
1937.000000	0.000928
1936.000000	0.001024
1935.000000	0.001059
1934.000000	0.001051
1933.000000	0.001044
1932.000000	0.001041
1931.000000	0.001009
1930.000000	0.000958
1929.000000	0.000958
1928.000000	0.001034
1927.000000	0.001117
1926.000000	0.001138
1925.000000	0.001114
1924.000000	0.001105
1923.000000	0.001109
1922.000000	0.001085
1921.000000	0.001026
1920.000000	0.000960
1919.000000	0.000906
1918.000000	0.000875
1917.000000	0.000882
1916.000000	0.000914
1915.000000	0.000928
1914.000000	0.000910
1913.000000	0.000902
1912.000000	0.000939
1911.000000	0.001005
1910.000000	0.001056
1909.000000	0.001079
1908.000000	0.001078
1907.000000	0.001049
1906.000000	0.001001
1905.000000	0.000967
1904.000000	0.000966
1903.000000	0.000969
1902.000000	0.000953
1901.000000	0.000945
1900.000000	0.000977
1899.000000	0.001027
1898.000000	0.001044
1897.000000	0.001017
1896.000000	0.000974
1895.000000	0.000934
1894.000000	0.000892
1893.000000	0.000840
1892.000000	0.000783
1891.000000	0.000742
1890.000000	0.000752
1889.000000	0.000831
1888.000000	0.000945
1887.000000	0.001030
1886.000000	0.001059
1885.000000	0.001044
1884.000000	0.001000
1883.000000	0.000937
1882.000000	0.000882
1881.000000	0.000870
1880.000000	0.000895
1879.000000	0.000912
1878.000000	0.000908
1877.000000	0.000915
1876.000000	0.000950
1875.000000	0.000975
1874.000000	0.000956
1873.000000	0.000900
1872.000000	0.000834
1871.000000	0.000764
1870.000000	0.000710
1869.000000	0.000714
1868.000000	0.000779
1867.000000	0.000843
1866.000000	0.000868
1865.000000	0.000888
1864.000000	0.000936
1863.000000	0.000996
1862.000000	0.001031
1861.000000	0.001032
1860.000000	0.001000
1859.000000	0.000932
1858.000000	0.000840
1857.000000	0.000773
1856.000000	0.000765
1855.000000	0.000793
1854.000000	0.000819
1853.000000	0.000833
1852.000000	0.000845
1851.000000	0.000857
1850.000000	0.000867
1849.000000	0.000874
1848.000000	0.000859
1847.000000	0.000806
1846.000000	0.000747
1845.000000	0.000754
1844.000000	0.000839
1843.000000	0.000907
1842.000000	0.000895
1841.000000	0.000848
1840.000000	0.000827
1839.000000	0.000839
1838.000000	0.000861
1837.000000	0.000885
1836.000000	0.000905
1835.000000	0.000892
1834.000000	0.000828
1833.000000	0.000735
1832.000000	0.000655
1831.000000	0.000625
1830.000000	0.000663
1829.000000	0.000737
1828.000000	0.000780
1827.000000	0.000764
1826.000000	0.000731
1825.000000	0.000738
1824.000000	0.000781
1823.000000	0.000805
1822.000000	0.000792
1821.000000	0.000769
1820.000000	0.000749
1819.000000	0.000717
1818.000000	0.000679
1817.000000	0.000675
1816.000000	0.000717
1815.000000	0.000758
1814.000000	0.000757
1813.000000	0.000738
1812.000000	0.000742
1811.000000	0.000774
1810.000000	0.000806
1809.000000	0.000826
1808.000000	0.000843
1807.000000	0.000853
1806.000000	0.000843
1805.000000	0.000814
1804.000000	0.000782
1803.000000	0.000754
1802.000000	0.000741
1801.000000	0.000764
1800.000000	0.000819
1799.000000	0.000864
1798.000000	0.000864
1797.000000	0.000832
1796.000000	0.000798
1795.000000	0.000777
1794.000000	0.000780
1793.000000	0.000825
1792.000000	0.000904
1791.000000	0.000961
1790.000000	0.000949
1789.000000	0.000889
1788.000000	0.000830
1787.000000	0.000801
1786.000000	0.000807
1785.000000	0.000830
1784.000000	0.000829
1783.000000	0.000776
1782.000000	0.000702
1781.000000	0.000680
1780.000000	0.000723
1779.000000	0.000769
1778.000000	0.000758
1777.000000	0.000701
1776.000000	0.000633
1775.000000	0.000580
1774.000000	0.000569
1773.000000	0.000638
1772.000000	0.000756
1771.000000	0.000822
1770.000000	0.000805
1769.000000	0.000783
1768.000000	0.000823
1767.000000	0.000890
1766.000000	0.000915
1765.000000	0.000891
1764.000000	0.000870
1763.000000	0.000894
1762.000000	0.000969
1761.000000	0.001054
1760.000000	0.001103
1759.000000	0.001123
1758.000000	0.001180
1757.000000	0.001328
1756.000000	0.001517
1755.000000	0.001644
1754.000000	0.001700
1753.000000	0.001771
1752.000000	0.001928
1751.000000	0.002144
1750.000000	0.002348
1749.000000	0.002531
1748.000000	0.002710
1747.000000	0.002855
1746.000000	0.002945
1745.000000	0.003016
1744.000000	0.003105
1743.000000	0.003202
1742.000000	0.003282
1741.000000	0.003351
1740.000000	0.003409
1739.000000	0.003399
1738.000000	0.003282
1737.000000	0.003108
1736.000000	0.002969
1735.000000	0.002923
1734.000000	0.002943
1733.000000	0.002916
1732.000000	0.002767
1731.000000	0.002539
1730.000000	0.002323
1729.000000	0.002183
1728.000000	0.002102
1727.000000	0.002016
1726.000000	0.001903
1725.000000	0.001793
1724.000000	0.001710
1723.000000	0.001633
1722.000000	0.001525
1721.000000	0.001395
1720.000000	0.001278
1719.000000	0.001203
1718.000000	0.001186
1717.000000	0.001222
1716.000000	0.001271
1715.000000	0.001286
1714.000000	0.001265
1713.000000	0.001236
1712.000000	0.001217
1711.000000	0.001204
1710.000000	0.001188
1709.000000	0.001180
1708.000000	0.001190
1707.000000	0.001220
1706.000000	0.001276
1705.000000	0.001341
1704.000000	0.001374
1703.000000	0.001367
1702.000000	0.001386
1701.000000	0.001524
1700.000000	0.001755
1699.000000	0.001902
1698.000000	0.001928
1697.000000	0.002006
1696.000000	0.002230
1695.000000	0.002457
1694.000000	0.002535
1693.000000	0.002522
1692.000000	0.002525
1691.000000	0.002566
1690.000000	0.002613
1689.000000	0.002657
1688.000000	0.002711
1687.000000	0.002781
1686.000000	0.002880
1685.000000	0.003047
1684.000000	0.003272
1683.000000	0.003429
1682.000000	0.003472
1681.000000	0.003507
1680.000000	0.003600
1679.000000	0.003721
1678.000000	0.003842
1677.000000	0.003991
1676.000000	0.004193
1675.000000	0.004388
1674.000000	0.004507
1673.000000	0.004575
1672.000000	0.004660
1671.000000	0.004789
1670.000000	0.004945
1669.000000	0.005120
1668.000000	0.005293
1667.000000	0.005424
1666.000000	0.005520
1665.000000	0.005622
1664.000000	0.005757
1663.000000	0.005911
1662.000000	0.006062
1661.000000	0.006211
1660.000000	0.006352
1659.000000	0.006465
1658.000000	0.006544
1657.000000	0.006635
1656.000000	0.006775
1655.000000	0.006963
1654.000000	0.007100
1653.000000	0.007119
1652.000000	0.007123
1651.000000	0.007129
1650.000000	0.007141
1649.000000	0.007210
1648.000000	0.007347
1647.000000	0.007496
1646.000000	0.007596
1645.000000	0.007652
1644.000000	0.007692
1643.000000	0.007718
1642.000000	0.007729
1641.000000	0.007735
1640.000000	0.007744
1639.000000	0.007764
1638.000000	0.007793
1637.000000	0.007826
1636.000000	0.007834
1635.000000	0.007805
1634.000000	0.007777
1633.000000	0.007783
1632.000000	0.007826
1631.000000	0.007872
1630.000000	0.007882
1629.000000	0.007860
1628.000000	0.007832
1627.000000	0.007803
1626.000000	0.007767
1625.000000	0.007722
1624.000000	0.007652
1623.000000	0.007534
1622.000000	0.007392
1621.000000	0.007290
1620.000000	0.007249
1619.000000	0.007229
1618.000000	0.007164
1617.000000	0.007015
1616.000000	0.006828
1615.000000	0.006662
1614.000000	0.006530
1613.000000	0.006428
1612.000000	0.006335
1611.000000	0.006219
1610.000000	0.006080
1609.000000	0.005951
1608.000000	0.005848
1607.000000	0.005746
1606.000000	0.005634
1605.000000	0.005531
1604.000000	0.005437
1603.000000	0.005336
1602.000000	0.005233
1601.000000	0.005148
1600.000000	0.005078
1599.000000	0.004995
1598.000000	0.004894
1597.000000	0.004797
1596.000000	0.004720
1595.000000	0.004652
1594.000000	0.004588
1593.000000	0.004542
1592.000000	0.004514
1591.000000	0.004486
1590.000000	0.004455
1589.000000	0.004439
1588.000000	0.004443
1587.000000	0.004449
1586.000000	0.004448
1585.000000	0.004460
1584.000000	0.004485
1583.000000	0.004493
1582.000000	0.004473
1581.000000	0.004443
1580.000000	0.004420
1579.000000	0.004410
1578.000000	0.004427
1577.000000	0.004492
1576.000000	0.004578
1575.000000	0.004618
1574.000000	0.004600
1573.000000	0.004588
1572.000000	0.004617
1571.000000	0.004674
1570.000000	0.004732
1569.000000	0.004802
1568.000000	0.004882
1567.000000	0.004950
1566.000000	0.005014
1565.000000	0.005099
1564.000000	0.005191
1563.000000	0.005275
1562.000000	0.005360
1561.000000	0.005475
1560.000000	0.005567
1559.000000	0.005566
1558.000000	0.005575
1557.000000	0.005658
1556.000000	0.005766
1555.000000	0.005870
1554.000000	0.005966
1553.000000	0.006041
1552.000000	0.006101
1551.000000	0.006146
1550.000000	0.006195
1549.000000	0.006278
1548.000000	0.006398
1547.000000	0.006513
1546.000000	0.006582
1545.000000	0.006603
1544.000000	0.006607
1543.000000	0.006617
1542.000000	0.006617
1541.000000	0.006602
1540.000000	0.006607
1539.000000	0.006635
1538.000000	0.006649
1537.000000	0.006657
1536.000000	0.006687
1535.000000	0.006717
1534.000000	0.006697
1533.000000	0.006644
1532.000000	0.006629
1531.000000	0.006652
1530.000000	0.006671
1529.000000	0.006666
1528.000000	0.006639
1527.000000	0.006591
1526.000000	0.006535
1525.000000	0.006498
1524.000000	0.006485
1523.000000	0.006451
1522.000000	0.006346
1521.000000	0.006216
1520.000000	0.006145
1519.000000	0.006111
1518.000000	0.006062
1517.000000	0.006002
1516.000000	0.005962
1515.000000	0.005945
1514.000000	0.005926
1513.000000	0.005892
1512.000000	0.005830
1511.000000	0.005730
1510.000000	0.005598
1509.000000	0.005458
1508.000000	0.005331
1507.000000	0.005239
1506.000000	0.005213
1505.000000	0.005212
1504.000000	0.005176
1503.000000	0.005110
1502.000000	0.005038
1501.000000	0.004968
1500.000000	0.004895
1499.000000	0.004814
1498.000000	0.004743
1497.000000	0.004710
1496.000000	0.004704
1495.000000	0.004658
1494.000000	0.004544
1493.000000	0.004402
1492.000000	0.004271
1491.000000	0.004147
1490.000000	0.004035
1489.000000	0.003980
1488.000000	0.004006
1487.000000	0.004064
1486.000000	0.004103
1485.000000	0.004129
1484.000000	0.004156
1483.000000	0.004177
1482.000000	0.004185
1481.000000	0.004196
1480.000000	0.004225
1479.000000	0.004259
1478.000000	0.004286
1477.000000	0.004315
1476.000000	0.004353
1475.000000	0.004388
1474.000000	0.004431
1473.000000	0.004549
1472.000000	0.004752
1471.000000	0.004942
1470.000000	0.005056
1469.000000	0.005139
1468.000000	0.005235
1467.000000	0.005341
1466.000000	0.005438
1465.000000	0.005541
1464.000000	0.005653
1463.000000	0.005736
1462.000000	0.005769
1461.000000	0.005786
1460.000000	0.005823
1459.000000	0.005890
1458.000000	0.005986
1457.000000	0.006124
1456.000000	0.006270
1455.000000	0.006353
1454.000000	0.006392
1453.000000	0.006446
1452.000000	0.006518
1451.000000	0.006563
1450.000000	0.006562
1449.000000	0.006550
1448.000000	0.006566
1447.000000	0.006601
1446.000000	0.006632
1445.000000	0.006663
1444.000000	0.006700
1443.000000	0.006732
1442.000000	0.006749
1441.000000	0.006762
1440.000000	0.006789
1439.000000	0.006826
1438.000000	0.006846
1437.000000	0.006829
1436.000000	0.006788
1435.000000	0.006744
1434.000000	0.006716
1433.000000	0.006715
1432.000000	0.006736
1431.000000	0.006752
1430.000000	0.006754
1429.000000	0.006766
1428.000000	0.006790
1427.000000	0.006800
1426.000000	0.006788
1425.000000	0.006778
1424.000000	0.006788
1423.000000	0.006816
1422.000000	0.006851
1421.000000	0.006886
1420.000000	0.006892
1419.000000	0.006843
1418.000000	0.006785
1417.000000	0.006778
1416.000000	0.006823
1415.000000	0.006879
1414.000000	0.006921
1413.000000	0.006949
1412.000000	0.006971
1411.000000	0.006981
1410.000000	0.006979
1409.000000	0.006970
1408.000000	0.006948
1407.000000	0.006895
1406.000000	0.006823
1405.000000	0.006777
1404.000000	0.006773
1403.000000	0.006775
1402.000000	0.006755
1401.000000	0.006724
1400.000000	0.006691
1399.000000	0.006651
1398.000000	0.006613
1397.000000	0.006610
1396.000000	0.006647
1395.000000	0.006689
1394.000000	0.006708
1393.000000	0.006717
1392.000000	0.006721
1391.000000	0.006707
1390.000000	0.006670
1389.000000	0.006624
1388.000000	0.006583
1387.000000	0.006537
1386.000000	0.006486
1385.000000	0.006445
1384.000000	0.006418
1383.000000	0.006389
1382.000000	0.006348
1381.000000	0.006304
1380.000000	0.006260
1379.000000	0.006195
1378.000000	0.006105
1377.000000	0.006011
1376.000000	0.005923
1375.000000	0.005829
1374.000000	0.005740
1373.000000	0.005689
1372.000000	0.005673
1371.000000	0.005647
1370.000000	0.005587
1369.000000	0.005512
1368.000000	0.005434
1367.000000	0.005341
1366.000000	0.005232
1365.000000	0.005131
1364.000000	0.005047
1363.000000	0.004967
1362.000000	0.004890
1361.000000	0.004841
1360.000000	0.004823
1359.000000	0.004803
1358.000000	0.004769
1357.000000	0.004742
1356.000000	0.004737
1355.000000	0.004731
1354.000000	0.004704
1353.000000	0.004670
1352.000000	0.004645
1351.000000	0.004617
1350.000000	0.004583
1349.000000	0.004564
1348.000000	0.004572
1347.000000	0.004587
1346.000000	0.004598
1345.000000	0.004626
1344.000000	0.004680
1343.000000	0.004724
1342.000000	0.004726
1341.000000	0.004699
1340.000000	0.004675
1339.000000	0.004664
1338.000000	0.004667
1337.000000	0.004701
1336.000000	0.004762
1335.000000	0.004811
1334.000000	0.004817
1333.000000	0.004792
1332.000000	0.004762
1331.000000	0.004727
1330.000000	0.004686
1329.000000	0.004648
1328.000000	0.004619
1327.000000	0.004578
1326.000000	0.004519
1325.000000	0.004468
1324.000000	0.004440
1323.000000	0.004416
1322.000000	0.004385
1321.000000	0.004360
1320.000000	0.004349
1319.000000	0.004334
1318.000000	0.004308
1317.000000	0.004287
1316.000000	0.004268
1315.000000	0.004225
1314.000000	0.004158
1313.000000	0.004112
1312.000000	0.004106
1311.000000	0.004102
1310.000000	0.004070
1309.000000	0.004029
1308.000000	0.004004
1307.000000	0.003973
1306.000000	0.003910
1305.000000	0.003831
1304.000000	0.003766
1303.000000	0.003718
1302.000000	0.003679
1301.000000	0.003654
1300.000000	0.003644
1299.000000	0.003624
1298.000000	0.003585
1297.000000	0.003555
1296.000000	0.003547
1295.000000	0.003537
1294.000000	0.003512
1293.000000	0.003493
1292.000000	0.003502
1291.000000	0.003517
1290.000000	0.003522
1289.000000	0.003534
1288.000000	0.003567
1287.000000	0.003590
1286.000000	0.003586
1285.000000	0.003581
1284.000000	0.003600
1283.000000	0.003622
1282.000000	0.003618
1281.000000	0.003605
1280.000000	0.003610
1279.000000	0.003623
1278.000000	0.003620
1277.000000	0.003610
1276.000000	0.003615
1275.000000	0.003626
1274.000000	0.003629
1273.000000	0.003633
1272.000000	0.003652
1271.000000	0.003676
1270.000000	0.003698
1269.000000	0.003728
1268.000000	0.003772
1267.000000	0.003803
1266.000000	0.003811
1265.000000	0.003825
1264.000000	0.003867
1263.000000	0.003914
1262.000000	0.003941
1261.000000	0.003964
1260.000000	0.004008
1259.000000	0.004065
1258.000000	0.004117
1257.000000	0.004176
1256.000000	0.004243
1255.000000	0.004293
1254.000000	0.004310
1253.000000	0.004323
1252.000000	0.004359
1251.000000	0.004407
1250.000000	0.004448
1249.000000	0.004495
1248.000000	0.004556
1247.000000	0.004618
1246.000000	0.004669
1245.000000	0.004726
1244.000000	0.004794
1243.000000	0.004845
1242.000000	0.004868
1241.000000	0.004890
1240.000000	0.004935
1239.000000	0.004979
1238.000000	0.005001
1237.000000	0.005013
1236.000000	0.005028
1235.000000	0.005032
1234.000000	0.005016
1233.000000	0.004995
1232.000000	0.004981
1231.000000	0.004954
1230.000000	0.004901
1229.000000	0.004845
1228.000000	0.004796
1227.000000	0.004726
1226.000000	0.004621
1225.000000	0.004504
1224.000000	0.004393
1223.000000	0.004275
1222.000000	0.004143
1221.000000	0.004023
1220.000000	0.003932
1219.000000	0.003851
1218.000000	0.003770
1217.000000	0.003711
1216.000000	0.003681
1215.000000	0.003648
1214.000000	0.003598
1213.000000	0.003564
1212.000000	0.003570
1211.000000	0.003587
1210.000000	0.003589
1209.000000	0.003593
1208.000000	0.003621
1207.000000	0.003651
1206.000000	0.003665
1205.000000	0.003685
1204.000000	0.003725
1203.000000	0.003767
1202.000000	0.003793
1201.000000	0.003821
1200.000000	0.003862
1199.000000	0.003892
1198.000000	0.003901
1197.000000	0.003915
1196.000000	0.003950
1195.000000	0.003973
1194.000000	0.003957
1193.000000	0.003927
1192.000000	0.003911
1191.000000	0.003895
1190.000000	0.003870
1189.000000	0.003864
1188.000000	0.003889
1187.000000	0.003909
1186.000000	0.003894
1185.000000	0.003868
1184.000000	0.003860
1183.000000	0.003857
1182.000000	0.003851
1181.000000	0.003869
1180.000000	0.003923
1179.000000	0.003984
1178.000000	0.004032
1177.000000	0.004095
1176.000000	0.004187
1175.000000	0.004271
1174.000000	0.004322
1173.000000	0.004370
1172.000000	0.004446
1171.000000	0.004520
1170.000000	0.004567
1169.000000	0.004620
1168.000000	0.004715
1167.000000	0.004831
1166.000000	0.004930
1165.000000	0.005015
1164.000000	0.005097
1163.000000	0.005152
1162.000000	0.005165
1161.000000	0.005179
1160.000000	0.005230
1159.000000	0.005291
1158.000000	0.005317
1157.000000	0.005314
1156.000000	0.005307
1155.000000	0.005290
1154.000000	0.005250
1153.000000	0.005209
1152.000000	0.005181
1151.000000	0.005144
1150.000000	0.005080
1149.000000	0.005017
1148.000000	0.004967
1147.000000	0.004899
1146.000000	0.004797
1145.000000	0.004700
1144.000000	0.004643
1143.000000	0.004596
1142.000000	0.004522
1141.000000	0.004434
1140.000000	0.004358
1139.000000	0.004282
1138.000000	0.004195
1137.000000	0.004122
1136.000000	0.004072
1135.000000	0.004018
1134.000000	0.003946
1133.000000	0.003896
1132.000000	0.003889
1131.000000	0.003889
1130.000000	0.003866
1129.000000	0.003850
1128.000000	0.003872
1127.000000	0.003910
1126.000000	0.003940
1125.000000	0.003986
1124.000000	0.004059
1123.000000	0.004112
1122.000000	0.004111
1121.000000	0.004096
1120.000000	0.004113
1119.000000	0.004157
1118.000000	0.004208
1117.000000	0.004280
1116.000000	0.004375
1115.000000	0.004453
1114.000000	0.004497
1113.000000	0.004553
1112.000000	0.004648
1111.000000	0.004742
1110.000000	0.004800
1109.000000	0.004845
1108.000000	0.004906
1107.000000	0.004959
1106.000000	0.004989
1105.000000	0.005025
1104.000000	0.005074
1103.000000	0.005094
1102.000000	0.005075
1101.000000	0.005075
1100.000000	0.005132
1099.000000	0.005199
1098.000000	0.005234
1097.000000	0.005267
1096.000000	0.005331
1095.000000	0.005396
1094.000000	0.005431
1093.000000	0.005470
1092.000000	0.005535
1091.000000	0.005581
1090.000000	0.005572
1089.000000	0.005546
1088.000000	0.005551
1087.000000	0.005576
1086.000000	0.005594
1085.000000	0.005611
1084.000000	0.005620
1083.000000	0.005577
1082.000000	0.005488
1081.000000	0.005431
1080.000000	0.005444
1079.000000	0.005468
1078.000000	0.005444
1077.000000	0.005394
1076.000000	0.005354
1075.000000	0.005300
1074.000000	0.005223
1073.000000	0.005165
1072.000000	0.005138
1071.000000	0.005087
1070.000000	0.004991
1069.000000	0.004922
1068.000000	0.004923
1067.000000	0.004942
1066.000000	0.004923
1065.000000	0.004903
1064.000000	0.004928
1063.000000	0.004966
1062.000000	0.004971
1061.000000	0.004966
1060.000000	0.004975
1059.000000	0.004964
1058.000000	0.004920
1057.000000	0.004900
1056.000000	0.004946
1055.000000	0.005005
1054.000000	0.005017
1053.000000	0.005004
1052.000000	0.005006
1051.000000	0.005000
1050.000000	0.004961
1049.000000	0.004933
1048.000000	0.004954
1047.000000	0.004989
1046.000000	0.005002
1045.000000	0.005017
1044.000000	0.005055
1043.000000	0.005086
1042.000000	0.005096
1041.000000	0.005131
1040.000000	0.005211
1039.000000	0.005286
1038.000000	0.005322
1037.000000	0.005353
1036.000000	0.005399
1035.000000	0.005425
1034.000000	0.005423
1033.000000	0.005459
1032.000000	0.005551
1031.000000	0.005626
1030.000000	0.005628
1029.000000	0.005602
1028.000000	0.005590
1027.000000	0.005558
1026.000000	0.005488
1025.000000	0.005445
1024.000000	0.005470
1023.000000	0.005501
1022.000000	0.005479
1021.000000	0.005430
1020.000000	0.005393
1019.000000	0.005340
1018.000000	0.005254
1017.000000	0.005191
1016.000000	0.005187
1015.000000	0.005185
1014.000000	0.005130
1013.000000	0.005059
1012.000000	0.005019
1011.000000	0.004980
1010.000000	0.004911
1009.000000	0.004847
1008.000000	0.004804
1007.000000	0.004730
1006.000000	0.004597
1005.000000	0.004478
1004.000000	0.004440
1003.000000	0.004440
1002.000000	0.004417
1001.000000	0.004389
1000.000000	0.004386
999.000000	0.004371
998.000000	0.004295
997.000000	0.004187
996.000000	0.004098
995.000000	0.004028
994.000000	0.003963
993.000000	0.003927
992.000000	0.003918
991.000000	0.003877
990.000000	0.003776
989.000000	0.003674
988.000000	0.003624
987.000000	0.003593
986.000000	0.003539
985.000000	0.003485
984.000000	0.003452
983.000000	0.003412
982.000000	0.003354
981.000000	0.003322
980.000000	0.003333
979.000000	0.003329
978.000000	0.003282
977.000000	0.003247
976.000000	0.003261
975.000000	0.003263
974.000000	0.003212
973.000000	0.003165
972.000000	0.003169
971.000000	0.003173
970.000000	0.003115
969.000000	0.003028
968.000000	0.002962
967.000000	0.002887
966.000000	0.002767
965.000000	0.002650
964.000000	0.002595
963.000000	0.002576
962.000000	0.002541
961.000000	0.002502
960.000000	0.002490
959.000000	0.002472
958.000000	0.002410
957.000000	0.002332
956.000000	0.002276
955.000000	0.002229
954.000000	0.002176
953.000000	0.002146
952.000000	0.002134
951.000000	0.002079
950.000000	0.001963
949.000000	0.001866
948.000000	0.001854
947.000000	0.001878
946.000000	0.001869
945.000000	0.001835
944.000000	0.001806
943.000000	0.001759
942.000000	0.001681
941.000000	0.001621
940.000000	0.001616
939.000000	0.001624
938.000000	0.001602
937.000000	0.001578
936.000000	0.001577
935.000000	0.001558
934.000000	0.001497
933.000000	0.001442
932.000000	0.001423
931.000000	0.001401
930.000000	0.001353
929.000000	0.001338
928.000000	0.001385
927.000000	0.001422
926.000000	0.001390
925.000000	0.001336
924.000000	0.001314
923.000000	0.001281
922.000000	0.001191
921.000000	0.001097
920.000000	0.001071
919.000000	0.001094
918.000000	0.001113
917.000000	0.001120
916.000000	0.001119
915.000000	0.001075
914.000000	0.000994
913.000000	0.000948
912.000000	0.000968
911.000000	0.000984
910.000000	0.000937
909.000000	0.000882
908.000000	0.000881
907.000000	0.000904
906.000000	0.000906
905.000000	0.000908
904.000000	0.000930
903.000000	0.000931
902.000000	0.000894
901.000000	0.000874
900.000000	0.000889
899.000000	0.000867
898.000000	0.000773
897.000000	0.000695
896.000000	0.000705
895.000000	0.000743
894.000000	0.000734
893.000000	0.000705
892.000000	0.000698
891.000000	0.000671
890.000000	0.000595
889.000000	0.000548
888.000000	0.000608
887.000000	0.000738
886.000000	0.000872
885.000000	0.001024
884.000000	0.001210
883.000000	0.001370
882.000000	0.001477
881.000000	0.001616
880.000000	0.001863
879.000000	0.002156
878.000000	0.002406
877.000000	0.002628
876.000000	0.002857
875.000000	0.003032
874.000000	0.003090
873.000000	0.003071
872.000000	0.003025
871.000000	0.002912
870.000000	0.002700
869.000000	0.002468
868.000000	0.002295
867.000000	0.002143
866.000000	0.001951
865.000000	0.001758
864.000000	0.001622
863.000000	0.001518
862.000000	0.001405
861.000000	0.001307
860.000000	0.001246
859.000000	0.001179
858.000000	0.001088
857.000000	0.001043
856.000000	0.001073
855.000000	0.001093
854.000000	0.001040
853.000000	0.000980
852.000000	0.000988
851.000000	0.001030
850.000000	0.001059
849.000000	0.001099
848.000000	0.001148
847.000000	0.001122
846.000000	0.000991
845.000000	0.000866
844.000000	0.000837
843.000000	0.000846
842.000000	0.000820
841.000000	0.000803
840.000000	0.000842
839.000000	0.000864
838.000000	0.000798
837.000000	0.000708
836.000000	0.000676
835.000000	0.000671
834.000000	0.000644
833.000000	0.000636
832.000000	0.000684
831.000000	0.000719
830.000000	0.000685
829.000000	0.000651
828.000000	0.000688
827.000000	0.000726
826.000000	0.000678
825.000000	0.000601
824.000000	0.000592
823.000000	0.000631
822.000000	0.000656
821.000000	0.000689
820.000000	0.000754
819.000000	0.000800
818.000000	0.000802
817.000000	0.000827
816.000000	0.000908
815.000000	0.000962
814.000000	0.000928
813.000000	0.000867
812.000000	0.000831
811.000000	0.000773
810.000000	0.000675
809.000000	0.000638
808.000000	0.000709
807.000000	0.000780
806.000000	0.000755
805.000000	0.000700
804.000000	0.000701
803.000000	0.000709
802.000000	0.000669
801.000000	0.000641
800.000000	0.000677
799.000000	0.000699
798.000000	0.000642
797.000000	0.000587
796.000000	0.000624
795.000000	0.000700
794.000000	0.000737
793.000000	0.000767
792.000000	0.000834
791.000000	0.000882
790.000000	0.000866
789.000000	0.000848
788.000000	0.000873
787.000000	0.000865
786.000000	0.000773
785.000000	0.000688
784.000000	0.000693
783.000000	0.000724
782.000000	0.000696
781.000000	0.000651
780.000000	0.000663
779.000000	0.000703
778.000000	0.000729
777.000000	0.000779
776.000000	0.000872
775.000000	0.000917
774.000000	0.000846
773.000000	0.000736
772.000000	0.000683
771.000000	0.000668
770.000000	0.000648
769.000000	0.000668
768.000000	0.000748
767.000000	0.000800
766.000000	0.000752
765.000000	0.000671
764.000000	0.000640
763.000000	0.000630
762.000000	0.000606
761.000000	0.000622
760.000000	0.000711
759.000000	0.000798
758.000000	0.000830
757.000000	0.000873
756.000000	0.000968
755.000000	0.001032
754.000000	0.001002
753.000000	0.000958
752.000000	0.000970
751.000000	0.000968
750.000000	0.000886
749.000000	0.000801
748.000000	0.000797
747.000000	0.000822
746.000000	0.000808
745.000000	0.000800
744.000000	0.000849
743.000000	0.000888
742.000000	0.000854
741.000000	0.000819
740.000000	0.000858
739.000000	0.000910
738.000000	0.000895
737.000000	0.000855
736.000000	0.000854
735.000000	0.000851
734.000000	0.000805
733.000000	0.000773
732.000000	0.000800
731.000000	0.000815
730.000000	0.000765
729.000000	0.000721
728.000000	0.000748
727.000000	0.000774
726.000000	0.000734
725.000000	0.000697
724.000000	0.000716
723.000000	0.000714
722.000000	0.000627
721.000000	0.000546
720.000000	0.000567
719.000000	0.000626
718.000000	0.000644
717.000000	0.000692
716.000000	0.000870
715.000000	0.001127
714.000000	0.001347
713.000000	0.001492
712.000000	0.001549
711.000000	0.001462
710.000000	0.001252
709.000000	0.001074
708.000000	0.001033
707.000000	0.001045
706.000000	0.001006
705.000000	0.000959
704.000000	0.000972
703.000000	0.001003
702.000000	0.001010
701.000000	0.001052
700.000000	0.001142
699.000000	0.001151
698.000000	0.001013
697.000000	0.000871
696.000000	0.000865
695.000000	0.000930
694.000000	0.000931
693.000000	0.000870
692.000000	0.000820
691.000000	0.000766
690.000000	0.000698
689.000000	0.000703
688.000000	0.000807
687.000000	0.000866
686.000000	0.000773
685.000000	0.000637
684.000000	0.000611
683.000000	0.000669
682.000000	0.000710
681.000000	0.000735
680.000000	0.000771
679.000000	0.000760
678.000000	0.000677
677.000000	0.000641
676.000000	0.000746
675.000000	0.000887
674.000000	0.000939
673.000000	0.000943
672.000000	0.000989
671.000000	0.001025
670.000000	0.000924
669.000000	0.000667
668.000000	0.000454
667.000000	0.000398
666.000000	0.000357
665.000000	0.000429
664.000000	0.000646
663.000000	0.000837
662.000000	0.000909
661.000000	0.000980
660.000000	0.001144
659.000000	0.001281
658.000000	0.001290
657.000000	0.001286
656.000000	0.001359
655.000000	0.001378
654.000000	0.001244
653.000000	0.001089
652.000000	0.001031
651.000000	0.000969
650.000000	0.000823
649.000000	0.000732
648.000000	0.000811
647.000000	0.000934
646.000000	0.000974
645.000000	0.001011
644.000000	0.001120
643.000000	0.001197
642.000000	0.001173
641.000000	0.001170
640.000000	0.001264
639.000000	0.001294
638.000000	0.001141
637.000000	0.000944
636.000000	0.000855
635.000000	0.000802
634.000000	0.000696
633.000000	0.000634
632.000000	0.000693
631.000000	0.000747
630.000000	0.000699
629.000000	0.000667
628.000000	0.000739
627.000000	0.000787
626.000000	0.000713
625.000000	0.000659
624.000000	0.000730
623.000000	0.000765
622.000000	0.000623
621.000000	0.000456
620.000000	0.000465
619.000000	0.000612
618.000000	0.000770
617.000000	0.000961
616.000000	0.001194
615.000000	0.001300
614.000000	0.001192
613.000000	0.001070
612.000000	0.001122
611.000000	0.001246
610.000000	0.001281
609.000000	0.001302
608.000000	0.001425
607.000000	0.001553
606.000000	0.001583
605.000000	0.001640
604.000000	0.001837
603.000000	0.002021
602.000000	0.002012
601.000000	0.001899
600.000000	0.001856
599.000000	0.001884
598.000000	0.001951
597.000000	0.002149
596.000000	0.002472
595.000000	0.002676
594.000000	0.002598
593.000000	0.002413
592.000000	0.002330
591.000000	0.002278
590.000000	0.002144
589.000000	0.002043
588.000000	0.002086
587.000000	0.002134
586.000000	0.002045
585.000000	0.001931
584.000000	0.001910
583.000000	0.001853
582.000000	0.001653
581.000000	0.001483
580.000000	0.001526
579.000000	0.001657
578.000000	0.001687
577.000000	0.001667
576.000000	0.001693
575.000000	0.001683
574.000000	0.001581
573.000000	0.001536
572.000000	0.001619
571.000000	0.001647
570.000000	0.001511
569.000000	0.001403
568.000000	0.001465
567.000000	0.001520
566.000000	0.001420
565.000000	0.001313
564.000000	0.001312
563.000000	0.001245
562.000000	0.001027
561.000000	0.000904
560.000000	0.001041
559.000000	0.001200
558.000000	0.001158
557.000000	0.001065
556.000000	0.001100
555.000000	0.001096
554.000000	0.000890
553.000000	0.000686
552.000000	0.000716
551.000000	0.000869
550.000000	0.000964
549.000000	0.001093
548.000000	0.001321
547.000000	0.001405
546.000000	0.001175
545.000000	0.000893
544.000000	0.000848
543.000000	0.000909
542.000000	0.000845
541.000000	0.000739
540.000000	0.000760
539.000000	0.000821
538.000000	0.000800
537.000000	0.000793
536.000000	0.000852
535.000000	0.000791
534.000000	0.000572
533.000000	0.000510
532.000000	0.000809
531.000000	0.001205
530.000000	0.001398
529.000000	0.001451
528.000000	0.001479
527.000000	0.001357
526.000000	0.001092
525.000000	0.001048
524.000000	0.001349
523.000000	0.001573
522.000000	0.001385
521.000000	0.001033
520.000000	0.000882
519.000000	0.000886
518.000000	0.000875
517.000000	0.000978
516.000000	0.001263
515.000000	0.001415
514.000000	0.001234
513.000000	0.001015
512.000000	0.001059
511.000000	0.001206
510.000000	0.001222
509.000000	0.001243
508.000000	0.001464
507.000000	0.001736
506.000000	0.001871
505.000000	0.001967
504.000000	0.002032
503.000000	0.001759
502.000000	0.001101
501.000000	0.000606
500.000000	0.000629
499.000000	0.000825
498.000000	0.000825
497.000000	0.000795
496.000000	0.000954
495.000000	0.001087
494.000000	0.000990
493.000000	0.000928
492.000000	0.001132
491.000000	0.001294
490.000000	0.001108
489.000000	0.000840
488.000000	0.000818
487.000000	0.000868
486.000000	0.000739
485.000000	0.000610
484.000000	0.000665
483.000000	0.000614
482.000000	0.000258
481.000000	-0.000008
480.000000	0.000163
479.000000	0.000483
478.000000	0.000594
477.000000	0.000704
476.000000	0.001074
475.000000	0.001379
474.000000	0.001222
473.000000	0.000857
472.000000	0.000756
471.000000	0.000776
470.000000	0.000605
469.000000	0.000458
468.000000	0.000589
467.000000	0.000737
466.000000	0.000645
465.000000	0.000610
464.000000	0.000877
463.000000	0.001070
462.000000	0.000807
461.000000	0.000373
460.000000	0.000100
459.000000	-0.000290
458.000000	-0.000975
457.000000	-0.001295
456.000000	-0.000822
455.000000	-0.000203
454.000000	0.000008
453.000000	0.000117
452.000000	0.000505
451.000000	0.000760
450.000000	0.000479
