PE IR       SUBTECH     SPECTRUM    ASCII       PEDS        4.00        
   -1
P12-Bleu038_1.ASC
23/06/08
11:40:50.00
23/06/08
11:52:51.00
uco
Sample 038 By uco Date Thursday, June 08 2023
450.000000
#HDR
-1
-1
#GR
cm-1
A
1.0
0.0
4000.000000
-1.000000
3551
8
0.009484
-0.001631
#DATA
4000.000000	0.000412
3999.000000	0.000408
3998.000000	0.000408
3997.000000	0.000416
3996.000000	0.000426
3995.000000	0.000435
3994.000000	0.000436
3993.000000	0.000430
3992.000000	0.000420
3991.000000	0.000409
3990.000000	0.000401
3989.000000	0.000395
3988.000000	0.000395
3987.000000	0.000404
3986.000000	0.000423
3985.000000	0.000444
3984.000000	0.000455
3983.000000	0.000450
3982.000000	0.000434
3981.000000	0.000422
3980.000000	0.000421
3979.000000	0.000428
3978.000000	0.000433
3977.000000	0.000426
3976.000000	0.000406
3975.000000	0.000385
3974.000000	0.000377
3973.000000	0.000390
3972.000000	0.000418
3971.000000	0.000446
3970.000000	0.000463
3969.000000	0.000466
3968.000000	0.000463
3967.000000	0.000462
3966.000000	0.000464
3965.000000	0.000464
3964.000000	0.000456
3963.000000	0.000442
3962.000000	0.000427
3961.000000	0.000414
3960.000000	0.000403
3959.000000	0.000395
3958.000000	0.000394
3957.000000	0.000403
3956.000000	0.000421
3955.000000	0.000441
3954.000000	0.000457
3953.000000	0.000465
3952.000000	0.000465
3951.000000	0.000461
3950.000000	0.000454
3949.000000	0.000450
3948.000000	0.000452
3947.000000	0.000457
3946.000000	0.000457
3945.000000	0.000446
3944.000000	0.000430
3943.000000	0.000422
3942.000000	0.000429
3941.000000	0.000445
3940.000000	0.000461
3939.000000	0.000475
3938.000000	0.000489
3937.000000	0.000503
3936.000000	0.000509
3935.000000	0.000506
3934.000000	0.000503
3933.000000	0.000507
3932.000000	0.000514
3931.000000	0.000512
3930.000000	0.000499
3929.000000	0.000484
3928.000000	0.000476
3927.000000	0.000475
3926.000000	0.000480
3925.000000	0.000488
3924.000000	0.000497
3923.000000	0.000501
3922.000000	0.000498
3921.000000	0.000495
3920.000000	0.000502
3919.000000	0.000524
3918.000000	0.000552
3917.000000	0.000568
3916.000000	0.000564
3915.000000	0.000546
3914.000000	0.000523
3913.000000	0.000504
3912.000000	0.000496
3911.000000	0.000499
3910.000000	0.000513
3909.000000	0.000535
3908.000000	0.000556
3907.000000	0.000576
3906.000000	0.000597
3905.000000	0.000632
3904.000000	0.000685
3903.000000	0.000733
3902.000000	0.000746
3901.000000	0.000709
3900.000000	0.000642
3899.000000	0.000582
3898.000000	0.000550
3897.000000	0.000541
3896.000000	0.000538
3895.000000	0.000523
3894.000000	0.000489
3893.000000	0.000446
3892.000000	0.000425
3891.000000	0.000452
3890.000000	0.000518
3889.000000	0.000580
3888.000000	0.000603
3887.000000	0.000589
3886.000000	0.000573
3885.000000	0.000585
3884.000000	0.000610
3883.000000	0.000613
3882.000000	0.000579
3881.000000	0.000532
3880.000000	0.000510
3879.000000	0.000522
3878.000000	0.000538
3877.000000	0.000531
3876.000000	0.000503
3875.000000	0.000488
3874.000000	0.000516
3873.000000	0.000574
3872.000000	0.000619
3871.000000	0.000633
3870.000000	0.000636
3869.000000	0.000650
3868.000000	0.000666
3867.000000	0.000665
3866.000000	0.000647
3865.000000	0.000627
3864.000000	0.000617
3863.000000	0.000613
3862.000000	0.000610
3861.000000	0.000608
3860.000000	0.000609
3859.000000	0.000617
3858.000000	0.000635
3857.000000	0.000659
3856.000000	0.000674
3855.000000	0.000670
3854.000000	0.000678
3853.000000	0.000701
3852.000000	0.000698
3851.000000	0.000671
3850.000000	0.000650
3849.000000	0.000642
3848.000000	0.000638
3847.000000	0.000626
3846.000000	0.000603
3845.000000	0.000580
3844.000000	0.000575
3843.000000	0.000597
3842.000000	0.000638
3841.000000	0.000672
3840.000000	0.000676
3839.000000	0.000655
3838.000000	0.000630
3837.000000	0.000620
3836.000000	0.000625
3835.000000	0.000635
3834.000000	0.000634
3833.000000	0.000624
3832.000000	0.000613
3831.000000	0.000611
3830.000000	0.000610
3829.000000	0.000591
3828.000000	0.000546
3827.000000	0.000501
3826.000000	0.000491
3825.000000	0.000523
3824.000000	0.000573
3823.000000	0.000606
3822.000000	0.000620
3821.000000	0.000638
3820.000000	0.000663
3819.000000	0.000671
3818.000000	0.000637
3817.000000	0.000575
3816.000000	0.000518
3815.000000	0.000491
3814.000000	0.000485
3813.000000	0.000480
3812.000000	0.000480
3811.000000	0.000499
3810.000000	0.000537
3809.000000	0.000582
3808.000000	0.000631
3807.000000	0.000687
3806.000000	0.000746
3805.000000	0.000780
3804.000000	0.000767
3803.000000	0.000709
3802.000000	0.000642
3801.000000	0.000608
3800.000000	0.000616
3799.000000	0.000639
3798.000000	0.000657
3797.000000	0.000663
3796.000000	0.000655
3795.000000	0.000635
3794.000000	0.000600
3793.000000	0.000558
3792.000000	0.000516
3791.000000	0.000481
3790.000000	0.000458
3789.000000	0.000446
3788.000000	0.000446
3787.000000	0.000452
3786.000000	0.000457
3785.000000	0.000453
3784.000000	0.000441
3783.000000	0.000426
3782.000000	0.000410
3781.000000	0.000394
3780.000000	0.000386
3779.000000	0.000394
3778.000000	0.000415
3777.000000	0.000436
3776.000000	0.000458
3775.000000	0.000490
3774.000000	0.000535
3773.000000	0.000577
3772.000000	0.000597
3771.000000	0.000594
3770.000000	0.000584
3769.000000	0.000580
3768.000000	0.000581
3767.000000	0.000582
3766.000000	0.000583
3765.000000	0.000587
3764.000000	0.000590
3763.000000	0.000589
3762.000000	0.000578
3761.000000	0.000564
3760.000000	0.000557
3759.000000	0.000562
3758.000000	0.000571
3757.000000	0.000582
3756.000000	0.000598
3755.000000	0.000625
3754.000000	0.000671
3753.000000	0.000738
3752.000000	0.000817
3751.000000	0.000885
3750.000000	0.000923
3749.000000	0.000940
3748.000000	0.000945
3747.000000	0.000930
3746.000000	0.000895
3745.000000	0.000868
3744.000000	0.000869
3743.000000	0.000876
3742.000000	0.000858
3741.000000	0.000829
3740.000000	0.000810
3739.000000	0.000818
3738.000000	0.000847
3737.000000	0.000886
3736.000000	0.000907
3735.000000	0.000884
3734.000000	0.000827
3733.000000	0.000780
3732.000000	0.000772
3731.000000	0.000792
3730.000000	0.000814
3729.000000	0.000819
3728.000000	0.000807
3727.000000	0.000795
3726.000000	0.000792
3725.000000	0.000792
3724.000000	0.000781
3723.000000	0.000754
3722.000000	0.000716
3721.000000	0.000671
3720.000000	0.000624
3719.000000	0.000588
3718.000000	0.000581
3717.000000	0.000609
3716.000000	0.000660
3715.000000	0.000709
3714.000000	0.000744
3713.000000	0.000767
3712.000000	0.000787
3711.000000	0.000791
3710.000000	0.000760
3709.000000	0.000693
3708.000000	0.000618
3707.000000	0.000565
3706.000000	0.000541
3705.000000	0.000526
3704.000000	0.000497
3703.000000	0.000455
3702.000000	0.000421
3701.000000	0.000413
3700.000000	0.000427
3699.000000	0.000446
3698.000000	0.000464
3697.000000	0.000483
3696.000000	0.000509
3695.000000	0.000540
3694.000000	0.000561
3693.000000	0.000556
3692.000000	0.000522
3691.000000	0.000479
3690.000000	0.000457
3689.000000	0.000469
3688.000000	0.000501
3687.000000	0.000542
3686.000000	0.000583
3685.000000	0.000614
3684.000000	0.000636
3683.000000	0.000656
3682.000000	0.000673
3681.000000	0.000684
3680.000000	0.000693
3679.000000	0.000702
3678.000000	0.000709
3677.000000	0.000702
3676.000000	0.000694
3675.000000	0.000703
3674.000000	0.000725
3673.000000	0.000727
3672.000000	0.000694
3671.000000	0.000640
3670.000000	0.000600
3669.000000	0.000588
3668.000000	0.000585
3667.000000	0.000572
3666.000000	0.000550
3665.000000	0.000525
3664.000000	0.000506
3663.000000	0.000490
3662.000000	0.000474
3661.000000	0.000459
3660.000000	0.000449
3659.000000	0.000452
3658.000000	0.000468
3657.000000	0.000499
3656.000000	0.000544
3655.000000	0.000592
3654.000000	0.000630
3653.000000	0.000651
3652.000000	0.000666
3651.000000	0.000704
3650.000000	0.000774
3649.000000	0.000819
3648.000000	0.000783
3647.000000	0.000692
3646.000000	0.000604
3645.000000	0.000535
3644.000000	0.000484
3643.000000	0.000452
3642.000000	0.000439
3641.000000	0.000438
3640.000000	0.000436
3639.000000	0.000431
3638.000000	0.000435
3637.000000	0.000457
3636.000000	0.000490
3635.000000	0.000526
3634.000000	0.000561
3633.000000	0.000595
3632.000000	0.000629
3631.000000	0.000663
3630.000000	0.000702
3629.000000	0.000743
3628.000000	0.000759
3627.000000	0.000745
3626.000000	0.000713
3625.000000	0.000676
3624.000000	0.000632
3623.000000	0.000567
3622.000000	0.000470
3621.000000	0.000354
3620.000000	0.000272
3619.000000	0.000285
3618.000000	0.000390
3617.000000	0.000524
3616.000000	0.000627
3615.000000	0.000686
3614.000000	0.000722
3613.000000	0.000757
3612.000000	0.000794
3611.000000	0.000820
3610.000000	0.000824
3609.000000	0.000799
3608.000000	0.000750
3607.000000	0.000693
3606.000000	0.000637
3605.000000	0.000585
3604.000000	0.000540
3603.000000	0.000510
3602.000000	0.000501
3601.000000	0.000504
3600.000000	0.000503
3599.000000	0.000491
3598.000000	0.000475
3597.000000	0.000468
3596.000000	0.000487
3595.000000	0.000535
3594.000000	0.000602
3593.000000	0.000665
3592.000000	0.000704
3591.000000	0.000712
3590.000000	0.000684
3589.000000	0.000626
3588.000000	0.000562
3587.000000	0.000518
3586.000000	0.000499
3585.000000	0.000493
3584.000000	0.000491
3583.000000	0.000497
3582.000000	0.000514
3581.000000	0.000532
3580.000000	0.000539
3579.000000	0.000537
3578.000000	0.000530
3577.000000	0.000519
3576.000000	0.000502
3575.000000	0.000487
3574.000000	0.000481
3573.000000	0.000489
3572.000000	0.000508
3571.000000	0.000536
3570.000000	0.000565
3569.000000	0.000589
3568.000000	0.000612
3567.000000	0.000637
3566.000000	0.000661
3565.000000	0.000674
3564.000000	0.000670
3563.000000	0.000650
3562.000000	0.000620
3561.000000	0.000591
3560.000000	0.000565
3559.000000	0.000546
3558.000000	0.000532
3557.000000	0.000520
3556.000000	0.000516
3555.000000	0.000527
3554.000000	0.000555
3553.000000	0.000588
3552.000000	0.000610
3551.000000	0.000617
3550.000000	0.000615
3549.000000	0.000611
3548.000000	0.000611
3547.000000	0.000611
3546.000000	0.000602
3545.000000	0.000579
3544.000000	0.000555
3543.000000	0.000550
3542.000000	0.000568
3541.000000	0.000593
3540.000000	0.000608
3539.000000	0.000612
3538.000000	0.000608
3537.000000	0.000601
3536.000000	0.000588
3535.000000	0.000570
3534.000000	0.000552
3533.000000	0.000536
3532.000000	0.000524
3531.000000	0.000516
3530.000000	0.000510
3529.000000	0.000504
3528.000000	0.000504
3527.000000	0.000519
3526.000000	0.000549
3525.000000	0.000580
3524.000000	0.000599
3523.000000	0.000601
3522.000000	0.000588
3521.000000	0.000562
3520.000000	0.000530
3519.000000	0.000504
3518.000000	0.000498
3517.000000	0.000510
3516.000000	0.000531
3515.000000	0.000551
3514.000000	0.000569
3513.000000	0.000587
3512.000000	0.000605
3511.000000	0.000616
3510.000000	0.000611
3509.000000	0.000588
3508.000000	0.000553
3507.000000	0.000526
3506.000000	0.000517
3505.000000	0.000530
3504.000000	0.000560
3503.000000	0.000598
3502.000000	0.000633
3501.000000	0.000654
3500.000000	0.000653
3499.000000	0.000632
3498.000000	0.000600
3497.000000	0.000572
3496.000000	0.000559
3495.000000	0.000564
3494.000000	0.000579
3493.000000	0.000592
3492.000000	0.000601
3491.000000	0.000613
3490.000000	0.000625
3489.000000	0.000632
3488.000000	0.000632
3487.000000	0.000632
3486.000000	0.000635
3485.000000	0.000632
3484.000000	0.000618
3483.000000	0.000601
3482.000000	0.000590
3481.000000	0.000587
3480.000000	0.000588
3479.000000	0.000591
3478.000000	0.000597
3477.000000	0.000603
3476.000000	0.000603
3475.000000	0.000601
3474.000000	0.000601
3473.000000	0.000611
3472.000000	0.000629
3471.000000	0.000655
3470.000000	0.000682
3469.000000	0.000702
3468.000000	0.000708
3467.000000	0.000705
3466.000000	0.000702
3465.000000	0.000705
3464.000000	0.000717
3463.000000	0.000733
3462.000000	0.000744
3461.000000	0.000740
3460.000000	0.000725
3459.000000	0.000714
3458.000000	0.000723
3457.000000	0.000750
3456.000000	0.000784
3455.000000	0.000817
3454.000000	0.000844
3453.000000	0.000865
3452.000000	0.000881
3451.000000	0.000892
3450.000000	0.000899
3449.000000	0.000905
3448.000000	0.000918
3447.000000	0.000949
3446.000000	0.000997
3445.000000	0.001045
3444.000000	0.001081
3443.000000	0.001113
3442.000000	0.001155
3441.000000	0.001219
3440.000000	0.001306
3439.000000	0.001408
3438.000000	0.001512
3437.000000	0.001605
3436.000000	0.001684
3435.000000	0.001761
3434.000000	0.001844
3433.000000	0.001930
3432.000000	0.002015
3431.000000	0.002091
3430.000000	0.002152
3429.000000	0.002186
3428.000000	0.002194
3427.000000	0.002188
3426.000000	0.002181
3425.000000	0.002173
3424.000000	0.002157
3423.000000	0.002122
3422.000000	0.002072
3421.000000	0.002016
3420.000000	0.001964
3419.000000	0.001926
3418.000000	0.001901
3417.000000	0.001882
3416.000000	0.001861
3415.000000	0.001832
3414.000000	0.001795
3413.000000	0.001752
3412.000000	0.001711
3411.000000	0.001676
3410.000000	0.001639
3409.000000	0.001595
3408.000000	0.001550
3407.000000	0.001520
3406.000000	0.001509
3405.000000	0.001505
3404.000000	0.001499
3403.000000	0.001496
3402.000000	0.001495
3401.000000	0.001487
3400.000000	0.001464
3399.000000	0.001432
3398.000000	0.001404
3397.000000	0.001382
3396.000000	0.001354
3395.000000	0.001315
3394.000000	0.001274
3393.000000	0.001243
3392.000000	0.001231
3391.000000	0.001232
3390.000000	0.001233
3389.000000	0.001226
3388.000000	0.001217
3387.000000	0.001221
3386.000000	0.001244
3385.000000	0.001271
3384.000000	0.001278
3383.000000	0.001254
3382.000000	0.001211
3381.000000	0.001170
3380.000000	0.001151
3379.000000	0.001158
3378.000000	0.001183
3377.000000	0.001208
3376.000000	0.001221
3375.000000	0.001220
3374.000000	0.001215
3373.000000	0.001214
3372.000000	0.001220
3371.000000	0.001232
3370.000000	0.001243
3369.000000	0.001245
3368.000000	0.001237
3367.000000	0.001224
3366.000000	0.001210
3365.000000	0.001193
3364.000000	0.001176
3363.000000	0.001168
3362.000000	0.001168
3361.000000	0.001170
3360.000000	0.001164
3359.000000	0.001151
3358.000000	0.001139
3357.000000	0.001131
3356.000000	0.001132
3355.000000	0.001144
3354.000000	0.001164
3353.000000	0.001185
3352.000000	0.001205
3351.000000	0.001227
3350.000000	0.001254
3349.000000	0.001280
3348.000000	0.001296
3347.000000	0.001296
3346.000000	0.001284
3345.000000	0.001264
3344.000000	0.001247
3343.000000	0.001240
3342.000000	0.001244
3341.000000	0.001246
3340.000000	0.001240
3339.000000	0.001230
3338.000000	0.001228
3337.000000	0.001238
3336.000000	0.001251
3335.000000	0.001257
3334.000000	0.001252
3333.000000	0.001234
3332.000000	0.001211
3331.000000	0.001192
3330.000000	0.001182
3329.000000	0.001183
3328.000000	0.001194
3327.000000	0.001213
3326.000000	0.001233
3325.000000	0.001242
3324.000000	0.001234
3323.000000	0.001215
3322.000000	0.001199
3321.000000	0.001193
3320.000000	0.001195
3319.000000	0.001200
3318.000000	0.001201
3317.000000	0.001192
3316.000000	0.001171
3315.000000	0.001147
3314.000000	0.001132
3313.000000	0.001133
3312.000000	0.001144
3311.000000	0.001154
3310.000000	0.001157
3309.000000	0.001155
3308.000000	0.001158
3307.000000	0.001176
3306.000000	0.001203
3305.000000	0.001224
3304.000000	0.001229
3303.000000	0.001226
3302.000000	0.001227
3301.000000	0.001235
3300.000000	0.001240
3299.000000	0.001236
3298.000000	0.001219
3297.000000	0.001192
3296.000000	0.001163
3295.000000	0.001143
3294.000000	0.001132
3293.000000	0.001125
3292.000000	0.001116
3291.000000	0.001101
3290.000000	0.001084
3289.000000	0.001069
3288.000000	0.001066
3287.000000	0.001080
3286.000000	0.001106
3285.000000	0.001135
3284.000000	0.001159
3283.000000	0.001184
3282.000000	0.001209
3281.000000	0.001225
3280.000000	0.001223
3279.000000	0.001207
3278.000000	0.001191
3277.000000	0.001186
3276.000000	0.001195
3275.000000	0.001211
3274.000000	0.001220
3273.000000	0.001212
3272.000000	0.001190
3271.000000	0.001171
3270.000000	0.001164
3269.000000	0.001162
3268.000000	0.001153
3267.000000	0.001132
3266.000000	0.001104
3265.000000	0.001073
3264.000000	0.001046
3263.000000	0.001032
3262.000000	0.001035
3261.000000	0.001051
3260.000000	0.001076
3259.000000	0.001107
3258.000000	0.001140
3257.000000	0.001165
3256.000000	0.001176
3255.000000	0.001172
3254.000000	0.001154
3253.000000	0.001126
3252.000000	0.001099
3251.000000	0.001089
3250.000000	0.001101
3249.000000	0.001123
3248.000000	0.001136
3247.000000	0.001135
3246.000000	0.001124
3245.000000	0.001105
3244.000000	0.001079
3243.000000	0.001055
3242.000000	0.001042
3241.000000	0.001039
3240.000000	0.001038
3239.000000	0.001036
3238.000000	0.001042
3237.000000	0.001065
3236.000000	0.001097
3235.000000	0.001124
3234.000000	0.001135
3233.000000	0.001128
3232.000000	0.001112
3231.000000	0.001104
3230.000000	0.001110
3229.000000	0.001123
3228.000000	0.001134
3227.000000	0.001143
3226.000000	0.001154
3225.000000	0.001164
3224.000000	0.001164
3223.000000	0.001153
3222.000000	0.001137
3221.000000	0.001123
3220.000000	0.001111
3219.000000	0.001106
3218.000000	0.001109
3217.000000	0.001113
3216.000000	0.001106
3215.000000	0.001081
3214.000000	0.001049
3213.000000	0.001026
3212.000000	0.001027
3211.000000	0.001049
3210.000000	0.001072
3209.000000	0.001077
3208.000000	0.001060
3207.000000	0.001038
3206.000000	0.001033
3205.000000	0.001046
3204.000000	0.001066
3203.000000	0.001075
3202.000000	0.001069
3201.000000	0.001054
3200.000000	0.001038
3199.000000	0.001031
3198.000000	0.001035
3197.000000	0.001045
3196.000000	0.001055
3195.000000	0.001066
3194.000000	0.001079
3193.000000	0.001088
3192.000000	0.001085
3191.000000	0.001063
3190.000000	0.001025
3189.000000	0.000983
3188.000000	0.000954
3187.000000	0.000952
3186.000000	0.000974
3185.000000	0.001003
3184.000000	0.001027
3183.000000	0.001042
3182.000000	0.001051
3181.000000	0.001047
3180.000000	0.001027
3179.000000	0.000997
3178.000000	0.000975
3177.000000	0.000970
3176.000000	0.000982
3175.000000	0.001007
3174.000000	0.001038
3173.000000	0.001065
3172.000000	0.001079
3171.000000	0.001080
3170.000000	0.001079
3169.000000	0.001086
3168.000000	0.001103
3167.000000	0.001124
3166.000000	0.001144
3165.000000	0.001154
3164.000000	0.001149
3163.000000	0.001129
3162.000000	0.001102
3161.000000	0.001075
3160.000000	0.001052
3159.000000	0.001035
3158.000000	0.001029
3157.000000	0.001041
3156.000000	0.001069
3155.000000	0.001103
3154.000000	0.001124
3153.000000	0.001119
3152.000000	0.001095
3151.000000	0.001069
3150.000000	0.001053
3149.000000	0.001041
3148.000000	0.001029
3147.000000	0.001019
3146.000000	0.001023
3145.000000	0.001044
3144.000000	0.001073
3143.000000	0.001095
3142.000000	0.001101
3141.000000	0.001094
3140.000000	0.001082
3139.000000	0.001072
3138.000000	0.001063
3137.000000	0.001051
3136.000000	0.001038
3135.000000	0.001031
3134.000000	0.001034
3133.000000	0.001040
3132.000000	0.001046
3131.000000	0.001056
3130.000000	0.001064
3129.000000	0.001061
3128.000000	0.001046
3127.000000	0.001033
3126.000000	0.001041
3125.000000	0.001064
3124.000000	0.001085
3123.000000	0.001091
3122.000000	0.001084
3121.000000	0.001078
3120.000000	0.001082
3119.000000	0.001099
3118.000000	0.001123
3117.000000	0.001136
3116.000000	0.001130
3115.000000	0.001109
3114.000000	0.001088
3113.000000	0.001073
3112.000000	0.001062
3111.000000	0.001052
3110.000000	0.001044
3109.000000	0.001039
3108.000000	0.001037
3107.000000	0.001037
3106.000000	0.001037
3105.000000	0.001038
3104.000000	0.001044
3103.000000	0.001065
3102.000000	0.001102
3101.000000	0.001139
3100.000000	0.001157
3099.000000	0.001149
3098.000000	0.001120
3097.000000	0.001084
3096.000000	0.001054
3095.000000	0.001037
3094.000000	0.001037
3093.000000	0.001049
3092.000000	0.001061
3091.000000	0.001068
3090.000000	0.001070
3089.000000	0.001075
3088.000000	0.001091
3087.000000	0.001116
3086.000000	0.001138
3085.000000	0.001144
3084.000000	0.001131
3083.000000	0.001112
3082.000000	0.001098
3081.000000	0.001093
3080.000000	0.001094
3079.000000	0.001092
3078.000000	0.001080
3077.000000	0.001056
3076.000000	0.001027
3075.000000	0.001003
3074.000000	0.000987
3073.000000	0.000979
3072.000000	0.000977
3071.000000	0.000990
3070.000000	0.001024
3069.000000	0.001077
3068.000000	0.001135
3067.000000	0.001182
3066.000000	0.001203
3065.000000	0.001190
3064.000000	0.001150
3063.000000	0.001101
3062.000000	0.001060
3061.000000	0.001037
3060.000000	0.001028
3059.000000	0.001027
3058.000000	0.001024
3057.000000	0.001018
3056.000000	0.001012
3055.000000	0.001010
3054.000000	0.001011
3053.000000	0.001008
3052.000000	0.000999
3051.000000	0.000989
3050.000000	0.000984
3049.000000	0.000981
3048.000000	0.000977
3047.000000	0.000979
3046.000000	0.000995
3045.000000	0.001023
3044.000000	0.001051
3043.000000	0.001066
3042.000000	0.001066
3041.000000	0.001056
3040.000000	0.001050
3039.000000	0.001055
3038.000000	0.001074
3037.000000	0.001096
3036.000000	0.001113
3035.000000	0.001116
3034.000000	0.001107
3033.000000	0.001089
3032.000000	0.001071
3031.000000	0.001060
3030.000000	0.001060
3029.000000	0.001068
3028.000000	0.001080
3027.000000	0.001092
3026.000000	0.001103
3025.000000	0.001114
3024.000000	0.001124
3023.000000	0.001134
3022.000000	0.001139
3021.000000	0.001139
3020.000000	0.001137
3019.000000	0.001136
3018.000000	0.001139
3017.000000	0.001144
3016.000000	0.001150
3015.000000	0.001159
3014.000000	0.001168
3013.000000	0.001173
3012.000000	0.001176
3011.000000	0.001182
3010.000000	0.001191
3009.000000	0.001197
3008.000000	0.001194
3007.000000	0.001187
3006.000000	0.001187
3005.000000	0.001199
3004.000000	0.001216
3003.000000	0.001227
3002.000000	0.001223
3001.000000	0.001203
3000.000000	0.001178
2999.000000	0.001161
2998.000000	0.001158
2997.000000	0.001162
2996.000000	0.001168
2995.000000	0.001177
2994.000000	0.001190
2993.000000	0.001199
2992.000000	0.001198
2991.000000	0.001192
2990.000000	0.001192
2989.000000	0.001203
2988.000000	0.001215
2987.000000	0.001218
2986.000000	0.001214
2985.000000	0.001211
2984.000000	0.001218
2983.000000	0.001232
2982.000000	0.001244
2981.000000	0.001246
2980.000000	0.001236
2979.000000	0.001219
2978.000000	0.001204
2977.000000	0.001200
2976.000000	0.001207
2975.000000	0.001226
2974.000000	0.001252
2973.000000	0.001276
2972.000000	0.001292
2971.000000	0.001297
2970.000000	0.001293
2969.000000	0.001288
2968.000000	0.001289
2967.000000	0.001298
2966.000000	0.001312
2965.000000	0.001328
2964.000000	0.001342
2963.000000	0.001357
2962.000000	0.001371
2961.000000	0.001376
2960.000000	0.001372
2959.000000	0.001361
2958.000000	0.001347
2957.000000	0.001329
2956.000000	0.001314
2955.000000	0.001307
2954.000000	0.001307
2953.000000	0.001302
2952.000000	0.001286
2951.000000	0.001267
2950.000000	0.001259
2949.000000	0.001261
2948.000000	0.001260
2947.000000	0.001253
2946.000000	0.001251
2945.000000	0.001262
2944.000000	0.001277
2943.000000	0.001281
2942.000000	0.001269
2941.000000	0.001252
2940.000000	0.001244
2939.000000	0.001249
2938.000000	0.001263
2937.000000	0.001280
2936.000000	0.001296
2935.000000	0.001314
2934.000000	0.001330
2933.000000	0.001336
2932.000000	0.001323
2931.000000	0.001293
2930.000000	0.001258
2929.000000	0.001234
2928.000000	0.001224
2927.000000	0.001217
2926.000000	0.001201
2925.000000	0.001179
2924.000000	0.001162
2923.000000	0.001155
2922.000000	0.001153
2921.000000	0.001146
2920.000000	0.001132
2919.000000	0.001120
2918.000000	0.001119
2917.000000	0.001134
2916.000000	0.001158
2915.000000	0.001179
2914.000000	0.001190
2913.000000	0.001192
2912.000000	0.001190
2911.000000	0.001196
2910.000000	0.001214
2909.000000	0.001244
2908.000000	0.001278
2907.000000	0.001304
2906.000000	0.001311
2905.000000	0.001298
2904.000000	0.001277
2903.000000	0.001261
2902.000000	0.001261
2901.000000	0.001270
2900.000000	0.001283
2899.000000	0.001297
2898.000000	0.001311
2897.000000	0.001323
2896.000000	0.001331
2895.000000	0.001335
2894.000000	0.001335
2893.000000	0.001329
2892.000000	0.001314
2891.000000	0.001297
2890.000000	0.001286
2889.000000	0.001291
2888.000000	0.001306
2887.000000	0.001321
2886.000000	0.001326
2885.000000	0.001320
2884.000000	0.001311
2883.000000	0.001306
2882.000000	0.001306
2881.000000	0.001311
2880.000000	0.001320
2879.000000	0.001333
2878.000000	0.001348
2877.000000	0.001360
2876.000000	0.001366
2875.000000	0.001365
2874.000000	0.001359
2873.000000	0.001350
2872.000000	0.001342
2871.000000	0.001335
2870.000000	0.001330
2869.000000	0.001328
2868.000000	0.001327
2867.000000	0.001326
2866.000000	0.001324
2865.000000	0.001320
2864.000000	0.001313
2863.000000	0.001303
2862.000000	0.001287
2861.000000	0.001265
2860.000000	0.001244
2859.000000	0.001232
2858.000000	0.001228
2857.000000	0.001227
2856.000000	0.001226
2855.000000	0.001226
2854.000000	0.001227
2853.000000	0.001222
2852.000000	0.001215
2851.000000	0.001216
2850.000000	0.001232
2849.000000	0.001254
2848.000000	0.001268
2847.000000	0.001266
2846.000000	0.001255
2845.000000	0.001246
2844.000000	0.001243
2843.000000	0.001254
2842.000000	0.001280
2841.000000	0.001313
2840.000000	0.001335
2839.000000	0.001330
2838.000000	0.001301
2837.000000	0.001266
2836.000000	0.001245
2835.000000	0.001246
2834.000000	0.001262
2833.000000	0.001281
2832.000000	0.001294
2831.000000	0.001304
2830.000000	0.001314
2829.000000	0.001322
2828.000000	0.001325
2827.000000	0.001321
2826.000000	0.001314
2825.000000	0.001305
2824.000000	0.001290
2823.000000	0.001268
2822.000000	0.001245
2821.000000	0.001228
2820.000000	0.001221
2819.000000	0.001226
2818.000000	0.001240
2817.000000	0.001261
2816.000000	0.001284
2815.000000	0.001298
2814.000000	0.001294
2813.000000	0.001272
2812.000000	0.001244
2811.000000	0.001230
2810.000000	0.001237
2809.000000	0.001255
2808.000000	0.001265
2807.000000	0.001266
2806.000000	0.001267
2805.000000	0.001277
2804.000000	0.001293
2803.000000	0.001303
2802.000000	0.001302
2801.000000	0.001295
2800.000000	0.001289
2799.000000	0.001285
2798.000000	0.001283
2797.000000	0.001281
2796.000000	0.001279
2795.000000	0.001272
2794.000000	0.001263
2793.000000	0.001254
2792.000000	0.001253
2791.000000	0.001261
2790.000000	0.001273
2789.000000	0.001281
2788.000000	0.001276
2787.000000	0.001262
2786.000000	0.001248
2785.000000	0.001245
2784.000000	0.001253
2783.000000	0.001263
2782.000000	0.001267
2781.000000	0.001260
2780.000000	0.001247
2779.000000	0.001234
2778.000000	0.001231
2777.000000	0.001239
2776.000000	0.001253
2775.000000	0.001265
2774.000000	0.001268
2773.000000	0.001263
2772.000000	0.001252
2771.000000	0.001241
2770.000000	0.001237
2769.000000	0.001242
2768.000000	0.001255
2767.000000	0.001270
2766.000000	0.001278
2765.000000	0.001277
2764.000000	0.001271
2763.000000	0.001264
2762.000000	0.001260
2761.000000	0.001261
2760.000000	0.001266
2759.000000	0.001273
2758.000000	0.001279
2757.000000	0.001278
2756.000000	0.001271
2755.000000	0.001263
2754.000000	0.001261
2753.000000	0.001264
2752.000000	0.001270
2751.000000	0.001279
2750.000000	0.001291
2749.000000	0.001306
2748.000000	0.001317
2747.000000	0.001319
2746.000000	0.001315
2745.000000	0.001310
2744.000000	0.001308
2743.000000	0.001311
2742.000000	0.001319
2741.000000	0.001333
2740.000000	0.001349
2739.000000	0.001359
2738.000000	0.001358
2737.000000	0.001347
2736.000000	0.001331
2735.000000	0.001321
2734.000000	0.001321
2733.000000	0.001330
2732.000000	0.001343
2731.000000	0.001354
2730.000000	0.001362
2729.000000	0.001365
2728.000000	0.001358
2727.000000	0.001340
2726.000000	0.001317
2725.000000	0.001296
2724.000000	0.001285
2723.000000	0.001289
2722.000000	0.001306
2721.000000	0.001328
2720.000000	0.001347
2719.000000	0.001356
2718.000000	0.001359
2717.000000	0.001358
2716.000000	0.001348
2715.000000	0.001327
2714.000000	0.001301
2713.000000	0.001287
2712.000000	0.001293
2711.000000	0.001312
2710.000000	0.001331
2709.000000	0.001341
2708.000000	0.001341
2707.000000	0.001335
2706.000000	0.001330
2705.000000	0.001332
2704.000000	0.001341
2703.000000	0.001352
2702.000000	0.001358
2701.000000	0.001355
2700.000000	0.001349
2699.000000	0.001346
2698.000000	0.001348
2697.000000	0.001353
2696.000000	0.001361
2695.000000	0.001370
2694.000000	0.001375
2693.000000	0.001370
2692.000000	0.001355
2691.000000	0.001334
2690.000000	0.001316
2689.000000	0.001307
2688.000000	0.001304
2687.000000	0.001304
2686.000000	0.001302
2685.000000	0.001302
2684.000000	0.001307
2683.000000	0.001321
2682.000000	0.001337
2681.000000	0.001343
2680.000000	0.001335
2679.000000	0.001317
2678.000000	0.001303
2677.000000	0.001300
2676.000000	0.001305
2675.000000	0.001314
2674.000000	0.001319
2673.000000	0.001313
2672.000000	0.001298
2671.000000	0.001282
2670.000000	0.001281
2669.000000	0.001301
2668.000000	0.001330
2667.000000	0.001350
2666.000000	0.001353
2665.000000	0.001349
2664.000000	0.001349
2663.000000	0.001354
2662.000000	0.001357
2661.000000	0.001356
2660.000000	0.001354
2659.000000	0.001358
2658.000000	0.001370
2657.000000	0.001386
2656.000000	0.001400
2655.000000	0.001405
2654.000000	0.001401
2653.000000	0.001394
2652.000000	0.001391
2651.000000	0.001396
2650.000000	0.001401
2649.000000	0.001401
2648.000000	0.001392
2647.000000	0.001376
2646.000000	0.001360
2645.000000	0.001348
2644.000000	0.001347
2643.000000	0.001357
2642.000000	0.001373
2641.000000	0.001388
2640.000000	0.001395
2639.000000	0.001396
2638.000000	0.001399
2637.000000	0.001408
2636.000000	0.001420
2635.000000	0.001426
2634.000000	0.001418
2633.000000	0.001400
2632.000000	0.001379
2631.000000	0.001358
2630.000000	0.001337
2629.000000	0.001315
2628.000000	0.001296
2627.000000	0.001280
2626.000000	0.001268
2625.000000	0.001265
2624.000000	0.001276
2623.000000	0.001302
2622.000000	0.001332
2621.000000	0.001350
2620.000000	0.001344
2619.000000	0.001321
2618.000000	0.001297
2617.000000	0.001280
2616.000000	0.001271
2615.000000	0.001264
2614.000000	0.001258
2613.000000	0.001261
2612.000000	0.001273
2611.000000	0.001286
2610.000000	0.001286
2609.000000	0.001272
2608.000000	0.001255
2607.000000	0.001248
2606.000000	0.001251
2605.000000	0.001256
2604.000000	0.001258
2603.000000	0.001260
2602.000000	0.001266
2601.000000	0.001278
2600.000000	0.001289
2599.000000	0.001294
2598.000000	0.001291
2597.000000	0.001285
2596.000000	0.001282
2595.000000	0.001291
2594.000000	0.001311
2593.000000	0.001330
2592.000000	0.001335
2591.000000	0.001320
2590.000000	0.001292
2589.000000	0.001263
2588.000000	0.001246
2587.000000	0.001246
2586.000000	0.001257
2585.000000	0.001268
2584.000000	0.001272
2583.000000	0.001273
2582.000000	0.001277
2581.000000	0.001277
2580.000000	0.001260
2579.000000	0.001220
2578.000000	0.001175
2577.000000	0.001154
2576.000000	0.001173
2575.000000	0.001218
2574.000000	0.001260
2573.000000	0.001282
2572.000000	0.001288
2571.000000	0.001298
2570.000000	0.001321
2569.000000	0.001349
2568.000000	0.001363
2567.000000	0.001350
2566.000000	0.001314
2565.000000	0.001268
2564.000000	0.001230
2563.000000	0.001219
2562.000000	0.001239
2561.000000	0.001273
2560.000000	0.001293
2559.000000	0.001287
2558.000000	0.001270
2557.000000	0.001265
2556.000000	0.001282
2555.000000	0.001309
2554.000000	0.001324
2553.000000	0.001314
2552.000000	0.001280
2551.000000	0.001236
2550.000000	0.001199
2549.000000	0.001178
2548.000000	0.001175
2547.000000	0.001190
2546.000000	0.001223
2545.000000	0.001263
2544.000000	0.001296
2543.000000	0.001316
2542.000000	0.001326
2541.000000	0.001325
2540.000000	0.001301
2539.000000	0.001252
2538.000000	0.001201
2537.000000	0.001177
2536.000000	0.001185
2535.000000	0.001207
2534.000000	0.001224
2533.000000	0.001228
2532.000000	0.001222
2531.000000	0.001211
2530.000000	0.001208
2529.000000	0.001220
2528.000000	0.001240
2527.000000	0.001251
2526.000000	0.001246
2525.000000	0.001230
2524.000000	0.001209
2523.000000	0.001192
2522.000000	0.001188
2521.000000	0.001205
2520.000000	0.001236
2519.000000	0.001264
2518.000000	0.001275
2517.000000	0.001265
2516.000000	0.001232
2515.000000	0.001180
2514.000000	0.001132
2513.000000	0.001117
2512.000000	0.001146
2511.000000	0.001197
2510.000000	0.001237
2509.000000	0.001249
2508.000000	0.001245
2507.000000	0.001243
2506.000000	0.001256
2505.000000	0.001276
2504.000000	0.001289
2503.000000	0.001286
2502.000000	0.001277
2501.000000	0.001274
2500.000000	0.001269
2499.000000	0.001256
2498.000000	0.001243
2497.000000	0.001248
2496.000000	0.001271
2495.000000	0.001278
2494.000000	0.001245
2493.000000	0.001183
2492.000000	0.001130
2491.000000	0.001109
2490.000000	0.001116
2489.000000	0.001132
2488.000000	0.001137
2487.000000	0.001128
2486.000000	0.001114
2485.000000	0.001111
2484.000000	0.001124
2483.000000	0.001147
2482.000000	0.001175
2481.000000	0.001205
2480.000000	0.001236
2479.000000	0.001253
2478.000000	0.001250
2477.000000	0.001233
2476.000000	0.001217
2475.000000	0.001212
2474.000000	0.001217
2473.000000	0.001230
2472.000000	0.001247
2471.000000	0.001258
2470.000000	0.001249
2469.000000	0.001220
2468.000000	0.001179
2467.000000	0.001139
2466.000000	0.001115
2465.000000	0.001113
2464.000000	0.001130
2463.000000	0.001152
2462.000000	0.001170
2461.000000	0.001188
2460.000000	0.001215
2459.000000	0.001255
2458.000000	0.001298
2457.000000	0.001336
2456.000000	0.001364
2455.000000	0.001380
2454.000000	0.001390
2453.000000	0.001399
2452.000000	0.001406
2451.000000	0.001403
2450.000000	0.001380
2449.000000	0.001345
2448.000000	0.001314
2447.000000	0.001295
2446.000000	0.001280
2445.000000	0.001257
2444.000000	0.001225
2443.000000	0.001200
2442.000000	0.001194
2441.000000	0.001204
2440.000000	0.001207
2439.000000	0.001188
2438.000000	0.001156
2437.000000	0.001135
2436.000000	0.001138
2435.000000	0.001160
2434.000000	0.001193
2433.000000	0.001231
2432.000000	0.001268
2431.000000	0.001283
2430.000000	0.001262
2429.000000	0.001212
2428.000000	0.001164
2427.000000	0.001146
2426.000000	0.001157
2425.000000	0.001176
2424.000000	0.001184
2423.000000	0.001178
2422.000000	0.001166
2421.000000	0.001164
2420.000000	0.001185
2419.000000	0.001230
2418.000000	0.001287
2417.000000	0.001327
2416.000000	0.001322
2415.000000	0.001274
2414.000000	0.001216
2413.000000	0.001185
2412.000000	0.001197
2411.000000	0.001241
2410.000000	0.001292
2409.000000	0.001324
2408.000000	0.001321
2407.000000	0.001283
2406.000000	0.001231
2405.000000	0.001196
2404.000000	0.001191
2403.000000	0.001201
2402.000000	0.001202
2401.000000	0.001188
2400.000000	0.001170
2399.000000	0.001165
2398.000000	0.001173
2397.000000	0.001179
2396.000000	0.001169
2395.000000	0.001145
2394.000000	0.001128
2393.000000	0.001136
2392.000000	0.001166
2391.000000	0.001194
2390.000000	0.001198
2389.000000	0.001177
2388.000000	0.001150
2387.000000	0.001138
2386.000000	0.001147
2385.000000	0.001155
2384.000000	0.001137
2383.000000	0.001084
2382.000000	0.001015
2381.000000	0.000961
2380.000000	0.000942
2379.000000	0.000966
2378.000000	0.001031
2377.000000	0.001117
2376.000000	0.001189
2375.000000	0.001227
2374.000000	0.001233
2373.000000	0.001222
2372.000000	0.001198
2371.000000	0.001168
2370.000000	0.001150
2369.000000	0.001143
2368.000000	0.001136
2367.000000	0.001140
2366.000000	0.001187
2365.000000	0.001276
2364.000000	0.001361
2363.000000	0.001403
2362.000000	0.001415
2361.000000	0.001424
2360.000000	0.001440
2359.000000	0.001445
2358.000000	0.001408
2357.000000	0.001321
2356.000000	0.001238
2355.000000	0.001242
2354.000000	0.001305
2353.000000	0.001327
2352.000000	0.001293
2351.000000	0.001296
2350.000000	0.001370
2349.000000	0.001451
2348.000000	0.001455
2347.000000	0.001359
2346.000000	0.001233
2345.000000	0.001197
2344.000000	0.001277
2343.000000	0.001392
2342.000000	0.001456
2341.000000	0.001447
2340.000000	0.001407
2339.000000	0.001390
2338.000000	0.001402
2337.000000	0.001410
2336.000000	0.001387
2335.000000	0.001318
2334.000000	0.001203
2333.000000	0.001064
2332.000000	0.000973
2331.000000	0.000983
2330.000000	0.001081
2329.000000	0.001210
2328.000000	0.001340
2327.000000	0.001460
2326.000000	0.001553
2325.000000	0.001600
2324.000000	0.001611
2323.000000	0.001614
2322.000000	0.001636
2321.000000	0.001692
2320.000000	0.001790
2319.000000	0.001913
2318.000000	0.002019
2317.000000	0.002057
2316.000000	0.002011
2315.000000	0.001891
2314.000000	0.001742
2313.000000	0.001620
2312.000000	0.001567
2311.000000	0.001577
2310.000000	0.001613
2309.000000	0.001632
2308.000000	0.001620
2307.000000	0.001582
2306.000000	0.001534
2305.000000	0.001491
2304.000000	0.001465
2303.000000	0.001455
2302.000000	0.001455
2301.000000	0.001469
2300.000000	0.001505
2299.000000	0.001560
2298.000000	0.001622
2297.000000	0.001663
2296.000000	0.001668
2295.000000	0.001637
2294.000000	0.001600
2293.000000	0.001590
2292.000000	0.001620
2291.000000	0.001667
2290.000000	0.001694
2289.000000	0.001688
2288.000000	0.001664
2287.000000	0.001650
2286.000000	0.001657
2285.000000	0.001684
2284.000000	0.001711
2283.000000	0.001722
2282.000000	0.001708
2281.000000	0.001679
2280.000000	0.001645
2279.000000	0.001615
2278.000000	0.001588
2277.000000	0.001563
2276.000000	0.001532
2275.000000	0.001496
2274.000000	0.001466
2273.000000	0.001453
2272.000000	0.001448
2271.000000	0.001430
2270.000000	0.001396
2269.000000	0.001374
2268.000000	0.001379
2267.000000	0.001389
2266.000000	0.001362
2265.000000	0.001286
2264.000000	0.001199
2263.000000	0.001162
2262.000000	0.001207
2261.000000	0.001309
2260.000000	0.001393
2259.000000	0.001402
2258.000000	0.001347
2257.000000	0.001291
2256.000000	0.001278
2255.000000	0.001304
2254.000000	0.001355
2253.000000	0.001423
2252.000000	0.001479
2251.000000	0.001484
2250.000000	0.001433
2249.000000	0.001368
2248.000000	0.001326
2247.000000	0.001294
2246.000000	0.001258
2245.000000	0.001240
2244.000000	0.001271
2243.000000	0.001332
2242.000000	0.001373
2241.000000	0.001372
2240.000000	0.001351
2239.000000	0.001337
2238.000000	0.001331
2237.000000	0.001313
2236.000000	0.001273
2235.000000	0.001216
2234.000000	0.001170
2233.000000	0.001160
2232.000000	0.001182
2231.000000	0.001208
2230.000000	0.001225
2229.000000	0.001243
2228.000000	0.001258
2227.000000	0.001255
2226.000000	0.001251
2225.000000	0.001294
2224.000000	0.001388
2223.000000	0.001457
2222.000000	0.001426
2221.000000	0.001303
2220.000000	0.001164
2219.000000	0.001075
2218.000000	0.001054
2217.000000	0.001085
2216.000000	0.001125
2215.000000	0.001127
2214.000000	0.001086
2213.000000	0.001046
2212.000000	0.001043
2211.000000	0.001067
2210.000000	0.001099
2209.000000	0.001136
2208.000000	0.001159
2207.000000	0.001125
2206.000000	0.001047
2205.000000	0.001027
2204.000000	0.001141
2203.000000	0.001338
2202.000000	0.001489
2201.000000	0.001538
2200.000000	0.001528
2199.000000	0.001514
2198.000000	0.001506
2197.000000	0.001497
2196.000000	0.001483
2195.000000	0.001455
2194.000000	0.001414
2193.000000	0.001380
2192.000000	0.001378
2191.000000	0.001408
2190.000000	0.001446
2189.000000	0.001477
2188.000000	0.001478
2187.000000	0.001424
2186.000000	0.001322
2185.000000	0.001227
2184.000000	0.001165
2183.000000	0.001095
2182.000000	0.000993
2181.000000	0.000943
2180.000000	0.001053
2179.000000	0.001303
2178.000000	0.001559
2177.000000	0.001700
2176.000000	0.001690
2175.000000	0.001547
2174.000000	0.001326
2173.000000	0.001127
2172.000000	0.001050
2171.000000	0.001116
2170.000000	0.001254
2169.000000	0.001378
2168.000000	0.001447
2167.000000	0.001468
2166.000000	0.001470
2165.000000	0.001493
2164.000000	0.001570
2163.000000	0.001722
2162.000000	0.001924
2161.000000	0.002069
2160.000000	0.001964
2159.000000	0.001496
2158.000000	0.000823
2157.000000	0.000294
2156.000000	0.000099
2155.000000	0.000145
2154.000000	0.000249
2153.000000	0.000313
2152.000000	0.000322
2151.000000	0.000296
2150.000000	0.000291
2149.000000	0.000369
2148.000000	0.000521
2147.000000	0.000661
2146.000000	0.000734
2145.000000	0.000778
2144.000000	0.000848
2143.000000	0.000930
2142.000000	0.000978
2141.000000	0.000982
2140.000000	0.000972
2139.000000	0.000957
2138.000000	0.000924
2137.000000	0.000861
2136.000000	0.000772
2135.000000	0.000676
2134.000000	0.000612
2133.000000	0.000611
2132.000000	0.000658
2131.000000	0.000704
2130.000000	0.000720
2129.000000	0.000728
2128.000000	0.000758
2127.000000	0.000811
2126.000000	0.000870
2125.000000	0.000926
2124.000000	0.000975
2123.000000	0.001016
2122.000000	0.001055
2121.000000	0.001102
2120.000000	0.001143
2119.000000	0.001151
2118.000000	0.001130
2117.000000	0.001118
2116.000000	0.001136
2115.000000	0.001160
2114.000000	0.001162
2113.000000	0.001158
2112.000000	0.001181
2111.000000	0.001229
2110.000000	0.001268
2109.000000	0.001284
2108.000000	0.001287
2107.000000	0.001285
2106.000000	0.001277
2105.000000	0.001268
2104.000000	0.001263
2103.000000	0.001253
2102.000000	0.001230
2101.000000	0.001195
2100.000000	0.001154
2099.000000	0.001101
2098.000000	0.001032
2097.000000	0.000955
2096.000000	0.000876
2095.000000	0.000805
2094.000000	0.000771
2093.000000	0.000814
2092.000000	0.000926
2091.000000	0.001048
2090.000000	0.001126
2089.000000	0.001158
2088.000000	0.001176
2087.000000	0.001200
2086.000000	0.001239
2085.000000	0.001295
2084.000000	0.001357
2083.000000	0.001393
2082.000000	0.001378
2081.000000	0.001327
2080.000000	0.001271
2079.000000	0.001227
2078.000000	0.001201
2077.000000	0.001188
2076.000000	0.001167
2075.000000	0.001113
2074.000000	0.001040
2073.000000	0.001013
2072.000000	0.001076
2071.000000	0.001211
2070.000000	0.001367
2069.000000	0.001509
2068.000000	0.001607
2067.000000	0.001617
2066.000000	0.001523
2065.000000	0.001367
2064.000000	0.001220
2063.000000	0.001127
2062.000000	0.001098
2061.000000	0.001127
2060.000000	0.001175
2059.000000	0.001184
2058.000000	0.001134
2057.000000	0.001070
2056.000000	0.001045
2055.000000	0.001073
2054.000000	0.001154
2053.000000	0.001297
2052.000000	0.001477
2051.000000	0.001610
2050.000000	0.001627
2049.000000	0.001555
2048.000000	0.001469
2047.000000	0.001386
2046.000000	0.001269
2045.000000	0.001121
2044.000000	0.001009
2043.000000	0.000994
2042.000000	0.001075
2041.000000	0.001203
2040.000000	0.001291
2039.000000	0.001259
2038.000000	0.001097
2037.000000	0.000897
2036.000000	0.000770
2035.000000	0.000751
2034.000000	0.000810
2033.000000	0.000903
2032.000000	0.000990
2031.000000	0.001040
2030.000000	0.001066
2029.000000	0.001086
2028.000000	0.001058
2027.000000	0.000909
2026.000000	0.000676
2025.000000	0.000509
2024.000000	0.000497
2023.000000	0.000578
2022.000000	0.000655
2021.000000	0.000713
2020.000000	0.000766
2019.000000	0.000795
2018.000000	0.000803
2017.000000	0.000842
2016.000000	0.000917
2015.000000	0.000958
2014.000000	0.000939
2013.000000	0.000934
2012.000000	0.000992
2011.000000	0.001039
2010.000000	0.000988
2009.000000	0.000857
2008.000000	0.000718
2007.000000	0.000568
2006.000000	0.000377
2005.000000	0.000192
2004.000000	0.000101
2003.000000	0.000130
2002.000000	0.000249
2001.000000	0.000436
2000.000000	0.000667
1999.000000	0.000876
1998.000000	0.001006
1997.000000	0.001061
1996.000000	0.001086
1995.000000	0.001114
1994.000000	0.001150
1993.000000	0.001196
1992.000000	0.001239
1991.000000	0.001261
1990.000000	0.001270
1989.000000	0.001287
1988.000000	0.001297
1987.000000	0.001249
1986.000000	0.001134
1985.000000	0.001007
1984.000000	0.000920
1983.000000	0.000903
1982.000000	0.000998
1981.000000	0.001225
1980.000000	0.001480
1979.000000	0.001568
1978.000000	0.001396
1977.000000	0.001062
1976.000000	0.000705
1975.000000	0.000391
1974.000000	0.000202
1973.000000	0.000237
1972.000000	0.000439
1971.000000	0.000590
1970.000000	0.000568
1969.000000	0.000480
1968.000000	0.000473
1967.000000	0.000540
1966.000000	0.000612
1965.000000	0.000683
1964.000000	0.000752
1963.000000	0.000749
1962.000000	0.000640
1961.000000	0.000516
1960.000000	0.000480
1959.000000	0.000514
1958.000000	0.000539
1957.000000	0.000543
1956.000000	0.000562
1955.000000	0.000618
1954.000000	0.000713
1953.000000	0.000835
1952.000000	0.000926
1951.000000	0.000901
1950.000000	0.000754
1949.000000	0.000586
1948.000000	0.000484
1947.000000	0.000434
1946.000000	0.000393
1945.000000	0.000373
1944.000000	0.000403
1943.000000	0.000442
1942.000000	0.000431
1941.000000	0.000384
1940.000000	0.000363
1939.000000	0.000398
1938.000000	0.000480
1937.000000	0.000589
1936.000000	0.000691
1935.000000	0.000748
1934.000000	0.000757
1933.000000	0.000755
1932.000000	0.000759
1931.000000	0.000741
1930.000000	0.000681
1929.000000	0.000607
1928.000000	0.000560
1927.000000	0.000547
1926.000000	0.000555
1925.000000	0.000578
1924.000000	0.000619
1923.000000	0.000675
1922.000000	0.000743
1921.000000	0.000825
1920.000000	0.000894
1919.000000	0.000895
1918.000000	0.000809
1917.000000	0.000699
1916.000000	0.000642
1915.000000	0.000638
1914.000000	0.000644
1913.000000	0.000642
1912.000000	0.000648
1911.000000	0.000669
1910.000000	0.000694
1909.000000	0.000713
1908.000000	0.000715
1907.000000	0.000691
1906.000000	0.000654
1905.000000	0.000649
1904.000000	0.000700
1903.000000	0.000765
1902.000000	0.000778
1901.000000	0.000725
1900.000000	0.000650
1899.000000	0.000597
1898.000000	0.000584
1897.000000	0.000618
1896.000000	0.000686
1895.000000	0.000745
1894.000000	0.000762
1893.000000	0.000743
1892.000000	0.000718
1891.000000	0.000686
1890.000000	0.000642
1889.000000	0.000614
1888.000000	0.000640
1887.000000	0.000695
1886.000000	0.000723
1885.000000	0.000707
1884.000000	0.000681
1883.000000	0.000667
1882.000000	0.000654
1881.000000	0.000634
1880.000000	0.000622
1879.000000	0.000624
1878.000000	0.000633
1877.000000	0.000648
1876.000000	0.000671
1875.000000	0.000689
1874.000000	0.000677
1873.000000	0.000638
1872.000000	0.000615
1871.000000	0.000645
1870.000000	0.000718
1869.000000	0.000783
1868.000000	0.000807
1867.000000	0.000810
1866.000000	0.000812
1865.000000	0.000816
1864.000000	0.000814
1863.000000	0.000796
1862.000000	0.000757
1861.000000	0.000709
1860.000000	0.000676
1859.000000	0.000670
1858.000000	0.000680
1857.000000	0.000691
1856.000000	0.000694
1855.000000	0.000687
1854.000000	0.000675
1853.000000	0.000676
1852.000000	0.000695
1851.000000	0.000706
1850.000000	0.000687
1849.000000	0.000647
1848.000000	0.000623
1847.000000	0.000630
1846.000000	0.000654
1845.000000	0.000679
1844.000000	0.000692
1843.000000	0.000689
1842.000000	0.000674
1841.000000	0.000664
1840.000000	0.000669
1839.000000	0.000676
1838.000000	0.000670
1837.000000	0.000657
1836.000000	0.000661
1835.000000	0.000687
1834.000000	0.000724
1833.000000	0.000757
1832.000000	0.000760
1831.000000	0.000724
1830.000000	0.000685
1829.000000	0.000700
1828.000000	0.000755
1827.000000	0.000788
1826.000000	0.000770
1825.000000	0.000720
1824.000000	0.000674
1823.000000	0.000642
1822.000000	0.000615
1821.000000	0.000597
1820.000000	0.000588
1819.000000	0.000578
1818.000000	0.000553
1817.000000	0.000514
1816.000000	0.000478
1815.000000	0.000465
1814.000000	0.000474
1813.000000	0.000489
1812.000000	0.000495
1811.000000	0.000499
1810.000000	0.000512
1809.000000	0.000525
1808.000000	0.000536
1807.000000	0.000559
1806.000000	0.000594
1805.000000	0.000621
1804.000000	0.000624
1803.000000	0.000611
1802.000000	0.000603
1801.000000	0.000609
1800.000000	0.000619
1799.000000	0.000639
1798.000000	0.000667
1797.000000	0.000692
1796.000000	0.000716
1795.000000	0.000742
1794.000000	0.000768
1793.000000	0.000776
1792.000000	0.000749
1791.000000	0.000704
1790.000000	0.000662
1789.000000	0.000624
1788.000000	0.000596
1787.000000	0.000588
1786.000000	0.000601
1785.000000	0.000619
1784.000000	0.000626
1783.000000	0.000610
1782.000000	0.000576
1781.000000	0.000547
1780.000000	0.000542
1779.000000	0.000556
1778.000000	0.000569
1777.000000	0.000574
1776.000000	0.000576
1775.000000	0.000567
1774.000000	0.000542
1773.000000	0.000514
1772.000000	0.000495
1771.000000	0.000497
1770.000000	0.000525
1769.000000	0.000574
1768.000000	0.000617
1767.000000	0.000633
1766.000000	0.000630
1765.000000	0.000625
1764.000000	0.000614
1763.000000	0.000584
1762.000000	0.000551
1761.000000	0.000561
1760.000000	0.000617
1759.000000	0.000689
1758.000000	0.000758
1757.000000	0.000831
1756.000000	0.000904
1755.000000	0.000954
1754.000000	0.000984
1753.000000	0.001025
1752.000000	0.001081
1751.000000	0.001113
1750.000000	0.001105
1749.000000	0.001093
1748.000000	0.001088
1747.000000	0.001057
1746.000000	0.001001
1745.000000	0.000959
1744.000000	0.000943
1743.000000	0.000929
1742.000000	0.000912
1741.000000	0.000906
1740.000000	0.000909
1739.000000	0.000900
1738.000000	0.000889
1737.000000	0.000906
1736.000000	0.000957
1735.000000	0.001010
1734.000000	0.000988
1733.000000	0.000891
1732.000000	0.000789
1731.000000	0.000699
1730.000000	0.000619
1729.000000	0.000571
1728.000000	0.000559
1727.000000	0.000552
1726.000000	0.000533
1725.000000	0.000517
1724.000000	0.000517
1723.000000	0.000518
1722.000000	0.000510
1721.000000	0.000492
1720.000000	0.000464
1719.000000	0.000435
1718.000000	0.000448
1717.000000	0.000486
1716.000000	0.000502
1715.000000	0.000504
1714.000000	0.000493
1713.000000	0.000471
1712.000000	0.000453
1711.000000	0.000439
1710.000000	0.000420
1709.000000	0.000405
1708.000000	0.000401
1707.000000	0.000403
1706.000000	0.000403
1705.000000	0.000392
1704.000000	0.000386
1703.000000	0.000403
1702.000000	0.000450
1701.000000	0.000502
1700.000000	0.000523
1699.000000	0.000537
1698.000000	0.000535
1697.000000	0.000499
1696.000000	0.000446
1695.000000	0.000448
1694.000000	0.000501
1693.000000	0.000537
1692.000000	0.000538
1691.000000	0.000521
1690.000000	0.000510
1689.000000	0.000518
1688.000000	0.000535
1687.000000	0.000550
1686.000000	0.000562
1685.000000	0.000565
1684.000000	0.000536
1683.000000	0.000505
1682.000000	0.000487
1681.000000	0.000478
1680.000000	0.000477
1679.000000	0.000484
1678.000000	0.000498
1677.000000	0.000524
1676.000000	0.000552
1675.000000	0.000546
1674.000000	0.000511
1673.000000	0.000492
1672.000000	0.000504
1671.000000	0.000518
1670.000000	0.000496
1669.000000	0.000457
1668.000000	0.000450
1667.000000	0.000462
1666.000000	0.000479
1665.000000	0.000508
1664.000000	0.000551
1663.000000	0.000587
1662.000000	0.000591
1661.000000	0.000583
1660.000000	0.000588
1659.000000	0.000594
1658.000000	0.000590
1657.000000	0.000580
1656.000000	0.000573
1655.000000	0.000549
1654.000000	0.000477
1653.000000	0.000376
1652.000000	0.000392
1651.000000	0.000450
1650.000000	0.000492
1649.000000	0.000519
1648.000000	0.000560
1647.000000	0.000615
1646.000000	0.000655
1645.000000	0.000678
1644.000000	0.000685
1643.000000	0.000680
1642.000000	0.000665
1641.000000	0.000653
1640.000000	0.000661
1639.000000	0.000685
1638.000000	0.000707
1637.000000	0.000713
1636.000000	0.000698
1635.000000	0.000664
1634.000000	0.000637
1633.000000	0.000624
1632.000000	0.000628
1631.000000	0.000637
1630.000000	0.000631
1629.000000	0.000608
1628.000000	0.000592
1627.000000	0.000583
1626.000000	0.000569
1625.000000	0.000556
1624.000000	0.000553
1623.000000	0.000545
1622.000000	0.000518
1621.000000	0.000500
1620.000000	0.000508
1619.000000	0.000522
1618.000000	0.000524
1617.000000	0.000518
1616.000000	0.000524
1615.000000	0.000530
1614.000000	0.000510
1613.000000	0.000485
1612.000000	0.000480
1611.000000	0.000477
1610.000000	0.000447
1609.000000	0.000409
1608.000000	0.000406
1607.000000	0.000427
1606.000000	0.000434
1605.000000	0.000430
1604.000000	0.000432
1603.000000	0.000430
1602.000000	0.000407
1601.000000	0.000386
1600.000000	0.000392
1599.000000	0.000408
1598.000000	0.000412
1597.000000	0.000414
1596.000000	0.000426
1595.000000	0.000433
1594.000000	0.000415
1593.000000	0.000394
1592.000000	0.000399
1591.000000	0.000419
1590.000000	0.000424
1589.000000	0.000417
1588.000000	0.000423
1587.000000	0.000440
1586.000000	0.000450
1585.000000	0.000461
1584.000000	0.000486
1583.000000	0.000495
1582.000000	0.000463
1581.000000	0.000416
1580.000000	0.000394
1579.000000	0.000388
1578.000000	0.000375
1577.000000	0.000373
1576.000000	0.000415
1575.000000	0.000474
1574.000000	0.000505
1573.000000	0.000530
1572.000000	0.000563
1571.000000	0.000589
1570.000000	0.000590
1569.000000	0.000609
1568.000000	0.000677
1567.000000	0.000745
1566.000000	0.000784
1565.000000	0.000821
1564.000000	0.000877
1563.000000	0.000920
1562.000000	0.000918
1561.000000	0.000891
1560.000000	0.000894
1559.000000	0.000950
1558.000000	0.001002
1557.000000	0.001128
1556.000000	0.001284
1555.000000	0.001410
1554.000000	0.001494
1553.000000	0.001560
1552.000000	0.001618
1551.000000	0.001672
1550.000000	0.001735
1549.000000	0.001830
1548.000000	0.001943
1547.000000	0.002034
1546.000000	0.002089
1545.000000	0.002134
1544.000000	0.002197
1543.000000	0.002276
1542.000000	0.002350
1541.000000	0.002395
1540.000000	0.002402
1539.000000	0.002424
1538.000000	0.002501
1537.000000	0.002608
1536.000000	0.002721
1535.000000	0.002821
1534.000000	0.002894
1533.000000	0.002948
1532.000000	0.003010
1531.000000	0.003093
1530.000000	0.003185
1529.000000	0.003275
1528.000000	0.003362
1527.000000	0.003444
1526.000000	0.003514
1525.000000	0.003567
1524.000000	0.003606
1523.000000	0.003641
1522.000000	0.003678
1521.000000	0.003708
1520.000000	0.003748
1519.000000	0.003795
1518.000000	0.003836
1517.000000	0.003870
1516.000000	0.003914
1515.000000	0.003976
1514.000000	0.004049
1513.000000	0.004123
1512.000000	0.004176
1511.000000	0.004197
1510.000000	0.004203
1509.000000	0.004221
1508.000000	0.004250
1507.000000	0.004253
1506.000000	0.004254
1505.000000	0.004315
1504.000000	0.004369
1503.000000	0.004400
1502.000000	0.004419
1501.000000	0.004440
1500.000000	0.004452
1499.000000	0.004443
1498.000000	0.004433
1497.000000	0.004438
1496.000000	0.004436
1495.000000	0.004424
1494.000000	0.004423
1493.000000	0.004432
1492.000000	0.004425
1491.000000	0.004365
1490.000000	0.004256
1489.000000	0.004137
1488.000000	0.004048
1487.000000	0.004010
1486.000000	0.003994
1485.000000	0.003983
1484.000000	0.003976
1483.000000	0.003954
1482.000000	0.003912
1481.000000	0.003866
1480.000000	0.003839
1479.000000	0.003824
1478.000000	0.003804
1477.000000	0.003778
1476.000000	0.003775
1475.000000	0.003828
1474.000000	0.003932
1473.000000	0.004042
1472.000000	0.004110
1471.000000	0.004173
1470.000000	0.004285
1469.000000	0.004442
1468.000000	0.004616
1467.000000	0.004780
1466.000000	0.004927
1465.000000	0.005047
1464.000000	0.005112
1463.000000	0.005111
1462.000000	0.005064
1461.000000	0.004987
1460.000000	0.004882
1459.000000	0.004735
1458.000000	0.004565
1457.000000	0.004422
1456.000000	0.004347
1455.000000	0.004322
1454.000000	0.004331
1453.000000	0.004373
1452.000000	0.004434
1451.000000	0.004495
1450.000000	0.004552
1449.000000	0.004617
1448.000000	0.004688
1447.000000	0.004756
1446.000000	0.004837
1445.000000	0.004947
1444.000000	0.005076
1443.000000	0.005206
1442.000000	0.005341
1441.000000	0.005496
1440.000000	0.005655
1439.000000	0.005781
1438.000000	0.005877
1437.000000	0.005987
1436.000000	0.006124
1435.000000	0.006247
1434.000000	0.006352
1433.000000	0.006460
1432.000000	0.006578
1431.000000	0.006700
1430.000000	0.006849
1429.000000	0.007049
1428.000000	0.007267
1427.000000	0.007447
1426.000000	0.007596
1425.000000	0.007775
1424.000000	0.007996
1423.000000	0.008202
1422.000000	0.008383
1421.000000	0.008584
1420.000000	0.008807
1419.000000	0.008978
1418.000000	0.009095
1417.000000	0.009226
1416.000000	0.009353
1415.000000	0.009426
1414.000000	0.009451
1413.000000	0.009471
1412.000000	0.009484
1411.000000	0.009444
1410.000000	0.009359
1409.000000	0.009275
1408.000000	0.009188
1407.000000	0.009056
1406.000000	0.008872
1405.000000	0.008676
1404.000000	0.008480
1403.000000	0.008275
1402.000000	0.008079
1401.000000	0.007916
1400.000000	0.007763
1399.000000	0.007574
1398.000000	0.007370
1397.000000	0.007201
1396.000000	0.007050
1395.000000	0.006857
1394.000000	0.006643
1393.000000	0.006487
1392.000000	0.006386
1391.000000	0.006285
1390.000000	0.006171
1389.000000	0.006066
1388.000000	0.005968
1387.000000	0.005854
1386.000000	0.005740
1385.000000	0.005667
1384.000000	0.005621
1383.000000	0.005556
1382.000000	0.005461
1381.000000	0.005367
1380.000000	0.005296
1379.000000	0.005230
1378.000000	0.005158
1377.000000	0.005087
1376.000000	0.005014
1375.000000	0.004911
1374.000000	0.004785
1373.000000	0.004694
1372.000000	0.004659
1371.000000	0.004634
1370.000000	0.004582
1369.000000	0.004523
1368.000000	0.004476
1367.000000	0.004423
1366.000000	0.004348
1365.000000	0.004266
1364.000000	0.004195
1363.000000	0.004128
1362.000000	0.004063
1361.000000	0.004020
1360.000000	0.004009
1359.000000	0.004000
1358.000000	0.003967
1357.000000	0.003919
1356.000000	0.003872
1355.000000	0.003826
1354.000000	0.003781
1353.000000	0.003749
1352.000000	0.003730
1351.000000	0.003708
1350.000000	0.003672
1349.000000	0.003643
1348.000000	0.003633
1347.000000	0.003619
1346.000000	0.003581
1345.000000	0.003533
1344.000000	0.003495
1343.000000	0.003457
1342.000000	0.003403
1341.000000	0.003344
1340.000000	0.003299
1339.000000	0.003258
1338.000000	0.003220
1337.000000	0.003208
1336.000000	0.003218
1335.000000	0.003216
1334.000000	0.003179
1333.000000	0.003128
1332.000000	0.003087
1331.000000	0.003053
1330.000000	0.003018
1329.000000	0.003003
1328.000000	0.003018
1327.000000	0.003037
1326.000000	0.003028
1325.000000	0.003000
1324.000000	0.002972
1323.000000	0.002940
1322.000000	0.002897
1321.000000	0.002864
1320.000000	0.002846
1319.000000	0.002818
1318.000000	0.002765
1317.000000	0.002720
1316.000000	0.002706
1315.000000	0.002700
1314.000000	0.002679
1313.000000	0.002665
1312.000000	0.002675
1311.000000	0.002689
1310.000000	0.002678
1309.000000	0.002647
1308.000000	0.002613
1307.000000	0.002572
1306.000000	0.002525
1305.000000	0.002494
1304.000000	0.002487
1303.000000	0.002480
1302.000000	0.002455
1301.000000	0.002429
1300.000000	0.002413
1299.000000	0.002388
1298.000000	0.002344
1297.000000	0.002302
1296.000000	0.002282
1295.000000	0.002274
1294.000000	0.002266
1293.000000	0.002273
1292.000000	0.002294
1291.000000	0.002301
1290.000000	0.002283
1289.000000	0.002266
1288.000000	0.002268
1287.000000	0.002257
1286.000000	0.002212
1285.000000	0.002163
1284.000000	0.002146
1283.000000	0.002154
1282.000000	0.002160
1281.000000	0.002160
1280.000000	0.002158
1279.000000	0.002139
1278.000000	0.002107
1277.000000	0.002088
1276.000000	0.002091
1275.000000	0.002086
1274.000000	0.002058
1273.000000	0.002031
1272.000000	0.002023
1271.000000	0.002012
1270.000000	0.001982
1269.000000	0.001959
1268.000000	0.001963
1267.000000	0.001971
1266.000000	0.001961
1265.000000	0.001953
1264.000000	0.001960
1263.000000	0.001957
1262.000000	0.001924
1261.000000	0.001889
1260.000000	0.001879
1259.000000	0.001871
1258.000000	0.001844
1257.000000	0.001815
1256.000000	0.001800
1255.000000	0.001782
1254.000000	0.001753
1253.000000	0.001739
1252.000000	0.001758
1251.000000	0.001781
1250.000000	0.001781
1249.000000	0.001777
1248.000000	0.001788
1247.000000	0.001794
1246.000000	0.001776
1245.000000	0.001756
1244.000000	0.001755
1243.000000	0.001754
1242.000000	0.001733
1241.000000	0.001710
1240.000000	0.001705
1239.000000	0.001697
1238.000000	0.001664
1237.000000	0.001628
1236.000000	0.001620
1235.000000	0.001629
1234.000000	0.001632
1233.000000	0.001634
1232.000000	0.001641
1231.000000	0.001639
1230.000000	0.001619
1229.000000	0.001606
1228.000000	0.001614
1227.000000	0.001623
1226.000000	0.001615
1225.000000	0.001599
1224.000000	0.001591
1223.000000	0.001579
1222.000000	0.001552
1221.000000	0.001529
1220.000000	0.001515
1219.000000	0.001489
1218.000000	0.001445
1217.000000	0.001411
1216.000000	0.001404
1215.000000	0.001399
1214.000000	0.001378
1213.000000	0.001363
1212.000000	0.001371
1211.000000	0.001378
1210.000000	0.001368
1209.000000	0.001362
1208.000000	0.001380
1207.000000	0.001396
1206.000000	0.001382
1205.000000	0.001351
1204.000000	0.001326
1203.000000	0.001300
1202.000000	0.001266
1201.000000	0.001241
1200.000000	0.001241
1199.000000	0.001254
1198.000000	0.001269
1197.000000	0.001292
1196.000000	0.001318
1195.000000	0.001316
1194.000000	0.001283
1193.000000	0.001258
1192.000000	0.001260
1191.000000	0.001262
1190.000000	0.001243
1189.000000	0.001223
1188.000000	0.001225
1187.000000	0.001234
1186.000000	0.001234
1185.000000	0.001242
1184.000000	0.001260
1183.000000	0.001262
1182.000000	0.001253
1181.000000	0.001276
1180.000000	0.001338
1179.000000	0.001386
1178.000000	0.001386
1177.000000	0.001373
1176.000000	0.001382
1175.000000	0.001390
1174.000000	0.001369
1173.000000	0.001344
1172.000000	0.001348
1171.000000	0.001370
1170.000000	0.001388
1169.000000	0.001414
1168.000000	0.001453
1167.000000	0.001472
1166.000000	0.001459
1165.000000	0.001455
1164.000000	0.001487
1163.000000	0.001518
1162.000000	0.001511
1161.000000	0.001491
1160.000000	0.001492
1159.000000	0.001499
1158.000000	0.001482
1157.000000	0.001457
1156.000000	0.001453
1155.000000	0.001455
1154.000000	0.001443
1153.000000	0.001427
1152.000000	0.001422
1151.000000	0.001412
1150.000000	0.001386
1149.000000	0.001371
1148.000000	0.001382
1147.000000	0.001392
1146.000000	0.001384
1145.000000	0.001386
1144.000000	0.001408
1143.000000	0.001411
1142.000000	0.001372
1141.000000	0.001332
1140.000000	0.001326
1139.000000	0.001332
1138.000000	0.001318
1137.000000	0.001301
1136.000000	0.001302
1135.000000	0.001298
1134.000000	0.001277
1133.000000	0.001269
1132.000000	0.001287
1131.000000	0.001286
1130.000000	0.001239
1129.000000	0.001189
1128.000000	0.001186
1127.000000	0.001215
1126.000000	0.001243
1125.000000	0.001281
1124.000000	0.001336
1123.000000	0.001369
1122.000000	0.001348
1121.000000	0.001304
1120.000000	0.001283
1119.000000	0.001277
1118.000000	0.001268
1117.000000	0.001277
1116.000000	0.001314
1115.000000	0.001345
1114.000000	0.001345
1113.000000	0.001340
1112.000000	0.001361
1111.000000	0.001397
1110.000000	0.001430
1109.000000	0.001471
1108.000000	0.001508
1107.000000	0.001491
1106.000000	0.001415
1105.000000	0.001353
1104.000000	0.001359
1103.000000	0.001391
1102.000000	0.001394
1101.000000	0.001387
1100.000000	0.001406
1099.000000	0.001446
1098.000000	0.001486
1097.000000	0.001539
1096.000000	0.001614
1095.000000	0.001678
1094.000000	0.001708
1093.000000	0.001733
1092.000000	0.001765
1091.000000	0.001768
1090.000000	0.001733
1089.000000	0.001709
1088.000000	0.001726
1087.000000	0.001744
1086.000000	0.001732
1085.000000	0.001718
1084.000000	0.001726
1083.000000	0.001716
1082.000000	0.001660
1081.000000	0.001597
1080.000000	0.001562
1079.000000	0.001536
1078.000000	0.001500
1077.000000	0.001486
1076.000000	0.001508
1075.000000	0.001519
1074.000000	0.001488
1073.000000	0.001451
1072.000000	0.001435
1071.000000	0.001408
1070.000000	0.001365
1069.000000	0.001362
1068.000000	0.001429
1067.000000	0.001497
1066.000000	0.001507
1065.000000	0.001485
1064.000000	0.001474
1063.000000	0.001457
1062.000000	0.001426
1061.000000	0.001431
1060.000000	0.001502
1059.000000	0.001583
1058.000000	0.001615
1057.000000	0.001623
1056.000000	0.001650
1055.000000	0.001677
1054.000000	0.001677
1053.000000	0.001677
1052.000000	0.001698
1051.000000	0.001709
1050.000000	0.001693
1049.000000	0.001695
1048.000000	0.001745
1047.000000	0.001796
1046.000000	0.001806
1045.000000	0.001802
1044.000000	0.001809
1043.000000	0.001797
1042.000000	0.001750
1041.000000	0.001720
1040.000000	0.001746
1039.000000	0.001790
1038.000000	0.001809
1037.000000	0.001816
1036.000000	0.001825
1035.000000	0.001804
1034.000000	0.001749
1033.000000	0.001722
1032.000000	0.001755
1031.000000	0.001794
1030.000000	0.001792
1029.000000	0.001790
1028.000000	0.001829
1027.000000	0.001870
1026.000000	0.001866
1025.000000	0.001836
1024.000000	0.001807
1023.000000	0.001760
1022.000000	0.001690
1021.000000	0.001655
1020.000000	0.001682
1019.000000	0.001716
1018.000000	0.001705
1017.000000	0.001680
1016.000000	0.001687
1015.000000	0.001709
1014.000000	0.001719
1013.000000	0.001732
1012.000000	0.001749
1011.000000	0.001721
1010.000000	0.001643
1009.000000	0.001586
1008.000000	0.001594
1007.000000	0.001616
1006.000000	0.001601
1005.000000	0.001579
1004.000000	0.001584
1003.000000	0.001582
1002.000000	0.001548
1001.000000	0.001525
1000.000000	0.001548
999.000000	0.001567
998.000000	0.001533
997.000000	0.001479
996.000000	0.001459
995.000000	0.001462
994.000000	0.001459
993.000000	0.001466
992.000000	0.001496
991.000000	0.001515
990.000000	0.001502
989.000000	0.001499
988.000000	0.001534
987.000000	0.001573
986.000000	0.001589
985.000000	0.001611
984.000000	0.001655
983.000000	0.001677
982.000000	0.001652
981.000000	0.001633
980.000000	0.001661
979.000000	0.001701
978.000000	0.001725
977.000000	0.001766
976.000000	0.001845
975.000000	0.001911
974.000000	0.001929
973.000000	0.001952
972.000000	0.002035
971.000000	0.002158
970.000000	0.002278
969.000000	0.002405
968.000000	0.002547
967.000000	0.002669
966.000000	0.002754
965.000000	0.002844
964.000000	0.002959
963.000000	0.003059
962.000000	0.003129
961.000000	0.003224
960.000000	0.003368
959.000000	0.003498
958.000000	0.003573
957.000000	0.003644
956.000000	0.003753
955.000000	0.003849
954.000000	0.003880
953.000000	0.003886
952.000000	0.003923
951.000000	0.003962
950.000000	0.003950
949.000000	0.003898
948.000000	0.003838
947.000000	0.003761
946.000000	0.003658
945.000000	0.003564
944.000000	0.003490
943.000000	0.003389
942.000000	0.003245
941.000000	0.003115
940.000000	0.003039
939.000000	0.002971
938.000000	0.002879
937.000000	0.002798
936.000000	0.002754
935.000000	0.002702
934.000000	0.002611
933.000000	0.002527
932.000000	0.002484
931.000000	0.002433
930.000000	0.002339
929.000000	0.002247
928.000000	0.002191
927.000000	0.002131
926.000000	0.002042
925.000000	0.001977
924.000000	0.001960
923.000000	0.001929
922.000000	0.001835
921.000000	0.001733
920.000000	0.001684
919.000000	0.001657
918.000000	0.001607
917.000000	0.001554
916.000000	0.001521
915.000000	0.001473
914.000000	0.001394
913.000000	0.001336
912.000000	0.001332
911.000000	0.001330
910.000000	0.001302
909.000000	0.001297
908.000000	0.001334
907.000000	0.001331
906.000000	0.001242
905.000000	0.001144
904.000000	0.001110
903.000000	0.001097
902.000000	0.001039
901.000000	0.000971
900.000000	0.000950
899.000000	0.000947
898.000000	0.000919
897.000000	0.000894
896.000000	0.000905
895.000000	0.000913
894.000000	0.000882
893.000000	0.000856
892.000000	0.000861
891.000000	0.000841
890.000000	0.000764
889.000000	0.000700
888.000000	0.000699
887.000000	0.000698
886.000000	0.000642
885.000000	0.000590
884.000000	0.000606
883.000000	0.000644
882.000000	0.000640
881.000000	0.000633
880.000000	0.000674
879.000000	0.000719
878.000000	0.000711
877.000000	0.000689
876.000000	0.000705
875.000000	0.000719
874.000000	0.000684
873.000000	0.000644
872.000000	0.000640
871.000000	0.000620
870.000000	0.000546
869.000000	0.000481
868.000000	0.000486
867.000000	0.000512
866.000000	0.000506
865.000000	0.000507
864.000000	0.000545
863.000000	0.000559
862.000000	0.000508
861.000000	0.000477
860.000000	0.000546
859.000000	0.000663
858.000000	0.000744
857.000000	0.000814
856.000000	0.000927
855.000000	0.001053
854.000000	0.001149
853.000000	0.001267
852.000000	0.001458
851.000000	0.001670
850.000000	0.001838
849.000000	0.001985
848.000000	0.002153
847.000000	0.002307
846.000000	0.002425
845.000000	0.002580
844.000000	0.002835
843.000000	0.003125
842.000000	0.003363
841.000000	0.003561
840.000000	0.003759
839.000000	0.003924
838.000000	0.004024
837.000000	0.004113
836.000000	0.004234
835.000000	0.004325
834.000000	0.004324
833.000000	0.004277
832.000000	0.004239
831.000000	0.004170
830.000000	0.004037
829.000000	0.003911
828.000000	0.003861
827.000000	0.003830
826.000000	0.003745
825.000000	0.003649
824.000000	0.003602
823.000000	0.003568
822.000000	0.003509
821.000000	0.003485
820.000000	0.003543
819.000000	0.003619
818.000000	0.003652
817.000000	0.003677
816.000000	0.003721
815.000000	0.003712
814.000000	0.003600
813.000000	0.003461
812.000000	0.003366
811.000000	0.003269
810.000000	0.003134
809.000000	0.003033
808.000000	0.003021
807.000000	0.003024
806.000000	0.002956
805.000000	0.002853
804.000000	0.002766
803.000000	0.002656
802.000000	0.002497
801.000000	0.002380
800.000000	0.002368
799.000000	0.002387
798.000000	0.002346
797.000000	0.002281
796.000000	0.002243
795.000000	0.002183
794.000000	0.002060
793.000000	0.001954
792.000000	0.001944
791.000000	0.001972
790.000000	0.001962
789.000000	0.001952
788.000000	0.001990
787.000000	0.002015
786.000000	0.001962
785.000000	0.001886
784.000000	0.001871
783.000000	0.001898
782.000000	0.001912
781.000000	0.001925
780.000000	0.001949
779.000000	0.001925
778.000000	0.001824
777.000000	0.001739
776.000000	0.001762
775.000000	0.001866
774.000000	0.001983
773.000000	0.002109
772.000000	0.002242
771.000000	0.002313
770.000000	0.002303
769.000000	0.002299
768.000000	0.002361
767.000000	0.002410
766.000000	0.002363
765.000000	0.002265
764.000000	0.002181
763.000000	0.002083
762.000000	0.001942
761.000000	0.001827
760.000000	0.001792
759.000000	0.001776
758.000000	0.001718
757.000000	0.001677
756.000000	0.001716
755.000000	0.001778
754.000000	0.001795
753.000000	0.001814
752.000000	0.001896
751.000000	0.001980
750.000000	0.001975
749.000000	0.001910
748.000000	0.001868
747.000000	0.001862
746.000000	0.001877
745.000000	0.001950
744.000000	0.002085
743.000000	0.002180
742.000000	0.002158
741.000000	0.002086
740.000000	0.002061
739.000000	0.002054
738.000000	0.001990
737.000000	0.001889
736.000000	0.001825
735.000000	0.001806
734.000000	0.001813
733.000000	0.001868
732.000000	0.001965
731.000000	0.002017
730.000000	0.001964
729.000000	0.001876
728.000000	0.001839
727.000000	0.001817
726.000000	0.001748
725.000000	0.001655
724.000000	0.001592
723.000000	0.001545
722.000000	0.001510
721.000000	0.001539
720.000000	0.001635
719.000000	0.001696
718.000000	0.001665
717.000000	0.001616
716.000000	0.001613
715.000000	0.001607
714.000000	0.001557
713.000000	0.001532
712.000000	0.001582
711.000000	0.001621
710.000000	0.001554
709.000000	0.001419
708.000000	0.001303
707.000000	0.001214
706.000000	0.001163
705.000000	0.001222
704.000000	0.001385
703.000000	0.001496
702.000000	0.001448
701.000000	0.001328
700.000000	0.001267
699.000000	0.001250
698.000000	0.001204
697.000000	0.001161
696.000000	0.001165
695.000000	0.001166
694.000000	0.001108
693.000000	0.001041
692.000000	0.001037
691.000000	0.001044
690.000000	0.000989
689.000000	0.000909
688.000000	0.000865
687.000000	0.000832
686.000000	0.000762
685.000000	0.000685
684.000000	0.000641
683.000000	0.000588
682.000000	0.000503
681.000000	0.000474
680.000000	0.000577
679.000000	0.000728
678.000000	0.000785
677.000000	0.000768
676.000000	0.000783
675.000000	0.000812
674.000000	0.000764
673.000000	0.000642
672.000000	0.000466
671.000000	0.000117
670.000000	-0.000529
669.000000	-0.001310
668.000000	-0.001631
667.000000	-0.001109
666.000000	-0.000396
665.000000	0.000197
664.000000	0.000649
663.000000	0.000862
662.000000	0.000833
661.000000	0.000732
660.000000	0.000677
659.000000	0.000580
658.000000	0.000375
657.000000	0.000225
656.000000	0.000262
655.000000	0.000357
654.000000	0.000378
653.000000	0.000420
652.000000	0.000543
651.000000	0.000602
650.000000	0.000518
649.000000	0.000483
648.000000	0.000632
647.000000	0.000804
646.000000	0.000834
645.000000	0.000807
644.000000	0.000829
643.000000	0.000823
642.000000	0.000716
641.000000	0.000623
640.000000	0.000644
639.000000	0.000675
638.000000	0.000634
637.000000	0.000630
636.000000	0.000727
635.000000	0.000782
634.000000	0.000713
633.000000	0.000652
632.000000	0.000678
631.000000	0.000639
630.000000	0.000437
629.000000	0.000250
628.000000	0.000251
627.000000	0.000343
626.000000	0.000384
625.000000	0.000431
624.000000	0.000549
623.000000	0.000606
622.000000	0.000491
621.000000	0.000335
620.000000	0.000301
619.000000	0.000354
618.000000	0.000409
617.000000	0.000507
616.000000	0.000655
615.000000	0.000700
614.000000	0.000570
613.000000	0.000448
612.000000	0.000490
611.000000	0.000604
610.000000	0.000670
609.000000	0.000758
608.000000	0.000934
607.000000	0.001052
606.000000	0.000987
605.000000	0.000850
604.000000	0.000777
603.000000	0.000729
602.000000	0.000666
601.000000	0.000694
600.000000	0.000857
599.000000	0.000981
598.000000	0.000943
597.000000	0.000871
596.000000	0.000878
595.000000	0.000861
594.000000	0.000742
593.000000	0.000670
592.000000	0.000776
591.000000	0.000934
590.000000	0.001006
589.000000	0.001057
588.000000	0.001134
587.000000	0.001098
586.000000	0.000896
585.000000	0.000737
584.000000	0.000772
583.000000	0.000860
582.000000	0.000860
581.000000	0.000875
580.000000	0.000980
579.000000	0.001000
578.000000	0.000828
577.000000	0.000677
576.000000	0.000743
575.000000	0.000903
574.000000	0.000982
573.000000	0.001063
572.000000	0.001224
571.000000	0.001303
570.000000	0.001161
569.000000	0.000941
568.000000	0.000789
567.000000	0.000602
566.000000	0.000335
565.000000	0.000219
564.000000	0.000406
563.000000	0.000663
562.000000	0.000711
561.000000	0.000602
560.000000	0.000522
559.000000	0.000500
558.000000	0.000540
557.000000	0.000748
556.000000	0.001076
555.000000	0.001240
554.000000	0.001119
553.000000	0.000946
552.000000	0.000895
551.000000	0.000822
550.000000	0.000625
549.000000	0.000495
548.000000	0.000536
547.000000	0.000538
546.000000	0.000374
545.000000	0.000272
544.000000	0.000368
543.000000	0.000432
542.000000	0.000311
541.000000	0.000229
540.000000	0.000363
539.000000	0.000501
538.000000	0.000456
537.000000	0.000421
536.000000	0.000573
535.000000	0.000706
534.000000	0.000632
533.000000	0.000544
532.000000	0.000642
531.000000	0.000747
530.000000	0.000638
529.000000	0.000457
528.000000	0.000419
527.000000	0.000435
526.000000	0.000355
525.000000	0.000302
524.000000	0.000382
523.000000	0.000420
522.000000	0.000301
521.000000	0.000221
520.000000	0.000327
519.000000	0.000448
518.000000	0.000433
517.000000	0.000432
516.000000	0.000506
515.000000	0.000444
514.000000	0.000237
513.000000	0.000223
512.000000	0.000527
511.000000	0.000786
510.000000	0.000734
509.000000	0.000620
508.000000	0.000711
507.000000	0.000825
506.000000	0.000767
505.000000	0.000782
504.000000	0.001093
503.000000	0.001456
502.000000	0.001563
501.000000	0.001559
500.000000	0.001667
499.000000	0.001739
498.000000	0.001618
497.000000	0.001500
496.000000	0.001560
495.000000	0.001612
494.000000	0.001496
493.000000	0.001430
492.000000	0.001593
491.000000	0.001741
490.000000	0.001674
489.000000	0.001617
488.000000	0.001711
487.000000	0.001626
486.000000	0.001106
485.000000	0.000500
484.000000	0.000255
483.000000	0.000270
482.000000	0.000265
481.000000	0.000317
480.000000	0.000521
479.000000	0.000606
478.000000	0.000423
477.000000	0.000299
476.000000	0.000435
475.000000	0.000469
474.000000	0.000153
473.000000	-0.000042
472.000000	0.000365
471.000000	0.000946
470.000000	0.001102
469.000000	0.000984
468.000000	0.000946
467.000000	0.000882
466.000000	0.000690
465.000000	0.000736
464.000000	0.001259
463.000000	0.001856
462.000000	0.002122
461.000000	0.002332
460.000000	0.002833
459.000000	0.003322
458.000000	0.003380
457.000000	0.003275
456.000000	0.003360
455.000000	0.003325
454.000000	0.002948
453.000000	0.002643
452.000000	0.002750
451.000000	0.002877
450.000000	0.002684
