PE IR       SUBTECH     SPECTRUM    ASCII       PEDS        4.00        
   -1
P12-Bleu017_1.ASC
23/06/08
11:16:26.00
23/06/08
11:52:51.00
uco
Sample 017 By uco Date Thursday, June 08 2023
450.000000
#HDR
-1
-1
#GR
cm-1
A
1.0
0.0
4000.000000
-1.000000
3551
8
0.018217
0.000327
#DATA
4000.000000	0.001116
3999.000000	0.001124
3998.000000	0.001132
3997.000000	0.001136
3996.000000	0.001132
3995.000000	0.001121
3994.000000	0.001108
3993.000000	0.001098
3992.000000	0.001096
3991.000000	0.001103
3990.000000	0.001114
3989.000000	0.001127
3988.000000	0.001136
3987.000000	0.001137
3986.000000	0.001133
3985.000000	0.001129
3984.000000	0.001127
3983.000000	0.001128
3982.000000	0.001126
3981.000000	0.001121
3980.000000	0.001115
3979.000000	0.001111
3978.000000	0.001110
3977.000000	0.001110
3976.000000	0.001108
3975.000000	0.001107
3974.000000	0.001113
3973.000000	0.001123
3972.000000	0.001131
3971.000000	0.001132
3970.000000	0.001128
3969.000000	0.001128
3968.000000	0.001138
3967.000000	0.001155
3966.000000	0.001171
3965.000000	0.001178
3964.000000	0.001178
3963.000000	0.001173
3962.000000	0.001167
3961.000000	0.001158
3960.000000	0.001145
3959.000000	0.001130
3958.000000	0.001119
3957.000000	0.001114
3956.000000	0.001120
3955.000000	0.001136
3954.000000	0.001157
3953.000000	0.001177
3952.000000	0.001189
3951.000000	0.001191
3950.000000	0.001184
3949.000000	0.001168
3948.000000	0.001148
3947.000000	0.001128
3946.000000	0.001112
3945.000000	0.001103
3944.000000	0.001099
3943.000000	0.001099
3942.000000	0.001103
3941.000000	0.001114
3940.000000	0.001132
3939.000000	0.001157
3938.000000	0.001179
3937.000000	0.001191
3936.000000	0.001189
3935.000000	0.001181
3934.000000	0.001181
3933.000000	0.001196
3932.000000	0.001216
3931.000000	0.001223
3930.000000	0.001209
3929.000000	0.001185
3928.000000	0.001163
3927.000000	0.001154
3926.000000	0.001159
3925.000000	0.001172
3924.000000	0.001190
3923.000000	0.001211
3922.000000	0.001228
3921.000000	0.001237
3920.000000	0.001238
3919.000000	0.001241
3918.000000	0.001253
3917.000000	0.001269
3916.000000	0.001282
3915.000000	0.001288
3914.000000	0.001291
3913.000000	0.001298
3912.000000	0.001312
3911.000000	0.001330
3910.000000	0.001346
3909.000000	0.001353
3908.000000	0.001350
3907.000000	0.001341
3906.000000	0.001334
3905.000000	0.001337
3904.000000	0.001346
3903.000000	0.001349
3902.000000	0.001335
3901.000000	0.001305
3900.000000	0.001270
3899.000000	0.001242
3898.000000	0.001228
3897.000000	0.001221
3896.000000	0.001214
3895.000000	0.001203
3894.000000	0.001192
3893.000000	0.001186
3892.000000	0.001192
3891.000000	0.001209
3890.000000	0.001227
3889.000000	0.001231
3888.000000	0.001223
3887.000000	0.001216
3886.000000	0.001222
3885.000000	0.001239
3884.000000	0.001251
3883.000000	0.001246
3882.000000	0.001221
3881.000000	0.001191
3880.000000	0.001180
3879.000000	0.001197
3878.000000	0.001233
3877.000000	0.001269
3876.000000	0.001300
3875.000000	0.001322
3874.000000	0.001337
3873.000000	0.001346
3872.000000	0.001352
3871.000000	0.001355
3870.000000	0.001354
3869.000000	0.001350
3868.000000	0.001346
3867.000000	0.001346
3866.000000	0.001350
3865.000000	0.001351
3864.000000	0.001346
3863.000000	0.001337
3862.000000	0.001329
3861.000000	0.001324
3860.000000	0.001316
3859.000000	0.001300
3858.000000	0.001274
3857.000000	0.001246
3856.000000	0.001231
3855.000000	0.001237
3854.000000	0.001244
3853.000000	0.001229
3852.000000	0.001213
3851.000000	0.001222
3850.000000	0.001259
3849.000000	0.001305
3848.000000	0.001344
3847.000000	0.001365
3846.000000	0.001366
3845.000000	0.001350
3844.000000	0.001331
3843.000000	0.001323
3842.000000	0.001336
3841.000000	0.001359
3840.000000	0.001374
3839.000000	0.001369
3838.000000	0.001350
3837.000000	0.001329
3836.000000	0.001316
3835.000000	0.001311
3834.000000	0.001309
3833.000000	0.001306
3832.000000	0.001298
3831.000000	0.001289
3830.000000	0.001284
3829.000000	0.001280
3828.000000	0.001278
3827.000000	0.001277
3826.000000	0.001275
3825.000000	0.001274
3824.000000	0.001279
3823.000000	0.001295
3822.000000	0.001313
3821.000000	0.001318
3820.000000	0.001302
3819.000000	0.001270
3818.000000	0.001230
3817.000000	0.001194
3816.000000	0.001172
3815.000000	0.001168
3814.000000	0.001175
3813.000000	0.001182
3812.000000	0.001185
3811.000000	0.001192
3810.000000	0.001211
3809.000000	0.001247
3808.000000	0.001303
3807.000000	0.001368
3806.000000	0.001422
3805.000000	0.001443
3804.000000	0.001424
3803.000000	0.001368
3802.000000	0.001292
3801.000000	0.001230
3800.000000	0.001215
3799.000000	0.001241
3798.000000	0.001284
3797.000000	0.001318
3796.000000	0.001330
3795.000000	0.001321
3794.000000	0.001298
3793.000000	0.001267
3792.000000	0.001231
3791.000000	0.001197
3790.000000	0.001170
3789.000000	0.001156
3788.000000	0.001155
3787.000000	0.001165
3786.000000	0.001181
3785.000000	0.001196
3784.000000	0.001203
3783.000000	0.001202
3782.000000	0.001192
3781.000000	0.001173
3780.000000	0.001152
3779.000000	0.001143
3778.000000	0.001150
3777.000000	0.001169
3776.000000	0.001194
3775.000000	0.001221
3774.000000	0.001250
3773.000000	0.001273
3772.000000	0.001283
3771.000000	0.001281
3770.000000	0.001277
3769.000000	0.001283
3768.000000	0.001299
3767.000000	0.001312
3766.000000	0.001309
3765.000000	0.001283
3764.000000	0.001247
3763.000000	0.001219
3762.000000	0.001211
3761.000000	0.001221
3760.000000	0.001240
3759.000000	0.001258
3758.000000	0.001270
3757.000000	0.001274
3756.000000	0.001275
3755.000000	0.001282
3754.000000	0.001300
3753.000000	0.001323
3752.000000	0.001334
3751.000000	0.001330
3750.000000	0.001329
3749.000000	0.001342
3748.000000	0.001354
3747.000000	0.001353
3746.000000	0.001343
3745.000000	0.001330
3744.000000	0.001319
3743.000000	0.001318
3742.000000	0.001323
3741.000000	0.001330
3740.000000	0.001340
3739.000000	0.001365
3738.000000	0.001404
3737.000000	0.001442
3736.000000	0.001452
3735.000000	0.001432
3734.000000	0.001407
3733.000000	0.001399
3732.000000	0.001409
3731.000000	0.001424
3730.000000	0.001431
3729.000000	0.001419
3728.000000	0.001390
3727.000000	0.001357
3726.000000	0.001332
3725.000000	0.001320
3724.000000	0.001313
3723.000000	0.001304
3722.000000	0.001290
3721.000000	0.001274
3720.000000	0.001260
3719.000000	0.001251
3718.000000	0.001246
3717.000000	0.001240
3716.000000	0.001233
3715.000000	0.001236
3714.000000	0.001263
3713.000000	0.001308
3712.000000	0.001341
3711.000000	0.001330
3710.000000	0.001274
3709.000000	0.001198
3708.000000	0.001135
3707.000000	0.001104
3706.000000	0.001104
3705.000000	0.001120
3704.000000	0.001131
3703.000000	0.001129
3702.000000	0.001119
3701.000000	0.001115
3700.000000	0.001121
3699.000000	0.001136
3698.000000	0.001153
3697.000000	0.001169
3696.000000	0.001183
3695.000000	0.001198
3694.000000	0.001208
3693.000000	0.001202
3692.000000	0.001177
3691.000000	0.001154
3690.000000	0.001158
3689.000000	0.001191
3688.000000	0.001228
3687.000000	0.001251
3686.000000	0.001259
3685.000000	0.001256
3684.000000	0.001255
3683.000000	0.001266
3682.000000	0.001288
3681.000000	0.001304
3680.000000	0.001293
3679.000000	0.001255
3678.000000	0.001218
3677.000000	0.001206
3676.000000	0.001219
3675.000000	0.001237
3674.000000	0.001242
3673.000000	0.001221
3672.000000	0.001181
3671.000000	0.001144
3670.000000	0.001124
3669.000000	0.001119
3668.000000	0.001117
3667.000000	0.001107
3666.000000	0.001098
3665.000000	0.001102
3664.000000	0.001119
3663.000000	0.001135
3662.000000	0.001136
3661.000000	0.001117
3660.000000	0.001093
3659.000000	0.001089
3658.000000	0.001116
3657.000000	0.001163
3656.000000	0.001207
3655.000000	0.001236
3654.000000	0.001257
3653.000000	0.001281
3652.000000	0.001325
3651.000000	0.001393
3650.000000	0.001453
3649.000000	0.001449
3648.000000	0.001365
3647.000000	0.001255
3646.000000	0.001179
3645.000000	0.001147
3644.000000	0.001142
3643.000000	0.001147
3642.000000	0.001150
3641.000000	0.001148
3640.000000	0.001142
3639.000000	0.001137
3638.000000	0.001140
3637.000000	0.001151
3636.000000	0.001166
3635.000000	0.001176
3634.000000	0.001181
3633.000000	0.001186
3632.000000	0.001210
3631.000000	0.001269
3630.000000	0.001353
3629.000000	0.001414
3628.000000	0.001420
3627.000000	0.001393
3626.000000	0.001362
3625.000000	0.001337
3624.000000	0.001312
3623.000000	0.001279
3622.000000	0.001237
3621.000000	0.001197
3620.000000	0.001183
3619.000000	0.001215
3618.000000	0.001276
3617.000000	0.001321
3616.000000	0.001324
3615.000000	0.001293
3614.000000	0.001261
3613.000000	0.001252
3612.000000	0.001273
3611.000000	0.001310
3610.000000	0.001346
3609.000000	0.001364
3608.000000	0.001357
3607.000000	0.001338
3606.000000	0.001324
3605.000000	0.001324
3604.000000	0.001336
3603.000000	0.001356
3602.000000	0.001373
3601.000000	0.001379
3600.000000	0.001372
3599.000000	0.001364
3598.000000	0.001361
3597.000000	0.001358
3596.000000	0.001349
3595.000000	0.001337
3594.000000	0.001326
3593.000000	0.001319
3592.000000	0.001317
3591.000000	0.001322
3590.000000	0.001331
3589.000000	0.001336
3588.000000	0.001332
3587.000000	0.001327
3586.000000	0.001333
3585.000000	0.001352
3584.000000	0.001373
3583.000000	0.001390
3582.000000	0.001398
3581.000000	0.001397
3580.000000	0.001391
3579.000000	0.001390
3578.000000	0.001397
3577.000000	0.001403
3576.000000	0.001398
3575.000000	0.001383
3574.000000	0.001362
3573.000000	0.001342
3572.000000	0.001328
3571.000000	0.001326
3570.000000	0.001337
3569.000000	0.001356
3568.000000	0.001379
3567.000000	0.001404
3566.000000	0.001437
3565.000000	0.001475
3564.000000	0.001504
3563.000000	0.001517
3562.000000	0.001508
3561.000000	0.001482
3560.000000	0.001451
3559.000000	0.001432
3558.000000	0.001427
3557.000000	0.001427
3556.000000	0.001424
3555.000000	0.001421
3554.000000	0.001421
3553.000000	0.001424
3552.000000	0.001431
3551.000000	0.001449
3550.000000	0.001480
3549.000000	0.001518
3548.000000	0.001547
3547.000000	0.001556
3546.000000	0.001543
3545.000000	0.001517
3544.000000	0.001494
3543.000000	0.001485
3542.000000	0.001488
3541.000000	0.001493
3540.000000	0.001495
3539.000000	0.001501
3538.000000	0.001513
3537.000000	0.001529
3536.000000	0.001540
3535.000000	0.001541
3534.000000	0.001536
3533.000000	0.001529
3532.000000	0.001523
3531.000000	0.001522
3530.000000	0.001522
3529.000000	0.001526
3528.000000	0.001537
3527.000000	0.001560
3526.000000	0.001588
3525.000000	0.001601
3524.000000	0.001589
3523.000000	0.001561
3522.000000	0.001535
3521.000000	0.001520
3520.000000	0.001515
3519.000000	0.001516
3518.000000	0.001523
3517.000000	0.001531
3516.000000	0.001540
3515.000000	0.001551
3514.000000	0.001568
3513.000000	0.001590
3512.000000	0.001613
3511.000000	0.001636
3510.000000	0.001652
3509.000000	0.001653
3508.000000	0.001641
3507.000000	0.001624
3506.000000	0.001615
3505.000000	0.001620
3504.000000	0.001643
3503.000000	0.001681
3502.000000	0.001721
3501.000000	0.001745
3500.000000	0.001741
3499.000000	0.001719
3498.000000	0.001697
3497.000000	0.001684
3496.000000	0.001682
3495.000000	0.001691
3494.000000	0.001709
3493.000000	0.001730
3492.000000	0.001750
3491.000000	0.001767
3490.000000	0.001780
3489.000000	0.001784
3488.000000	0.001780
3487.000000	0.001774
3486.000000	0.001778
3485.000000	0.001798
3484.000000	0.001833
3483.000000	0.001872
3482.000000	0.001898
3481.000000	0.001894
3480.000000	0.001869
3479.000000	0.001848
3478.000000	0.001849
3477.000000	0.001868
3476.000000	0.001889
3475.000000	0.001904
3474.000000	0.001918
3473.000000	0.001936
3472.000000	0.001961
3471.000000	0.001997
3470.000000	0.002038
3469.000000	0.002078
3468.000000	0.002111
3467.000000	0.002139
3466.000000	0.002164
3465.000000	0.002185
3464.000000	0.002200
3463.000000	0.002213
3462.000000	0.002223
3461.000000	0.002230
3460.000000	0.002233
3459.000000	0.002240
3458.000000	0.002262
3457.000000	0.002299
3456.000000	0.002347
3455.000000	0.002398
3454.000000	0.002447
3453.000000	0.002490
3452.000000	0.002531
3451.000000	0.002576
3450.000000	0.002628
3449.000000	0.002685
3448.000000	0.002742
3447.000000	0.002800
3446.000000	0.002861
3445.000000	0.002926
3444.000000	0.002992
3443.000000	0.003065
3442.000000	0.003149
3441.000000	0.003248
3440.000000	0.003366
3439.000000	0.003502
3438.000000	0.003645
3437.000000	0.003781
3436.000000	0.003900
3435.000000	0.004008
3434.000000	0.004115
3433.000000	0.004229
3432.000000	0.004354
3431.000000	0.004490
3430.000000	0.004620
3429.000000	0.004726
3428.000000	0.004796
3427.000000	0.004839
3426.000000	0.004869
3425.000000	0.004889
3424.000000	0.004896
3423.000000	0.004891
3422.000000	0.004879
3421.000000	0.004865
3420.000000	0.004850
3419.000000	0.004839
3418.000000	0.004832
3417.000000	0.004823
3416.000000	0.004811
3415.000000	0.004799
3414.000000	0.004789
3413.000000	0.004776
3412.000000	0.004752
3411.000000	0.004716
3410.000000	0.004668
3409.000000	0.004611
3408.000000	0.004549
3407.000000	0.004497
3406.000000	0.004470
3405.000000	0.004469
3404.000000	0.004481
3403.000000	0.004489
3402.000000	0.004475
3401.000000	0.004433
3400.000000	0.004371
3399.000000	0.004308
3398.000000	0.004262
3397.000000	0.004234
3396.000000	0.004216
3395.000000	0.004196
3394.000000	0.004167
3393.000000	0.004129
3392.000000	0.004090
3391.000000	0.004059
3390.000000	0.004040
3389.000000	0.004029
3388.000000	0.004026
3387.000000	0.004033
3386.000000	0.004049
3385.000000	0.004059
3384.000000	0.004048
3383.000000	0.004016
3382.000000	0.003971
3381.000000	0.003925
3380.000000	0.003887
3379.000000	0.003869
3378.000000	0.003876
3377.000000	0.003898
3376.000000	0.003917
3375.000000	0.003922
3374.000000	0.003915
3373.000000	0.003907
3372.000000	0.003905
3371.000000	0.003906
3370.000000	0.003904
3369.000000	0.003890
3368.000000	0.003867
3367.000000	0.003845
3366.000000	0.003828
3365.000000	0.003816
3364.000000	0.003806
3363.000000	0.003804
3362.000000	0.003812
3361.000000	0.003820
3360.000000	0.003817
3359.000000	0.003800
3358.000000	0.003778
3357.000000	0.003760
3356.000000	0.003756
3355.000000	0.003772
3354.000000	0.003806
3353.000000	0.003839
3352.000000	0.003853
3351.000000	0.003845
3350.000000	0.003823
3349.000000	0.003798
3348.000000	0.003775
3347.000000	0.003753
3346.000000	0.003735
3345.000000	0.003721
3344.000000	0.003718
3343.000000	0.003727
3342.000000	0.003748
3341.000000	0.003771
3340.000000	0.003785
3339.000000	0.003787
3338.000000	0.003775
3337.000000	0.003752
3336.000000	0.003727
3335.000000	0.003712
3334.000000	0.003709
3333.000000	0.003705
3332.000000	0.003691
3331.000000	0.003672
3330.000000	0.003661
3329.000000	0.003664
3328.000000	0.003676
3327.000000	0.003692
3326.000000	0.003708
3325.000000	0.003717
3324.000000	0.003712
3323.000000	0.003697
3322.000000	0.003680
3321.000000	0.003669
3320.000000	0.003659
3319.000000	0.003645
3318.000000	0.003622
3317.000000	0.003596
3316.000000	0.003577
3315.000000	0.003574
3314.000000	0.003580
3313.000000	0.003578
3312.000000	0.003557
3311.000000	0.003523
3310.000000	0.003493
3309.000000	0.003480
3308.000000	0.003486
3307.000000	0.003507
3306.000000	0.003534
3305.000000	0.003556
3304.000000	0.003566
3303.000000	0.003563
3302.000000	0.003556
3301.000000	0.003551
3300.000000	0.003554
3299.000000	0.003563
3298.000000	0.003569
3297.000000	0.003564
3296.000000	0.003548
3295.000000	0.003531
3294.000000	0.003520
3293.000000	0.003516
3292.000000	0.003511
3291.000000	0.003498
3290.000000	0.003478
3289.000000	0.003457
3288.000000	0.003443
3287.000000	0.003438
3286.000000	0.003440
3285.000000	0.003443
3284.000000	0.003447
3283.000000	0.003458
3282.000000	0.003473
3281.000000	0.003479
3280.000000	0.003470
3279.000000	0.003456
3278.000000	0.003449
3277.000000	0.003450
3276.000000	0.003453
3275.000000	0.003448
3274.000000	0.003431
3273.000000	0.003401
3272.000000	0.003368
3271.000000	0.003347
3270.000000	0.003345
3269.000000	0.003354
3268.000000	0.003362
3267.000000	0.003361
3266.000000	0.003348
3265.000000	0.003323
3264.000000	0.003287
3263.000000	0.003254
3262.000000	0.003237
3261.000000	0.003243
3260.000000	0.003266
3259.000000	0.003297
3258.000000	0.003322
3257.000000	0.003331
3256.000000	0.003319
3255.000000	0.003294
3254.000000	0.003268
3253.000000	0.003245
3252.000000	0.003228
3251.000000	0.003223
3250.000000	0.003233
3249.000000	0.003255
3248.000000	0.003278
3247.000000	0.003295
3246.000000	0.003299
3245.000000	0.003285
3244.000000	0.003252
3243.000000	0.003211
3242.000000	0.003172
3241.000000	0.003138
3240.000000	0.003109
3239.000000	0.003090
3238.000000	0.003093
3237.000000	0.003122
3236.000000	0.003166
3235.000000	0.003203
3234.000000	0.003215
3233.000000	0.003203
3232.000000	0.003183
3231.000000	0.003171
3230.000000	0.003167
3229.000000	0.003159
3228.000000	0.003143
3227.000000	0.003128
3226.000000	0.003126
3225.000000	0.003132
3224.000000	0.003134
3223.000000	0.003126
3222.000000	0.003116
3221.000000	0.003113
3220.000000	0.003119
3219.000000	0.003127
3218.000000	0.003127
3217.000000	0.003115
3216.000000	0.003090
3215.000000	0.003064
3214.000000	0.003050
3213.000000	0.003055
3212.000000	0.003071
3211.000000	0.003083
3210.000000	0.003077
3209.000000	0.003053
3208.000000	0.003023
3207.000000	0.003008
3206.000000	0.003016
3205.000000	0.003039
3204.000000	0.003059
3203.000000	0.003065
3202.000000	0.003056
3201.000000	0.003042
3200.000000	0.003031
3199.000000	0.003028
3198.000000	0.003032
3197.000000	0.003039
3196.000000	0.003041
3195.000000	0.003039
3194.000000	0.003035
3193.000000	0.003031
3192.000000	0.003026
3191.000000	0.003015
3190.000000	0.002995
3189.000000	0.002968
3188.000000	0.002948
3187.000000	0.002945
3186.000000	0.002960
3185.000000	0.002980
3184.000000	0.002998
3183.000000	0.003017
3182.000000	0.003039
3181.000000	0.003049
3180.000000	0.003034
3179.000000	0.003000
3178.000000	0.002965
3177.000000	0.002941
3176.000000	0.002930
3175.000000	0.002925
3174.000000	0.002923
3173.000000	0.002924
3172.000000	0.002931
3171.000000	0.002946
3170.000000	0.002970
3169.000000	0.002994
3168.000000	0.003009
3167.000000	0.003010
3166.000000	0.002997
3165.000000	0.002976
3164.000000	0.002954
3163.000000	0.002935
3162.000000	0.002923
3161.000000	0.002916
3160.000000	0.002909
3159.000000	0.002903
3158.000000	0.002906
3157.000000	0.002920
3156.000000	0.002943
3155.000000	0.002964
3154.000000	0.002973
3153.000000	0.002964
3152.000000	0.002943
3151.000000	0.002919
3150.000000	0.002901
3149.000000	0.002890
3148.000000	0.002888
3147.000000	0.002895
3146.000000	0.002908
3145.000000	0.002915
3144.000000	0.002911
3143.000000	0.002898
3142.000000	0.002888
3141.000000	0.002884
3140.000000	0.002881
3139.000000	0.002871
3138.000000	0.002856
3137.000000	0.002842
3136.000000	0.002836
3135.000000	0.002840
3134.000000	0.002849
3133.000000	0.002858
3132.000000	0.002867
3131.000000	0.002881
3130.000000	0.002895
3129.000000	0.002905
3128.000000	0.002907
3127.000000	0.002904
3126.000000	0.002899
3125.000000	0.002894
3124.000000	0.002888
3123.000000	0.002883
3122.000000	0.002881
3121.000000	0.002880
3120.000000	0.002882
3119.000000	0.002891
3118.000000	0.002903
3117.000000	0.002910
3116.000000	0.002899
3115.000000	0.002874
3114.000000	0.002847
3113.000000	0.002826
3112.000000	0.002811
3111.000000	0.002795
3110.000000	0.002774
3109.000000	0.002749
3108.000000	0.002732
3107.000000	0.002730
3106.000000	0.002742
3105.000000	0.002758
3104.000000	0.002774
3103.000000	0.002791
3102.000000	0.002810
3101.000000	0.002823
3100.000000	0.002827
3099.000000	0.002822
3098.000000	0.002814
3097.000000	0.002800
3096.000000	0.002780
3095.000000	0.002759
3094.000000	0.002751
3093.000000	0.002760
3092.000000	0.002779
3091.000000	0.002798
3090.000000	0.002812
3089.000000	0.002822
3088.000000	0.002832
3087.000000	0.002844
3086.000000	0.002855
3085.000000	0.002858
3084.000000	0.002849
3083.000000	0.002833
3082.000000	0.002816
3081.000000	0.002805
3080.000000	0.002798
3079.000000	0.002793
3078.000000	0.002790
3077.000000	0.002789
3076.000000	0.002792
3075.000000	0.002797
3074.000000	0.002803
3073.000000	0.002803
3072.000000	0.002801
3071.000000	0.002802
3070.000000	0.002811
3069.000000	0.002822
3068.000000	0.002827
3067.000000	0.002822
3066.000000	0.002811
3065.000000	0.002802
3064.000000	0.002802
3063.000000	0.002807
3062.000000	0.002807
3061.000000	0.002793
3060.000000	0.002773
3059.000000	0.002757
3058.000000	0.002746
3057.000000	0.002735
3056.000000	0.002719
3055.000000	0.002707
3054.000000	0.002707
3053.000000	0.002712
3052.000000	0.002715
3051.000000	0.002713
3050.000000	0.002712
3049.000000	0.002713
3048.000000	0.002717
3047.000000	0.002723
3046.000000	0.002737
3045.000000	0.002759
3044.000000	0.002783
3043.000000	0.002794
3042.000000	0.002785
3041.000000	0.002766
3040.000000	0.002753
3039.000000	0.002763
3038.000000	0.002791
3037.000000	0.002816
3036.000000	0.002825
3035.000000	0.002823
3034.000000	0.002822
3033.000000	0.002825
3032.000000	0.002825
3031.000000	0.002821
3030.000000	0.002820
3029.000000	0.002821
3028.000000	0.002818
3027.000000	0.002802
3026.000000	0.002778
3025.000000	0.002761
3024.000000	0.002762
3023.000000	0.002779
3022.000000	0.002794
3021.000000	0.002796
3020.000000	0.002785
3019.000000	0.002775
3018.000000	0.002772
3017.000000	0.002776
3016.000000	0.002781
3015.000000	0.002788
3014.000000	0.002796
3013.000000	0.002807
3012.000000	0.002823
3011.000000	0.002845
3010.000000	0.002870
3009.000000	0.002886
3008.000000	0.002888
3007.000000	0.002881
3006.000000	0.002875
3005.000000	0.002875
3004.000000	0.002880
3003.000000	0.002884
3002.000000	0.002886
3001.000000	0.002888
3000.000000	0.002894
2999.000000	0.002907
2998.000000	0.002926
2997.000000	0.002938
2996.000000	0.002940
2995.000000	0.002936
2994.000000	0.002937
2993.000000	0.002941
2992.000000	0.002943
2991.000000	0.002940
2990.000000	0.002938
2989.000000	0.002945
2988.000000	0.002958
2987.000000	0.002970
2986.000000	0.002975
2985.000000	0.002977
2984.000000	0.002983
2983.000000	0.002995
2982.000000	0.003009
2981.000000	0.003016
2980.000000	0.003017
2979.000000	0.003017
2978.000000	0.003017
2977.000000	0.003017
2976.000000	0.003019
2975.000000	0.003033
2974.000000	0.003064
2973.000000	0.003103
2972.000000	0.003130
2971.000000	0.003139
2970.000000	0.003135
2969.000000	0.003131
2968.000000	0.003133
2967.000000	0.003144
2966.000000	0.003161
2965.000000	0.003181
2964.000000	0.003197
2963.000000	0.003206
2962.000000	0.003207
2961.000000	0.003203
2960.000000	0.003198
2959.000000	0.003198
2958.000000	0.003206
2957.000000	0.003217
2956.000000	0.003228
2955.000000	0.003235
2954.000000	0.003234
2953.000000	0.003223
2952.000000	0.003206
2951.000000	0.003193
2950.000000	0.003190
2949.000000	0.003192
2948.000000	0.003189
2947.000000	0.003181
2946.000000	0.003177
2945.000000	0.003182
2944.000000	0.003188
2943.000000	0.003191
2942.000000	0.003191
2941.000000	0.003194
2940.000000	0.003204
2939.000000	0.003218
2938.000000	0.003234
2937.000000	0.003251
2936.000000	0.003271
2935.000000	0.003293
2934.000000	0.003311
2933.000000	0.003319
2932.000000	0.003314
2931.000000	0.003308
2930.000000	0.003309
2929.000000	0.003314
2928.000000	0.003307
2927.000000	0.003279
2926.000000	0.003236
2925.000000	0.003201
2924.000000	0.003191
2923.000000	0.003208
2922.000000	0.003242
2921.000000	0.003279
2920.000000	0.003308
2919.000000	0.003327
2918.000000	0.003334
2917.000000	0.003329
2916.000000	0.003314
2915.000000	0.003292
2914.000000	0.003264
2913.000000	0.003233
2912.000000	0.003210
2911.000000	0.003207
2910.000000	0.003230
2909.000000	0.003268
2908.000000	0.003302
2907.000000	0.003318
2906.000000	0.003315
2905.000000	0.003302
2904.000000	0.003289
2903.000000	0.003284
2902.000000	0.003290
2901.000000	0.003299
2900.000000	0.003301
2899.000000	0.003288
2898.000000	0.003265
2897.000000	0.003245
2896.000000	0.003239
2895.000000	0.003248
2894.000000	0.003261
2893.000000	0.003264
2892.000000	0.003254
2891.000000	0.003237
2890.000000	0.003224
2889.000000	0.003220
2888.000000	0.003221
2887.000000	0.003224
2886.000000	0.003227
2885.000000	0.003236
2884.000000	0.003250
2883.000000	0.003263
2882.000000	0.003271
2881.000000	0.003273
2880.000000	0.003277
2879.000000	0.003285
2878.000000	0.003293
2877.000000	0.003296
2876.000000	0.003290
2875.000000	0.003273
2874.000000	0.003247
2873.000000	0.003217
2872.000000	0.003193
2871.000000	0.003184
2870.000000	0.003190
2869.000000	0.003198
2868.000000	0.003195
2867.000000	0.003183
2866.000000	0.003175
2865.000000	0.003183
2864.000000	0.003206
2863.000000	0.003228
2862.000000	0.003235
2861.000000	0.003225
2860.000000	0.003213
2859.000000	0.003210
2858.000000	0.003216
2857.000000	0.003218
2856.000000	0.003210
2855.000000	0.003197
2854.000000	0.003184
2853.000000	0.003173
2852.000000	0.003162
2851.000000	0.003154
2850.000000	0.003153
2849.000000	0.003157
2848.000000	0.003159
2847.000000	0.003156
2846.000000	0.003152
2845.000000	0.003151
2844.000000	0.003153
2843.000000	0.003156
2842.000000	0.003162
2841.000000	0.003171
2840.000000	0.003181
2839.000000	0.003185
2838.000000	0.003175
2837.000000	0.003149
2836.000000	0.003117
2835.000000	0.003092
2834.000000	0.003084
2833.000000	0.003092
2832.000000	0.003109
2831.000000	0.003130
2830.000000	0.003147
2829.000000	0.003154
2828.000000	0.003145
2827.000000	0.003121
2826.000000	0.003088
2825.000000	0.003055
2824.000000	0.003028
2823.000000	0.003013
2822.000000	0.003013
2821.000000	0.003023
2820.000000	0.003032
2819.000000	0.003036
2818.000000	0.003037
2817.000000	0.003039
2816.000000	0.003046
2815.000000	0.003055
2814.000000	0.003057
2813.000000	0.003048
2812.000000	0.003034
2811.000000	0.003029
2810.000000	0.003041
2809.000000	0.003062
2808.000000	0.003076
2807.000000	0.003074
2806.000000	0.003067
2805.000000	0.003065
2804.000000	0.003063
2803.000000	0.003055
2802.000000	0.003040
2801.000000	0.003030
2800.000000	0.003032
2799.000000	0.003043
2798.000000	0.003055
2797.000000	0.003060
2796.000000	0.003053
2795.000000	0.003036
2794.000000	0.003014
2793.000000	0.002989
2792.000000	0.002967
2791.000000	0.002951
2790.000000	0.002945
2789.000000	0.002948
2788.000000	0.002956
2787.000000	0.002963
2786.000000	0.002967
2785.000000	0.002969
2784.000000	0.002968
2783.000000	0.002962
2782.000000	0.002952
2781.000000	0.002943
2780.000000	0.002941
2779.000000	0.002951
2778.000000	0.002972
2777.000000	0.002991
2776.000000	0.002996
2775.000000	0.002981
2774.000000	0.002957
2773.000000	0.002939
2772.000000	0.002932
2771.000000	0.002927
2770.000000	0.002924
2769.000000	0.002928
2768.000000	0.002947
2767.000000	0.002973
2766.000000	0.002990
2765.000000	0.002987
2764.000000	0.002972
2763.000000	0.002959
2762.000000	0.002958
2761.000000	0.002966
2760.000000	0.002977
2759.000000	0.002985
2758.000000	0.002987
2757.000000	0.002980
2756.000000	0.002971
2755.000000	0.002966
2754.000000	0.002971
2753.000000	0.002982
2752.000000	0.002991
2751.000000	0.002991
2750.000000	0.002980
2749.000000	0.002965
2748.000000	0.002954
2747.000000	0.002953
2746.000000	0.002963
2745.000000	0.002976
2744.000000	0.002986
2743.000000	0.002991
2742.000000	0.003001
2741.000000	0.003024
2740.000000	0.003052
2739.000000	0.003071
2738.000000	0.003069
2737.000000	0.003048
2736.000000	0.003024
2735.000000	0.003009
2734.000000	0.003006
2733.000000	0.003009
2732.000000	0.003011
2731.000000	0.003009
2730.000000	0.003006
2729.000000	0.003003
2728.000000	0.002998
2727.000000	0.002990
2726.000000	0.002976
2725.000000	0.002957
2724.000000	0.002936
2723.000000	0.002926
2722.000000	0.002940
2721.000000	0.002977
2720.000000	0.003020
2719.000000	0.003048
2718.000000	0.003051
2717.000000	0.003033
2716.000000	0.003005
2715.000000	0.002977
2714.000000	0.002956
2713.000000	0.002948
2712.000000	0.002950
2711.000000	0.002959
2710.000000	0.002971
2709.000000	0.002980
2708.000000	0.002983
2707.000000	0.002977
2706.000000	0.002969
2705.000000	0.002966
2704.000000	0.002972
2703.000000	0.002979
2702.000000	0.002983
2701.000000	0.002985
2700.000000	0.002990
2699.000000	0.002996
2698.000000	0.003000
2697.000000	0.002999
2696.000000	0.002995
2695.000000	0.002994
2694.000000	0.002995
2693.000000	0.002995
2692.000000	0.002988
2691.000000	0.002975
2690.000000	0.002959
2689.000000	0.002946
2688.000000	0.002941
2687.000000	0.002944
2686.000000	0.002954
2685.000000	0.002969
2684.000000	0.002981
2683.000000	0.002986
2682.000000	0.002981
2681.000000	0.002971
2680.000000	0.002963
2679.000000	0.002962
2678.000000	0.002967
2677.000000	0.002975
2676.000000	0.002983
2675.000000	0.002986
2674.000000	0.002981
2673.000000	0.002966
2672.000000	0.002945
2671.000000	0.002929
2670.000000	0.002932
2669.000000	0.002956
2668.000000	0.002986
2667.000000	0.003002
2666.000000	0.003003
2665.000000	0.003005
2664.000000	0.003023
2663.000000	0.003052
2662.000000	0.003075
2661.000000	0.003085
2660.000000	0.003088
2659.000000	0.003094
2658.000000	0.003107
2657.000000	0.003124
2656.000000	0.003139
2655.000000	0.003151
2654.000000	0.003159
2653.000000	0.003163
2652.000000	0.003162
2651.000000	0.003157
2650.000000	0.003148
2649.000000	0.003140
2648.000000	0.003134
2647.000000	0.003130
2646.000000	0.003127
2645.000000	0.003123
2644.000000	0.003117
2643.000000	0.003110
2642.000000	0.003104
2641.000000	0.003101
2640.000000	0.003104
2639.000000	0.003112
2638.000000	0.003123
2637.000000	0.003133
2636.000000	0.003138
2635.000000	0.003133
2634.000000	0.003118
2633.000000	0.003096
2632.000000	0.003068
2631.000000	0.003039
2630.000000	0.003014
2629.000000	0.002999
2628.000000	0.002991
2627.000000	0.002984
2626.000000	0.002973
2625.000000	0.002964
2624.000000	0.002968
2623.000000	0.002987
2622.000000	0.003016
2621.000000	0.003044
2620.000000	0.003060
2619.000000	0.003056
2618.000000	0.003036
2617.000000	0.003007
2616.000000	0.002981
2615.000000	0.002959
2614.000000	0.002939
2613.000000	0.002924
2612.000000	0.002919
2611.000000	0.002926
2610.000000	0.002941
2609.000000	0.002956
2608.000000	0.002965
2607.000000	0.002965
2606.000000	0.002953
2605.000000	0.002935
2604.000000	0.002922
2603.000000	0.002926
2602.000000	0.002946
2601.000000	0.002970
2600.000000	0.002982
2599.000000	0.002976
2598.000000	0.002961
2597.000000	0.002953
2596.000000	0.002958
2595.000000	0.002975
2594.000000	0.002995
2593.000000	0.003009
2592.000000	0.003009
2591.000000	0.002990
2590.000000	0.002952
2589.000000	0.002905
2588.000000	0.002864
2587.000000	0.002847
2586.000000	0.002863
2585.000000	0.002903
2584.000000	0.002944
2583.000000	0.002964
2582.000000	0.002960
2581.000000	0.002943
2580.000000	0.002923
2579.000000	0.002899
2578.000000	0.002873
2577.000000	0.002855
2576.000000	0.002857
2575.000000	0.002875
2574.000000	0.002895
2573.000000	0.002907
2572.000000	0.002908
2571.000000	0.002907
2570.000000	0.002908
2569.000000	0.002906
2568.000000	0.002893
2567.000000	0.002872
2566.000000	0.002859
2565.000000	0.002866
2564.000000	0.002891
2563.000000	0.002919
2562.000000	0.002940
2561.000000	0.002954
2560.000000	0.002964
2559.000000	0.002962
2558.000000	0.002945
2557.000000	0.002924
2556.000000	0.002919
2555.000000	0.002937
2554.000000	0.002966
2553.000000	0.002986
2552.000000	0.002990
2551.000000	0.002982
2550.000000	0.002974
2549.000000	0.002965
2548.000000	0.002954
2547.000000	0.002939
2546.000000	0.002929
2545.000000	0.002927
2544.000000	0.002929
2543.000000	0.002925
2542.000000	0.002912
2541.000000	0.002886
2540.000000	0.002846
2539.000000	0.002801
2538.000000	0.002775
2537.000000	0.002791
2536.000000	0.002842
2535.000000	0.002894
2534.000000	0.002917
2533.000000	0.002907
2532.000000	0.002879
2531.000000	0.002853
2530.000000	0.002838
2529.000000	0.002836
2528.000000	0.002838
2527.000000	0.002834
2526.000000	0.002822
2525.000000	0.002812
2524.000000	0.002814
2523.000000	0.002828
2522.000000	0.002842
2521.000000	0.002851
2520.000000	0.002858
2519.000000	0.002871
2518.000000	0.002891
2517.000000	0.002907
2516.000000	0.002910
2515.000000	0.002901
2514.000000	0.002895
2513.000000	0.002911
2512.000000	0.002952
2511.000000	0.002994
2510.000000	0.003014
2509.000000	0.003002
2508.000000	0.002974
2507.000000	0.002958
2506.000000	0.002973
2505.000000	0.003011
2504.000000	0.003045
2503.000000	0.003055
2502.000000	0.003045
2501.000000	0.003032
2500.000000	0.003025
2499.000000	0.003018
2498.000000	0.003012
2497.000000	0.003017
2496.000000	0.003033
2495.000000	0.003040
2494.000000	0.003019
2493.000000	0.002969
2492.000000	0.002904
2491.000000	0.002850
2490.000000	0.002833
2489.000000	0.002860
2488.000000	0.002907
2487.000000	0.002929
2486.000000	0.002901
2485.000000	0.002844
2484.000000	0.002797
2483.000000	0.002773
2482.000000	0.002765
2481.000000	0.002761
2480.000000	0.002757
2479.000000	0.002752
2478.000000	0.002745
2477.000000	0.002745
2476.000000	0.002762
2475.000000	0.002795
2474.000000	0.002827
2473.000000	0.002843
2472.000000	0.002845
2471.000000	0.002837
2470.000000	0.002823
2469.000000	0.002801
2468.000000	0.002775
2467.000000	0.002756
2466.000000	0.002753
2465.000000	0.002765
2464.000000	0.002780
2463.000000	0.002786
2462.000000	0.002784
2461.000000	0.002784
2460.000000	0.002791
2459.000000	0.002804
2458.000000	0.002825
2457.000000	0.002858
2456.000000	0.002893
2455.000000	0.002914
2454.000000	0.002914
2453.000000	0.002905
2452.000000	0.002900
2451.000000	0.002899
2450.000000	0.002897
2449.000000	0.002897
2448.000000	0.002897
2447.000000	0.002887
2446.000000	0.002861
2445.000000	0.002830
2444.000000	0.002809
2443.000000	0.002802
2442.000000	0.002794
2441.000000	0.002778
2440.000000	0.002753
2439.000000	0.002726
2438.000000	0.002712
2437.000000	0.002723
2436.000000	0.002757
2435.000000	0.002789
2434.000000	0.002803
2433.000000	0.002807
2432.000000	0.002820
2431.000000	0.002838
2430.000000	0.002839
2429.000000	0.002815
2428.000000	0.002781
2427.000000	0.002748
2426.000000	0.002712
2425.000000	0.002667
2424.000000	0.002624
2423.000000	0.002598
2422.000000	0.002596
2421.000000	0.002610
2420.000000	0.002629
2419.000000	0.002645
2418.000000	0.002657
2417.000000	0.002663
2416.000000	0.002669
2415.000000	0.002679
2414.000000	0.002696
2413.000000	0.002720
2412.000000	0.002752
2411.000000	0.002780
2410.000000	0.002791
2409.000000	0.002777
2408.000000	0.002746
2407.000000	0.002715
2406.000000	0.002696
2405.000000	0.002692
2404.000000	0.002694
2403.000000	0.002693
2402.000000	0.002680
2401.000000	0.002659
2400.000000	0.002642
2399.000000	0.002636
2398.000000	0.002637
2397.000000	0.002633
2396.000000	0.002618
2395.000000	0.002599
2394.000000	0.002591
2393.000000	0.002603
2392.000000	0.002628
2391.000000	0.002655
2390.000000	0.002674
2389.000000	0.002683
2388.000000	0.002684
2387.000000	0.002677
2386.000000	0.002666
2385.000000	0.002656
2384.000000	0.002654
2383.000000	0.002653
2382.000000	0.002641
2381.000000	0.002616
2380.000000	0.002588
2379.000000	0.002573
2378.000000	0.002574
2377.000000	0.002578
2376.000000	0.002566
2375.000000	0.002530
2374.000000	0.002481
2373.000000	0.002445
2372.000000	0.002443
2371.000000	0.002483
2370.000000	0.002549
2369.000000	0.002612
2368.000000	0.002648
2367.000000	0.002651
2366.000000	0.002637
2365.000000	0.002625
2364.000000	0.002622
2363.000000	0.002623
2362.000000	0.002623
2361.000000	0.002616
2360.000000	0.002610
2359.000000	0.002614
2358.000000	0.002627
2357.000000	0.002642
2356.000000	0.002649
2355.000000	0.002654
2354.000000	0.002661
2353.000000	0.002664
2352.000000	0.002660
2351.000000	0.002659
2350.000000	0.002671
2349.000000	0.002690
2348.000000	0.002708
2347.000000	0.002723
2346.000000	0.002735
2345.000000	0.002753
2344.000000	0.002781
2343.000000	0.002824
2342.000000	0.002863
2341.000000	0.002872
2340.000000	0.002848
2339.000000	0.002818
2338.000000	0.002806
2337.000000	0.002810
2336.000000	0.002801
2335.000000	0.002754
2334.000000	0.002680
2333.000000	0.002617
2332.000000	0.002602
2331.000000	0.002638
2330.000000	0.002709
2329.000000	0.002790
2328.000000	0.002892
2327.000000	0.003032
2326.000000	0.003212
2325.000000	0.003391
2324.000000	0.003511
2323.000000	0.003538
2322.000000	0.003483
2321.000000	0.003399
2320.000000	0.003333
2319.000000	0.003304
2318.000000	0.003304
2317.000000	0.003304
2316.000000	0.003279
2315.000000	0.003217
2314.000000	0.003144
2313.000000	0.003094
2312.000000	0.003094
2311.000000	0.003130
2310.000000	0.003171
2309.000000	0.003183
2308.000000	0.003158
2307.000000	0.003107
2306.000000	0.003057
2305.000000	0.003037
2304.000000	0.003058
2303.000000	0.003106
2302.000000	0.003153
2301.000000	0.003173
2300.000000	0.003160
2299.000000	0.003135
2298.000000	0.003123
2297.000000	0.003135
2296.000000	0.003156
2295.000000	0.003172
2294.000000	0.003194
2293.000000	0.003242
2292.000000	0.003320
2291.000000	0.003403
2290.000000	0.003459
2289.000000	0.003473
2288.000000	0.003445
2287.000000	0.003394
2286.000000	0.003352
2285.000000	0.003343
2284.000000	0.003359
2283.000000	0.003367
2282.000000	0.003354
2281.000000	0.003332
2280.000000	0.003323
2279.000000	0.003329
2278.000000	0.003337
2277.000000	0.003325
2276.000000	0.003273
2275.000000	0.003187
2274.000000	0.003107
2273.000000	0.003071
2272.000000	0.003070
2271.000000	0.003053
2270.000000	0.002997
2269.000000	0.002933
2268.000000	0.002912
2267.000000	0.002942
2266.000000	0.002991
2265.000000	0.003021
2264.000000	0.003009
2263.000000	0.002954
2262.000000	0.002888
2261.000000	0.002851
2260.000000	0.002852
2259.000000	0.002854
2258.000000	0.002816
2257.000000	0.002740
2256.000000	0.002671
2255.000000	0.002660
2254.000000	0.002727
2253.000000	0.002850
2252.000000	0.002978
2251.000000	0.003067
2250.000000	0.003108
2249.000000	0.003108
2248.000000	0.003059
2247.000000	0.002950
2246.000000	0.002818
2245.000000	0.002735
2244.000000	0.002742
2243.000000	0.002806
2242.000000	0.002866
2241.000000	0.002891
2240.000000	0.002877
2239.000000	0.002823
2238.000000	0.002743
2237.000000	0.002676
2236.000000	0.002661
2235.000000	0.002708
2234.000000	0.002796
2233.000000	0.002886
2232.000000	0.002925
2231.000000	0.002882
2230.000000	0.002772
2229.000000	0.002655
2228.000000	0.002576
2227.000000	0.002533
2226.000000	0.002520
2225.000000	0.002549
2224.000000	0.002614
2223.000000	0.002668
2222.000000	0.002664
2221.000000	0.002604
2220.000000	0.002523
2219.000000	0.002449
2218.000000	0.002399
2217.000000	0.002376
2216.000000	0.002358
2215.000000	0.002318
2214.000000	0.002277
2213.000000	0.002295
2212.000000	0.002394
2211.000000	0.002523
2210.000000	0.002608
2209.000000	0.002620
2208.000000	0.002567
2207.000000	0.002476
2206.000000	0.002402
2205.000000	0.002415
2204.000000	0.002527
2203.000000	0.002656
2202.000000	0.002718
2201.000000	0.002721
2200.000000	0.002732
2199.000000	0.002774
2198.000000	0.002800
2197.000000	0.002767
2196.000000	0.002691
2195.000000	0.002621
2194.000000	0.002596
2193.000000	0.002619
2192.000000	0.002668
2191.000000	0.002711
2190.000000	0.002728
2189.000000	0.002700
2188.000000	0.002611
2187.000000	0.002483
2186.000000	0.002413
2185.000000	0.002485
2184.000000	0.002654
2183.000000	0.002758
2182.000000	0.002696
2181.000000	0.002539
2180.000000	0.002445
2179.000000	0.002499
2178.000000	0.002656
2177.000000	0.002786
2176.000000	0.002750
2175.000000	0.002513
2174.000000	0.002219
2173.000000	0.002099
2172.000000	0.002246
2171.000000	0.002543
2170.000000	0.002816
2169.000000	0.002995
2168.000000	0.003103
2167.000000	0.003154
2166.000000	0.003146
2165.000000	0.003116
2164.000000	0.003139
2163.000000	0.003263
2162.000000	0.003441
2161.000000	0.003512
2160.000000	0.003250
2159.000000	0.002568
2158.000000	0.001698
2157.000000	0.001025
2156.000000	0.000720
2155.000000	0.000676
2154.000000	0.000752
2153.000000	0.000894
2152.000000	0.001049
2151.000000	0.001146
2150.000000	0.001180
2149.000000	0.001232
2148.000000	0.001334
2147.000000	0.001428
2146.000000	0.001484
2145.000000	0.001573
2144.000000	0.001761
2143.000000	0.001992
2142.000000	0.002157
2141.000000	0.002210
2140.000000	0.002175
2139.000000	0.002076
2138.000000	0.001919
2137.000000	0.001733
2136.000000	0.001570
2135.000000	0.001463
2134.000000	0.001414
2133.000000	0.001410
2132.000000	0.001425
2131.000000	0.001440
2130.000000	0.001467
2129.000000	0.001546
2128.000000	0.001689
2127.000000	0.001856
2126.000000	0.001990
2125.000000	0.002069
2124.000000	0.002115
2123.000000	0.002165
2122.000000	0.002241
2121.000000	0.002334
2120.000000	0.002410
2119.000000	0.002440
2118.000000	0.002442
2117.000000	0.002460
2116.000000	0.002518
2115.000000	0.002592
2114.000000	0.002639
2113.000000	0.002646
2112.000000	0.002634
2111.000000	0.002627
2110.000000	0.002629
2109.000000	0.002622
2108.000000	0.002578
2107.000000	0.002499
2106.000000	0.002430
2105.000000	0.002412
2104.000000	0.002433
2103.000000	0.002439
2102.000000	0.002407
2101.000000	0.002364
2100.000000	0.002338
2099.000000	0.002319
2098.000000	0.002280
2097.000000	0.002214
2096.000000	0.002132
2095.000000	0.002064
2094.000000	0.002043
2093.000000	0.002084
2092.000000	0.002154
2091.000000	0.002203
2090.000000	0.002219
2089.000000	0.002226
2088.000000	0.002238
2087.000000	0.002256
2086.000000	0.002300
2085.000000	0.002403
2084.000000	0.002556
2083.000000	0.002690
2082.000000	0.002732
2081.000000	0.002664
2080.000000	0.002521
2079.000000	0.002371
2078.000000	0.002284
2077.000000	0.002293
2076.000000	0.002356
2075.000000	0.002408
2074.000000	0.002427
2073.000000	0.002438
2072.000000	0.002448
2071.000000	0.002441
2070.000000	0.002437
2069.000000	0.002480
2068.000000	0.002565
2067.000000	0.002628
2066.000000	0.002622
2065.000000	0.002560
2064.000000	0.002466
2063.000000	0.002353
2062.000000	0.002266
2061.000000	0.002271
2060.000000	0.002359
2059.000000	0.002441
2058.000000	0.002443
2057.000000	0.002374
2056.000000	0.002280
2055.000000	0.002211
2054.000000	0.002252
2053.000000	0.002471
2052.000000	0.002784
2051.000000	0.002975
2050.000000	0.002906
2049.000000	0.002671
2048.000000	0.002453
2047.000000	0.002298
2046.000000	0.002126
2045.000000	0.001927
2044.000000	0.001801
2043.000000	0.001829
2042.000000	0.001991
2041.000000	0.002192
2040.000000	0.002303
2039.000000	0.002242
2038.000000	0.002058
2037.000000	0.001902
2036.000000	0.001858
2035.000000	0.001868
2034.000000	0.001869
2033.000000	0.001900
2032.000000	0.002011
2031.000000	0.002173
2030.000000	0.002345
2029.000000	0.002500
2028.000000	0.002551
2027.000000	0.002378
2026.000000	0.002021
2025.000000	0.001716
2024.000000	0.001621
2023.000000	0.001624
2022.000000	0.001532
2021.000000	0.001339
2020.000000	0.001204
2019.000000	0.001254
2018.000000	0.001497
2017.000000	0.001853
2016.000000	0.002153
2015.000000	0.002237
2014.000000	0.002104
2013.000000	0.001915
2012.000000	0.001789
2011.000000	0.001678
2010.000000	0.001498
2009.000000	0.001293
2008.000000	0.001167
2007.000000	0.001131
2006.000000	0.001136
2005.000000	0.001165
2004.000000	0.001212
2003.000000	0.001246
2002.000000	0.001277
2001.000000	0.001381
2000.000000	0.001598
1999.000000	0.001849
1998.000000	0.002040
1997.000000	0.002151
1996.000000	0.002210
1995.000000	0.002212
1994.000000	0.002151
1993.000000	0.002065
1992.000000	0.002007
1991.000000	0.001989
1990.000000	0.002004
1989.000000	0.002053
1988.000000	0.002106
1987.000000	0.002105
1986.000000	0.002044
1985.000000	0.001984
1984.000000	0.001969
1983.000000	0.001988
1982.000000	0.002045
1981.000000	0.002171
1980.000000	0.002316
1979.000000	0.002342
1978.000000	0.002184
1977.000000	0.001933
1976.000000	0.001674
1975.000000	0.001386
1974.000000	0.001095
1973.000000	0.000943
1972.000000	0.000977
1971.000000	0.001045
1970.000000	0.001008
1969.000000	0.000937
1968.000000	0.000995
1967.000000	0.001224
1966.000000	0.001529
1965.000000	0.001789
1964.000000	0.001897
1963.000000	0.001792
1962.000000	0.001546
1961.000000	0.001340
1960.000000	0.001279
1959.000000	0.001297
1958.000000	0.001308
1957.000000	0.001329
1956.000000	0.001395
1955.000000	0.001458
1954.000000	0.001463
1953.000000	0.001424
1952.000000	0.001380
1951.000000	0.001316
1950.000000	0.001223
1949.000000	0.001151
1948.000000	0.001147
1947.000000	0.001182
1946.000000	0.001201
1945.000000	0.001202
1944.000000	0.001213
1943.000000	0.001228
1942.000000	0.001224
1941.000000	0.001214
1940.000000	0.001234
1939.000000	0.001296
1938.000000	0.001402
1937.000000	0.001544
1936.000000	0.001681
1935.000000	0.001755
1934.000000	0.001769
1933.000000	0.001777
1932.000000	0.001801
1931.000000	0.001791
1930.000000	0.001716
1929.000000	0.001626
1928.000000	0.001594
1927.000000	0.001611
1926.000000	0.001611
1925.000000	0.001552
1924.000000	0.001451
1923.000000	0.001363
1922.000000	0.001344
1921.000000	0.001415
1920.000000	0.001526
1919.000000	0.001592
1918.000000	0.001564
1917.000000	0.001491
1916.000000	0.001453
1915.000000	0.001468
1914.000000	0.001507
1913.000000	0.001549
1912.000000	0.001586
1911.000000	0.001607
1910.000000	0.001609
1909.000000	0.001605
1908.000000	0.001610
1907.000000	0.001613
1906.000000	0.001614
1905.000000	0.001635
1904.000000	0.001687
1903.000000	0.001739
1902.000000	0.001756
1901.000000	0.001743
1900.000000	0.001724
1899.000000	0.001704
1898.000000	0.001676
1897.000000	0.001645
1896.000000	0.001616
1895.000000	0.001595
1894.000000	0.001600
1893.000000	0.001657
1892.000000	0.001754
1891.000000	0.001824
1890.000000	0.001816
1889.000000	0.001758
1888.000000	0.001721
1887.000000	0.001716
1886.000000	0.001712
1885.000000	0.001701
1884.000000	0.001702
1883.000000	0.001714
1882.000000	0.001710
1881.000000	0.001676
1880.000000	0.001625
1879.000000	0.001572
1878.000000	0.001527
1877.000000	0.001512
1876.000000	0.001543
1875.000000	0.001597
1874.000000	0.001636
1873.000000	0.001642
1872.000000	0.001640
1871.000000	0.001655
1870.000000	0.001686
1869.000000	0.001702
1868.000000	0.001678
1867.000000	0.001632
1866.000000	0.001597
1865.000000	0.001590
1864.000000	0.001603
1863.000000	0.001622
1862.000000	0.001645
1861.000000	0.001682
1860.000000	0.001727
1859.000000	0.001757
1858.000000	0.001759
1857.000000	0.001740
1856.000000	0.001711
1855.000000	0.001671
1854.000000	0.001633
1853.000000	0.001623
1852.000000	0.001639
1851.000000	0.001644
1850.000000	0.001610
1849.000000	0.001560
1848.000000	0.001538
1847.000000	0.001551
1846.000000	0.001576
1845.000000	0.001594
1844.000000	0.001608
1843.000000	0.001625
1842.000000	0.001655
1841.000000	0.001693
1840.000000	0.001714
1839.000000	0.001691
1838.000000	0.001633
1837.000000	0.001589
1836.000000	0.001591
1835.000000	0.001619
1834.000000	0.001639
1833.000000	0.001636
1832.000000	0.001615
1831.000000	0.001589
1830.000000	0.001588
1829.000000	0.001622
1828.000000	0.001653
1827.000000	0.001643
1826.000000	0.001614
1825.000000	0.001618
1824.000000	0.001664
1823.000000	0.001702
1822.000000	0.001693
1821.000000	0.001643
1820.000000	0.001576
1819.000000	0.001500
1818.000000	0.001422
1817.000000	0.001369
1816.000000	0.001360
1815.000000	0.001384
1814.000000	0.001410
1813.000000	0.001419
1812.000000	0.001410
1811.000000	0.001401
1810.000000	0.001410
1809.000000	0.001436
1808.000000	0.001463
1807.000000	0.001478
1806.000000	0.001477
1805.000000	0.001461
1804.000000	0.001434
1803.000000	0.001400
1802.000000	0.001377
1801.000000	0.001381
1800.000000	0.001407
1799.000000	0.001434
1798.000000	0.001447
1797.000000	0.001453
1796.000000	0.001470
1795.000000	0.001496
1794.000000	0.001515
1793.000000	0.001513
1792.000000	0.001492
1791.000000	0.001461
1790.000000	0.001433
1789.000000	0.001417
1788.000000	0.001414
1787.000000	0.001416
1786.000000	0.001410
1785.000000	0.001389
1784.000000	0.001353
1783.000000	0.001305
1782.000000	0.001264
1781.000000	0.001253
1780.000000	0.001283
1779.000000	0.001329
1778.000000	0.001358
1777.000000	0.001357
1776.000000	0.001331
1775.000000	0.001288
1774.000000	0.001246
1773.000000	0.001244
1772.000000	0.001279
1771.000000	0.001302
1770.000000	0.001300
1769.000000	0.001304
1768.000000	0.001321
1767.000000	0.001331
1766.000000	0.001323
1765.000000	0.001306
1764.000000	0.001286
1763.000000	0.001255
1762.000000	0.001221
1761.000000	0.001213
1760.000000	0.001239
1759.000000	0.001286
1758.000000	0.001349
1757.000000	0.001434
1756.000000	0.001528
1755.000000	0.001594
1754.000000	0.001630
1753.000000	0.001660
1752.000000	0.001696
1751.000000	0.001721
1750.000000	0.001733
1749.000000	0.001763
1748.000000	0.001808
1747.000000	0.001825
1746.000000	0.001807
1745.000000	0.001792
1744.000000	0.001798
1743.000000	0.001801
1742.000000	0.001784
1741.000000	0.001770
1740.000000	0.001780
1739.000000	0.001792
1738.000000	0.001792
1737.000000	0.001793
1736.000000	0.001807
1735.000000	0.001819
1734.000000	0.001786
1733.000000	0.001696
1732.000000	0.001597
1731.000000	0.001514
1730.000000	0.001442
1729.000000	0.001391
1728.000000	0.001363
1727.000000	0.001340
1726.000000	0.001313
1725.000000	0.001287
1724.000000	0.001262
1723.000000	0.001223
1722.000000	0.001169
1721.000000	0.001121
1720.000000	0.001088
1719.000000	0.001071
1718.000000	0.001086
1717.000000	0.001115
1716.000000	0.001132
1715.000000	0.001142
1714.000000	0.001142
1713.000000	0.001135
1712.000000	0.001133
1711.000000	0.001142
1710.000000	0.001156
1709.000000	0.001172
1708.000000	0.001180
1707.000000	0.001166
1706.000000	0.001127
1705.000000	0.001075
1704.000000	0.001040
1703.000000	0.001046
1702.000000	0.001098
1701.000000	0.001180
1700.000000	0.001235
1699.000000	0.001220
1698.000000	0.001173
1697.000000	0.001147
1696.000000	0.001156
1695.000000	0.001183
1694.000000	0.001204
1693.000000	0.001207
1692.000000	0.001196
1691.000000	0.001169
1690.000000	0.001147
1689.000000	0.001154
1688.000000	0.001189
1687.000000	0.001225
1686.000000	0.001242
1685.000000	0.001252
1684.000000	0.001261
1683.000000	0.001237
1682.000000	0.001199
1681.000000	0.001192
1680.000000	0.001212
1679.000000	0.001231
1678.000000	0.001232
1677.000000	0.001225
1676.000000	0.001228
1675.000000	0.001233
1674.000000	0.001232
1673.000000	0.001243
1672.000000	0.001277
1671.000000	0.001310
1670.000000	0.001316
1669.000000	0.001301
1668.000000	0.001293
1667.000000	0.001295
1666.000000	0.001305
1665.000000	0.001328
1664.000000	0.001360
1663.000000	0.001384
1662.000000	0.001392
1661.000000	0.001400
1660.000000	0.001418
1659.000000	0.001421
1658.000000	0.001394
1657.000000	0.001353
1656.000000	0.001323
1655.000000	0.001293
1654.000000	0.001272
1653.000000	0.001283
1652.000000	0.001308
1651.000000	0.001312
1650.000000	0.001327
1649.000000	0.001368
1648.000000	0.001453
1647.000000	0.001547
1646.000000	0.001568
1645.000000	0.001526
1644.000000	0.001483
1643.000000	0.001462
1642.000000	0.001451
1641.000000	0.001442
1640.000000	0.001433
1639.000000	0.001423
1638.000000	0.001413
1637.000000	0.001424
1636.000000	0.001463
1635.000000	0.001472
1634.000000	0.001432
1633.000000	0.001393
1632.000000	0.001383
1631.000000	0.001384
1630.000000	0.001374
1629.000000	0.001354
1628.000000	0.001339
1627.000000	0.001318
1626.000000	0.001283
1625.000000	0.001258
1624.000000	0.001265
1623.000000	0.001287
1622.000000	0.001288
1621.000000	0.001275
1620.000000	0.001270
1619.000000	0.001264
1618.000000	0.001242
1617.000000	0.001220
1616.000000	0.001218
1615.000000	0.001215
1614.000000	0.001199
1613.000000	0.001190
1612.000000	0.001198
1611.000000	0.001207
1610.000000	0.001195
1609.000000	0.001173
1608.000000	0.001161
1607.000000	0.001147
1606.000000	0.001114
1605.000000	0.001085
1604.000000	0.001084
1603.000000	0.001099
1602.000000	0.001109
1601.000000	0.001113
1600.000000	0.001127
1599.000000	0.001144
1598.000000	0.001155
1597.000000	0.001156
1596.000000	0.001148
1595.000000	0.001123
1594.000000	0.001086
1593.000000	0.001067
1592.000000	0.001080
1591.000000	0.001105
1590.000000	0.001120
1589.000000	0.001136
1588.000000	0.001163
1587.000000	0.001185
1586.000000	0.001187
1585.000000	0.001187
1584.000000	0.001201
1583.000000	0.001215
1582.000000	0.001214
1581.000000	0.001212
1580.000000	0.001224
1579.000000	0.001243
1578.000000	0.001259
1577.000000	0.001299
1576.000000	0.001371
1575.000000	0.001416
1574.000000	0.001418
1573.000000	0.001431
1572.000000	0.001479
1571.000000	0.001552
1570.000000	0.001635
1569.000000	0.001731
1568.000000	0.001835
1567.000000	0.001926
1566.000000	0.002001
1565.000000	0.002075
1564.000000	0.002142
1563.000000	0.002179
1562.000000	0.002179
1561.000000	0.002183
1560.000000	0.002289
1559.000000	0.002569
1558.000000	0.002773
1557.000000	0.002881
1556.000000	0.003006
1555.000000	0.003130
1554.000000	0.003214
1553.000000	0.003268
1552.000000	0.003323
1551.000000	0.003403
1550.000000	0.003516
1549.000000	0.003655
1548.000000	0.003786
1547.000000	0.003877
1546.000000	0.003932
1545.000000	0.003992
1544.000000	0.004086
1543.000000	0.004196
1542.000000	0.004300
1541.000000	0.004421
1540.000000	0.004569
1539.000000	0.004675
1538.000000	0.004728
1537.000000	0.004782
1536.000000	0.004856
1535.000000	0.004940
1534.000000	0.005037
1533.000000	0.005147
1532.000000	0.005255
1531.000000	0.005351
1530.000000	0.005438
1529.000000	0.005528
1528.000000	0.005627
1527.000000	0.005724
1526.000000	0.005807
1525.000000	0.005885
1524.000000	0.005972
1523.000000	0.006074
1522.000000	0.006197
1521.000000	0.006315
1520.000000	0.006392
1519.000000	0.006430
1518.000000	0.006462
1517.000000	0.006532
1516.000000	0.006648
1515.000000	0.006770
1514.000000	0.006869
1513.000000	0.006941
1512.000000	0.006983
1511.000000	0.006995
1510.000000	0.007003
1509.000000	0.007049
1508.000000	0.007165
1507.000000	0.007318
1506.000000	0.007406
1505.000000	0.007447
1504.000000	0.007486
1503.000000	0.007533
1502.000000	0.007588
1501.000000	0.007653
1500.000000	0.007719
1499.000000	0.007766
1498.000000	0.007803
1497.000000	0.007848
1496.000000	0.007882
1495.000000	0.007883
1494.000000	0.007869
1493.000000	0.007865
1492.000000	0.007870
1491.000000	0.007866
1490.000000	0.007852
1489.000000	0.007840
1488.000000	0.007838
1487.000000	0.007846
1486.000000	0.007853
1485.000000	0.007865
1484.000000	0.007888
1483.000000	0.007907
1482.000000	0.007919
1481.000000	0.007935
1480.000000	0.007958
1479.000000	0.007969
1478.000000	0.007962
1477.000000	0.007965
1476.000000	0.008008
1475.000000	0.008102
1474.000000	0.008248
1473.000000	0.008459
1472.000000	0.008703
1471.000000	0.008946
1470.000000	0.009207
1469.000000	0.009515
1468.000000	0.009857
1467.000000	0.010200
1466.000000	0.010533
1465.000000	0.010849
1464.000000	0.011094
1463.000000	0.011209
1462.000000	0.011205
1461.000000	0.011127
1460.000000	0.010998
1459.000000	0.010808
1458.000000	0.010551
1457.000000	0.010278
1456.000000	0.010074
1455.000000	0.009965
1454.000000	0.009925
1453.000000	0.009929
1452.000000	0.009958
1451.000000	0.009987
1450.000000	0.010016
1449.000000	0.010068
1448.000000	0.010157
1447.000000	0.010262
1446.000000	0.010367
1445.000000	0.010488
1444.000000	0.010635
1443.000000	0.010803
1442.000000	0.010981
1441.000000	0.011173
1440.000000	0.011367
1439.000000	0.011539
1438.000000	0.011701
1437.000000	0.011905
1436.000000	0.012148
1435.000000	0.012361
1434.000000	0.012540
1433.000000	0.012723
1432.000000	0.012924
1431.000000	0.013131
1430.000000	0.013349
1429.000000	0.013597
1428.000000	0.013852
1427.000000	0.014070
1426.000000	0.014266
1425.000000	0.014503
1424.000000	0.014793
1423.000000	0.015069
1422.000000	0.015305
1421.000000	0.015543
1420.000000	0.015815
1419.000000	0.016082
1418.000000	0.016320
1417.000000	0.016562
1416.000000	0.016811
1415.000000	0.017033
1414.000000	0.017228
1413.000000	0.017427
1412.000000	0.017628
1411.000000	0.017785
1410.000000	0.017899
1409.000000	0.018011
1408.000000	0.018121
1407.000000	0.018189
1406.000000	0.018209
1405.000000	0.018217
1404.000000	0.018215
1403.000000	0.018178
1402.000000	0.018126
1401.000000	0.018102
1400.000000	0.018096
1399.000000	0.018047
1398.000000	0.017952
1397.000000	0.017869
1396.000000	0.017808
1395.000000	0.017716
1394.000000	0.017589
1393.000000	0.017484
1392.000000	0.017410
1391.000000	0.017326
1390.000000	0.017226
1389.000000	0.017139
1388.000000	0.017065
1387.000000	0.016973
1386.000000	0.016873
1385.000000	0.016812
1384.000000	0.016786
1383.000000	0.016743
1382.000000	0.016669
1381.000000	0.016593
1380.000000	0.016534
1379.000000	0.016471
1378.000000	0.016400
1377.000000	0.016342
1376.000000	0.016291
1375.000000	0.016206
1374.000000	0.016082
1373.000000	0.015968
1372.000000	0.015884
1371.000000	0.015797
1370.000000	0.015689
1369.000000	0.015591
1368.000000	0.015519
1367.000000	0.015443
1366.000000	0.015348
1365.000000	0.015252
1364.000000	0.015168
1363.000000	0.015079
1362.000000	0.014976
1361.000000	0.014885
1360.000000	0.014811
1359.000000	0.014727
1358.000000	0.014617
1357.000000	0.014505
1356.000000	0.014412
1355.000000	0.014328
1354.000000	0.014246
1353.000000	0.014175
1352.000000	0.014108
1351.000000	0.014021
1350.000000	0.013912
1349.000000	0.013812
1348.000000	0.013735
1347.000000	0.013653
1346.000000	0.013552
1345.000000	0.013452
1344.000000	0.013367
1343.000000	0.013282
1342.000000	0.013186
1341.000000	0.013100
1340.000000	0.013028
1339.000000	0.012947
1338.000000	0.012853
1337.000000	0.012781
1336.000000	0.012736
1335.000000	0.012682
1334.000000	0.012598
1333.000000	0.012505
1332.000000	0.012420
1331.000000	0.012331
1330.000000	0.012234
1329.000000	0.012157
1328.000000	0.012115
1327.000000	0.012084
1326.000000	0.012043
1325.000000	0.011998
1324.000000	0.011950
1323.000000	0.011875
1322.000000	0.011775
1321.000000	0.011681
1320.000000	0.011606
1319.000000	0.011520
1318.000000	0.011412
1317.000000	0.011315
1316.000000	0.011249
1315.000000	0.011190
1314.000000	0.011120
1313.000000	0.011054
1312.000000	0.011008
1311.000000	0.010963
1310.000000	0.010902
1309.000000	0.010836
1308.000000	0.010770
1307.000000	0.010689
1306.000000	0.010591
1305.000000	0.010509
1304.000000	0.010455
1303.000000	0.010404
1302.000000	0.010341
1301.000000	0.010282
1300.000000	0.010226
1299.000000	0.010139
1298.000000	0.010018
1297.000000	0.009908
1296.000000	0.009845
1295.000000	0.009812
1294.000000	0.009780
1293.000000	0.009748
1292.000000	0.009712
1291.000000	0.009649
1290.000000	0.009560
1289.000000	0.009479
1288.000000	0.009424
1287.000000	0.009368
1286.000000	0.009295
1285.000000	0.009231
1284.000000	0.009193
1283.000000	0.009157
1282.000000	0.009095
1281.000000	0.009023
1280.000000	0.008966
1279.000000	0.008922
1278.000000	0.008879
1277.000000	0.008842
1276.000000	0.008803
1275.000000	0.008741
1274.000000	0.008666
1273.000000	0.008612
1272.000000	0.008583
1271.000000	0.008538
1270.000000	0.008463
1269.000000	0.008403
1268.000000	0.008390
1267.000000	0.008397
1266.000000	0.008389
1265.000000	0.008368
1264.000000	0.008342
1263.000000	0.008288
1262.000000	0.008199
1261.000000	0.008112
1260.000000	0.008055
1259.000000	0.008014
1258.000000	0.007968
1257.000000	0.007932
1256.000000	0.007911
1255.000000	0.007884
1254.000000	0.007842
1253.000000	0.007810
1252.000000	0.007799
1251.000000	0.007779
1250.000000	0.007728
1249.000000	0.007675
1248.000000	0.007641
1247.000000	0.007609
1246.000000	0.007567
1245.000000	0.007538
1244.000000	0.007536
1243.000000	0.007535
1242.000000	0.007514
1241.000000	0.007492
1240.000000	0.007484
1239.000000	0.007468
1238.000000	0.007425
1237.000000	0.007379
1236.000000	0.007350
1235.000000	0.007318
1234.000000	0.007263
1233.000000	0.007205
1232.000000	0.007170
1231.000000	0.007145
1230.000000	0.007115
1229.000000	0.007089
1228.000000	0.007072
1227.000000	0.007041
1226.000000	0.006980
1225.000000	0.006910
1224.000000	0.006853
1223.000000	0.006805
1222.000000	0.006765
1221.000000	0.006742
1220.000000	0.006725
1219.000000	0.006680
1218.000000	0.006599
1217.000000	0.006526
1216.000000	0.006488
1215.000000	0.006465
1214.000000	0.006438
1213.000000	0.006423
1212.000000	0.006426
1211.000000	0.006411
1210.000000	0.006361
1209.000000	0.006307
1208.000000	0.006277
1207.000000	0.006258
1206.000000	0.006231
1205.000000	0.006205
1204.000000	0.006183
1203.000000	0.006140
1202.000000	0.006072
1201.000000	0.006021
1200.000000	0.006011
1199.000000	0.006016
1198.000000	0.006008
1197.000000	0.006000
1196.000000	0.006004
1195.000000	0.006001
1194.000000	0.005976
1193.000000	0.005951
1192.000000	0.005937
1191.000000	0.005912
1190.000000	0.005868
1189.000000	0.005832
1188.000000	0.005821
1187.000000	0.005807
1186.000000	0.005779
1185.000000	0.005769
1184.000000	0.005793
1183.000000	0.005820
1182.000000	0.005825
1181.000000	0.005830
1180.000000	0.005855
1179.000000	0.005872
1178.000000	0.005858
1177.000000	0.005833
1176.000000	0.005822
1175.000000	0.005814
1174.000000	0.005801
1173.000000	0.005807
1172.000000	0.005842
1171.000000	0.005872
1170.000000	0.005877
1169.000000	0.005887
1168.000000	0.005924
1167.000000	0.005963
1166.000000	0.005981
1165.000000	0.006005
1164.000000	0.006051
1163.000000	0.006080
1162.000000	0.006058
1161.000000	0.006012
1160.000000	0.005986
1159.000000	0.005976
1158.000000	0.005964
1157.000000	0.005956
1156.000000	0.005956
1155.000000	0.005942
1154.000000	0.005908
1153.000000	0.005880
1152.000000	0.005869
1151.000000	0.005844
1150.000000	0.005797
1149.000000	0.005771
1148.000000	0.005788
1147.000000	0.005807
1146.000000	0.005789
1145.000000	0.005756
1144.000000	0.005737
1143.000000	0.005712
1142.000000	0.005666
1141.000000	0.005626
1140.000000	0.005612
1139.000000	0.005594
1138.000000	0.005552
1137.000000	0.005520
1136.000000	0.005526
1135.000000	0.005542
1134.000000	0.005534
1133.000000	0.005516
1132.000000	0.005508
1131.000000	0.005491
1130.000000	0.005455
1129.000000	0.005431
1128.000000	0.005439
1127.000000	0.005454
1126.000000	0.005454
1125.000000	0.005469
1124.000000	0.005516
1123.000000	0.005558
1122.000000	0.005565
1121.000000	0.005555
1120.000000	0.005553
1119.000000	0.005543
1118.000000	0.005525
1117.000000	0.005538
1116.000000	0.005597
1115.000000	0.005659
1114.000000	0.005692
1113.000000	0.005726
1112.000000	0.005789
1111.000000	0.005857
1110.000000	0.005906
1109.000000	0.005952
1108.000000	0.005987
1107.000000	0.005953
1106.000000	0.005839
1105.000000	0.005723
1104.000000	0.005666
1103.000000	0.005638
1102.000000	0.005595
1101.000000	0.005562
1100.000000	0.005582
1099.000000	0.005649
1098.000000	0.005737
1097.000000	0.005859
1096.000000	0.006026
1095.000000	0.006205
1094.000000	0.006366
1093.000000	0.006515
1092.000000	0.006649
1091.000000	0.006731
1090.000000	0.006750
1089.000000	0.006750
1088.000000	0.006756
1087.000000	0.006737
1086.000000	0.006679
1085.000000	0.006630
1084.000000	0.006610
1083.000000	0.006571
1082.000000	0.006485
1081.000000	0.006393
1080.000000	0.006330
1079.000000	0.006275
1078.000000	0.006214
1077.000000	0.006187
1076.000000	0.006203
1075.000000	0.006205
1074.000000	0.006156
1073.000000	0.006092
1072.000000	0.006040
1071.000000	0.005972
1070.000000	0.005884
1069.000000	0.005837
1068.000000	0.005860
1067.000000	0.005895
1066.000000	0.005889
1065.000000	0.005869
1064.000000	0.005859
1063.000000	0.005833
1062.000000	0.005785
1061.000000	0.005773
1060.000000	0.005823
1059.000000	0.005871
1058.000000	0.005874
1057.000000	0.005882
1056.000000	0.005935
1055.000000	0.005979
1054.000000	0.005960
1053.000000	0.005914
1052.000000	0.005898
1051.000000	0.005900
1050.000000	0.005884
1049.000000	0.005864
1048.000000	0.005859
1047.000000	0.005844
1046.000000	0.005812
1045.000000	0.005806
1044.000000	0.005838
1043.000000	0.005854
1042.000000	0.005834
1041.000000	0.005834
1040.000000	0.005884
1039.000000	0.005928
1038.000000	0.005925
1037.000000	0.005914
1036.000000	0.005929
1035.000000	0.005932
1034.000000	0.005896
1033.000000	0.005875
1032.000000	0.005900
1031.000000	0.005921
1030.000000	0.005897
1029.000000	0.005878
1028.000000	0.005909
1027.000000	0.005936
1026.000000	0.005899
1025.000000	0.005829
1024.000000	0.005780
1023.000000	0.005738
1022.000000	0.005680
1021.000000	0.005644
1020.000000	0.005659
1019.000000	0.005684
1018.000000	0.005679
1017.000000	0.005672
1016.000000	0.005694
1015.000000	0.005711
1014.000000	0.005693
1013.000000	0.005670
1012.000000	0.005666
1011.000000	0.005641
1010.000000	0.005572
1009.000000	0.005510
1008.000000	0.005490
1007.000000	0.005468
1006.000000	0.005408
1005.000000	0.005353
1004.000000	0.005349
1003.000000	0.005362
1002.000000	0.005353
1001.000000	0.005346
1000.000000	0.005365
999.000000	0.005370
998.000000	0.005331
997.000000	0.005292
996.000000	0.005290
995.000000	0.005294
994.000000	0.005267
993.000000	0.005243
992.000000	0.005260
991.000000	0.005296
990.000000	0.005323
989.000000	0.005366
988.000000	0.005439
987.000000	0.005497
986.000000	0.005510
985.000000	0.005525
984.000000	0.005580
983.000000	0.005634
982.000000	0.005656
981.000000	0.005691
980.000000	0.005788
979.000000	0.005919
978.000000	0.006043
977.000000	0.006171
976.000000	0.006316
975.000000	0.006441
974.000000	0.006537
973.000000	0.006666
972.000000	0.006867
971.000000	0.007087
970.000000	0.007267
969.000000	0.007430
968.000000	0.007610
967.000000	0.007789
966.000000	0.007950
965.000000	0.008124
964.000000	0.008329
963.000000	0.008520
962.000000	0.008685
961.000000	0.008890
960.000000	0.009172
959.000000	0.009468
958.000000	0.009708
957.000000	0.009914
956.000000	0.010128
955.000000	0.010328
954.000000	0.010493
953.000000	0.010661
952.000000	0.010858
951.000000	0.011025
950.000000	0.011104
949.000000	0.011123
948.000000	0.011134
947.000000	0.011131
946.000000	0.011098
945.000000	0.011054
944.000000	0.011003
943.000000	0.010901
942.000000	0.010741
941.000000	0.010590
940.000000	0.010487
939.000000	0.010385
938.000000	0.010242
937.000000	0.010092
936.000000	0.009963
935.000000	0.009824
934.000000	0.009664
933.000000	0.009534
932.000000	0.009453
931.000000	0.009352
930.000000	0.009185
929.000000	0.009002
928.000000	0.008855
927.000000	0.008710
926.000000	0.008538
925.000000	0.008373
924.000000	0.008242
923.000000	0.008095
922.000000	0.007900
921.000000	0.007705
920.000000	0.007552
919.000000	0.007412
918.000000	0.007264
917.000000	0.007144
916.000000	0.007062
915.000000	0.006954
914.000000	0.006797
913.000000	0.006652
912.000000	0.006556
911.000000	0.006452
910.000000	0.006310
909.000000	0.006187
908.000000	0.006115
907.000000	0.006026
906.000000	0.005881
905.000000	0.005746
904.000000	0.005665
903.000000	0.005573
902.000000	0.005413
901.000000	0.005249
900.000000	0.005153
899.000000	0.005091
898.000000	0.005000
897.000000	0.004894
896.000000	0.004800
895.000000	0.004685
894.000000	0.004540
893.000000	0.004439
892.000000	0.004421
891.000000	0.004403
890.000000	0.004303
889.000000	0.004161
888.000000	0.004043
887.000000	0.003938
886.000000	0.003828
885.000000	0.003768
884.000000	0.003790
883.000000	0.003821
882.000000	0.003801
881.000000	0.003778
880.000000	0.003803
879.000000	0.003819
878.000000	0.003773
877.000000	0.003721
876.000000	0.003728
875.000000	0.003755
874.000000	0.003748
873.000000	0.003733
872.000000	0.003727
871.000000	0.003666
870.000000	0.003530
869.000000	0.003411
868.000000	0.003375
867.000000	0.003360
866.000000	0.003305
865.000000	0.003269
864.000000	0.003307
863.000000	0.003354
862.000000	0.003347
861.000000	0.003347
860.000000	0.003424
859.000000	0.003533
858.000000	0.003615
857.000000	0.003713
856.000000	0.003883
855.000000	0.004079
854.000000	0.004258
853.000000	0.004484
852.000000	0.004814
851.000000	0.005170
850.000000	0.005458
849.000000	0.005712
848.000000	0.006008
847.000000	0.006335
846.000000	0.006661
845.000000	0.007043
844.000000	0.007535
843.000000	0.008077
842.000000	0.008585
841.000000	0.009076
840.000000	0.009583
839.000000	0.010049
838.000000	0.010414
837.000000	0.010720
836.000000	0.011020
835.000000	0.011275
834.000000	0.011430
833.000000	0.011523
832.000000	0.011609
831.000000	0.011671
830.000000	0.011694
829.000000	0.011735
828.000000	0.011806
827.000000	0.011812
826.000000	0.011704
825.000000	0.011597
824.000000	0.011600
823.000000	0.011673
822.000000	0.011752
821.000000	0.011882
820.000000	0.012103
819.000000	0.012332
818.000000	0.012492
817.000000	0.012638
816.000000	0.012832
815.000000	0.013014
814.000000	0.013105
813.000000	0.013134
812.000000	0.013141
811.000000	0.013080
810.000000	0.012916
809.000000	0.012727
808.000000	0.012586
807.000000	0.012455
806.000000	0.012289
805.000000	0.012125
804.000000	0.011987
803.000000	0.011820
802.000000	0.011616
801.000000	0.011479
800.000000	0.011449
799.000000	0.011413
798.000000	0.011278
797.000000	0.011106
796.000000	0.010957
795.000000	0.010764
794.000000	0.010483
793.000000	0.010218
792.000000	0.010072
791.000000	0.009987
790.000000	0.009868
789.000000	0.009738
788.000000	0.009650
787.000000	0.009551
786.000000	0.009378
785.000000	0.009176
784.000000	0.009017
783.000000	0.008889
782.000000	0.008768
781.000000	0.008699
780.000000	0.008696
779.000000	0.008683
778.000000	0.008625
777.000000	0.008612
776.000000	0.008716
775.000000	0.008889
774.000000	0.009083
773.000000	0.009354
772.000000	0.009720
771.000000	0.010071
770.000000	0.010302
769.000000	0.010440
768.000000	0.010525
767.000000	0.010506
766.000000	0.010357
765.000000	0.010165
764.000000	0.009993
763.000000	0.009778
762.000000	0.009484
761.000000	0.009217
760.000000	0.009059
759.000000	0.008930
758.000000	0.008737
757.000000	0.008538
756.000000	0.008435
755.000000	0.008402
754.000000	0.008385
753.000000	0.008423
752.000000	0.008553
751.000000	0.008692
750.000000	0.008744
749.000000	0.008748
748.000000	0.008787
747.000000	0.008858
746.000000	0.008935
745.000000	0.009054
744.000000	0.009211
743.000000	0.009299
742.000000	0.009271
741.000000	0.009232
740.000000	0.009274
739.000000	0.009316
738.000000	0.009247
737.000000	0.009104
736.000000	0.008982
735.000000	0.008884
734.000000	0.008785
733.000000	0.008735
732.000000	0.008747
731.000000	0.008722
730.000000	0.008583
729.000000	0.008416
728.000000	0.008321
727.000000	0.008248
726.000000	0.008113
725.000000	0.007951
724.000000	0.007842
723.000000	0.007764
722.000000	0.007675
721.000000	0.007608
720.000000	0.007588
719.000000	0.007543
718.000000	0.007426
717.000000	0.007311
716.000000	0.007262
715.000000	0.007218
714.000000	0.007129
713.000000	0.007067
712.000000	0.007087
711.000000	0.007086
710.000000	0.006954
709.000000	0.006743
708.000000	0.006565
707.000000	0.006433
706.000000	0.006327
705.000000	0.006302
704.000000	0.006377
703.000000	0.006435
702.000000	0.006372
701.000000	0.006249
700.000000	0.006179
699.000000	0.006158
698.000000	0.006135
697.000000	0.006126
696.000000	0.006138
695.000000	0.006094
694.000000	0.005950
693.000000	0.005802
692.000000	0.005740
691.000000	0.005710
690.000000	0.005638
689.000000	0.005553
688.000000	0.005478
687.000000	0.005345
686.000000	0.005142
685.000000	0.004993
684.000000	0.004979
683.000000	0.005002
682.000000	0.004964
681.000000	0.004927
680.000000	0.004962
679.000000	0.004991
678.000000	0.004926
677.000000	0.004838
676.000000	0.004818
675.000000	0.004820
674.000000	0.004784
673.000000	0.004767
672.000000	0.004795
671.000000	0.004737
670.000000	0.004471
669.000000	0.004077
668.000000	0.003807
667.000000	0.003803
666.000000	0.003905
665.000000	0.004039
664.000000	0.004205
663.000000	0.004307
662.000000	0.004278
661.000000	0.004196
660.000000	0.004147
659.000000	0.004078
658.000000	0.003956
657.000000	0.003891
656.000000	0.003948
655.000000	0.003992
654.000000	0.003906
653.000000	0.003786
652.000000	0.003751
651.000000	0.003742
650.000000	0.003683
649.000000	0.003664
648.000000	0.003777
647.000000	0.003925
646.000000	0.003973
645.000000	0.003954
644.000000	0.003940
643.000000	0.003884
642.000000	0.003747
641.000000	0.003623
640.000000	0.003588
639.000000	0.003548
638.000000	0.003413
637.000000	0.003261
636.000000	0.003187
635.000000	0.003155
634.000000	0.003123
633.000000	0.003145
632.000000	0.003207
631.000000	0.003155
630.000000	0.002943
629.000000	0.002762
628.000000	0.002764
627.000000	0.002848
626.000000	0.002863
625.000000	0.002857
624.000000	0.002919
623.000000	0.002977
622.000000	0.002948
621.000000	0.002918
620.000000	0.002970
619.000000	0.003026
618.000000	0.003001
617.000000	0.002973
616.000000	0.003005
615.000000	0.002987
614.000000	0.002854
613.000000	0.002760
612.000000	0.002846
611.000000	0.003014
610.000000	0.003123
609.000000	0.003208
608.000000	0.003328
607.000000	0.003375
606.000000	0.003253
605.000000	0.003081
604.000000	0.002999
603.000000	0.002959
602.000000	0.002890
601.000000	0.002875
600.000000	0.002960
599.000000	0.003004
598.000000	0.002889
597.000000	0.002729
596.000000	0.002645
595.000000	0.002567
594.000000	0.002423
593.000000	0.002332
592.000000	0.002394
591.000000	0.002488
590.000000	0.002477
589.000000	0.002422
588.000000	0.002398
587.000000	0.002329
586.000000	0.002191
585.000000	0.002140
584.000000	0.002241
583.000000	0.002304
582.000000	0.002195
581.000000	0.002069
580.000000	0.002080
579.000000	0.002102
578.000000	0.001983
577.000000	0.001830
576.000000	0.001803
575.000000	0.001861
574.000000	0.001913
573.000000	0.002005
572.000000	0.002121
571.000000	0.002082
570.000000	0.001832
569.000000	0.001600
568.000000	0.001550
567.000000	0.001542
566.000000	0.001455
565.000000	0.001416
564.000000	0.001507
563.000000	0.001534
562.000000	0.001364
561.000000	0.001185
560.000000	0.001190
559.000000	0.001287
558.000000	0.001357
557.000000	0.001486
556.000000	0.001697
555.000000	0.001766
554.000000	0.001580
553.000000	0.001369
552.000000	0.001315
551.000000	0.001272
550.000000	0.001104
549.000000	0.000988
548.000000	0.001076
547.000000	0.001194
546.000000	0.001157
545.000000	0.001091
544.000000	0.001128
543.000000	0.001128
542.000000	0.000997
541.000000	0.000927
540.000000	0.001045
539.000000	0.001149
538.000000	0.001080
537.000000	0.001031
536.000000	0.001174
535.000000	0.001322
534.000000	0.001291
533.000000	0.001242
532.000000	0.001352
531.000000	0.001461
530.000000	0.001376
529.000000	0.001214
528.000000	0.001143
527.000000	0.001090
526.000000	0.000977
525.000000	0.000945
524.000000	0.001035
523.000000	0.001028
522.000000	0.000869
521.000000	0.000835
520.000000	0.001054
519.000000	0.001233
518.000000	0.001147
517.000000	0.001025
516.000000	0.001036
515.000000	0.000931
514.000000	0.000581
513.000000	0.000327
512.000000	0.000447
511.000000	0.000712
510.000000	0.000840
509.000000	0.000979
508.000000	0.001340
507.000000	0.001714
506.000000	0.001842
505.000000	0.001907
504.000000	0.002149
503.000000	0.002410
502.000000	0.002496
501.000000	0.002640
500.000000	0.003088
499.000000	0.003604
498.000000	0.003871
497.000000	0.003975
496.000000	0.004106
495.000000	0.004154
494.000000	0.004002
493.000000	0.003899
492.000000	0.004087
491.000000	0.004353
490.000000	0.004419
489.000000	0.004396
488.000000	0.004414
487.000000	0.004226
486.000000	0.003632
485.000000	0.002935
484.000000	0.002505
483.000000	0.002209
482.000000	0.001808
481.000000	0.001493
480.000000	0.001485
479.000000	0.001552
478.000000	0.001410
477.000000	0.001215
476.000000	0.001176
475.000000	0.001095
474.000000	0.000774
473.000000	0.000500
472.000000	0.000563
471.000000	0.000677
470.000000	0.000583
469.000000	0.000592
468.000000	0.000951
467.000000	0.001325
466.000000	0.001415
465.000000	0.001554
464.000000	0.002078
463.000000	0.002709
462.000000	0.003112
461.000000	0.003573
460.000000	0.004412
459.000000	0.005251
458.000000	0.005536
457.000000	0.005494
456.000000	0.005650
455.000000	0.005892
454.000000	0.006012
453.000000	0.006291
452.000000	0.006906
451.000000	0.007357
450.000000	0.007280
