PE IR       SUBTECH     SPECTRUM    ASCII       PEDS        4.00        
   -1
P12-Bleu008_1.ASC
23/06/08
11:03:36.00
23/06/08
11:52:51.00
uco
Sample 008 By uco Date Thursday, June 08 2023
450.000000
#HDR
-1
-1
#GR
cm-1
A
1.0
0.0
4000.000000
-1.000000
3551
8
0.002398
-0.000629
#DATA
4000.000000	-0.000096
3999.000000	-0.000087
3998.000000	-0.000083
3997.000000	-0.000080
3996.000000	-0.000076
3995.000000	-0.000073
3994.000000	-0.000077
3993.000000	-0.000090
3992.000000	-0.000109
3991.000000	-0.000125
3990.000000	-0.000129
3989.000000	-0.000123
3988.000000	-0.000112
3987.000000	-0.000104
3986.000000	-0.000100
3985.000000	-0.000094
3984.000000	-0.000079
3983.000000	-0.000056
3982.000000	-0.000032
3981.000000	-0.000020
3980.000000	-0.000024
3979.000000	-0.000039
3978.000000	-0.000053
3977.000000	-0.000060
3976.000000	-0.000058
3975.000000	-0.000051
3974.000000	-0.000042
3973.000000	-0.000036
3972.000000	-0.000037
3971.000000	-0.000044
3970.000000	-0.000055
3969.000000	-0.000064
3968.000000	-0.000066
3967.000000	-0.000062
3966.000000	-0.000055
3965.000000	-0.000051
3964.000000	-0.000049
3963.000000	-0.000049
3962.000000	-0.000053
3961.000000	-0.000064
3960.000000	-0.000082
3959.000000	-0.000102
3958.000000	-0.000114
3957.000000	-0.000113
3956.000000	-0.000099
3955.000000	-0.000076
3954.000000	-0.000053
3953.000000	-0.000036
3952.000000	-0.000031
3951.000000	-0.000042
3950.000000	-0.000066
3949.000000	-0.000095
3948.000000	-0.000117
3947.000000	-0.000125
3946.000000	-0.000120
3945.000000	-0.000108
3944.000000	-0.000096
3943.000000	-0.000090
3942.000000	-0.000089
3941.000000	-0.000089
3940.000000	-0.000078
3939.000000	-0.000052
3938.000000	-0.000012
3937.000000	0.000024
3936.000000	0.000040
3935.000000	0.000032
3934.000000	0.000011
3933.000000	-0.000005
3932.000000	-0.000009
3931.000000	-0.000010
3930.000000	-0.000018
3929.000000	-0.000035
3928.000000	-0.000051
3927.000000	-0.000056
3926.000000	-0.000047
3925.000000	-0.000028
3924.000000	-0.000009
3923.000000	0.000004
3922.000000	0.000011
3921.000000	0.000018
3920.000000	0.000028
3919.000000	0.000039
3918.000000	0.000047
3917.000000	0.000048
3916.000000	0.000041
3915.000000	0.000029
3914.000000	0.000018
3913.000000	0.000014
3912.000000	0.000020
3911.000000	0.000033
3910.000000	0.000045
3909.000000	0.000052
3908.000000	0.000057
3907.000000	0.000066
3906.000000	0.000083
3905.000000	0.000107
3904.000000	0.000131
3903.000000	0.000144
3902.000000	0.000133
3901.000000	0.000094
3900.000000	0.000038
3899.000000	-0.000014
3898.000000	-0.000044
3897.000000	-0.000054
3896.000000	-0.000049
3895.000000	-0.000036
3894.000000	-0.000020
3893.000000	-0.000007
3892.000000	0.000007
3891.000000	0.000023
3890.000000	0.000037
3889.000000	0.000034
3888.000000	0.000012
3887.000000	-0.000013
3886.000000	-0.000016
3885.000000	0.000008
3884.000000	0.000036
3883.000000	0.000043
3882.000000	0.000028
3881.000000	0.000008
3880.000000	0.000005
3879.000000	0.000018
3878.000000	0.000027
3877.000000	0.000019
3876.000000	0.000003
3875.000000	0.000002
3874.000000	0.000023
3873.000000	0.000050
3872.000000	0.000053
3871.000000	0.000029
3870.000000	0.000003
3869.000000	-0.000006
3868.000000	-0.000007
3867.000000	-0.000017
3866.000000	-0.000037
3865.000000	-0.000057
3864.000000	-0.000071
3863.000000	-0.000078
3862.000000	-0.000075
3861.000000	-0.000063
3860.000000	-0.000045
3859.000000	-0.000025
3858.000000	-0.000002
3857.000000	0.000027
3856.000000	0.000055
3855.000000	0.000075
3854.000000	0.000089
3853.000000	0.000105
3852.000000	0.000114
3851.000000	0.000101
3850.000000	0.000079
3849.000000	0.000067
3848.000000	0.000070
3847.000000	0.000077
3846.000000	0.000071
3845.000000	0.000043
3844.000000	-0.000002
3843.000000	-0.000046
3842.000000	-0.000070
3841.000000	-0.000066
3840.000000	-0.000040
3839.000000	-0.000002
3838.000000	0.000031
3837.000000	0.000042
3836.000000	0.000027
3835.000000	0.000000
3834.000000	-0.000020
3833.000000	-0.000026
3832.000000	-0.000018
3831.000000	-0.000004
3830.000000	0.000005
3829.000000	0.000001
3828.000000	-0.000018
3827.000000	-0.000036
3826.000000	-0.000037
3825.000000	-0.000018
3824.000000	0.000005
3823.000000	0.000019
3822.000000	0.000017
3821.000000	0.000010
3820.000000	0.000009
3819.000000	0.000007
3818.000000	-0.000007
3817.000000	-0.000030
3816.000000	-0.000047
3815.000000	-0.000051
3814.000000	-0.000053
3813.000000	-0.000061
3812.000000	-0.000061
3811.000000	-0.000041
3810.000000	-0.000002
3809.000000	0.000042
3808.000000	0.000081
3807.000000	0.000114
3806.000000	0.000134
3805.000000	0.000132
3804.000000	0.000107
3803.000000	0.000069
3802.000000	0.000033
3801.000000	0.000012
3800.000000	0.000008
3799.000000	0.000009
3798.000000	0.000012
3797.000000	0.000019
3796.000000	0.000026
3795.000000	0.000026
3794.000000	0.000015
3793.000000	-0.000004
3792.000000	-0.000020
3791.000000	-0.000021
3790.000000	-0.000010
3789.000000	0.000002
3788.000000	0.000000
3787.000000	-0.000022
3786.000000	-0.000058
3785.000000	-0.000091
3784.000000	-0.000107
3783.000000	-0.000106
3782.000000	-0.000098
3781.000000	-0.000097
3780.000000	-0.000106
3779.000000	-0.000114
3778.000000	-0.000114
3777.000000	-0.000104
3776.000000	-0.000088
3775.000000	-0.000063
3774.000000	-0.000030
3773.000000	0.000001
3772.000000	0.000017
3771.000000	0.000015
3770.000000	0.000004
3769.000000	-0.000007
3768.000000	-0.000010
3767.000000	-0.000003
3766.000000	0.000011
3765.000000	0.000024
3764.000000	0.000028
3763.000000	0.000021
3762.000000	0.000009
3761.000000	0.000000
3760.000000	-0.000000
3759.000000	0.000006
3758.000000	0.000010
3757.000000	0.000009
3756.000000	0.000006
3755.000000	0.000007
3754.000000	0.000012
3753.000000	0.000023
3752.000000	0.000045
3751.000000	0.000092
3750.000000	0.000163
3749.000000	0.000229
3748.000000	0.000261
3747.000000	0.000254
3746.000000	0.000225
3745.000000	0.000200
3744.000000	0.000201
3743.000000	0.000206
3742.000000	0.000180
3741.000000	0.000132
3740.000000	0.000097
3739.000000	0.000097
3738.000000	0.000127
3737.000000	0.000167
3736.000000	0.000188
3735.000000	0.000170
3734.000000	0.000120
3733.000000	0.000065
3732.000000	0.000036
3731.000000	0.000039
3730.000000	0.000055
3729.000000	0.000060
3728.000000	0.000047
3727.000000	0.000027
3726.000000	0.000014
3725.000000	0.000006
3724.000000	-0.000004
3723.000000	-0.000019
3722.000000	-0.000035
3721.000000	-0.000045
3720.000000	-0.000045
3719.000000	-0.000034
3718.000000	-0.000020
3717.000000	-0.000011
3716.000000	-0.000014
3715.000000	-0.000024
3714.000000	-0.000028
3713.000000	-0.000021
3712.000000	-0.000004
3711.000000	0.000013
3710.000000	0.000022
3709.000000	0.000019
3708.000000	0.000008
3707.000000	-0.000006
3706.000000	-0.000022
3705.000000	-0.000042
3704.000000	-0.000063
3703.000000	-0.000074
3702.000000	-0.000067
3701.000000	-0.000048
3700.000000	-0.000027
3699.000000	-0.000010
3698.000000	0.000004
3697.000000	0.000015
3696.000000	0.000024
3695.000000	0.000029
3694.000000	0.000025
3693.000000	0.000008
3692.000000	-0.000021
3691.000000	-0.000051
3690.000000	-0.000070
3689.000000	-0.000069
3688.000000	-0.000053
3687.000000	-0.000032
3686.000000	-0.000015
3685.000000	-0.000002
3684.000000	0.000018
3683.000000	0.000048
3682.000000	0.000078
3681.000000	0.000089
3680.000000	0.000070
3679.000000	0.000030
3678.000000	-0.000017
3677.000000	-0.000053
3676.000000	-0.000063
3675.000000	-0.000035
3674.000000	0.000010
3673.000000	0.000034
3672.000000	0.000025
3671.000000	-0.000008
3670.000000	-0.000049
3669.000000	-0.000076
3668.000000	-0.000082
3667.000000	-0.000073
3666.000000	-0.000053
3665.000000	-0.000032
3664.000000	-0.000020
3663.000000	-0.000023
3662.000000	-0.000040
3661.000000	-0.000065
3660.000000	-0.000085
3659.000000	-0.000084
3658.000000	-0.000060
3657.000000	-0.000018
3656.000000	0.000025
3655.000000	0.000055
3654.000000	0.000065
3653.000000	0.000058
3652.000000	0.000048
3651.000000	0.000049
3650.000000	0.000053
3649.000000	0.000034
3648.000000	-0.000017
3647.000000	-0.000070
3646.000000	-0.000101
3645.000000	-0.000107
3644.000000	-0.000098
3643.000000	-0.000078
3642.000000	-0.000055
3641.000000	-0.000039
3640.000000	-0.000037
3639.000000	-0.000044
3638.000000	-0.000050
3637.000000	-0.000049
3636.000000	-0.000040
3635.000000	-0.000024
3634.000000	-0.000000
3633.000000	0.000027
3632.000000	0.000052
3631.000000	0.000072
3630.000000	0.000079
3629.000000	0.000062
3628.000000	0.000028
3627.000000	-0.000004
3626.000000	-0.000028
3625.000000	-0.000042
3624.000000	-0.000049
3623.000000	-0.000058
3622.000000	-0.000076
3621.000000	-0.000099
3620.000000	-0.000110
3619.000000	-0.000091
3618.000000	-0.000047
3617.000000	-0.000008
3616.000000	0.000007
3615.000000	0.000008
3614.000000	0.000015
3613.000000	0.000038
3612.000000	0.000069
3611.000000	0.000095
3610.000000	0.000103
3609.000000	0.000094
3608.000000	0.000072
3607.000000	0.000051
3606.000000	0.000035
3605.000000	0.000020
3604.000000	0.000008
3603.000000	0.000005
3602.000000	0.000011
3601.000000	0.000019
3600.000000	0.000020
3599.000000	0.000014
3598.000000	0.000005
3597.000000	-0.000006
3596.000000	-0.000016
3595.000000	-0.000017
3594.000000	-0.000007
3593.000000	0.000006
3592.000000	0.000014
3591.000000	0.000017
3590.000000	0.000019
3589.000000	0.000023
3588.000000	0.000027
3587.000000	0.000030
3586.000000	0.000029
3585.000000	0.000020
3584.000000	0.000006
3583.000000	-0.000007
3582.000000	-0.000015
3581.000000	-0.000027
3580.000000	-0.000045
3579.000000	-0.000061
3578.000000	-0.000065
3577.000000	-0.000060
3576.000000	-0.000057
3575.000000	-0.000060
3574.000000	-0.000059
3573.000000	-0.000047
3572.000000	-0.000027
3571.000000	-0.000005
3570.000000	0.000007
3569.000000	0.000007
3568.000000	-0.000000
3567.000000	0.000001
3566.000000	0.000020
3565.000000	0.000047
3564.000000	0.000067
3563.000000	0.000073
3562.000000	0.000068
3561.000000	0.000057
3560.000000	0.000045
3559.000000	0.000032
3558.000000	0.000015
3557.000000	-0.000004
3556.000000	-0.000013
3555.000000	0.000002
3554.000000	0.000038
3553.000000	0.000073
3552.000000	0.000087
3551.000000	0.000083
3550.000000	0.000077
3549.000000	0.000077
3548.000000	0.000074
3547.000000	0.000059
3546.000000	0.000026
3545.000000	-0.000015
3544.000000	-0.000044
3543.000000	-0.000048
3542.000000	-0.000029
3541.000000	-0.000002
3540.000000	0.000020
3539.000000	0.000034
3538.000000	0.000045
3537.000000	0.000054
3536.000000	0.000063
3535.000000	0.000072
3534.000000	0.000075
3533.000000	0.000067
3532.000000	0.000050
3531.000000	0.000031
3530.000000	0.000019
3529.000000	0.000015
3528.000000	0.000021
3527.000000	0.000038
3526.000000	0.000062
3525.000000	0.000083
3524.000000	0.000093
3523.000000	0.000095
3522.000000	0.000093
3521.000000	0.000090
3520.000000	0.000084
3519.000000	0.000078
3518.000000	0.000075
3517.000000	0.000075
3516.000000	0.000082
3515.000000	0.000096
3514.000000	0.000113
3513.000000	0.000124
3512.000000	0.000125
3511.000000	0.000117
3510.000000	0.000101
3509.000000	0.000075
3508.000000	0.000043
3507.000000	0.000018
3506.000000	0.000010
3505.000000	0.000020
3504.000000	0.000045
3503.000000	0.000081
3502.000000	0.000114
3501.000000	0.000127
3500.000000	0.000114
3499.000000	0.000084
3498.000000	0.000053
3497.000000	0.000030
3496.000000	0.000019
3495.000000	0.000024
3494.000000	0.000043
3493.000000	0.000063
3492.000000	0.000078
3491.000000	0.000088
3490.000000	0.000096
3489.000000	0.000099
3488.000000	0.000097
3487.000000	0.000091
3486.000000	0.000088
3485.000000	0.000090
3484.000000	0.000094
3483.000000	0.000096
3482.000000	0.000089
3481.000000	0.000070
3480.000000	0.000044
3479.000000	0.000028
3478.000000	0.000029
3477.000000	0.000043
3476.000000	0.000059
3475.000000	0.000072
3474.000000	0.000082
3473.000000	0.000089
3472.000000	0.000092
3471.000000	0.000095
3470.000000	0.000099
3469.000000	0.000100
3468.000000	0.000096
3467.000000	0.000093
3466.000000	0.000099
3465.000000	0.000114
3464.000000	0.000134
3463.000000	0.000151
3462.000000	0.000159
3461.000000	0.000153
3460.000000	0.000136
3459.000000	0.000121
3458.000000	0.000115
3457.000000	0.000112
3456.000000	0.000110
3455.000000	0.000112
3454.000000	0.000122
3453.000000	0.000139
3452.000000	0.000161
3451.000000	0.000186
3450.000000	0.000210
3449.000000	0.000221
3448.000000	0.000216
3447.000000	0.000205
3446.000000	0.000203
3445.000000	0.000207
3444.000000	0.000211
3443.000000	0.000211
3442.000000	0.000218
3441.000000	0.000239
3440.000000	0.000277
3439.000000	0.000325
3438.000000	0.000370
3437.000000	0.000398
3436.000000	0.000407
3435.000000	0.000406
3434.000000	0.000406
3433.000000	0.000415
3432.000000	0.000436
3431.000000	0.000463
3430.000000	0.000486
3429.000000	0.000493
3428.000000	0.000485
3427.000000	0.000481
3426.000000	0.000492
3425.000000	0.000511
3424.000000	0.000517
3423.000000	0.000500
3422.000000	0.000468
3421.000000	0.000438
3420.000000	0.000421
3419.000000	0.000422
3418.000000	0.000435
3417.000000	0.000454
3416.000000	0.000474
3415.000000	0.000491
3414.000000	0.000499
3413.000000	0.000491
3412.000000	0.000468
3411.000000	0.000436
3410.000000	0.000402
3409.000000	0.000371
3408.000000	0.000353
3407.000000	0.000356
3406.000000	0.000373
3405.000000	0.000388
3404.000000	0.000398
3403.000000	0.000409
3402.000000	0.000422
3401.000000	0.000423
3400.000000	0.000395
3399.000000	0.000344
3398.000000	0.000297
3397.000000	0.000274
3396.000000	0.000279
3395.000000	0.000300
3394.000000	0.000321
3393.000000	0.000332
3392.000000	0.000335
3391.000000	0.000338
3390.000000	0.000342
3389.000000	0.000347
3388.000000	0.000354
3387.000000	0.000370
3386.000000	0.000393
3385.000000	0.000405
3384.000000	0.000392
3383.000000	0.000358
3382.000000	0.000320
3381.000000	0.000293
3380.000000	0.000283
3379.000000	0.000289
3378.000000	0.000304
3377.000000	0.000318
3376.000000	0.000324
3375.000000	0.000326
3374.000000	0.000327
3373.000000	0.000326
3372.000000	0.000323
3371.000000	0.000320
3370.000000	0.000320
3369.000000	0.000315
3368.000000	0.000304
3367.000000	0.000290
3366.000000	0.000281
3365.000000	0.000278
3364.000000	0.000278
3363.000000	0.000278
3362.000000	0.000274
3361.000000	0.000263
3360.000000	0.000247
3359.000000	0.000236
3358.000000	0.000236
3357.000000	0.000245
3356.000000	0.000255
3355.000000	0.000262
3354.000000	0.000267
3353.000000	0.000271
3352.000000	0.000276
3351.000000	0.000284
3350.000000	0.000294
3349.000000	0.000303
3348.000000	0.000309
3347.000000	0.000316
3346.000000	0.000322
3345.000000	0.000324
3344.000000	0.000323
3343.000000	0.000330
3342.000000	0.000342
3341.000000	0.000344
3340.000000	0.000325
3339.000000	0.000293
3338.000000	0.000266
3337.000000	0.000257
3336.000000	0.000266
3335.000000	0.000285
3334.000000	0.000307
3333.000000	0.000320
3332.000000	0.000322
3331.000000	0.000317
3330.000000	0.000311
3329.000000	0.000307
3328.000000	0.000306
3327.000000	0.000310
3326.000000	0.000318
3325.000000	0.000319
3324.000000	0.000303
3323.000000	0.000279
3322.000000	0.000262
3321.000000	0.000260
3320.000000	0.000266
3319.000000	0.000270
3318.000000	0.000270
3317.000000	0.000272
3316.000000	0.000280
3315.000000	0.000295
3314.000000	0.000312
3313.000000	0.000319
3312.000000	0.000310
3311.000000	0.000288
3310.000000	0.000264
3309.000000	0.000250
3308.000000	0.000250
3307.000000	0.000266
3306.000000	0.000292
3305.000000	0.000317
3304.000000	0.000335
3303.000000	0.000345
3302.000000	0.000351
3301.000000	0.000351
3300.000000	0.000344
3299.000000	0.000328
3298.000000	0.000306
3297.000000	0.000279
3296.000000	0.000254
3295.000000	0.000243
3294.000000	0.000248
3293.000000	0.000262
3292.000000	0.000274
3291.000000	0.000279
3290.000000	0.000279
3289.000000	0.000279
3288.000000	0.000278
3287.000000	0.000274
3286.000000	0.000266
3285.000000	0.000256
3284.000000	0.000252
3283.000000	0.000265
3282.000000	0.000288
3281.000000	0.000306
3280.000000	0.000307
3279.000000	0.000298
3278.000000	0.000293
3277.000000	0.000302
3276.000000	0.000318
3275.000000	0.000330
3274.000000	0.000329
3273.000000	0.000316
3272.000000	0.000297
3271.000000	0.000284
3270.000000	0.000281
3269.000000	0.000283
3268.000000	0.000285
3267.000000	0.000286
3266.000000	0.000287
3265.000000	0.000285
3264.000000	0.000281
3263.000000	0.000280
3262.000000	0.000282
3261.000000	0.000285
3260.000000	0.000283
3259.000000	0.000279
3258.000000	0.000271
3257.000000	0.000257
3256.000000	0.000237
3255.000000	0.000220
3254.000000	0.000211
3253.000000	0.000211
3252.000000	0.000220
3251.000000	0.000240
3250.000000	0.000270
3249.000000	0.000298
3248.000000	0.000313
3247.000000	0.000316
3246.000000	0.000311
3245.000000	0.000295
3244.000000	0.000269
3243.000000	0.000245
3242.000000	0.000239
3241.000000	0.000251
3240.000000	0.000265
3239.000000	0.000263
3238.000000	0.000247
3237.000000	0.000234
3236.000000	0.000237
3235.000000	0.000254
3234.000000	0.000268
3233.000000	0.000266
3232.000000	0.000251
3231.000000	0.000234
3230.000000	0.000220
3229.000000	0.000211
3228.000000	0.000209
3227.000000	0.000218
3226.000000	0.000242
3225.000000	0.000270
3224.000000	0.000287
3223.000000	0.000289
3222.000000	0.000278
3221.000000	0.000267
3220.000000	0.000267
3219.000000	0.000282
3218.000000	0.000303
3217.000000	0.000307
3216.000000	0.000285
3215.000000	0.000245
3214.000000	0.000210
3213.000000	0.000201
3212.000000	0.000220
3211.000000	0.000252
3210.000000	0.000277
3209.000000	0.000280
3208.000000	0.000264
3207.000000	0.000245
3206.000000	0.000236
3205.000000	0.000236
3204.000000	0.000238
3203.000000	0.000238
3202.000000	0.000231
3201.000000	0.000218
3200.000000	0.000201
3199.000000	0.000188
3198.000000	0.000182
3197.000000	0.000182
3196.000000	0.000187
3195.000000	0.000201
3194.000000	0.000223
3193.000000	0.000243
3192.000000	0.000255
3191.000000	0.000251
3190.000000	0.000230
3189.000000	0.000195
3188.000000	0.000158
3187.000000	0.000139
3186.000000	0.000147
3185.000000	0.000170
3184.000000	0.000190
3183.000000	0.000202
3182.000000	0.000208
3181.000000	0.000212
3180.000000	0.000210
3179.000000	0.000200
3178.000000	0.000189
3177.000000	0.000184
3176.000000	0.000192
3175.000000	0.000215
3174.000000	0.000246
3173.000000	0.000271
3172.000000	0.000285
3171.000000	0.000293
3170.000000	0.000301
3169.000000	0.000309
3168.000000	0.000311
3167.000000	0.000309
3166.000000	0.000308
3165.000000	0.000311
3164.000000	0.000316
3163.000000	0.000316
3162.000000	0.000310
3161.000000	0.000297
3160.000000	0.000279
3159.000000	0.000262
3158.000000	0.000249
3157.000000	0.000246
3156.000000	0.000252
3155.000000	0.000263
3154.000000	0.000267
3153.000000	0.000259
3152.000000	0.000243
3151.000000	0.000231
3150.000000	0.000227
3149.000000	0.000221
3148.000000	0.000208
3147.000000	0.000198
3146.000000	0.000201
3145.000000	0.000213
3144.000000	0.000216
3143.000000	0.000203
3142.000000	0.000182
3141.000000	0.000171
3140.000000	0.000175
3139.000000	0.000190
3138.000000	0.000209
3137.000000	0.000231
3136.000000	0.000250
3135.000000	0.000266
3134.000000	0.000273
3133.000000	0.000275
3132.000000	0.000279
3131.000000	0.000285
3130.000000	0.000288
3129.000000	0.000281
3128.000000	0.000270
3127.000000	0.000267
3126.000000	0.000278
3125.000000	0.000294
3124.000000	0.000303
3123.000000	0.000305
3122.000000	0.000304
3121.000000	0.000302
3120.000000	0.000299
3119.000000	0.000298
3118.000000	0.000295
3117.000000	0.000279
3116.000000	0.000251
3115.000000	0.000223
3114.000000	0.000213
3113.000000	0.000222
3112.000000	0.000235
3111.000000	0.000240
3110.000000	0.000237
3109.000000	0.000231
3108.000000	0.000225
3107.000000	0.000220
3106.000000	0.000218
3105.000000	0.000222
3104.000000	0.000233
3103.000000	0.000250
3102.000000	0.000267
3101.000000	0.000275
3100.000000	0.000275
3099.000000	0.000274
3098.000000	0.000278
3097.000000	0.000283
3096.000000	0.000285
3095.000000	0.000286
3094.000000	0.000291
3093.000000	0.000300
3092.000000	0.000309
3091.000000	0.000318
3090.000000	0.000327
3089.000000	0.000339
3088.000000	0.000349
3087.000000	0.000354
3086.000000	0.000348
3085.000000	0.000327
3084.000000	0.000294
3083.000000	0.000264
3082.000000	0.000250
3081.000000	0.000254
3080.000000	0.000262
3079.000000	0.000260
3078.000000	0.000244
3077.000000	0.000218
3076.000000	0.000191
3075.000000	0.000175
3074.000000	0.000177
3073.000000	0.000197
3072.000000	0.000225
3071.000000	0.000253
3070.000000	0.000276
3069.000000	0.000292
3068.000000	0.000301
3067.000000	0.000299
3066.000000	0.000287
3065.000000	0.000275
3064.000000	0.000271
3063.000000	0.000280
3062.000000	0.000292
3061.000000	0.000302
3060.000000	0.000311
3059.000000	0.000321
3058.000000	0.000329
3057.000000	0.000323
3056.000000	0.000300
3055.000000	0.000268
3054.000000	0.000238
3053.000000	0.000212
3052.000000	0.000191
3051.000000	0.000183
3050.000000	0.000188
3049.000000	0.000201
3048.000000	0.000215
3047.000000	0.000230
3046.000000	0.000247
3045.000000	0.000265
3044.000000	0.000277
3043.000000	0.000281
3042.000000	0.000282
3041.000000	0.000284
3040.000000	0.000290
3039.000000	0.000301
3038.000000	0.000316
3037.000000	0.000330
3036.000000	0.000334
3035.000000	0.000330
3034.000000	0.000323
3033.000000	0.000316
3032.000000	0.000307
3031.000000	0.000303
3030.000000	0.000312
3029.000000	0.000337
3028.000000	0.000365
3027.000000	0.000380
3026.000000	0.000376
3025.000000	0.000357
3024.000000	0.000332
3023.000000	0.000311
3022.000000	0.000295
3021.000000	0.000287
3020.000000	0.000289
3019.000000	0.000296
3018.000000	0.000303
3017.000000	0.000301
3016.000000	0.000289
3015.000000	0.000275
3014.000000	0.000266
3013.000000	0.000270
3012.000000	0.000288
3011.000000	0.000316
3010.000000	0.000344
3009.000000	0.000362
3008.000000	0.000373
3007.000000	0.000383
3006.000000	0.000395
3005.000000	0.000401
3004.000000	0.000392
3003.000000	0.000368
3002.000000	0.000337
3001.000000	0.000312
3000.000000	0.000302
2999.000000	0.000309
2998.000000	0.000330
2997.000000	0.000355
2996.000000	0.000376
2995.000000	0.000392
2994.000000	0.000400
2993.000000	0.000391
2992.000000	0.000368
2991.000000	0.000342
2990.000000	0.000329
2989.000000	0.000334
2988.000000	0.000350
2987.000000	0.000367
2986.000000	0.000381
2985.000000	0.000394
2984.000000	0.000403
2983.000000	0.000411
2982.000000	0.000419
2981.000000	0.000426
2980.000000	0.000430
2979.000000	0.000429
2978.000000	0.000424
2977.000000	0.000417
2976.000000	0.000410
2975.000000	0.000408
2974.000000	0.000415
2973.000000	0.000427
2972.000000	0.000438
2971.000000	0.000443
2970.000000	0.000442
2969.000000	0.000441
2968.000000	0.000441
2967.000000	0.000444
2966.000000	0.000446
2965.000000	0.000446
2964.000000	0.000448
2963.000000	0.000454
2962.000000	0.000464
2961.000000	0.000471
2960.000000	0.000473
2959.000000	0.000471
2958.000000	0.000473
2957.000000	0.000478
2956.000000	0.000483
2955.000000	0.000487
2954.000000	0.000483
2953.000000	0.000470
2952.000000	0.000449
2951.000000	0.000428
2950.000000	0.000414
2949.000000	0.000405
2948.000000	0.000396
2947.000000	0.000386
2946.000000	0.000384
2945.000000	0.000391
2944.000000	0.000401
2943.000000	0.000405
2942.000000	0.000403
2941.000000	0.000400
2940.000000	0.000398
2939.000000	0.000396
2938.000000	0.000393
2937.000000	0.000392
2936.000000	0.000396
2935.000000	0.000410
2934.000000	0.000430
2933.000000	0.000446
2932.000000	0.000452
2931.000000	0.000452
2930.000000	0.000453
2929.000000	0.000455
2928.000000	0.000452
2927.000000	0.000435
2926.000000	0.000409
2925.000000	0.000385
2924.000000	0.000374
2923.000000	0.000377
2922.000000	0.000385
2921.000000	0.000388
2920.000000	0.000382
2919.000000	0.000370
2918.000000	0.000360
2917.000000	0.000359
2916.000000	0.000363
2915.000000	0.000370
2914.000000	0.000375
2913.000000	0.000375
2912.000000	0.000370
2911.000000	0.000369
2910.000000	0.000383
2909.000000	0.000416
2908.000000	0.000460
2907.000000	0.000496
2906.000000	0.000512
2905.000000	0.000505
2904.000000	0.000484
2903.000000	0.000461
2902.000000	0.000448
2901.000000	0.000447
2900.000000	0.000458
2899.000000	0.000473
2898.000000	0.000482
2897.000000	0.000473
2896.000000	0.000447
2895.000000	0.000417
2894.000000	0.000396
2893.000000	0.000393
2892.000000	0.000399
2891.000000	0.000406
2890.000000	0.000410
2889.000000	0.000416
2888.000000	0.000429
2887.000000	0.000442
2886.000000	0.000449
2885.000000	0.000444
2884.000000	0.000433
2883.000000	0.000423
2882.000000	0.000417
2881.000000	0.000414
2880.000000	0.000418
2879.000000	0.000431
2878.000000	0.000449
2877.000000	0.000462
2876.000000	0.000463
2875.000000	0.000453
2874.000000	0.000440
2873.000000	0.000429
2872.000000	0.000425
2871.000000	0.000428
2870.000000	0.000432
2869.000000	0.000429
2868.000000	0.000416
2867.000000	0.000402
2866.000000	0.000396
2865.000000	0.000405
2864.000000	0.000423
2863.000000	0.000439
2862.000000	0.000443
2861.000000	0.000431
2860.000000	0.000412
2859.000000	0.000397
2858.000000	0.000389
2857.000000	0.000382
2856.000000	0.000371
2855.000000	0.000363
2854.000000	0.000368
2853.000000	0.000381
2852.000000	0.000391
2851.000000	0.000392
2850.000000	0.000389
2849.000000	0.000389
2848.000000	0.000389
2847.000000	0.000390
2846.000000	0.000393
2845.000000	0.000399
2844.000000	0.000404
2843.000000	0.000406
2842.000000	0.000409
2841.000000	0.000416
2840.000000	0.000428
2839.000000	0.000435
2838.000000	0.000435
2837.000000	0.000428
2836.000000	0.000415
2835.000000	0.000400
2834.000000	0.000385
2833.000000	0.000375
2832.000000	0.000374
2831.000000	0.000385
2830.000000	0.000406
2829.000000	0.000432
2828.000000	0.000456
2827.000000	0.000468
2826.000000	0.000465
2825.000000	0.000447
2824.000000	0.000420
2823.000000	0.000395
2822.000000	0.000382
2821.000000	0.000383
2820.000000	0.000393
2819.000000	0.000403
2818.000000	0.000411
2817.000000	0.000416
2816.000000	0.000421
2815.000000	0.000424
2814.000000	0.000417
2813.000000	0.000402
2812.000000	0.000385
2811.000000	0.000381
2810.000000	0.000394
2809.000000	0.000411
2808.000000	0.000418
2807.000000	0.000414
2806.000000	0.000413
2805.000000	0.000425
2804.000000	0.000446
2803.000000	0.000460
2802.000000	0.000460
2801.000000	0.000453
2800.000000	0.000447
2799.000000	0.000446
2798.000000	0.000451
2797.000000	0.000460
2796.000000	0.000470
2795.000000	0.000475
2794.000000	0.000469
2793.000000	0.000450
2792.000000	0.000426
2791.000000	0.000408
2790.000000	0.000403
2789.000000	0.000410
2788.000000	0.000419
2787.000000	0.000421
2786.000000	0.000415
2785.000000	0.000405
2784.000000	0.000396
2783.000000	0.000389
2782.000000	0.000384
2781.000000	0.000383
2780.000000	0.000386
2779.000000	0.000394
2778.000000	0.000406
2777.000000	0.000415
2776.000000	0.000415
2775.000000	0.000403
2774.000000	0.000385
2773.000000	0.000372
2772.000000	0.000373
2771.000000	0.000382
2770.000000	0.000390
2769.000000	0.000394
2768.000000	0.000400
2767.000000	0.000408
2766.000000	0.000420
2765.000000	0.000430
2764.000000	0.000437
2763.000000	0.000440
2762.000000	0.000437
2761.000000	0.000430
2760.000000	0.000422
2759.000000	0.000418
2758.000000	0.000414
2757.000000	0.000409
2756.000000	0.000401
2755.000000	0.000397
2754.000000	0.000400
2753.000000	0.000407
2752.000000	0.000415
2751.000000	0.000420
2750.000000	0.000423
2749.000000	0.000423
2748.000000	0.000420
2747.000000	0.000416
2746.000000	0.000413
2745.000000	0.000410
2744.000000	0.000407
2743.000000	0.000406
2742.000000	0.000410
2741.000000	0.000423
2740.000000	0.000442
2739.000000	0.000460
2738.000000	0.000470
2737.000000	0.000471
2736.000000	0.000464
2735.000000	0.000453
2734.000000	0.000437
2733.000000	0.000421
2732.000000	0.000412
2731.000000	0.000413
2730.000000	0.000421
2729.000000	0.000426
2728.000000	0.000422
2727.000000	0.000415
2726.000000	0.000412
2725.000000	0.000411
2724.000000	0.000407
2723.000000	0.000404
2722.000000	0.000413
2721.000000	0.000440
2720.000000	0.000475
2719.000000	0.000501
2718.000000	0.000509
2717.000000	0.000502
2716.000000	0.000487
2715.000000	0.000470
2714.000000	0.000457
2713.000000	0.000456
2712.000000	0.000465
2711.000000	0.000481
2710.000000	0.000495
2709.000000	0.000505
2708.000000	0.000506
2707.000000	0.000500
2706.000000	0.000489
2705.000000	0.000479
2704.000000	0.000475
2703.000000	0.000477
2702.000000	0.000482
2701.000000	0.000486
2700.000000	0.000488
2699.000000	0.000488
2698.000000	0.000486
2697.000000	0.000484
2696.000000	0.000482
2695.000000	0.000481
2694.000000	0.000480
2693.000000	0.000473
2692.000000	0.000460
2691.000000	0.000443
2690.000000	0.000427
2689.000000	0.000416
2688.000000	0.000407
2687.000000	0.000398
2686.000000	0.000391
2685.000000	0.000389
2684.000000	0.000396
2683.000000	0.000409
2682.000000	0.000418
2681.000000	0.000417
2680.000000	0.000410
2679.000000	0.000401
2678.000000	0.000398
2677.000000	0.000401
2676.000000	0.000408
2675.000000	0.000418
2674.000000	0.000423
2673.000000	0.000416
2672.000000	0.000395
2671.000000	0.000377
2670.000000	0.000382
2669.000000	0.000413
2668.000000	0.000448
2667.000000	0.000464
2666.000000	0.000462
2665.000000	0.000462
2664.000000	0.000476
2663.000000	0.000498
2662.000000	0.000512
2661.000000	0.000512
2660.000000	0.000502
2659.000000	0.000495
2658.000000	0.000498
2657.000000	0.000510
2656.000000	0.000518
2655.000000	0.000513
2654.000000	0.000499
2653.000000	0.000492
2652.000000	0.000498
2651.000000	0.000517
2650.000000	0.000539
2649.000000	0.000559
2648.000000	0.000573
2647.000000	0.000575
2646.000000	0.000564
2645.000000	0.000545
2644.000000	0.000528
2643.000000	0.000523
2642.000000	0.000532
2641.000000	0.000553
2640.000000	0.000578
2639.000000	0.000597
2638.000000	0.000610
2637.000000	0.000621
2636.000000	0.000630
2635.000000	0.000636
2634.000000	0.000632
2633.000000	0.000617
2632.000000	0.000595
2631.000000	0.000571
2630.000000	0.000549
2629.000000	0.000534
2628.000000	0.000526
2627.000000	0.000518
2626.000000	0.000505
2625.000000	0.000490
2624.000000	0.000482
2623.000000	0.000489
2622.000000	0.000507
2621.000000	0.000527
2620.000000	0.000538
2619.000000	0.000541
2618.000000	0.000543
2617.000000	0.000548
2616.000000	0.000551
2615.000000	0.000542
2614.000000	0.000521
2613.000000	0.000501
2612.000000	0.000495
2611.000000	0.000500
2610.000000	0.000502
2609.000000	0.000493
2608.000000	0.000473
2607.000000	0.000452
2606.000000	0.000436
2605.000000	0.000428
2604.000000	0.000427
2603.000000	0.000432
2602.000000	0.000451
2601.000000	0.000485
2600.000000	0.000526
2599.000000	0.000558
2598.000000	0.000569
2597.000000	0.000563
2596.000000	0.000550
2595.000000	0.000542
2594.000000	0.000543
2593.000000	0.000548
2592.000000	0.000552
2591.000000	0.000546
2590.000000	0.000530
2589.000000	0.000507
2588.000000	0.000480
2587.000000	0.000456
2586.000000	0.000436
2585.000000	0.000425
2584.000000	0.000422
2583.000000	0.000426
2582.000000	0.000432
2581.000000	0.000437
2580.000000	0.000437
2579.000000	0.000433
2578.000000	0.000428
2577.000000	0.000430
2576.000000	0.000439
2575.000000	0.000446
2574.000000	0.000446
2573.000000	0.000442
2572.000000	0.000442
2571.000000	0.000451
2570.000000	0.000470
2569.000000	0.000494
2568.000000	0.000512
2567.000000	0.000512
2566.000000	0.000493
2565.000000	0.000466
2564.000000	0.000449
2563.000000	0.000449
2562.000000	0.000461
2561.000000	0.000471
2560.000000	0.000469
2559.000000	0.000454
2558.000000	0.000440
2557.000000	0.000440
2556.000000	0.000461
2555.000000	0.000494
2554.000000	0.000523
2553.000000	0.000539
2552.000000	0.000547
2551.000000	0.000551
2550.000000	0.000549
2549.000000	0.000528
2548.000000	0.000484
2547.000000	0.000436
2546.000000	0.000415
2545.000000	0.000434
2544.000000	0.000473
2543.000000	0.000497
2542.000000	0.000492
2541.000000	0.000470
2540.000000	0.000451
2539.000000	0.000445
2538.000000	0.000453
2537.000000	0.000468
2536.000000	0.000479
2535.000000	0.000479
2534.000000	0.000465
2533.000000	0.000445
2532.000000	0.000423
2531.000000	0.000404
2530.000000	0.000396
2529.000000	0.000405
2528.000000	0.000424
2527.000000	0.000440
2526.000000	0.000436
2525.000000	0.000415
2524.000000	0.000386
2523.000000	0.000358
2522.000000	0.000338
2521.000000	0.000331
2520.000000	0.000337
2519.000000	0.000355
2518.000000	0.000381
2517.000000	0.000405
2516.000000	0.000413
2515.000000	0.000403
2514.000000	0.000392
2513.000000	0.000398
2512.000000	0.000419
2511.000000	0.000433
2510.000000	0.000423
2509.000000	0.000396
2508.000000	0.000374
2507.000000	0.000375
2506.000000	0.000402
2505.000000	0.000444
2504.000000	0.000482
2503.000000	0.000506
2502.000000	0.000515
2501.000000	0.000509
2500.000000	0.000482
2499.000000	0.000431
2498.000000	0.000380
2497.000000	0.000360
2496.000000	0.000371
2495.000000	0.000381
2494.000000	0.000358
2493.000000	0.000309
2492.000000	0.000266
2491.000000	0.000257
2490.000000	0.000288
2489.000000	0.000344
2488.000000	0.000394
2487.000000	0.000411
2486.000000	0.000396
2485.000000	0.000371
2484.000000	0.000357
2483.000000	0.000353
2482.000000	0.000351
2481.000000	0.000354
2480.000000	0.000363
2479.000000	0.000367
2478.000000	0.000356
2477.000000	0.000338
2476.000000	0.000333
2475.000000	0.000349
2474.000000	0.000374
2473.000000	0.000390
2472.000000	0.000393
2471.000000	0.000388
2470.000000	0.000380
2469.000000	0.000371
2468.000000	0.000359
2467.000000	0.000346
2466.000000	0.000341
2465.000000	0.000356
2464.000000	0.000391
2463.000000	0.000430
2462.000000	0.000455
2461.000000	0.000464
2460.000000	0.000471
2459.000000	0.000481
2458.000000	0.000491
2457.000000	0.000494
2456.000000	0.000487
2455.000000	0.000481
2454.000000	0.000488
2453.000000	0.000518
2452.000000	0.000557
2451.000000	0.000577
2450.000000	0.000564
2449.000000	0.000532
2448.000000	0.000503
2447.000000	0.000488
2446.000000	0.000481
2445.000000	0.000475
2444.000000	0.000468
2443.000000	0.000456
2442.000000	0.000434
2441.000000	0.000409
2440.000000	0.000396
2439.000000	0.000402
2438.000000	0.000422
2437.000000	0.000439
2436.000000	0.000438
2435.000000	0.000414
2434.000000	0.000381
2433.000000	0.000367
2432.000000	0.000385
2431.000000	0.000422
2430.000000	0.000445
2429.000000	0.000445
2428.000000	0.000438
2427.000000	0.000442
2426.000000	0.000459
2425.000000	0.000474
2424.000000	0.000475
2423.000000	0.000462
2422.000000	0.000441
2421.000000	0.000421
2420.000000	0.000406
2419.000000	0.000404
2418.000000	0.000417
2417.000000	0.000439
2416.000000	0.000454
2415.000000	0.000447
2414.000000	0.000422
2413.000000	0.000404
2412.000000	0.000420
2411.000000	0.000468
2410.000000	0.000513
2409.000000	0.000522
2408.000000	0.000484
2407.000000	0.000421
2406.000000	0.000366
2405.000000	0.000342
2404.000000	0.000346
2403.000000	0.000360
2402.000000	0.000373
2401.000000	0.000387
2400.000000	0.000406
2399.000000	0.000427
2398.000000	0.000438
2397.000000	0.000433
2396.000000	0.000423
2395.000000	0.000421
2394.000000	0.000432
2393.000000	0.000448
2392.000000	0.000459
2391.000000	0.000455
2390.000000	0.000436
2389.000000	0.000408
2388.000000	0.000382
2387.000000	0.000369
2386.000000	0.000374
2385.000000	0.000389
2384.000000	0.000404
2383.000000	0.000408
2382.000000	0.000400
2381.000000	0.000382
2380.000000	0.000366
2379.000000	0.000361
2378.000000	0.000375
2377.000000	0.000398
2376.000000	0.000411
2375.000000	0.000399
2374.000000	0.000365
2373.000000	0.000333
2372.000000	0.000325
2371.000000	0.000353
2370.000000	0.000402
2369.000000	0.000442
2368.000000	0.000446
2367.000000	0.000414
2366.000000	0.000379
2365.000000	0.000370
2364.000000	0.000379
2363.000000	0.000385
2362.000000	0.000388
2361.000000	0.000413
2360.000000	0.000466
2359.000000	0.000515
2358.000000	0.000526
2357.000000	0.000497
2356.000000	0.000459
2355.000000	0.000442
2354.000000	0.000432
2353.000000	0.000395
2352.000000	0.000336
2351.000000	0.000303
2350.000000	0.000338
2349.000000	0.000424
2348.000000	0.000512
2347.000000	0.000552
2346.000000	0.000527
2345.000000	0.000478
2344.000000	0.000456
2343.000000	0.000474
2342.000000	0.000514
2341.000000	0.000550
2340.000000	0.000563
2339.000000	0.000544
2338.000000	0.000501
2337.000000	0.000458
2336.000000	0.000428
2335.000000	0.000405
2334.000000	0.000377
2333.000000	0.000350
2332.000000	0.000349
2331.000000	0.000387
2330.000000	0.000449
2329.000000	0.000505
2328.000000	0.000548
2327.000000	0.000598
2326.000000	0.000665
2325.000000	0.000738
2324.000000	0.000785
2323.000000	0.000784
2322.000000	0.000740
2321.000000	0.000681
2320.000000	0.000637
2319.000000	0.000632
2318.000000	0.000668
2317.000000	0.000726
2316.000000	0.000764
2315.000000	0.000751
2314.000000	0.000696
2313.000000	0.000638
2312.000000	0.000605
2311.000000	0.000596
2310.000000	0.000592
2309.000000	0.000584
2308.000000	0.000574
2307.000000	0.000562
2306.000000	0.000551
2305.000000	0.000551
2304.000000	0.000573
2303.000000	0.000612
2302.000000	0.000654
2301.000000	0.000681
2300.000000	0.000684
2299.000000	0.000675
2298.000000	0.000673
2297.000000	0.000695
2296.000000	0.000729
2295.000000	0.000752
2294.000000	0.000752
2293.000000	0.000740
2292.000000	0.000735
2291.000000	0.000737
2290.000000	0.000740
2289.000000	0.000745
2288.000000	0.000762
2287.000000	0.000796
2286.000000	0.000847
2285.000000	0.000907
2284.000000	0.000959
2283.000000	0.000974
2282.000000	0.000938
2281.000000	0.000871
2280.000000	0.000812
2279.000000	0.000787
2278.000000	0.000789
2277.000000	0.000788
2276.000000	0.000755
2275.000000	0.000689
2274.000000	0.000620
2273.000000	0.000589
2272.000000	0.000604
2271.000000	0.000634
2270.000000	0.000642
2269.000000	0.000618
2268.000000	0.000577
2267.000000	0.000533
2266.000000	0.000484
2265.000000	0.000422
2264.000000	0.000361
2263.000000	0.000346
2262.000000	0.000422
2261.000000	0.000573
2260.000000	0.000711
2259.000000	0.000738
2258.000000	0.000641
2257.000000	0.000504
2256.000000	0.000420
2255.000000	0.000423
2254.000000	0.000488
2253.000000	0.000579
2252.000000	0.000666
2251.000000	0.000732
2250.000000	0.000774
2249.000000	0.000790
2248.000000	0.000766
2247.000000	0.000690
2246.000000	0.000584
2245.000000	0.000499
2244.000000	0.000462
2243.000000	0.000452
2242.000000	0.000437
2241.000000	0.000404
2240.000000	0.000359
2239.000000	0.000308
2238.000000	0.000275
2237.000000	0.000281
2236.000000	0.000325
2235.000000	0.000373
2234.000000	0.000401
2233.000000	0.000410
2232.000000	0.000399
2231.000000	0.000360
2230.000000	0.000306
2229.000000	0.000263
2228.000000	0.000238
2227.000000	0.000214
2226.000000	0.000208
2225.000000	0.000271
2224.000000	0.000420
2223.000000	0.000587
2222.000000	0.000688
2221.000000	0.000695
2220.000000	0.000639
2219.000000	0.000565
2218.000000	0.000507
2217.000000	0.000479
2216.000000	0.000452
2215.000000	0.000372
2214.000000	0.000243
2213.000000	0.000152
2212.000000	0.000185
2211.000000	0.000330
2210.000000	0.000495
2209.000000	0.000581
2208.000000	0.000543
2207.000000	0.000413
2206.000000	0.000308
2205.000000	0.000354
2204.000000	0.000550
2203.000000	0.000752
2202.000000	0.000817
2201.000000	0.000760
2200.000000	0.000710
2199.000000	0.000738
2198.000000	0.000792
2197.000000	0.000775
2196.000000	0.000653
2195.000000	0.000482
2194.000000	0.000351
2193.000000	0.000316
2192.000000	0.000358
2191.000000	0.000418
2190.000000	0.000465
2189.000000	0.000517
2188.000000	0.000595
2187.000000	0.000682
2186.000000	0.000748
2185.000000	0.000774
2184.000000	0.000744
2183.000000	0.000659
2182.000000	0.000571
2181.000000	0.000560
2180.000000	0.000639
2179.000000	0.000740
2178.000000	0.000809
2177.000000	0.000851
2176.000000	0.000855
2175.000000	0.000764
2174.000000	0.000564
2173.000000	0.000353
2172.000000	0.000250
2171.000000	0.000288
2170.000000	0.000421
2169.000000	0.000586
2168.000000	0.000723
2167.000000	0.000784
2166.000000	0.000791
2165.000000	0.000845
2164.000000	0.001015
2163.000000	0.001238
2162.000000	0.001372
2161.000000	0.001307
2160.000000	0.001019
2159.000000	0.000572
2158.000000	0.000116
2157.000000	-0.000194
2156.000000	-0.000332
2155.000000	-0.000373
2154.000000	-0.000359
2153.000000	-0.000302
2152.000000	-0.000269
2151.000000	-0.000346
2150.000000	-0.000490
2149.000000	-0.000534
2148.000000	-0.000399
2147.000000	-0.000192
2146.000000	-0.000051
2145.000000	0.000021
2144.000000	0.000104
2143.000000	0.000206
2142.000000	0.000266
2141.000000	0.000258
2140.000000	0.000217
2139.000000	0.000173
2138.000000	0.000121
2137.000000	0.000055
2136.000000	-0.000013
2135.000000	-0.000064
2134.000000	-0.000094
2133.000000	-0.000107
2132.000000	-0.000123
2131.000000	-0.000152
2130.000000	-0.000176
2129.000000	-0.000164
2128.000000	-0.000112
2127.000000	-0.000052
2126.000000	0.000007
2125.000000	0.000089
2124.000000	0.000215
2123.000000	0.000365
2122.000000	0.000492
2121.000000	0.000565
2120.000000	0.000573
2119.000000	0.000527
2118.000000	0.000462
2117.000000	0.000428
2116.000000	0.000446
2115.000000	0.000486
2114.000000	0.000510
2113.000000	0.000510
2112.000000	0.000500
2111.000000	0.000485
2110.000000	0.000460
2109.000000	0.000427
2108.000000	0.000395
2107.000000	0.000368
2106.000000	0.000350
2105.000000	0.000341
2104.000000	0.000330
2103.000000	0.000299
2102.000000	0.000251
2101.000000	0.000209
2100.000000	0.000187
2099.000000	0.000176
2098.000000	0.000171
2097.000000	0.000179
2096.000000	0.000198
2095.000000	0.000210
2094.000000	0.000219
2093.000000	0.000255
2092.000000	0.000331
2091.000000	0.000411
2090.000000	0.000456
2089.000000	0.000458
2088.000000	0.000435
2087.000000	0.000407
2086.000000	0.000399
2085.000000	0.000436
2084.000000	0.000509
2083.000000	0.000570
2082.000000	0.000578
2081.000000	0.000538
2080.000000	0.000493
2079.000000	0.000473
2078.000000	0.000480
2077.000000	0.000495
2076.000000	0.000485
2075.000000	0.000432
2074.000000	0.000360
2073.000000	0.000322
2072.000000	0.000351
2071.000000	0.000440
2070.000000	0.000571
2069.000000	0.000717
2068.000000	0.000813
2067.000000	0.000787
2066.000000	0.000642
2065.000000	0.000476
2064.000000	0.000396
2063.000000	0.000431
2062.000000	0.000539
2061.000000	0.000652
2060.000000	0.000703
2059.000000	0.000663
2058.000000	0.000579
2057.000000	0.000528
2056.000000	0.000525
2055.000000	0.000524
2054.000000	0.000520
2053.000000	0.000584
2052.000000	0.000750
2051.000000	0.000947
2050.000000	0.001070
2049.000000	0.001073
2048.000000	0.000971
2047.000000	0.000788
2046.000000	0.000561
2045.000000	0.000370
2044.000000	0.000275
2043.000000	0.000263
2042.000000	0.000292
2041.000000	0.000345
2040.000000	0.000395
2039.000000	0.000390
2038.000000	0.000316
2037.000000	0.000224
2036.000000	0.000156
2035.000000	0.000094
2034.000000	0.000032
2033.000000	0.000020
2032.000000	0.000089
2031.000000	0.000221
2030.000000	0.000396
2029.000000	0.000584
2028.000000	0.000669
2027.000000	0.000512
2026.000000	0.000157
2025.000000	-0.000167
2024.000000	-0.000304
2023.000000	-0.000335
2022.000000	-0.000395
2021.000000	-0.000483
2020.000000	-0.000507
2019.000000	-0.000419
2018.000000	-0.000222
2017.000000	0.000057
2016.000000	0.000305
2015.000000	0.000363
2014.000000	0.000203
2013.000000	-0.000021
2012.000000	-0.000147
2011.000000	-0.000165
2010.000000	-0.000140
2009.000000	-0.000094
2008.000000	-0.000045
2007.000000	-0.000057
2006.000000	-0.000148
2005.000000	-0.000222
2004.000000	-0.000180
2003.000000	-0.000046
2002.000000	0.000086
2001.000000	0.000158
2000.000000	0.000167
1999.000000	0.000142
1998.000000	0.000145
1997.000000	0.000236
1996.000000	0.000395
1995.000000	0.000528
1994.000000	0.000580
1993.000000	0.000574
1992.000000	0.000538
1991.000000	0.000464
1990.000000	0.000383
1989.000000	0.000382
1988.000000	0.000492
1987.000000	0.000640
1986.000000	0.000740
1985.000000	0.000776
1984.000000	0.000757
1983.000000	0.000685
1982.000000	0.000607
1981.000000	0.000594
1980.000000	0.000631
1979.000000	0.000603
1978.000000	0.000468
1977.000000	0.000323
1976.000000	0.000242
1975.000000	0.000177
1974.000000	0.000126
1973.000000	0.000173
1972.000000	0.000292
1971.000000	0.000302
1970.000000	0.000124
1969.000000	-0.000064
1968.000000	-0.000064
1967.000000	0.000089
1966.000000	0.000220
1965.000000	0.000252
1964.000000	0.000204
1963.000000	0.000085
1962.000000	-0.000073
1961.000000	-0.000157
1960.000000	-0.000107
1959.000000	-0.000015
1958.000000	-0.000003
1957.000000	-0.000046
1956.000000	-0.000042
1955.000000	0.000027
1954.000000	0.000096
1953.000000	0.000136
1952.000000	0.000172
1951.000000	0.000215
1950.000000	0.000249
1949.000000	0.000267
1948.000000	0.000262
1947.000000	0.000204
1946.000000	0.000080
1945.000000	-0.000063
1944.000000	-0.000158
1943.000000	-0.000194
1942.000000	-0.000204
1941.000000	-0.000208
1940.000000	-0.000194
1939.000000	-0.000148
1938.000000	-0.000064
1937.000000	0.000065
1936.000000	0.000211
1935.000000	0.000314
1934.000000	0.000335
1933.000000	0.000294
1932.000000	0.000238
1931.000000	0.000191
1930.000000	0.000148
1929.000000	0.000101
1928.000000	0.000050
1927.000000	0.000006
1926.000000	-0.000007
1925.000000	0.000024
1924.000000	0.000081
1923.000000	0.000132
1922.000000	0.000179
1921.000000	0.000249
1920.000000	0.000326
1919.000000	0.000343
1918.000000	0.000268
1917.000000	0.000157
1916.000000	0.000092
1915.000000	0.000085
1914.000000	0.000103
1913.000000	0.000129
1912.000000	0.000154
1911.000000	0.000170
1910.000000	0.000174
1909.000000	0.000175
1908.000000	0.000162
1907.000000	0.000117
1906.000000	0.000057
1905.000000	0.000038
1904.000000	0.000088
1903.000000	0.000163
1902.000000	0.000205
1901.000000	0.000205
1900.000000	0.000196
1899.000000	0.000196
1898.000000	0.000198
1897.000000	0.000190
1896.000000	0.000161
1895.000000	0.000110
1894.000000	0.000070
1893.000000	0.000076
1892.000000	0.000120
1891.000000	0.000146
1890.000000	0.000128
1889.000000	0.000103
1888.000000	0.000118
1887.000000	0.000153
1886.000000	0.000165
1885.000000	0.000153
1884.000000	0.000143
1883.000000	0.000133
1882.000000	0.000105
1881.000000	0.000065
1880.000000	0.000046
1879.000000	0.000050
1878.000000	0.000060
1877.000000	0.000065
1876.000000	0.000074
1875.000000	0.000090
1874.000000	0.000099
1873.000000	0.000092
1872.000000	0.000072
1871.000000	0.000054
1870.000000	0.000057
1869.000000	0.000090
1868.000000	0.000132
1867.000000	0.000147
1866.000000	0.000125
1865.000000	0.000090
1864.000000	0.000060
1863.000000	0.000042
1862.000000	0.000044
1861.000000	0.000077
1860.000000	0.000131
1859.000000	0.000171
1858.000000	0.000178
1857.000000	0.000162
1856.000000	0.000143
1855.000000	0.000120
1854.000000	0.000090
1853.000000	0.000067
1852.000000	0.000058
1851.000000	0.000047
1850.000000	0.000024
1849.000000	0.000006
1848.000000	0.000004
1847.000000	0.000001
1846.000000	-0.000018
1845.000000	-0.000034
1844.000000	-0.000011
1843.000000	0.000039
1842.000000	0.000077
1841.000000	0.000094
1840.000000	0.000095
1839.000000	0.000083
1838.000000	0.000061
1837.000000	0.000048
1836.000000	0.000052
1835.000000	0.000064
1834.000000	0.000071
1833.000000	0.000074
1832.000000	0.000069
1831.000000	0.000047
1830.000000	0.000019
1829.000000	0.000022
1828.000000	0.000056
1827.000000	0.000085
1826.000000	0.000094
1825.000000	0.000107
1824.000000	0.000141
1823.000000	0.000172
1822.000000	0.000173
1821.000000	0.000144
1820.000000	0.000104
1819.000000	0.000062
1818.000000	0.000027
1817.000000	0.000013
1816.000000	0.000022
1815.000000	0.000036
1814.000000	0.000039
1813.000000	0.000036
1812.000000	0.000038
1811.000000	0.000046
1810.000000	0.000055
1809.000000	0.000063
1808.000000	0.000073
1807.000000	0.000078
1806.000000	0.000072
1805.000000	0.000060
1804.000000	0.000056
1803.000000	0.000073
1802.000000	0.000114
1801.000000	0.000164
1800.000000	0.000195
1799.000000	0.000192
1798.000000	0.000167
1797.000000	0.000148
1796.000000	0.000151
1795.000000	0.000170
1794.000000	0.000186
1793.000000	0.000191
1792.000000	0.000174
1791.000000	0.000133
1790.000000	0.000080
1789.000000	0.000041
1788.000000	0.000034
1787.000000	0.000056
1786.000000	0.000089
1785.000000	0.000116
1784.000000	0.000126
1783.000000	0.000112
1782.000000	0.000084
1781.000000	0.000066
1780.000000	0.000073
1779.000000	0.000087
1778.000000	0.000089
1777.000000	0.000079
1776.000000	0.000070
1775.000000	0.000068
1774.000000	0.000068
1773.000000	0.000077
1772.000000	0.000093
1771.000000	0.000102
1770.000000	0.000103
1769.000000	0.000107
1768.000000	0.000111
1767.000000	0.000107
1766.000000	0.000103
1765.000000	0.000114
1764.000000	0.000137
1763.000000	0.000144
1762.000000	0.000123
1761.000000	0.000106
1760.000000	0.000119
1759.000000	0.000152
1758.000000	0.000182
1757.000000	0.000207
1756.000000	0.000235
1755.000000	0.000258
1754.000000	0.000272
1753.000000	0.000284
1752.000000	0.000297
1751.000000	0.000307
1750.000000	0.000309
1749.000000	0.000315
1748.000000	0.000315
1747.000000	0.000293
1746.000000	0.000257
1745.000000	0.000244
1744.000000	0.000263
1743.000000	0.000287
1742.000000	0.000288
1741.000000	0.000272
1740.000000	0.000254
1739.000000	0.000243
1738.000000	0.000243
1737.000000	0.000259
1736.000000	0.000279
1735.000000	0.000270
1734.000000	0.000211
1733.000000	0.000147
1732.000000	0.000115
1731.000000	0.000099
1730.000000	0.000081
1729.000000	0.000065
1728.000000	0.000052
1727.000000	0.000030
1726.000000	-0.000003
1725.000000	-0.000028
1724.000000	-0.000031
1723.000000	-0.000022
1722.000000	-0.000017
1721.000000	-0.000020
1720.000000	-0.000026
1719.000000	-0.000034
1718.000000	-0.000035
1717.000000	-0.000030
1716.000000	-0.000028
1715.000000	-0.000026
1714.000000	-0.000018
1713.000000	-0.000002
1712.000000	0.000015
1711.000000	0.000019
1710.000000	0.000015
1709.000000	0.000018
1708.000000	0.000032
1707.000000	0.000036
1706.000000	0.000017
1705.000000	-0.000010
1704.000000	-0.000018
1703.000000	-0.000004
1702.000000	0.000017
1701.000000	0.000037
1700.000000	0.000059
1699.000000	0.000078
1698.000000	0.000079
1697.000000	0.000067
1696.000000	0.000055
1695.000000	0.000059
1694.000000	0.000069
1693.000000	0.000069
1692.000000	0.000065
1691.000000	0.000063
1690.000000	0.000068
1689.000000	0.000091
1688.000000	0.000137
1687.000000	0.000194
1686.000000	0.000244
1685.000000	0.000260
1684.000000	0.000218
1683.000000	0.000142
1682.000000	0.000083
1681.000000	0.000056
1680.000000	0.000046
1679.000000	0.000032
1678.000000	0.000010
1677.000000	-0.000004
1676.000000	-0.000001
1675.000000	0.000003
1674.000000	0.000002
1673.000000	0.000008
1672.000000	0.000020
1671.000000	0.000015
1670.000000	-0.000027
1669.000000	-0.000074
1668.000000	-0.000088
1667.000000	-0.000079
1666.000000	-0.000064
1665.000000	-0.000040
1664.000000	-0.000005
1663.000000	0.000025
1662.000000	0.000030
1661.000000	0.000023
1660.000000	0.000022
1659.000000	0.000022
1658.000000	0.000023
1657.000000	0.000041
1656.000000	0.000084
1655.000000	0.000122
1654.000000	0.000095
1653.000000	0.000011
1652.000000	-0.000018
1651.000000	-0.000011
1650.000000	-0.000014
1649.000000	-0.000013
1648.000000	0.000001
1647.000000	0.000006
1646.000000	-0.000007
1645.000000	-0.000004
1644.000000	0.000019
1643.000000	0.000040
1642.000000	0.000048
1641.000000	0.000050
1640.000000	0.000059
1639.000000	0.000075
1638.000000	0.000081
1637.000000	0.000063
1636.000000	0.000016
1635.000000	-0.000039
1634.000000	-0.000065
1633.000000	-0.000053
1632.000000	-0.000017
1631.000000	0.000015
1630.000000	0.000023
1629.000000	0.000010
1628.000000	-0.000004
1627.000000	-0.000017
1626.000000	-0.000037
1625.000000	-0.000057
1624.000000	-0.000065
1623.000000	-0.000067
1622.000000	-0.000073
1621.000000	-0.000072
1620.000000	-0.000053
1619.000000	-0.000027
1618.000000	-0.000011
1617.000000	-0.000005
1616.000000	0.000002
1615.000000	0.000007
1614.000000	0.000001
1613.000000	-0.000001
1612.000000	0.000003
1611.000000	-0.000008
1610.000000	-0.000045
1609.000000	-0.000081
1608.000000	-0.000086
1607.000000	-0.000072
1606.000000	-0.000068
1605.000000	-0.000075
1604.000000	-0.000082
1603.000000	-0.000091
1602.000000	-0.000108
1601.000000	-0.000121
1600.000000	-0.000117
1599.000000	-0.000101
1598.000000	-0.000082
1597.000000	-0.000063
1596.000000	-0.000052
1595.000000	-0.000066
1594.000000	-0.000103
1593.000000	-0.000132
1592.000000	-0.000131
1591.000000	-0.000111
1590.000000	-0.000096
1589.000000	-0.000088
1588.000000	-0.000079
1587.000000	-0.000071
1586.000000	-0.000065
1585.000000	-0.000050
1584.000000	-0.000031
1583.000000	-0.000037
1582.000000	-0.000075
1581.000000	-0.000112
1580.000000	-0.000114
1579.000000	-0.000089
1578.000000	-0.000063
1577.000000	-0.000040
1576.000000	-0.000013
1575.000000	0.000002
1574.000000	-0.000005
1573.000000	-0.000011
1572.000000	-0.000003
1571.000000	0.000005
1570.000000	0.000006
1569.000000	0.000025
1568.000000	0.000069
1567.000000	0.000100
1566.000000	0.000098
1565.000000	0.000081
1564.000000	0.000076
1563.000000	0.000077
1562.000000	0.000077
1561.000000	0.000082
1560.000000	0.000122
1559.000000	0.000177
1558.000000	0.000174
1557.000000	0.000189
1556.000000	0.000236
1555.000000	0.000270
1554.000000	0.000271
1553.000000	0.000256
1552.000000	0.000249
1551.000000	0.000254
1550.000000	0.000279
1549.000000	0.000337
1548.000000	0.000416
1547.000000	0.000475
1546.000000	0.000495
1545.000000	0.000494
1544.000000	0.000496
1543.000000	0.000501
1542.000000	0.000501
1541.000000	0.000507
1540.000000	0.000525
1539.000000	0.000534
1538.000000	0.000534
1537.000000	0.000542
1536.000000	0.000567
1535.000000	0.000597
1534.000000	0.000612
1533.000000	0.000616
1532.000000	0.000626
1531.000000	0.000643
1530.000000	0.000662
1529.000000	0.000695
1528.000000	0.000750
1527.000000	0.000803
1526.000000	0.000824
1525.000000	0.000823
1524.000000	0.000824
1523.000000	0.000830
1522.000000	0.000828
1521.000000	0.000827
1520.000000	0.000846
1519.000000	0.000867
1518.000000	0.000866
1517.000000	0.000855
1516.000000	0.000859
1515.000000	0.000886
1514.000000	0.000920
1513.000000	0.000949
1512.000000	0.000965
1511.000000	0.000964
1510.000000	0.000965
1509.000000	0.000996
1508.000000	0.001047
1507.000000	0.001047
1506.000000	0.000979
1505.000000	0.000943
1504.000000	0.000944
1503.000000	0.000950
1502.000000	0.000955
1501.000000	0.000965
1500.000000	0.000980
1499.000000	0.000990
1498.000000	0.001005
1497.000000	0.001040
1496.000000	0.001081
1495.000000	0.001091
1494.000000	0.001067
1493.000000	0.001032
1492.000000	0.000999
1491.000000	0.000961
1490.000000	0.000921
1489.000000	0.000898
1488.000000	0.000893
1487.000000	0.000881
1486.000000	0.000849
1485.000000	0.000819
1484.000000	0.000813
1483.000000	0.000824
1482.000000	0.000838
1481.000000	0.000853
1480.000000	0.000869
1479.000000	0.000873
1478.000000	0.000862
1477.000000	0.000861
1476.000000	0.000893
1475.000000	0.000947
1474.000000	0.000990
1473.000000	0.001003
1472.000000	0.000996
1471.000000	0.000988
1470.000000	0.000997
1469.000000	0.001029
1468.000000	0.001078
1467.000000	0.001124
1466.000000	0.001156
1465.000000	0.001183
1464.000000	0.001214
1463.000000	0.001234
1462.000000	0.001235
1461.000000	0.001224
1460.000000	0.001210
1459.000000	0.001177
1458.000000	0.001107
1457.000000	0.001027
1456.000000	0.000985
1455.000000	0.000970
1454.000000	0.000966
1453.000000	0.000989
1452.000000	0.001040
1451.000000	0.001087
1450.000000	0.001110
1449.000000	0.001123
1448.000000	0.001144
1447.000000	0.001166
1446.000000	0.001183
1445.000000	0.001209
1444.000000	0.001253
1443.000000	0.001303
1442.000000	0.001349
1441.000000	0.001397
1440.000000	0.001451
1439.000000	0.001491
1438.000000	0.001504
1437.000000	0.001514
1436.000000	0.001542
1435.000000	0.001568
1434.000000	0.001578
1433.000000	0.001589
1432.000000	0.001618
1431.000000	0.001662
1430.000000	0.001711
1429.000000	0.001767
1428.000000	0.001822
1427.000000	0.001860
1426.000000	0.001882
1425.000000	0.001917
1424.000000	0.001978
1423.000000	0.002041
1422.000000	0.002097
1421.000000	0.002162
1420.000000	0.002231
1419.000000	0.002263
1418.000000	0.002256
1417.000000	0.002265
1416.000000	0.002306
1415.000000	0.002348
1414.000000	0.002373
1413.000000	0.002389
1412.000000	0.002398
1411.000000	0.002383
1410.000000	0.002348
1409.000000	0.002319
1408.000000	0.002303
1407.000000	0.002272
1406.000000	0.002216
1405.000000	0.002157
1404.000000	0.002112
1403.000000	0.002063
1402.000000	0.002007
1401.000000	0.001964
1400.000000	0.001948
1399.000000	0.001934
1398.000000	0.001903
1397.000000	0.001863
1396.000000	0.001822
1395.000000	0.001766
1394.000000	0.001702
1393.000000	0.001661
1392.000000	0.001644
1391.000000	0.001628
1390.000000	0.001609
1389.000000	0.001604
1388.000000	0.001606
1387.000000	0.001579
1386.000000	0.001518
1385.000000	0.001465
1384.000000	0.001442
1383.000000	0.001430
1382.000000	0.001411
1381.000000	0.001399
1380.000000	0.001401
1379.000000	0.001400
1378.000000	0.001382
1377.000000	0.001362
1376.000000	0.001349
1375.000000	0.001327
1374.000000	0.001287
1373.000000	0.001258
1372.000000	0.001254
1371.000000	0.001253
1370.000000	0.001237
1369.000000	0.001221
1368.000000	0.001216
1367.000000	0.001205
1366.000000	0.001178
1365.000000	0.001160
1364.000000	0.001165
1363.000000	0.001166
1362.000000	0.001136
1361.000000	0.001097
1360.000000	0.001079
1359.000000	0.001070
1358.000000	0.001051
1357.000000	0.001033
1356.000000	0.001027
1355.000000	0.001023
1354.000000	0.001010
1353.000000	0.001000
1352.000000	0.001004
1351.000000	0.001007
1350.000000	0.000993
1349.000000	0.000971
1348.000000	0.000961
1347.000000	0.000954
1346.000000	0.000937
1345.000000	0.000919
1344.000000	0.000914
1343.000000	0.000915
1342.000000	0.000914
1341.000000	0.000919
1340.000000	0.000932
1339.000000	0.000930
1338.000000	0.000902
1337.000000	0.000876
1336.000000	0.000869
1335.000000	0.000865
1334.000000	0.000843
1333.000000	0.000813
1332.000000	0.000791
1331.000000	0.000773
1330.000000	0.000755
1329.000000	0.000754
1328.000000	0.000778
1327.000000	0.000803
1326.000000	0.000808
1325.000000	0.000802
1324.000000	0.000796
1323.000000	0.000778
1322.000000	0.000747
1321.000000	0.000726
1320.000000	0.000725
1319.000000	0.000720
1318.000000	0.000696
1317.000000	0.000679
1316.000000	0.000690
1315.000000	0.000706
1314.000000	0.000700
1313.000000	0.000687
1312.000000	0.000685
1311.000000	0.000685
1310.000000	0.000672
1309.000000	0.000656
1308.000000	0.000650
1307.000000	0.000640
1306.000000	0.000617
1305.000000	0.000597
1304.000000	0.000597
1303.000000	0.000604
1302.000000	0.000599
1301.000000	0.000589
1300.000000	0.000582
1299.000000	0.000567
1298.000000	0.000540
1297.000000	0.000522
1296.000000	0.000529
1295.000000	0.000545
1294.000000	0.000557
1293.000000	0.000576
1292.000000	0.000599
1291.000000	0.000601
1290.000000	0.000571
1289.000000	0.000544
1288.000000	0.000544
1287.000000	0.000547
1286.000000	0.000526
1285.000000	0.000498
1284.000000	0.000487
1283.000000	0.000486
1282.000000	0.000475
1281.000000	0.000469
1280.000000	0.000485
1279.000000	0.000510
1278.000000	0.000523
1277.000000	0.000523
1276.000000	0.000513
1275.000000	0.000487
1274.000000	0.000453
1273.000000	0.000441
1272.000000	0.000455
1271.000000	0.000462
1270.000000	0.000439
1269.000000	0.000412
1268.000000	0.000408
1267.000000	0.000419
1266.000000	0.000428
1265.000000	0.000444
1264.000000	0.000471
1263.000000	0.000479
1262.000000	0.000452
1261.000000	0.000418
1260.000000	0.000405
1259.000000	0.000403
1258.000000	0.000398
1257.000000	0.000400
1256.000000	0.000420
1255.000000	0.000433
1254.000000	0.000422
1253.000000	0.000407
1252.000000	0.000402
1251.000000	0.000393
1250.000000	0.000373
1249.000000	0.000365
1248.000000	0.000383
1247.000000	0.000402
1246.000000	0.000402
1245.000000	0.000400
1244.000000	0.000409
1243.000000	0.000407
1242.000000	0.000376
1241.000000	0.000343
1240.000000	0.000338
1239.000000	0.000346
1238.000000	0.000347
1237.000000	0.000347
1236.000000	0.000357
1235.000000	0.000362
1234.000000	0.000349
1233.000000	0.000335
1232.000000	0.000337
1231.000000	0.000342
1230.000000	0.000340
1229.000000	0.000350
1228.000000	0.000373
1227.000000	0.000379
1226.000000	0.000354
1225.000000	0.000328
1224.000000	0.000332
1223.000000	0.000352
1222.000000	0.000363
1221.000000	0.000368
1220.000000	0.000372
1219.000000	0.000355
1218.000000	0.000312
1217.000000	0.000277
1216.000000	0.000272
1215.000000	0.000277
1214.000000	0.000272
1213.000000	0.000273
1212.000000	0.000299
1211.000000	0.000330
1210.000000	0.000345
1209.000000	0.000359
1208.000000	0.000382
1207.000000	0.000388
1206.000000	0.000362
1205.000000	0.000326
1204.000000	0.000301
1203.000000	0.000278
1202.000000	0.000253
1201.000000	0.000250
1200.000000	0.000278
1199.000000	0.000301
1198.000000	0.000289
1197.000000	0.000264
1196.000000	0.000253
1195.000000	0.000249
1194.000000	0.000238
1193.000000	0.000235
1192.000000	0.000249
1191.000000	0.000256
1190.000000	0.000236
1189.000000	0.000215
1188.000000	0.000217
1187.000000	0.000232
1186.000000	0.000246
1185.000000	0.000272
1184.000000	0.000307
1183.000000	0.000323
1182.000000	0.000313
1181.000000	0.000318
1180.000000	0.000358
1179.000000	0.000387
1178.000000	0.000371
1177.000000	0.000337
1176.000000	0.000321
1175.000000	0.000314
1174.000000	0.000294
1173.000000	0.000281
1172.000000	0.000294
1171.000000	0.000311
1170.000000	0.000312
1169.000000	0.000321
1168.000000	0.000355
1167.000000	0.000389
1166.000000	0.000396
1165.000000	0.000397
1164.000000	0.000410
1163.000000	0.000411
1162.000000	0.000378
1161.000000	0.000351
1160.000000	0.000364
1159.000000	0.000396
1158.000000	0.000404
1157.000000	0.000397
1156.000000	0.000402
1155.000000	0.000412
1154.000000	0.000405
1153.000000	0.000385
1152.000000	0.000363
1151.000000	0.000323
1150.000000	0.000270
1149.000000	0.000246
1148.000000	0.000274
1147.000000	0.000319
1146.000000	0.000340
1145.000000	0.000348
1144.000000	0.000357
1143.000000	0.000346
1142.000000	0.000303
1141.000000	0.000269
1140.000000	0.000275
1139.000000	0.000297
1138.000000	0.000298
1137.000000	0.000292
1136.000000	0.000302
1135.000000	0.000312
1134.000000	0.000302
1133.000000	0.000289
1132.000000	0.000282
1131.000000	0.000257
1130.000000	0.000202
1129.000000	0.000162
1128.000000	0.000171
1127.000000	0.000211
1126.000000	0.000254
1125.000000	0.000311
1124.000000	0.000384
1123.000000	0.000432
1122.000000	0.000424
1121.000000	0.000392
1120.000000	0.000374
1119.000000	0.000362
1118.000000	0.000343
1117.000000	0.000340
1116.000000	0.000363
1115.000000	0.000379
1114.000000	0.000372
1113.000000	0.000377
1112.000000	0.000420
1111.000000	0.000464
1110.000000	0.000473
1109.000000	0.000462
1108.000000	0.000454
1107.000000	0.000431
1106.000000	0.000390
1105.000000	0.000375
1104.000000	0.000400
1103.000000	0.000414
1102.000000	0.000383
1101.000000	0.000357
1100.000000	0.000387
1099.000000	0.000452
1098.000000	0.000502
1097.000000	0.000533
1096.000000	0.000553
1095.000000	0.000545
1094.000000	0.000510
1093.000000	0.000491
1092.000000	0.000509
1091.000000	0.000528
1090.000000	0.000531
1089.000000	0.000551
1088.000000	0.000601
1087.000000	0.000628
1086.000000	0.000604
1085.000000	0.000575
1084.000000	0.000585
1083.000000	0.000595
1082.000000	0.000559
1081.000000	0.000498
1080.000000	0.000456
1079.000000	0.000434
1078.000000	0.000433
1077.000000	0.000472
1076.000000	0.000539
1075.000000	0.000569
1074.000000	0.000537
1073.000000	0.000508
1072.000000	0.000523
1071.000000	0.000544
1070.000000	0.000538
1069.000000	0.000544
1068.000000	0.000588
1067.000000	0.000619
1066.000000	0.000585
1065.000000	0.000515
1064.000000	0.000460
1063.000000	0.000411
1062.000000	0.000358
1061.000000	0.000340
1060.000000	0.000380
1059.000000	0.000432
1058.000000	0.000452
1057.000000	0.000468
1056.000000	0.000510
1055.000000	0.000549
1054.000000	0.000558
1053.000000	0.000569
1052.000000	0.000610
1051.000000	0.000643
1050.000000	0.000631
1049.000000	0.000602
1048.000000	0.000585
1047.000000	0.000561
1046.000000	0.000521
1045.000000	0.000504
1044.000000	0.000521
1043.000000	0.000527
1042.000000	0.000499
1041.000000	0.000488
1040.000000	0.000514
1039.000000	0.000521
1038.000000	0.000473
1037.000000	0.000421
1036.000000	0.000412
1035.000000	0.000420
1034.000000	0.000415
1033.000000	0.000433
1032.000000	0.000492
1031.000000	0.000540
1030.000000	0.000533
1029.000000	0.000517
1028.000000	0.000537
1027.000000	0.000557
1026.000000	0.000523
1025.000000	0.000453
1024.000000	0.000388
1023.000000	0.000329
1022.000000	0.000277
1021.000000	0.000270
1020.000000	0.000319
1019.000000	0.000364
1018.000000	0.000367
1017.000000	0.000368
1016.000000	0.000411
1015.000000	0.000470
1014.000000	0.000509
1013.000000	0.000533
1012.000000	0.000539
1011.000000	0.000490
1010.000000	0.000400
1009.000000	0.000346
1008.000000	0.000355
1007.000000	0.000355
1006.000000	0.000304
1005.000000	0.000258
1004.000000	0.000269
1003.000000	0.000294
1002.000000	0.000285
1001.000000	0.000274
1000.000000	0.000293
999.000000	0.000304
998.000000	0.000269
997.000000	0.000228
996.000000	0.000228
995.000000	0.000250
994.000000	0.000260
993.000000	0.000277
992.000000	0.000317
991.000000	0.000343
990.000000	0.000336
989.000000	0.000337
988.000000	0.000369
987.000000	0.000381
986.000000	0.000339
985.000000	0.000290
984.000000	0.000277
983.000000	0.000273
982.000000	0.000245
981.000000	0.000221
980.000000	0.000224
979.000000	0.000226
978.000000	0.000214
977.000000	0.000234
976.000000	0.000301
975.000000	0.000350
974.000000	0.000341
973.000000	0.000330
972.000000	0.000374
971.000000	0.000441
970.000000	0.000479
969.000000	0.000505
968.000000	0.000547
967.000000	0.000585
966.000000	0.000601
965.000000	0.000626
964.000000	0.000669
963.000000	0.000679
962.000000	0.000640
961.000000	0.000627
960.000000	0.000693
959.000000	0.000782
958.000000	0.000829
957.000000	0.000853
956.000000	0.000892
955.000000	0.000916
954.000000	0.000899
953.000000	0.000887
952.000000	0.000922
951.000000	0.000970
950.000000	0.000982
949.000000	0.000972
948.000000	0.000966
947.000000	0.000938
946.000000	0.000874
945.000000	0.000818
944.000000	0.000795
943.000000	0.000771
942.000000	0.000732
941.000000	0.000727
940.000000	0.000771
939.000000	0.000793
938.000000	0.000740
937.000000	0.000665
936.000000	0.000629
935.000000	0.000620
934.000000	0.000604
933.000000	0.000603
932.000000	0.000624
931.000000	0.000618
930.000000	0.000560
929.000000	0.000505
928.000000	0.000495
927.000000	0.000489
926.000000	0.000450
925.000000	0.000411
924.000000	0.000397
923.000000	0.000364
922.000000	0.000295
921.000000	0.000250
920.000000	0.000270
919.000000	0.000306
918.000000	0.000309
917.000000	0.000305
916.000000	0.000312
915.000000	0.000286
914.000000	0.000215
913.000000	0.000171
912.000000	0.000193
911.000000	0.000222
910.000000	0.000217
909.000000	0.000227
908.000000	0.000278
907.000000	0.000297
906.000000	0.000235
905.000000	0.000163
904.000000	0.000157
903.000000	0.000175
902.000000	0.000155
901.000000	0.000128
900.000000	0.000141
899.000000	0.000151
898.000000	0.000115
897.000000	0.000078
896.000000	0.000092
895.000000	0.000119
894.000000	0.000110
893.000000	0.000100
892.000000	0.000124
891.000000	0.000128
890.000000	0.000059
889.000000	-0.000034
888.000000	-0.000086
887.000000	-0.000113
886.000000	-0.000146
885.000000	-0.000153
884.000000	-0.000113
883.000000	-0.000080
882.000000	-0.000093
881.000000	-0.000105
880.000000	-0.000073
879.000000	-0.000042
878.000000	-0.000047
877.000000	-0.000038
876.000000	0.000017
875.000000	0.000052
874.000000	0.000024
873.000000	-0.000003
872.000000	0.000017
871.000000	0.000016
870.000000	-0.000057
869.000000	-0.000129
868.000000	-0.000135
867.000000	-0.000122
866.000000	-0.000141
865.000000	-0.000137
864.000000	-0.000067
863.000000	-0.000013
862.000000	-0.000052
861.000000	-0.000125
860.000000	-0.000137
859.000000	-0.000107
858.000000	-0.000097
857.000000	-0.000094
856.000000	-0.000060
855.000000	-0.000016
854.000000	0.000017
853.000000	0.000086
852.000000	0.000208
851.000000	0.000303
850.000000	0.000317
849.000000	0.000310
848.000000	0.000343
847.000000	0.000367
846.000000	0.000348
845.000000	0.000359
844.000000	0.000467
843.000000	0.000603
842.000000	0.000682
841.000000	0.000739
840.000000	0.000832
839.000000	0.000927
838.000000	0.000974
837.000000	0.001019
836.000000	0.001109
835.000000	0.001188
834.000000	0.001192
833.000000	0.001152
832.000000	0.001117
831.000000	0.001061
830.000000	0.000967
829.000000	0.000909
828.000000	0.000931
827.000000	0.000959
826.000000	0.000931
825.000000	0.000905
824.000000	0.000932
823.000000	0.000948
822.000000	0.000909
821.000000	0.000896
820.000000	0.000971
819.000000	0.001067
818.000000	0.001111
817.000000	0.001134
816.000000	0.001163
815.000000	0.001131
814.000000	0.001015
813.000000	0.000915
812.000000	0.000906
811.000000	0.000913
810.000000	0.000859
809.000000	0.000797
808.000000	0.000793
807.000000	0.000805
806.000000	0.000774
805.000000	0.000739
804.000000	0.000737
803.000000	0.000718
802.000000	0.000666
801.000000	0.000676
800.000000	0.000793
799.000000	0.000907
798.000000	0.000918
797.000000	0.000881
796.000000	0.000864
795.000000	0.000813
794.000000	0.000681
793.000000	0.000557
792.000000	0.000538
791.000000	0.000580
790.000000	0.000610
789.000000	0.000649
788.000000	0.000722
787.000000	0.000755
786.000000	0.000691
785.000000	0.000608
784.000000	0.000595
783.000000	0.000624
782.000000	0.000634
781.000000	0.000644
780.000000	0.000673
779.000000	0.000665
778.000000	0.000597
777.000000	0.000549
776.000000	0.000577
775.000000	0.000612
774.000000	0.000600
773.000000	0.000598
772.000000	0.000651
771.000000	0.000687
770.000000	0.000645
769.000000	0.000597
768.000000	0.000625
767.000000	0.000687
766.000000	0.000720
765.000000	0.000750
764.000000	0.000802
763.000000	0.000808
762.000000	0.000725
761.000000	0.000631
760.000000	0.000599
759.000000	0.000581
758.000000	0.000528
757.000000	0.000494
756.000000	0.000526
755.000000	0.000562
754.000000	0.000550
753.000000	0.000551
752.000000	0.000615
751.000000	0.000665
750.000000	0.000628
749.000000	0.000570
748.000000	0.000567
747.000000	0.000579
746.000000	0.000562
745.000000	0.000579
744.000000	0.000685
743.000000	0.000802
742.000000	0.000848
741.000000	0.000866
740.000000	0.000909
739.000000	0.000918
738.000000	0.000824
737.000000	0.000691
736.000000	0.000622
735.000000	0.000618
734.000000	0.000638
733.000000	0.000690
732.000000	0.000769
731.000000	0.000794
730.000000	0.000733
729.000000	0.000677
728.000000	0.000690
727.000000	0.000703
726.000000	0.000641
725.000000	0.000557
724.000000	0.000520
723.000000	0.000504
722.000000	0.000470
721.000000	0.000460
720.000000	0.000492
719.000000	0.000493
718.000000	0.000440
717.000000	0.000424
716.000000	0.000488
715.000000	0.000532
714.000000	0.000486
713.000000	0.000437
712.000000	0.000468
711.000000	0.000516
710.000000	0.000493
709.000000	0.000428
708.000000	0.000370
707.000000	0.000292
706.000000	0.000205
705.000000	0.000217
704.000000	0.000357
703.000000	0.000480
702.000000	0.000470
701.000000	0.000410
700.000000	0.000418
699.000000	0.000460
698.000000	0.000457
697.000000	0.000434
696.000000	0.000431
695.000000	0.000395
694.000000	0.000307
693.000000	0.000266
692.000000	0.000323
691.000000	0.000371
690.000000	0.000315
689.000000	0.000224
688.000000	0.000189
687.000000	0.000166
686.000000	0.000113
685.000000	0.000103
684.000000	0.000173
683.000000	0.000213
682.000000	0.000149
681.000000	0.000081
680.000000	0.000100
679.000000	0.000129
678.000000	0.000086
677.000000	0.000054
676.000000	0.000118
675.000000	0.000200
674.000000	0.000209
673.000000	0.000196
672.000000	0.000228
671.000000	0.000244
670.000000	0.000165
669.000000	0.000031
668.000000	-0.000050
667.000000	-0.000049
666.000000	-0.000061
665.000000	-0.000035
664.000000	0.000085
663.000000	0.000184
662.000000	0.000151
661.000000	0.000061
660.000000	0.000019
659.000000	-0.000012
658.000000	-0.000069
657.000000	-0.000051
656.000000	0.000093
655.000000	0.000218
654.000000	0.000192
653.000000	0.000100
652.000000	0.000059
651.000000	0.000038
650.000000	-0.000004
649.000000	0.000018
648.000000	0.000152
647.000000	0.000282
646.000000	0.000320
645.000000	0.000339
644.000000	0.000383
643.000000	0.000344
642.000000	0.000171
641.000000	0.000012
640.000000	-0.000015
639.000000	-0.000002
638.000000	-0.000038
637.000000	-0.000042
636.000000	0.000050
635.000000	0.000123
634.000000	0.000089
633.000000	0.000046
632.000000	0.000064
631.000000	0.000035
630.000000	-0.000100
629.000000	-0.000176
628.000000	-0.000068
627.000000	0.000094
626.000000	0.000141
625.000000	0.000122
624.000000	0.000136
623.000000	0.000115
622.000000	-0.000010
621.000000	-0.000119
620.000000	-0.000090
619.000000	0.000003
618.000000	0.000056
617.000000	0.000121
616.000000	0.000240
615.000000	0.000296
614.000000	0.000226
613.000000	0.000171
612.000000	0.000240
611.000000	0.000314
610.000000	0.000288
609.000000	0.000276
608.000000	0.000384
607.000000	0.000480
606.000000	0.000429
605.000000	0.000335
604.000000	0.000326
603.000000	0.000326
602.000000	0.000247
601.000000	0.000200
600.000000	0.000275
599.000000	0.000336
598.000000	0.000253
597.000000	0.000147
596.000000	0.000164
595.000000	0.000223
594.000000	0.000192
593.000000	0.000121
592.000000	0.000099
591.000000	0.000067
590.000000	-0.000011
589.000000	-0.000021
588.000000	0.000075
587.000000	0.000119
586.000000	0.000043
585.000000	0.000024
584.000000	0.000165
583.000000	0.000280
582.000000	0.000218
581.000000	0.000118
580.000000	0.000113
579.000000	0.000081
578.000000	-0.000079
577.000000	-0.000192
576.000000	-0.000097
575.000000	0.000074
574.000000	0.000158
573.000000	0.000234
572.000000	0.000371
571.000000	0.000408
570.000000	0.000250
569.000000	0.000108
568.000000	0.000151
567.000000	0.000219
566.000000	0.000151
565.000000	0.000089
564.000000	0.000178
563.000000	0.000250
562.000000	0.000116
561.000000	-0.000100
560.000000	-0.000183
559.000000	-0.000135
558.000000	-0.000015
557.000000	0.000245
556.000000	0.000603
555.000000	0.000801
554.000000	0.000726
553.000000	0.000591
552.000000	0.000534
551.000000	0.000385
550.000000	0.000079
549.000000	-0.000097
548.000000	0.000015
547.000000	0.000121
546.000000	-0.000050
545.000000	-0.000297
544.000000	-0.000337
543.000000	-0.000254
542.000000	-0.000217
541.000000	-0.000129
540.000000	0.000092
539.000000	0.000208
538.000000	0.000040
537.000000	-0.000183
536.000000	-0.000188
535.000000	-0.000085
534.000000	-0.000081
533.000000	-0.000100
532.000000	-0.000021
531.000000	0.000011
530.000000	-0.000127
529.000000	-0.000256
528.000000	-0.000208
527.000000	-0.000138
526.000000	-0.000208
525.000000	-0.000247
524.000000	-0.000107
523.000000	0.000028
522.000000	0.000003
521.000000	-0.000014
520.000000	0.000112
519.000000	0.000184
518.000000	0.000049
517.000000	-0.000082
516.000000	-0.000057
515.000000	-0.000105
514.000000	-0.000355
513.000000	-0.000530
512.000000	-0.000421
511.000000	-0.000240
510.000000	-0.000196
509.000000	-0.000134
508.000000	0.000066
507.000000	0.000131
506.000000	-0.000111
505.000000	-0.000326
504.000000	-0.000209
503.000000	0.000024
502.000000	0.000076
501.000000	0.000108
500.000000	0.000348
499.000000	0.000596
498.000000	0.000610
497.000000	0.000537
496.000000	0.000577
495.000000	0.000588
494.000000	0.000431
493.000000	0.000312
492.000000	0.000379
491.000000	0.000368
490.000000	0.000113
489.000000	-0.000047
488.000000	0.000144
487.000000	0.000346
486.000000	0.000163
485.000000	-0.000209
484.000000	-0.000349
483.000000	-0.000316
482.000000	-0.000372
481.000000	-0.000436
480.000000	-0.000347
479.000000	-0.000277
478.000000	-0.000367
477.000000	-0.000359
476.000000	-0.000066
475.000000	0.000172
474.000000	0.000034
473.000000	-0.000179
472.000000	-0.000031
471.000000	0.000259
470.000000	0.000290
469.000000	0.000174
468.000000	0.000127
467.000000	-0.000023
466.000000	-0.000398
465.000000	-0.000629
464.000000	-0.000425
463.000000	-0.000066
462.000000	0.000116
461.000000	0.000315
460.000000	0.000757
459.000000	0.001138
458.000000	0.001131
457.000000	0.001040
456.000000	0.001180
455.000000	0.001202
454.000000	0.000851
453.000000	0.000515
452.000000	0.000583
451.000000	0.000792
450.000000	0.000839
