PE IR       SUBTECH     SPECTRUM    ASCII       PEDS        4.00        
   -1
P12-Bleu043_1.ASC
23/06/08
11:46:04.00
23/06/08
11:52:51.00
uco
Sample 043 By uco Date Thursday, June 08 2023
450.000000
#HDR
-1
-1
#GR
cm-1
A
1.0
0.0
4000.000000
-1.000000
3551
8
0.021481
0.000416
#DATA
4000.000000	0.001254
3999.000000	0.001257
3998.000000	0.001255
3997.000000	0.001253
3996.000000	0.001256
3995.000000	0.001265
3994.000000	0.001272
3993.000000	0.001271
3992.000000	0.001258
3991.000000	0.001239
3990.000000	0.001224
3989.000000	0.001220
3988.000000	0.001229
3987.000000	0.001246
3986.000000	0.001269
3985.000000	0.001294
3984.000000	0.001315
3983.000000	0.001325
3982.000000	0.001326
3981.000000	0.001321
3980.000000	0.001318
3979.000000	0.001316
3978.000000	0.001312
3977.000000	0.001304
3976.000000	0.001290
3975.000000	0.001274
3974.000000	0.001260
3973.000000	0.001254
3972.000000	0.001255
3971.000000	0.001259
3970.000000	0.001264
3969.000000	0.001271
3968.000000	0.001283
3967.000000	0.001302
3966.000000	0.001324
3965.000000	0.001339
3964.000000	0.001345
3963.000000	0.001342
3962.000000	0.001336
3961.000000	0.001328
3960.000000	0.001316
3959.000000	0.001302
3958.000000	0.001289
3957.000000	0.001282
3956.000000	0.001279
3955.000000	0.001278
3954.000000	0.001276
3953.000000	0.001279
3952.000000	0.001292
3951.000000	0.001319
3950.000000	0.001351
3949.000000	0.001376
3948.000000	0.001385
3947.000000	0.001380
3946.000000	0.001366
3945.000000	0.001349
3944.000000	0.001332
3943.000000	0.001316
3942.000000	0.001306
3941.000000	0.001305
3940.000000	0.001315
3939.000000	0.001334
3938.000000	0.001360
3937.000000	0.001384
3936.000000	0.001400
3935.000000	0.001406
3934.000000	0.001404
3933.000000	0.001397
3932.000000	0.001382
3931.000000	0.001357
3930.000000	0.001329
3929.000000	0.001309
3928.000000	0.001297
3927.000000	0.001290
3926.000000	0.001286
3925.000000	0.001287
3924.000000	0.001303
3923.000000	0.001332
3922.000000	0.001366
3921.000000	0.001399
3920.000000	0.001428
3919.000000	0.001454
3918.000000	0.001475
3917.000000	0.001479
3916.000000	0.001464
3915.000000	0.001436
3914.000000	0.001407
3913.000000	0.001385
3912.000000	0.001373
3911.000000	0.001373
3910.000000	0.001382
3909.000000	0.001400
3908.000000	0.001423
3907.000000	0.001454
3906.000000	0.001498
3905.000000	0.001564
3904.000000	0.001645
3903.000000	0.001714
3902.000000	0.001726
3901.000000	0.001666
3900.000000	0.001556
3899.000000	0.001449
3898.000000	0.001383
3897.000000	0.001357
3896.000000	0.001350
3895.000000	0.001343
3894.000000	0.001328
3893.000000	0.001313
3892.000000	0.001321
3891.000000	0.001366
3890.000000	0.001431
3889.000000	0.001481
3888.000000	0.001499
3887.000000	0.001493
3886.000000	0.001485
3885.000000	0.001491
3884.000000	0.001506
3883.000000	0.001506
3882.000000	0.001481
3881.000000	0.001448
3880.000000	0.001437
3879.000000	0.001459
3878.000000	0.001486
3877.000000	0.001493
3876.000000	0.001475
3875.000000	0.001451
3874.000000	0.001449
3873.000000	0.001474
3872.000000	0.001505
3871.000000	0.001523
3870.000000	0.001528
3869.000000	0.001534
3868.000000	0.001538
3867.000000	0.001530
3866.000000	0.001504
3865.000000	0.001468
3864.000000	0.001442
3863.000000	0.001443
3862.000000	0.001463
3861.000000	0.001489
3860.000000	0.001505
3859.000000	0.001511
3858.000000	0.001514
3857.000000	0.001527
3856.000000	0.001552
3855.000000	0.001573
3854.000000	0.001583
3853.000000	0.001584
3852.000000	0.001573
3851.000000	0.001551
3850.000000	0.001534
3849.000000	0.001523
3848.000000	0.001514
3847.000000	0.001500
3846.000000	0.001481
3845.000000	0.001466
3844.000000	0.001464
3843.000000	0.001479
3842.000000	0.001502
3841.000000	0.001520
3840.000000	0.001524
3839.000000	0.001522
3838.000000	0.001525
3837.000000	0.001531
3836.000000	0.001532
3835.000000	0.001521
3834.000000	0.001502
3833.000000	0.001479
3832.000000	0.001460
3831.000000	0.001454
3830.000000	0.001455
3829.000000	0.001449
3828.000000	0.001430
3827.000000	0.001411
3826.000000	0.001419
3825.000000	0.001458
3824.000000	0.001509
3823.000000	0.001537
3822.000000	0.001526
3821.000000	0.001504
3820.000000	0.001508
3819.000000	0.001530
3818.000000	0.001540
3817.000000	0.001521
3816.000000	0.001480
3815.000000	0.001436
3814.000000	0.001401
3813.000000	0.001376
3812.000000	0.001372
3811.000000	0.001398
3810.000000	0.001453
3809.000000	0.001518
3808.000000	0.001572
3807.000000	0.001609
3806.000000	0.001633
3805.000000	0.001644
3804.000000	0.001630
3803.000000	0.001583
3802.000000	0.001509
3801.000000	0.001447
3800.000000	0.001430
3799.000000	0.001444
3798.000000	0.001461
3797.000000	0.001464
3796.000000	0.001454
3795.000000	0.001439
3794.000000	0.001425
3793.000000	0.001414
3792.000000	0.001405
3791.000000	0.001396
3790.000000	0.001379
3789.000000	0.001356
3788.000000	0.001332
3787.000000	0.001318
3786.000000	0.001320
3785.000000	0.001332
3784.000000	0.001348
3783.000000	0.001361
3782.000000	0.001366
3781.000000	0.001356
3780.000000	0.001337
3779.000000	0.001323
3778.000000	0.001321
3777.000000	0.001323
3776.000000	0.001325
3775.000000	0.001335
3774.000000	0.001362
3773.000000	0.001400
3772.000000	0.001439
3771.000000	0.001467
3770.000000	0.001483
3769.000000	0.001492
3768.000000	0.001488
3767.000000	0.001467
3766.000000	0.001433
3765.000000	0.001403
3764.000000	0.001389
3763.000000	0.001398
3762.000000	0.001422
3761.000000	0.001450
3760.000000	0.001474
3759.000000	0.001489
3758.000000	0.001492
3757.000000	0.001487
3756.000000	0.001482
3755.000000	0.001493
3754.000000	0.001533
3753.000000	0.001605
3752.000000	0.001697
3751.000000	0.001785
3750.000000	0.001843
3749.000000	0.001859
3748.000000	0.001835
3747.000000	0.001784
3746.000000	0.001719
3745.000000	0.001661
3744.000000	0.001638
3743.000000	0.001642
3742.000000	0.001638
3741.000000	0.001623
3740.000000	0.001618
3739.000000	0.001642
3738.000000	0.001696
3737.000000	0.001757
3736.000000	0.001783
3735.000000	0.001749
3734.000000	0.001678
3733.000000	0.001614
3732.000000	0.001580
3731.000000	0.001580
3730.000000	0.001599
3729.000000	0.001627
3728.000000	0.001651
3727.000000	0.001662
3726.000000	0.001659
3725.000000	0.001643
3724.000000	0.001612
3723.000000	0.001563
3722.000000	0.001504
3721.000000	0.001447
3720.000000	0.001398
3719.000000	0.001366
3718.000000	0.001353
3717.000000	0.001356
3716.000000	0.001368
3715.000000	0.001386
3714.000000	0.001419
3713.000000	0.001475
3712.000000	0.001546
3711.000000	0.001603
3710.000000	0.001611
3709.000000	0.001561
3708.000000	0.001477
3707.000000	0.001391
3706.000000	0.001328
3705.000000	0.001284
3704.000000	0.001241
3703.000000	0.001198
3702.000000	0.001172
3701.000000	0.001183
3700.000000	0.001228
3699.000000	0.001280
3698.000000	0.001321
3697.000000	0.001349
3696.000000	0.001379
3695.000000	0.001422
3694.000000	0.001470
3693.000000	0.001497
3692.000000	0.001480
3691.000000	0.001428
3690.000000	0.001377
3689.000000	0.001356
3688.000000	0.001366
3687.000000	0.001387
3686.000000	0.001403
3685.000000	0.001412
3684.000000	0.001422
3683.000000	0.001445
3682.000000	0.001479
3681.000000	0.001509
3680.000000	0.001527
3679.000000	0.001541
3678.000000	0.001564
3677.000000	0.001590
3676.000000	0.001601
3675.000000	0.001604
3674.000000	0.001613
3673.000000	0.001613
3672.000000	0.001592
3671.000000	0.001552
3670.000000	0.001508
3669.000000	0.001477
3668.000000	0.001458
3667.000000	0.001436
3666.000000	0.001413
3665.000000	0.001393
3664.000000	0.001371
3663.000000	0.001341
3662.000000	0.001306
3661.000000	0.001276
3660.000000	0.001266
3659.000000	0.001287
3658.000000	0.001339
3657.000000	0.001412
3656.000000	0.001495
3655.000000	0.001569
3654.000000	0.001620
3653.000000	0.001647
3652.000000	0.001661
3651.000000	0.001676
3650.000000	0.001694
3649.000000	0.001680
3648.000000	0.001613
3647.000000	0.001523
3646.000000	0.001454
3645.000000	0.001411
3644.000000	0.001382
3643.000000	0.001362
3642.000000	0.001352
3641.000000	0.001349
3640.000000	0.001345
3639.000000	0.001334
3638.000000	0.001325
3637.000000	0.001335
3636.000000	0.001366
3635.000000	0.001411
3634.000000	0.001457
3633.000000	0.001499
3632.000000	0.001547
3631.000000	0.001604
3630.000000	0.001658
3629.000000	0.001680
3628.000000	0.001664
3627.000000	0.001631
3626.000000	0.001591
3625.000000	0.001549
3624.000000	0.001498
3623.000000	0.001431
3622.000000	0.001345
3621.000000	0.001256
3620.000000	0.001206
3619.000000	0.001239
3618.000000	0.001345
3617.000000	0.001461
3616.000000	0.001536
3615.000000	0.001561
3614.000000	0.001559
3613.000000	0.001563
3612.000000	0.001592
3611.000000	0.001637
3610.000000	0.001673
3609.000000	0.001675
3608.000000	0.001634
3607.000000	0.001570
3606.000000	0.001504
3605.000000	0.001447
3604.000000	0.001408
3603.000000	0.001397
3602.000000	0.001416
3601.000000	0.001446
3600.000000	0.001460
3599.000000	0.001445
3598.000000	0.001410
3597.000000	0.001370
3596.000000	0.001343
3595.000000	0.001346
3594.000000	0.001383
3593.000000	0.001439
3592.000000	0.001494
3591.000000	0.001535
3590.000000	0.001547
3589.000000	0.001520
3588.000000	0.001460
3587.000000	0.001403
3586.000000	0.001377
3585.000000	0.001380
3584.000000	0.001394
3583.000000	0.001411
3582.000000	0.001428
3581.000000	0.001438
3580.000000	0.001439
3579.000000	0.001438
3578.000000	0.001440
3577.000000	0.001441
3576.000000	0.001434
3575.000000	0.001419
3574.000000	0.001405
3573.000000	0.001399
3572.000000	0.001407
3571.000000	0.001435
3570.000000	0.001479
3569.000000	0.001527
3568.000000	0.001566
3567.000000	0.001588
3566.000000	0.001595
3565.000000	0.001586
3564.000000	0.001558
3563.000000	0.001517
3562.000000	0.001478
3561.000000	0.001452
3560.000000	0.001439
3559.000000	0.001432
3558.000000	0.001428
3557.000000	0.001424
3556.000000	0.001425
3555.000000	0.001436
3554.000000	0.001457
3553.000000	0.001481
3552.000000	0.001503
3551.000000	0.001529
3550.000000	0.001558
3549.000000	0.001579
3548.000000	0.001581
3547.000000	0.001561
3546.000000	0.001529
3545.000000	0.001501
3544.000000	0.001491
3543.000000	0.001500
3542.000000	0.001518
3541.000000	0.001529
3540.000000	0.001528
3539.000000	0.001522
3538.000000	0.001518
3537.000000	0.001510
3536.000000	0.001493
3535.000000	0.001471
3534.000000	0.001454
3533.000000	0.001449
3532.000000	0.001450
3531.000000	0.001450
3530.000000	0.001446
3529.000000	0.001446
3528.000000	0.001464
3527.000000	0.001506
3526.000000	0.001556
3525.000000	0.001587
3524.000000	0.001582
3523.000000	0.001549
3522.000000	0.001508
3521.000000	0.001472
3520.000000	0.001446
3519.000000	0.001434
3518.000000	0.001440
3517.000000	0.001454
3516.000000	0.001463
3515.000000	0.001462
3514.000000	0.001459
3513.000000	0.001462
3512.000000	0.001474
3511.000000	0.001485
3510.000000	0.001486
3509.000000	0.001476
3508.000000	0.001466
3507.000000	0.001473
3506.000000	0.001500
3505.000000	0.001535
3504.000000	0.001567
3503.000000	0.001596
3502.000000	0.001626
3501.000000	0.001649
3500.000000	0.001654
3499.000000	0.001639
3498.000000	0.001615
3497.000000	0.001592
3496.000000	0.001581
3495.000000	0.001584
3494.000000	0.001599
3493.000000	0.001620
3492.000000	0.001639
3491.000000	0.001652
3490.000000	0.001659
3489.000000	0.001659
3488.000000	0.001657
3487.000000	0.001659
3486.000000	0.001668
3485.000000	0.001679
3484.000000	0.001689
3483.000000	0.001697
3482.000000	0.001705
3481.000000	0.001709
3480.000000	0.001709
3479.000000	0.001713
3478.000000	0.001725
3477.000000	0.001738
3476.000000	0.001743
3475.000000	0.001743
3474.000000	0.001748
3473.000000	0.001769
3472.000000	0.001807
3471.000000	0.001852
3470.000000	0.001890
3469.000000	0.001905
3468.000000	0.001893
3467.000000	0.001868
3466.000000	0.001853
3465.000000	0.001866
3464.000000	0.001905
3463.000000	0.001954
3462.000000	0.001991
3461.000000	0.002005
3460.000000	0.002002
3459.000000	0.002000
3458.000000	0.002013
3457.000000	0.002040
3456.000000	0.002074
3455.000000	0.002111
3454.000000	0.002148
3453.000000	0.002184
3452.000000	0.002217
3451.000000	0.002254
3450.000000	0.002299
3449.000000	0.002360
3448.000000	0.002443
3447.000000	0.002548
3446.000000	0.002657
3445.000000	0.002751
3444.000000	0.002826
3443.000000	0.002897
3442.000000	0.002983
3441.000000	0.003093
3440.000000	0.003230
3439.000000	0.003389
3438.000000	0.003564
3437.000000	0.003744
3436.000000	0.003929
3435.000000	0.004124
3434.000000	0.004328
3433.000000	0.004533
3432.000000	0.004726
3431.000000	0.004900
3430.000000	0.005047
3429.000000	0.005161
3428.000000	0.005246
3427.000000	0.005311
3426.000000	0.005357
3425.000000	0.005369
3424.000000	0.005341
3423.000000	0.005282
3422.000000	0.005210
3421.000000	0.005139
3420.000000	0.005071
3419.000000	0.005002
3418.000000	0.004930
3417.000000	0.004857
3416.000000	0.004792
3415.000000	0.004743
3414.000000	0.004703
3413.000000	0.004659
3412.000000	0.004604
3411.000000	0.004541
3410.000000	0.004473
3409.000000	0.004397
3408.000000	0.004316
3407.000000	0.004248
3406.000000	0.004204
3405.000000	0.004180
3404.000000	0.004166
3403.000000	0.004155
3402.000000	0.004141
3401.000000	0.004114
3400.000000	0.004063
3399.000000	0.003993
3398.000000	0.003922
3397.000000	0.003869
3396.000000	0.003836
3395.000000	0.003816
3394.000000	0.003794
3393.000000	0.003764
3392.000000	0.003730
3391.000000	0.003703
3390.000000	0.003685
3389.000000	0.003668
3388.000000	0.003649
3387.000000	0.003637
3386.000000	0.003636
3385.000000	0.003635
3384.000000	0.003612
3383.000000	0.003561
3382.000000	0.003497
3381.000000	0.003443
3380.000000	0.003415
3379.000000	0.003417
3378.000000	0.003435
3377.000000	0.003453
3376.000000	0.003464
3375.000000	0.003470
3374.000000	0.003475
3373.000000	0.003479
3372.000000	0.003480
3371.000000	0.003479
3370.000000	0.003477
3369.000000	0.003467
3368.000000	0.003444
3367.000000	0.003414
3366.000000	0.003387
3365.000000	0.003367
3364.000000	0.003356
3363.000000	0.003351
3362.000000	0.003347
3361.000000	0.003336
3360.000000	0.003318
3359.000000	0.003298
3358.000000	0.003284
3357.000000	0.003280
3356.000000	0.003285
3355.000000	0.003299
3354.000000	0.003316
3353.000000	0.003322
3352.000000	0.003309
3351.000000	0.003283
3350.000000	0.003260
3349.000000	0.003247
3348.000000	0.003247
3347.000000	0.003255
3346.000000	0.003268
3345.000000	0.003280
3344.000000	0.003287
3343.000000	0.003289
3342.000000	0.003289
3341.000000	0.003288
3340.000000	0.003286
3339.000000	0.003279
3338.000000	0.003267
3337.000000	0.003249
3336.000000	0.003230
3335.000000	0.003216
3334.000000	0.003211
3333.000000	0.003210
3332.000000	0.003210
3331.000000	0.003216
3330.000000	0.003225
3329.000000	0.003227
3328.000000	0.003212
3327.000000	0.003190
3326.000000	0.003172
3325.000000	0.003161
3324.000000	0.003147
3323.000000	0.003124
3322.000000	0.003098
3321.000000	0.003080
3320.000000	0.003074
3319.000000	0.003079
3318.000000	0.003089
3317.000000	0.003096
3316.000000	0.003096
3315.000000	0.003098
3314.000000	0.003104
3313.000000	0.003104
3312.000000	0.003083
3311.000000	0.003046
3310.000000	0.003013
3309.000000	0.003005
3308.000000	0.003027
3307.000000	0.003064
3306.000000	0.003098
3305.000000	0.003112
3304.000000	0.003105
3303.000000	0.003086
3302.000000	0.003072
3301.000000	0.003073
3300.000000	0.003085
3299.000000	0.003093
3298.000000	0.003083
3297.000000	0.003055
3296.000000	0.003025
3295.000000	0.003014
3294.000000	0.003027
3293.000000	0.003045
3292.000000	0.003048
3291.000000	0.003031
3290.000000	0.003005
3289.000000	0.002985
3288.000000	0.002975
3287.000000	0.002970
3286.000000	0.002963
3285.000000	0.002951
3284.000000	0.002944
3283.000000	0.002947
3282.000000	0.002956
3281.000000	0.002958
3280.000000	0.002948
3279.000000	0.002935
3278.000000	0.002933
3277.000000	0.002949
3276.000000	0.002977
3275.000000	0.003001
3274.000000	0.003008
3273.000000	0.002993
3272.000000	0.002964
3271.000000	0.002932
3270.000000	0.002908
3269.000000	0.002896
3268.000000	0.002897
3267.000000	0.002905
3266.000000	0.002907
3265.000000	0.002896
3264.000000	0.002879
3263.000000	0.002868
3262.000000	0.002868
3261.000000	0.002864
3260.000000	0.002847
3259.000000	0.002826
3258.000000	0.002820
3257.000000	0.002833
3256.000000	0.002854
3255.000000	0.002870
3254.000000	0.002874
3253.000000	0.002862
3252.000000	0.002841
3251.000000	0.002822
3250.000000	0.002816
3249.000000	0.002825
3248.000000	0.002843
3247.000000	0.002863
3246.000000	0.002870
3245.000000	0.002857
3244.000000	0.002829
3243.000000	0.002806
3242.000000	0.002800
3241.000000	0.002804
3240.000000	0.002801
3239.000000	0.002789
3238.000000	0.002782
3237.000000	0.002792
3236.000000	0.002816
3235.000000	0.002839
3234.000000	0.002851
3233.000000	0.002846
3232.000000	0.002832
3231.000000	0.002817
3230.000000	0.002803
3229.000000	0.002783
3228.000000	0.002760
3227.000000	0.002751
3226.000000	0.002766
3225.000000	0.002794
3224.000000	0.002811
3223.000000	0.002808
3222.000000	0.002792
3221.000000	0.002781
3220.000000	0.002782
3219.000000	0.002792
3218.000000	0.002805
3217.000000	0.002810
3216.000000	0.002799
3215.000000	0.002773
3214.000000	0.002740
3213.000000	0.002716
3212.000000	0.002714
3211.000000	0.002734
3210.000000	0.002753
3209.000000	0.002746
3208.000000	0.002706
3207.000000	0.002653
3206.000000	0.002616
3205.000000	0.002605
3204.000000	0.002609
3203.000000	0.002618
3202.000000	0.002626
3201.000000	0.002632
3200.000000	0.002633
3199.000000	0.002628
3198.000000	0.002619
3197.000000	0.002613
3196.000000	0.002616
3195.000000	0.002631
3194.000000	0.002654
3193.000000	0.002675
3192.000000	0.002685
3191.000000	0.002682
3190.000000	0.002669
3189.000000	0.002649
3188.000000	0.002628
3187.000000	0.002616
3186.000000	0.002617
3185.000000	0.002626
3184.000000	0.002633
3183.000000	0.002636
3182.000000	0.002637
3181.000000	0.002640
3180.000000	0.002641
3179.000000	0.002639
3178.000000	0.002633
3177.000000	0.002625
3176.000000	0.002616
3175.000000	0.002604
3174.000000	0.002588
3173.000000	0.002570
3172.000000	0.002559
3171.000000	0.002568
3170.000000	0.002599
3169.000000	0.002636
3168.000000	0.002657
3167.000000	0.002658
3166.000000	0.002651
3165.000000	0.002650
3164.000000	0.002658
3163.000000	0.002665
3162.000000	0.002664
3161.000000	0.002652
3160.000000	0.002635
3159.000000	0.002622
3158.000000	0.002621
3157.000000	0.002634
3156.000000	0.002659
3155.000000	0.002686
3154.000000	0.002701
3153.000000	0.002692
3152.000000	0.002662
3151.000000	0.002628
3150.000000	0.002608
3149.000000	0.002606
3148.000000	0.002614
3147.000000	0.002625
3146.000000	0.002634
3145.000000	0.002634
3144.000000	0.002623
3143.000000	0.002603
3142.000000	0.002583
3141.000000	0.002572
3140.000000	0.002574
3139.000000	0.002582
3138.000000	0.002589
3137.000000	0.002594
3136.000000	0.002598
3135.000000	0.002610
3134.000000	0.002628
3133.000000	0.002647
3132.000000	0.002660
3131.000000	0.002668
3130.000000	0.002671
3129.000000	0.002669
3128.000000	0.002661
3127.000000	0.002655
3126.000000	0.002657
3125.000000	0.002663
3124.000000	0.002668
3123.000000	0.002667
3122.000000	0.002663
3121.000000	0.002656
3120.000000	0.002654
3119.000000	0.002665
3118.000000	0.002687
3117.000000	0.002704
3116.000000	0.002701
3115.000000	0.002680
3114.000000	0.002658
3113.000000	0.002643
3112.000000	0.002631
3111.000000	0.002616
3110.000000	0.002593
3109.000000	0.002566
3108.000000	0.002546
3107.000000	0.002538
3106.000000	0.002542
3105.000000	0.002551
3104.000000	0.002566
3103.000000	0.002590
3102.000000	0.002620
3101.000000	0.002645
3100.000000	0.002652
3099.000000	0.002640
3098.000000	0.002616
3097.000000	0.002591
3096.000000	0.002577
3095.000000	0.002583
3094.000000	0.002605
3093.000000	0.002629
3092.000000	0.002641
3091.000000	0.002637
3090.000000	0.002629
3089.000000	0.002630
3088.000000	0.002649
3087.000000	0.002677
3086.000000	0.002695
3085.000000	0.002689
3084.000000	0.002661
3083.000000	0.002637
3082.000000	0.002634
3081.000000	0.002651
3080.000000	0.002663
3079.000000	0.002653
3078.000000	0.002617
3077.000000	0.002567
3076.000000	0.002523
3075.000000	0.002500
3074.000000	0.002500
3073.000000	0.002513
3072.000000	0.002527
3071.000000	0.002539
3070.000000	0.002552
3069.000000	0.002572
3068.000000	0.002597
3067.000000	0.002622
3066.000000	0.002641
3065.000000	0.002652
3064.000000	0.002654
3063.000000	0.002650
3062.000000	0.002642
3061.000000	0.002631
3060.000000	0.002624
3059.000000	0.002625
3058.000000	0.002631
3057.000000	0.002631
3056.000000	0.002623
3055.000000	0.002612
3054.000000	0.002601
3053.000000	0.002585
3052.000000	0.002565
3051.000000	0.002547
3050.000000	0.002538
3049.000000	0.002536
3048.000000	0.002537
3047.000000	0.002541
3046.000000	0.002553
3045.000000	0.002570
3044.000000	0.002584
3043.000000	0.002587
3042.000000	0.002580
3041.000000	0.002565
3040.000000	0.002552
3039.000000	0.002550
3038.000000	0.002562
3037.000000	0.002584
3036.000000	0.002605
3035.000000	0.002620
3034.000000	0.002625
3033.000000	0.002616
3032.000000	0.002598
3031.000000	0.002585
3030.000000	0.002593
3029.000000	0.002622
3028.000000	0.002658
3027.000000	0.002685
3026.000000	0.002697
3025.000000	0.002697
3024.000000	0.002692
3023.000000	0.002684
3022.000000	0.002674
3021.000000	0.002658
3020.000000	0.002637
3019.000000	0.002618
3018.000000	0.002606
3017.000000	0.002604
3016.000000	0.002613
3015.000000	0.002633
3014.000000	0.002658
3013.000000	0.002678
3012.000000	0.002690
3011.000000	0.002701
3010.000000	0.002711
3009.000000	0.002720
3008.000000	0.002723
3007.000000	0.002726
3006.000000	0.002735
3005.000000	0.002745
3004.000000	0.002744
3003.000000	0.002731
3002.000000	0.002709
3001.000000	0.002687
3000.000000	0.002670
2999.000000	0.002667
2998.000000	0.002679
2997.000000	0.002700
2996.000000	0.002719
2995.000000	0.002732
2994.000000	0.002739
2993.000000	0.002739
2992.000000	0.002731
2991.000000	0.002720
2990.000000	0.002718
2989.000000	0.002729
2988.000000	0.002748
2987.000000	0.002766
2986.000000	0.002783
2985.000000	0.002803
2984.000000	0.002828
2983.000000	0.002852
2982.000000	0.002867
2981.000000	0.002866
2980.000000	0.002855
2979.000000	0.002839
2978.000000	0.002824
2977.000000	0.002810
2976.000000	0.002798
2975.000000	0.002798
2974.000000	0.002816
2973.000000	0.002840
2972.000000	0.002857
2971.000000	0.002859
2970.000000	0.002853
2969.000000	0.002851
2968.000000	0.002855
2967.000000	0.002865
2966.000000	0.002883
2965.000000	0.002913
2964.000000	0.002952
2963.000000	0.002993
2962.000000	0.003026
2961.000000	0.003041
2960.000000	0.003035
2959.000000	0.003014
2958.000000	0.002991
2957.000000	0.002973
2956.000000	0.002967
2955.000000	0.002972
2954.000000	0.002977
2953.000000	0.002968
2952.000000	0.002940
2951.000000	0.002909
2950.000000	0.002895
2949.000000	0.002902
2948.000000	0.002916
2947.000000	0.002926
2946.000000	0.002931
2945.000000	0.002936
2944.000000	0.002938
2943.000000	0.002931
2942.000000	0.002919
2941.000000	0.002910
2940.000000	0.002909
2939.000000	0.002912
2938.000000	0.002910
2937.000000	0.002903
2936.000000	0.002896
2935.000000	0.002898
2934.000000	0.002912
2933.000000	0.002937
2932.000000	0.002965
2931.000000	0.002983
2930.000000	0.002982
2929.000000	0.002964
2928.000000	0.002941
2927.000000	0.002928
2926.000000	0.002926
2925.000000	0.002927
2924.000000	0.002920
2923.000000	0.002905
2922.000000	0.002889
2921.000000	0.002878
2920.000000	0.002870
2919.000000	0.002858
2918.000000	0.002842
2917.000000	0.002827
2916.000000	0.002825
2915.000000	0.002840
2914.000000	0.002863
2913.000000	0.002878
2912.000000	0.002883
2911.000000	0.002884
2910.000000	0.002898
2909.000000	0.002929
2908.000000	0.002969
2907.000000	0.003002
2906.000000	0.003014
2905.000000	0.002999
2904.000000	0.002972
2903.000000	0.002955
2902.000000	0.002958
2901.000000	0.002975
2900.000000	0.002994
2899.000000	0.003011
2898.000000	0.003021
2897.000000	0.003018
2896.000000	0.002995
2895.000000	0.002957
2894.000000	0.002923
2893.000000	0.002903
2892.000000	0.002896
2891.000000	0.002895
2890.000000	0.002898
2889.000000	0.002906
2888.000000	0.002917
2887.000000	0.002926
2886.000000	0.002932
2885.000000	0.002940
2884.000000	0.002948
2883.000000	0.002956
2882.000000	0.002961
2881.000000	0.002965
2880.000000	0.002969
2879.000000	0.002975
2878.000000	0.002983
2877.000000	0.002992
2876.000000	0.003000
2875.000000	0.003008
2874.000000	0.003016
2873.000000	0.003018
2872.000000	0.003012
2871.000000	0.003001
2870.000000	0.002989
2869.000000	0.002979
2868.000000	0.002967
2867.000000	0.002953
2866.000000	0.002941
2865.000000	0.002935
2864.000000	0.002933
2863.000000	0.002933
2862.000000	0.002934
2861.000000	0.002933
2860.000000	0.002925
2859.000000	0.002909
2858.000000	0.002894
2857.000000	0.002882
2856.000000	0.002874
2855.000000	0.002866
2854.000000	0.002859
2853.000000	0.002850
2852.000000	0.002841
2851.000000	0.002831
2850.000000	0.002827
2849.000000	0.002834
2848.000000	0.002851
2847.000000	0.002873
2846.000000	0.002896
2845.000000	0.002914
2844.000000	0.002920
2843.000000	0.002919
2842.000000	0.002920
2841.000000	0.002930
2840.000000	0.002941
2839.000000	0.002939
2838.000000	0.002918
2837.000000	0.002885
2836.000000	0.002854
2835.000000	0.002837
2834.000000	0.002834
2833.000000	0.002842
2832.000000	0.002854
2831.000000	0.002866
2830.000000	0.002878
2829.000000	0.002890
2828.000000	0.002901
2827.000000	0.002908
2826.000000	0.002909
2825.000000	0.002903
2824.000000	0.002893
2823.000000	0.002878
2822.000000	0.002859
2821.000000	0.002838
2820.000000	0.002824
2819.000000	0.002825
2818.000000	0.002840
2817.000000	0.002858
2816.000000	0.002865
2815.000000	0.002853
2814.000000	0.002828
2813.000000	0.002803
2812.000000	0.002791
2811.000000	0.002797
2810.000000	0.002814
2809.000000	0.002828
2808.000000	0.002833
2807.000000	0.002834
2806.000000	0.002847
2805.000000	0.002872
2804.000000	0.002898
2803.000000	0.002906
2802.000000	0.002895
2801.000000	0.002877
2800.000000	0.002862
2799.000000	0.002852
2798.000000	0.002845
2797.000000	0.002840
2796.000000	0.002834
2795.000000	0.002826
2794.000000	0.002816
2793.000000	0.002805
2792.000000	0.002798
2791.000000	0.002797
2790.000000	0.002801
2789.000000	0.002805
2788.000000	0.002805
2787.000000	0.002801
2786.000000	0.002800
2785.000000	0.002807
2784.000000	0.002821
2783.000000	0.002835
2782.000000	0.002839
2781.000000	0.002832
2780.000000	0.002815
2779.000000	0.002796
2778.000000	0.002783
2777.000000	0.002780
2776.000000	0.002786
2775.000000	0.002793
2774.000000	0.002799
2773.000000	0.002803
2772.000000	0.002808
2771.000000	0.002812
2770.000000	0.002814
2769.000000	0.002814
2768.000000	0.002815
2767.000000	0.002817
2766.000000	0.002815
2765.000000	0.002811
2764.000000	0.002814
2763.000000	0.002828
2762.000000	0.002846
2761.000000	0.002857
2760.000000	0.002853
2759.000000	0.002838
2758.000000	0.002817
2757.000000	0.002796
2756.000000	0.002784
2755.000000	0.002786
2754.000000	0.002805
2753.000000	0.002831
2752.000000	0.002851
2751.000000	0.002860
2750.000000	0.002861
2749.000000	0.002858
2748.000000	0.002854
2747.000000	0.002849
2746.000000	0.002843
2745.000000	0.002840
2744.000000	0.002838
2743.000000	0.002835
2742.000000	0.002832
2741.000000	0.002832
2740.000000	0.002838
2739.000000	0.002849
2738.000000	0.002857
2737.000000	0.002857
2736.000000	0.002851
2735.000000	0.002846
2734.000000	0.002848
2733.000000	0.002855
2732.000000	0.002862
2731.000000	0.002868
2730.000000	0.002875
2729.000000	0.002882
2728.000000	0.002883
2727.000000	0.002873
2726.000000	0.002851
2725.000000	0.002825
2724.000000	0.002805
2723.000000	0.002802
2722.000000	0.002821
2721.000000	0.002858
2720.000000	0.002897
2719.000000	0.002922
2718.000000	0.002928
2717.000000	0.002922
2716.000000	0.002910
2715.000000	0.002894
2714.000000	0.002877
2713.000000	0.002864
2712.000000	0.002861
2711.000000	0.002865
2710.000000	0.002866
2709.000000	0.002860
2708.000000	0.002852
2707.000000	0.002849
2706.000000	0.002851
2705.000000	0.002855
2704.000000	0.002860
2703.000000	0.002868
2702.000000	0.002877
2701.000000	0.002888
2700.000000	0.002898
2699.000000	0.002902
2698.000000	0.002898
2697.000000	0.002886
2696.000000	0.002872
2695.000000	0.002864
2694.000000	0.002862
2693.000000	0.002862
2692.000000	0.002856
2691.000000	0.002846
2690.000000	0.002834
2689.000000	0.002825
2688.000000	0.002818
2687.000000	0.002813
2686.000000	0.002808
2685.000000	0.002808
2684.000000	0.002817
2683.000000	0.002836
2682.000000	0.002853
2681.000000	0.002856
2680.000000	0.002845
2679.000000	0.002831
2678.000000	0.002825
2677.000000	0.002826
2676.000000	0.002829
2675.000000	0.002828
2674.000000	0.002823
2673.000000	0.002809
2672.000000	0.002786
2671.000000	0.002764
2670.000000	0.002759
2669.000000	0.002777
2668.000000	0.002809
2667.000000	0.002839
2666.000000	0.002866
2665.000000	0.002897
2664.000000	0.002931
2663.000000	0.002957
2662.000000	0.002962
2661.000000	0.002951
2660.000000	0.002939
2659.000000	0.002944
2658.000000	0.002963
2657.000000	0.002984
2656.000000	0.002992
2655.000000	0.002984
2654.000000	0.002966
2653.000000	0.002952
2652.000000	0.002949
2651.000000	0.002956
2650.000000	0.002965
2649.000000	0.002965
2648.000000	0.002950
2647.000000	0.002921
2646.000000	0.002889
2645.000000	0.002865
2644.000000	0.002853
2643.000000	0.002852
2642.000000	0.002858
2641.000000	0.002869
2640.000000	0.002883
2639.000000	0.002903
2638.000000	0.002924
2637.000000	0.002941
2636.000000	0.002947
2635.000000	0.002941
2634.000000	0.002926
2633.000000	0.002907
2632.000000	0.002884
2631.000000	0.002855
2630.000000	0.002823
2629.000000	0.002795
2628.000000	0.002776
2627.000000	0.002767
2626.000000	0.002768
2625.000000	0.002778
2624.000000	0.002798
2623.000000	0.002821
2622.000000	0.002840
2621.000000	0.002847
2620.000000	0.002839
2619.000000	0.002822
2618.000000	0.002809
2617.000000	0.002810
2616.000000	0.002816
2615.000000	0.002810
2614.000000	0.002788
2613.000000	0.002763
2612.000000	0.002753
2611.000000	0.002758
2610.000000	0.002761
2609.000000	0.002748
2608.000000	0.002722
2607.000000	0.002692
2606.000000	0.002667
2605.000000	0.002648
2604.000000	0.002639
2603.000000	0.002641
2602.000000	0.002653
2601.000000	0.002670
2600.000000	0.002691
2599.000000	0.002720
2598.000000	0.002749
2597.000000	0.002767
2596.000000	0.002769
2595.000000	0.002760
2594.000000	0.002755
2593.000000	0.002761
2592.000000	0.002775
2591.000000	0.002788
2590.000000	0.002792
2589.000000	0.002780
2588.000000	0.002754
2587.000000	0.002726
2586.000000	0.002708
2585.000000	0.002707
2584.000000	0.002717
2583.000000	0.002728
2582.000000	0.002728
2581.000000	0.002714
2580.000000	0.002685
2579.000000	0.002651
2578.000000	0.002622
2577.000000	0.002608
2576.000000	0.002610
2575.000000	0.002623
2574.000000	0.002642
2573.000000	0.002669
2572.000000	0.002705
2571.000000	0.002746
2570.000000	0.002780
2569.000000	0.002792
2568.000000	0.002781
2567.000000	0.002759
2566.000000	0.002738
2565.000000	0.002722
2564.000000	0.002713
2563.000000	0.002716
2562.000000	0.002736
2561.000000	0.002763
2560.000000	0.002781
2559.000000	0.002781
2558.000000	0.002765
2557.000000	0.002740
2556.000000	0.002713
2555.000000	0.002701
2554.000000	0.002717
2553.000000	0.002753
2552.000000	0.002783
2551.000000	0.002788
2550.000000	0.002773
2549.000000	0.002758
2548.000000	0.002756
2547.000000	0.002770
2546.000000	0.002793
2545.000000	0.002812
2544.000000	0.002821
2543.000000	0.002823
2542.000000	0.002825
2541.000000	0.002823
2540.000000	0.002802
2539.000000	0.002761
2538.000000	0.002717
2537.000000	0.002685
2536.000000	0.002669
2535.000000	0.002667
2534.000000	0.002684
2533.000000	0.002720
2532.000000	0.002756
2531.000000	0.002769
2530.000000	0.002754
2529.000000	0.002730
2528.000000	0.002716
2527.000000	0.002717
2526.000000	0.002726
2525.000000	0.002734
2524.000000	0.002732
2523.000000	0.002721
2522.000000	0.002709
2521.000000	0.002706
2520.000000	0.002715
2519.000000	0.002731
2518.000000	0.002751
2517.000000	0.002768
2516.000000	0.002768
2515.000000	0.002744
2514.000000	0.002705
2513.000000	0.002673
2512.000000	0.002663
2511.000000	0.002677
2510.000000	0.002705
2509.000000	0.002735
2508.000000	0.002759
2507.000000	0.002783
2506.000000	0.002818
2505.000000	0.002858
2504.000000	0.002884
2503.000000	0.002891
2502.000000	0.002895
2501.000000	0.002907
2500.000000	0.002915
2499.000000	0.002902
2498.000000	0.002878
2497.000000	0.002868
2496.000000	0.002878
2495.000000	0.002879
2494.000000	0.002851
2493.000000	0.002796
2492.000000	0.002734
2491.000000	0.002688
2490.000000	0.002671
2489.000000	0.002684
2488.000000	0.002707
2487.000000	0.002712
2486.000000	0.002693
2485.000000	0.002670
2484.000000	0.002662
2483.000000	0.002664
2482.000000	0.002663
2481.000000	0.002664
2480.000000	0.002680
2479.000000	0.002713
2478.000000	0.002747
2477.000000	0.002768
2476.000000	0.002773
2475.000000	0.002770
2474.000000	0.002763
2473.000000	0.002750
2472.000000	0.002727
2471.000000	0.002696
2470.000000	0.002667
2469.000000	0.002642
2468.000000	0.002619
2467.000000	0.002594
2466.000000	0.002575
2465.000000	0.002577
2464.000000	0.002601
2463.000000	0.002629
2462.000000	0.002645
2461.000000	0.002655
2460.000000	0.002675
2459.000000	0.002718
2458.000000	0.002776
2457.000000	0.002825
2456.000000	0.002844
2455.000000	0.002828
2454.000000	0.002794
2453.000000	0.002770
2452.000000	0.002766
2451.000000	0.002772
2450.000000	0.002772
2449.000000	0.002761
2448.000000	0.002743
2447.000000	0.002728
2446.000000	0.002721
2445.000000	0.002716
2444.000000	0.002699
2443.000000	0.002668
2442.000000	0.002641
2441.000000	0.002638
2440.000000	0.002653
2439.000000	0.002665
2438.000000	0.002663
2437.000000	0.002660
2436.000000	0.002662
2435.000000	0.002667
2434.000000	0.002672
2433.000000	0.002686
2432.000000	0.002707
2431.000000	0.002713
2430.000000	0.002686
2429.000000	0.002640
2428.000000	0.002612
2427.000000	0.002615
2426.000000	0.002630
2425.000000	0.002628
2424.000000	0.002604
2423.000000	0.002575
2422.000000	0.002559
2421.000000	0.002558
2420.000000	0.002566
2419.000000	0.002579
2418.000000	0.002599
2417.000000	0.002619
2416.000000	0.002629
2415.000000	0.002629
2414.000000	0.002633
2413.000000	0.002653
2412.000000	0.002684
2411.000000	0.002707
2410.000000	0.002706
2409.000000	0.002678
2408.000000	0.002629
2407.000000	0.002578
2406.000000	0.002549
2405.000000	0.002558
2404.000000	0.002595
2403.000000	0.002628
2402.000000	0.002636
2401.000000	0.002620
2400.000000	0.002600
2399.000000	0.002590
2398.000000	0.002589
2397.000000	0.002590
2396.000000	0.002586
2395.000000	0.002580
2394.000000	0.002582
2393.000000	0.002596
2392.000000	0.002614
2391.000000	0.002618
2390.000000	0.002605
2389.000000	0.002585
2388.000000	0.002573
2387.000000	0.002572
2386.000000	0.002575
2385.000000	0.002566
2384.000000	0.002530
2383.000000	0.002458
2382.000000	0.002355
2381.000000	0.002243
2380.000000	0.002149
2379.000000	0.002107
2378.000000	0.002137
2377.000000	0.002225
2376.000000	0.002320
2375.000000	0.002367
2374.000000	0.002346
2373.000000	0.002273
2372.000000	0.002183
2371.000000	0.002108
2370.000000	0.002062
2369.000000	0.002034
2368.000000	0.002012
2367.000000	0.002012
2366.000000	0.002061
2365.000000	0.002140
2364.000000	0.002196
2363.000000	0.002223
2362.000000	0.002266
2361.000000	0.002327
2360.000000	0.002375
2359.000000	0.002376
2358.000000	0.002319
2357.000000	0.002231
2356.000000	0.002149
2355.000000	0.002157
2354.000000	0.002235
2353.000000	0.002264
2352.000000	0.002171
2351.000000	0.002036
2350.000000	0.001983
2349.000000	0.002043
2348.000000	0.002174
2347.000000	0.002291
2346.000000	0.002344
2345.000000	0.002372
2344.000000	0.002423
2343.000000	0.002512
2342.000000	0.002566
2341.000000	0.002534
2340.000000	0.002456
2339.000000	0.002407
2338.000000	0.002403
2337.000000	0.002395
2336.000000	0.002357
2335.000000	0.002285
2334.000000	0.002196
2333.000000	0.002096
2332.000000	0.002053
2331.000000	0.002105
2330.000000	0.002265
2329.000000	0.002444
2328.000000	0.002607
2327.000000	0.002733
2326.000000	0.002826
2325.000000	0.002871
2324.000000	0.002864
2323.000000	0.002828
2322.000000	0.002804
2321.000000	0.002826
2320.000000	0.002915
2319.000000	0.003042
2318.000000	0.003175
2317.000000	0.003248
2316.000000	0.003241
2315.000000	0.003134
2314.000000	0.002983
2313.000000	0.002850
2312.000000	0.002804
2311.000000	0.002823
2310.000000	0.002867
2309.000000	0.002885
2308.000000	0.002877
2307.000000	0.002852
2306.000000	0.002832
2305.000000	0.002829
2304.000000	0.002857
2303.000000	0.002903
2302.000000	0.002951
2301.000000	0.002979
2300.000000	0.002989
2299.000000	0.002980
2298.000000	0.002971
2297.000000	0.002968
2296.000000	0.002977
2295.000000	0.002981
2294.000000	0.002973
2293.000000	0.002968
2292.000000	0.002991
2291.000000	0.003038
2290.000000	0.003085
2289.000000	0.003110
2288.000000	0.003112
2287.000000	0.003111
2286.000000	0.003117
2285.000000	0.003131
2284.000000	0.003144
2283.000000	0.003141
2282.000000	0.003116
2281.000000	0.003080
2280.000000	0.003061
2279.000000	0.003068
2278.000000	0.003083
2277.000000	0.003071
2276.000000	0.003021
2275.000000	0.002948
2274.000000	0.002889
2273.000000	0.002865
2272.000000	0.002873
2271.000000	0.002891
2270.000000	0.002907
2269.000000	0.002918
2268.000000	0.002923
2267.000000	0.002909
2266.000000	0.002863
2265.000000	0.002780
2264.000000	0.002678
2263.000000	0.002594
2262.000000	0.002570
2261.000000	0.002609
2260.000000	0.002659
2259.000000	0.002672
2258.000000	0.002651
2257.000000	0.002637
2256.000000	0.002645
2255.000000	0.002648
2254.000000	0.002634
2253.000000	0.002631
2252.000000	0.002670
2251.000000	0.002745
2250.000000	0.002838
2249.000000	0.002933
2248.000000	0.002999
2247.000000	0.002986
2246.000000	0.002882
2245.000000	0.002753
2244.000000	0.002680
2243.000000	0.002681
2242.000000	0.002701
2241.000000	0.002685
2240.000000	0.002627
2239.000000	0.002551
2238.000000	0.002482
2237.000000	0.002441
2236.000000	0.002440
2235.000000	0.002472
2234.000000	0.002513
2233.000000	0.002537
2232.000000	0.002526
2231.000000	0.002491
2230.000000	0.002469
2229.000000	0.002492
2228.000000	0.002546
2227.000000	0.002590
2226.000000	0.002617
2225.000000	0.002666
2224.000000	0.002760
2223.000000	0.002847
2222.000000	0.002849
2221.000000	0.002746
2220.000000	0.002595
2219.000000	0.002473
2218.000000	0.002412
2217.000000	0.002391
2216.000000	0.002371
2215.000000	0.002333
2214.000000	0.002298
2213.000000	0.002295
2212.000000	0.002334
2211.000000	0.002408
2210.000000	0.002507
2209.000000	0.002602
2208.000000	0.002638
2207.000000	0.002591
2206.000000	0.002531
2205.000000	0.002570
2204.000000	0.002727
2203.000000	0.002905
2202.000000	0.003004
2201.000000	0.003024
2200.000000	0.003017
2199.000000	0.002998
2198.000000	0.002951
2197.000000	0.002875
2196.000000	0.002787
2195.000000	0.002701
2194.000000	0.002633
2193.000000	0.002600
2192.000000	0.002592
2191.000000	0.002573
2190.000000	0.002535
2189.000000	0.002506
2188.000000	0.002489
2187.000000	0.002431
2186.000000	0.002298
2185.000000	0.002141
2184.000000	0.002041
2183.000000	0.002027
2182.000000	0.002074
2181.000000	0.002172
2180.000000	0.002333
2179.000000	0.002545
2178.000000	0.002760
2177.000000	0.002902
2176.000000	0.002902
2175.000000	0.002751
2174.000000	0.002544
2173.000000	0.002412
2172.000000	0.002409
2171.000000	0.002485
2170.000000	0.002586
2169.000000	0.002701
2168.000000	0.002807
2167.000000	0.002834
2166.000000	0.002732
2165.000000	0.002539
2164.000000	0.002360
2163.000000	0.002291
2162.000000	0.002375
2161.000000	0.002548
2160.000000	0.002590
2159.000000	0.002280
2158.000000	0.001689
2157.000000	0.001169
2156.000000	0.000969
2155.000000	0.001032
2154.000000	0.001174
2153.000000	0.001278
2152.000000	0.001301
2151.000000	0.001244
2150.000000	0.001172
2149.000000	0.001196
2148.000000	0.001358
2147.000000	0.001591
2146.000000	0.001822
2145.000000	0.002030
2144.000000	0.002188
2143.000000	0.002219
2142.000000	0.002086
2141.000000	0.001875
2140.000000	0.001724
2139.000000	0.001693
2138.000000	0.001741
2137.000000	0.001800
2136.000000	0.001816
2135.000000	0.001758
2134.000000	0.001642
2133.000000	0.001532
2132.000000	0.001497
2131.000000	0.001552
2130.000000	0.001667
2129.000000	0.001796
2128.000000	0.001899
2127.000000	0.001956
2126.000000	0.001982
2125.000000	0.002021
2124.000000	0.002109
2123.000000	0.002240
2122.000000	0.002380
2121.000000	0.002485
2120.000000	0.002526
2119.000000	0.002502
2118.000000	0.002454
2117.000000	0.002431
2116.000000	0.002441
2115.000000	0.002456
2114.000000	0.002452
2113.000000	0.002445
2112.000000	0.002456
2111.000000	0.002482
2110.000000	0.002504
2109.000000	0.002512
2108.000000	0.002501
2107.000000	0.002476
2106.000000	0.002458
2105.000000	0.002467
2104.000000	0.002489
2103.000000	0.002489
2102.000000	0.002461
2101.000000	0.002440
2100.000000	0.002446
2099.000000	0.002447
2098.000000	0.002397
2097.000000	0.002286
2096.000000	0.002148
2095.000000	0.002038
2094.000000	0.002006
2093.000000	0.002071
2092.000000	0.002189
2091.000000	0.002287
2090.000000	0.002334
2089.000000	0.002353
2088.000000	0.002371
2087.000000	0.002391
2086.000000	0.002424
2085.000000	0.002502
2084.000000	0.002621
2083.000000	0.002721
2082.000000	0.002737
2081.000000	0.002665
2080.000000	0.002549
2079.000000	0.002432
2078.000000	0.002343
2077.000000	0.002303
2076.000000	0.002303
2075.000000	0.002305
2074.000000	0.002285
2073.000000	0.002264
2072.000000	0.002279
2071.000000	0.002341
2070.000000	0.002444
2069.000000	0.002579
2068.000000	0.002713
2067.000000	0.002789
2066.000000	0.002775
2065.000000	0.002691
2064.000000	0.002576
2063.000000	0.002461
2062.000000	0.002380
2061.000000	0.002368
2060.000000	0.002412
2059.000000	0.002446
2058.000000	0.002425
2057.000000	0.002353
2056.000000	0.002255
2055.000000	0.002159
2054.000000	0.002142
2053.000000	0.002294
2052.000000	0.002586
2051.000000	0.002833
2050.000000	0.002846
2049.000000	0.002612
2048.000000	0.002286
2047.000000	0.002018
2046.000000	0.001843
2045.000000	0.001728
2044.000000	0.001660
2043.000000	0.001671
2042.000000	0.001825
2041.000000	0.002115
2040.000000	0.002394
2039.000000	0.002474
2038.000000	0.002317
2037.000000	0.002070
2036.000000	0.001885
2035.000000	0.001797
2034.000000	0.001801
2033.000000	0.001914
2032.000000	0.002099
2031.000000	0.002243
2030.000000	0.002296
2029.000000	0.002304
2028.000000	0.002269
2027.000000	0.002108
2026.000000	0.001834
2025.000000	0.001623
2024.000000	0.001590
2023.000000	0.001615
2022.000000	0.001538
2021.000000	0.001391
2020.000000	0.001325
2019.000000	0.001390
2018.000000	0.001519
2017.000000	0.001646
2016.000000	0.001731
2015.000000	0.001732
2014.000000	0.001665
2013.000000	0.001630
2012.000000	0.001689
2011.000000	0.001758
2010.000000	0.001709
2009.000000	0.001541
2008.000000	0.001352
2007.000000	0.001207
2006.000000	0.001120
2005.000000	0.001107
2004.000000	0.001164
2003.000000	0.001225
2002.000000	0.001239
2001.000000	0.001250
2000.000000	0.001341
1999.000000	0.001523
1998.000000	0.001729
1997.000000	0.001886
1996.000000	0.001956
1995.000000	0.001935
1994.000000	0.001881
1993.000000	0.001892
1992.000000	0.002008
1991.000000	0.002159
1990.000000	0.002264
1989.000000	0.002331
1988.000000	0.002409
1987.000000	0.002485
1986.000000	0.002494
1985.000000	0.002401
1984.000000	0.002247
1983.000000	0.002122
1982.000000	0.002106
1981.000000	0.002201
1980.000000	0.002304
1979.000000	0.002291
1978.000000	0.002160
1977.000000	0.002016
1976.000000	0.001887
1975.000000	0.001703
1974.000000	0.001478
1973.000000	0.001348
1972.000000	0.001368
1971.000000	0.001425
1970.000000	0.001410
1969.000000	0.001350
1968.000000	0.001310
1967.000000	0.001289
1966.000000	0.001274
1965.000000	0.001295
1964.000000	0.001343
1963.000000	0.001350
1962.000000	0.001296
1961.000000	0.001264
1960.000000	0.001308
1959.000000	0.001371
1958.000000	0.001387
1957.000000	0.001379
1956.000000	0.001407
1955.000000	0.001473
1954.000000	0.001543
1953.000000	0.001592
1952.000000	0.001598
1951.000000	0.001557
1950.000000	0.001514
1949.000000	0.001521
1948.000000	0.001549
1947.000000	0.001510
1946.000000	0.001396
1945.000000	0.001309
1944.000000	0.001338
1943.000000	0.001433
1942.000000	0.001481
1941.000000	0.001444
1940.000000	0.001381
1939.000000	0.001365
1938.000000	0.001440
1937.000000	0.001604
1936.000000	0.001780
1935.000000	0.001870
1934.000000	0.001853
1933.000000	0.001795
1932.000000	0.001750
1931.000000	0.001710
1930.000000	0.001660
1929.000000	0.001632
1928.000000	0.001652
1927.000000	0.001686
1926.000000	0.001682
1925.000000	0.001628
1924.000000	0.001553
1923.000000	0.001497
1922.000000	0.001496
1921.000000	0.001566
1920.000000	0.001673
1919.000000	0.001744
1918.000000	0.001730
1917.000000	0.001668
1916.000000	0.001636
1915.000000	0.001658
1914.000000	0.001703
1913.000000	0.001737
1912.000000	0.001736
1911.000000	0.001688
1910.000000	0.001607
1909.000000	0.001532
1908.000000	0.001489
1907.000000	0.001477
1906.000000	0.001494
1905.000000	0.001561
1904.000000	0.001671
1903.000000	0.001763
1902.000000	0.001782
1901.000000	0.001747
1900.000000	0.001726
1899.000000	0.001744
1898.000000	0.001769
1897.000000	0.001764
1896.000000	0.001722
1895.000000	0.001662
1894.000000	0.001608
1893.000000	0.001589
1892.000000	0.001610
1891.000000	0.001640
1890.000000	0.001655
1889.000000	0.001670
1888.000000	0.001710
1887.000000	0.001762
1886.000000	0.001787
1885.000000	0.001786
1884.000000	0.001793
1883.000000	0.001819
1882.000000	0.001839
1881.000000	0.001835
1880.000000	0.001814
1879.000000	0.001785
1878.000000	0.001749
1877.000000	0.001725
1876.000000	0.001737
1875.000000	0.001776
1874.000000	0.001805
1873.000000	0.001799
1872.000000	0.001773
1871.000000	0.001754
1870.000000	0.001754
1869.000000	0.001762
1868.000000	0.001772
1867.000000	0.001790
1866.000000	0.001811
1865.000000	0.001822
1864.000000	0.001819
1863.000000	0.001810
1862.000000	0.001804
1861.000000	0.001813
1860.000000	0.001840
1859.000000	0.001871
1858.000000	0.001879
1857.000000	0.001853
1856.000000	0.001808
1855.000000	0.001769
1854.000000	0.001757
1853.000000	0.001778
1852.000000	0.001814
1851.000000	0.001829
1850.000000	0.001803
1849.000000	0.001762
1848.000000	0.001740
1847.000000	0.001738
1846.000000	0.001734
1845.000000	0.001719
1844.000000	0.001715
1843.000000	0.001732
1842.000000	0.001757
1841.000000	0.001780
1840.000000	0.001792
1839.000000	0.001781
1838.000000	0.001752
1837.000000	0.001730
1836.000000	0.001737
1835.000000	0.001763
1834.000000	0.001788
1833.000000	0.001803
1832.000000	0.001798
1831.000000	0.001772
1830.000000	0.001751
1829.000000	0.001749
1828.000000	0.001744
1827.000000	0.001712
1826.000000	0.001673
1825.000000	0.001674
1824.000000	0.001713
1823.000000	0.001745
1822.000000	0.001735
1821.000000	0.001690
1820.000000	0.001633
1819.000000	0.001585
1818.000000	0.001555
1817.000000	0.001544
1816.000000	0.001542
1815.000000	0.001545
1814.000000	0.001549
1813.000000	0.001551
1812.000000	0.001548
1811.000000	0.001546
1810.000000	0.001561
1809.000000	0.001583
1808.000000	0.001604
1807.000000	0.001629
1806.000000	0.001656
1805.000000	0.001671
1804.000000	0.001664
1803.000000	0.001651
1802.000000	0.001650
1801.000000	0.001662
1800.000000	0.001672
1799.000000	0.001675
1798.000000	0.001667
1797.000000	0.001647
1796.000000	0.001630
1795.000000	0.001636
1794.000000	0.001662
1793.000000	0.001687
1792.000000	0.001682
1791.000000	0.001651
1790.000000	0.001619
1789.000000	0.001597
1788.000000	0.001586
1787.000000	0.001588
1786.000000	0.001597
1785.000000	0.001598
1784.000000	0.001578
1783.000000	0.001538
1782.000000	0.001499
1781.000000	0.001485
1780.000000	0.001500
1779.000000	0.001523
1778.000000	0.001533
1777.000000	0.001531
1776.000000	0.001526
1775.000000	0.001516
1774.000000	0.001501
1773.000000	0.001501
1772.000000	0.001517
1771.000000	0.001524
1770.000000	0.001529
1769.000000	0.001547
1768.000000	0.001563
1767.000000	0.001552
1766.000000	0.001529
1765.000000	0.001520
1764.000000	0.001522
1763.000000	0.001507
1762.000000	0.001483
1761.000000	0.001492
1760.000000	0.001549
1759.000000	0.001628
1758.000000	0.001709
1757.000000	0.001789
1756.000000	0.001860
1755.000000	0.001904
1754.000000	0.001934
1753.000000	0.001983
1752.000000	0.002052
1751.000000	0.002098
1750.000000	0.002102
1749.000000	0.002108
1748.000000	0.002131
1747.000000	0.002132
1746.000000	0.002103
1745.000000	0.002080
1744.000000	0.002071
1743.000000	0.002055
1742.000000	0.002033
1741.000000	0.002029
1740.000000	0.002034
1739.000000	0.002013
1738.000000	0.001985
1737.000000	0.001996
1736.000000	0.002049
1735.000000	0.002092
1734.000000	0.002041
1733.000000	0.001894
1732.000000	0.001743
1731.000000	0.001626
1730.000000	0.001535
1729.000000	0.001485
1728.000000	0.001475
1727.000000	0.001467
1726.000000	0.001437
1725.000000	0.001405
1724.000000	0.001391
1723.000000	0.001383
1722.000000	0.001367
1721.000000	0.001342
1720.000000	0.001308
1719.000000	0.001281
1718.000000	0.001323
1717.000000	0.001406
1716.000000	0.001448
1715.000000	0.001458
1714.000000	0.001449
1713.000000	0.001423
1712.000000	0.001391
1711.000000	0.001357
1710.000000	0.001321
1709.000000	0.001292
1708.000000	0.001270
1707.000000	0.001245
1706.000000	0.001215
1705.000000	0.001186
1704.000000	0.001180
1703.000000	0.001223
1702.000000	0.001302
1701.000000	0.001380
1700.000000	0.001411
1699.000000	0.001415
1698.000000	0.001411
1697.000000	0.001394
1696.000000	0.001353
1695.000000	0.001329
1694.000000	0.001333
1693.000000	0.001336
1692.000000	0.001323
1691.000000	0.001302
1690.000000	0.001298
1689.000000	0.001325
1688.000000	0.001366
1687.000000	0.001391
1686.000000	0.001382
1685.000000	0.001352
1684.000000	0.001327
1683.000000	0.001312
1682.000000	0.001304
1681.000000	0.001313
1680.000000	0.001328
1679.000000	0.001336
1678.000000	0.001343
1677.000000	0.001368
1676.000000	0.001415
1675.000000	0.001443
1674.000000	0.001424
1673.000000	0.001400
1672.000000	0.001400
1671.000000	0.001406
1670.000000	0.001389
1669.000000	0.001362
1668.000000	0.001357
1667.000000	0.001363
1666.000000	0.001374
1665.000000	0.001404
1664.000000	0.001451
1663.000000	0.001489
1662.000000	0.001490
1661.000000	0.001471
1660.000000	0.001466
1659.000000	0.001463
1658.000000	0.001445
1657.000000	0.001426
1656.000000	0.001428
1655.000000	0.001427
1654.000000	0.001413
1653.000000	0.001408
1652.000000	0.001427
1651.000000	0.001420
1650.000000	0.001416
1649.000000	0.001419
1648.000000	0.001460
1647.000000	0.001536
1646.000000	0.001586
1645.000000	0.001593
1644.000000	0.001595
1643.000000	0.001609
1642.000000	0.001617
1641.000000	0.001607
1640.000000	0.001590
1639.000000	0.001578
1638.000000	0.001571
1637.000000	0.001570
1636.000000	0.001584
1635.000000	0.001579
1634.000000	0.001544
1633.000000	0.001508
1632.000000	0.001498
1631.000000	0.001500
1630.000000	0.001492
1629.000000	0.001472
1628.000000	0.001457
1627.000000	0.001441
1626.000000	0.001409
1625.000000	0.001384
1624.000000	0.001391
1623.000000	0.001413
1622.000000	0.001402
1621.000000	0.001373
1620.000000	0.001364
1619.000000	0.001369
1618.000000	0.001362
1617.000000	0.001343
1616.000000	0.001331
1615.000000	0.001317
1614.000000	0.001291
1613.000000	0.001274
1612.000000	0.001281
1611.000000	0.001289
1610.000000	0.001272
1609.000000	0.001251
1608.000000	0.001262
1607.000000	0.001285
1606.000000	0.001278
1605.000000	0.001252
1604.000000	0.001242
1603.000000	0.001246
1602.000000	0.001242
1601.000000	0.001233
1600.000000	0.001239
1599.000000	0.001250
1598.000000	0.001252
1597.000000	0.001253
1596.000000	0.001260
1595.000000	0.001260
1594.000000	0.001236
1593.000000	0.001213
1592.000000	0.001224
1591.000000	0.001257
1590.000000	0.001281
1589.000000	0.001296
1588.000000	0.001321
1587.000000	0.001347
1586.000000	0.001355
1585.000000	0.001355
1584.000000	0.001367
1583.000000	0.001372
1582.000000	0.001345
1581.000000	0.001306
1580.000000	0.001294
1579.000000	0.001306
1578.000000	0.001324
1577.000000	0.001376
1576.000000	0.001488
1575.000000	0.001583
1574.000000	0.001607
1573.000000	0.001613
1572.000000	0.001635
1571.000000	0.001672
1570.000000	0.001727
1569.000000	0.001822
1568.000000	0.001950
1567.000000	0.002064
1566.000000	0.002152
1565.000000	0.002241
1564.000000	0.002339
1563.000000	0.002410
1562.000000	0.002430
1561.000000	0.002426
1560.000000	0.002510
1559.000000	0.002813
1558.000000	0.003052
1557.000000	0.003192
1556.000000	0.003345
1555.000000	0.003508
1554.000000	0.003657
1553.000000	0.003781
1552.000000	0.003886
1551.000000	0.003993
1550.000000	0.004135
1549.000000	0.004318
1548.000000	0.004499
1547.000000	0.004633
1546.000000	0.004723
1545.000000	0.004819
1544.000000	0.004950
1543.000000	0.005095
1542.000000	0.005239
1541.000000	0.005394
1540.000000	0.005561
1539.000000	0.005694
1538.000000	0.005804
1537.000000	0.005927
1536.000000	0.006066
1535.000000	0.006204
1534.000000	0.006346
1533.000000	0.006502
1532.000000	0.006657
1531.000000	0.006804
1530.000000	0.006943
1529.000000	0.007076
1528.000000	0.007217
1527.000000	0.007375
1526.000000	0.007546
1525.000000	0.007703
1524.000000	0.007830
1523.000000	0.007941
1522.000000	0.008066
1521.000000	0.008179
1520.000000	0.008242
1519.000000	0.008269
1518.000000	0.008309
1517.000000	0.008412
1516.000000	0.008583
1515.000000	0.008767
1514.000000	0.008923
1513.000000	0.009032
1512.000000	0.009080
1511.000000	0.009077
1510.000000	0.009073
1509.000000	0.009123
1508.000000	0.009245
1507.000000	0.009400
1506.000000	0.009510
1505.000000	0.009587
1504.000000	0.009632
1503.000000	0.009664
1502.000000	0.009699
1501.000000	0.009747
1500.000000	0.009798
1499.000000	0.009831
1498.000000	0.009870
1497.000000	0.009930
1496.000000	0.009971
1495.000000	0.009973
1494.000000	0.009964
1493.000000	0.009956
1492.000000	0.009924
1491.000000	0.009853
1490.000000	0.009776
1489.000000	0.009721
1488.000000	0.009683
1487.000000	0.009659
1486.000000	0.009632
1485.000000	0.009602
1484.000000	0.009576
1483.000000	0.009542
1482.000000	0.009498
1481.000000	0.009457
1480.000000	0.009419
1479.000000	0.009367
1478.000000	0.009298
1477.000000	0.009245
1476.000000	0.009249
1475.000000	0.009335
1474.000000	0.009513
1473.000000	0.009777
1472.000000	0.010062
1471.000000	0.010330
1470.000000	0.010616
1469.000000	0.010951
1468.000000	0.011325
1467.000000	0.011718
1466.000000	0.012126
1465.000000	0.012514
1464.000000	0.012772
1463.000000	0.012832
1462.000000	0.012738
1461.000000	0.012560
1460.000000	0.012325
1459.000000	0.012028
1458.000000	0.011701
1457.000000	0.011427
1456.000000	0.011247
1455.000000	0.011139
1454.000000	0.011096
1453.000000	0.011116
1452.000000	0.011177
1451.000000	0.011240
1450.000000	0.011300
1449.000000	0.011387
1448.000000	0.011519
1447.000000	0.011677
1446.000000	0.011849
1445.000000	0.012048
1444.000000	0.012277
1443.000000	0.012519
1442.000000	0.012763
1441.000000	0.013012
1440.000000	0.013255
1439.000000	0.013471
1438.000000	0.013694
1437.000000	0.013999
1436.000000	0.014351
1435.000000	0.014624
1434.000000	0.014827
1433.000000	0.015045
1432.000000	0.015311
1431.000000	0.015605
1430.000000	0.015923
1429.000000	0.016281
1428.000000	0.016642
1427.000000	0.016952
1426.000000	0.017235
1425.000000	0.017585
1424.000000	0.018014
1423.000000	0.018409
1422.000000	0.018726
1421.000000	0.019038
1420.000000	0.019415
1419.000000	0.019822
1418.000000	0.020200
1417.000000	0.020548
1416.000000	0.020842
1415.000000	0.021048
1414.000000	0.021189
1413.000000	0.021319
1412.000000	0.021435
1411.000000	0.021481
1410.000000	0.021460
1409.000000	0.021421
1408.000000	0.021352
1407.000000	0.021208
1406.000000	0.021018
1405.000000	0.020864
1404.000000	0.020739
1403.000000	0.020568
1402.000000	0.020348
1401.000000	0.020130
1400.000000	0.019923
1399.000000	0.019690
1398.000000	0.019440
1397.000000	0.019223
1396.000000	0.019026
1395.000000	0.018782
1394.000000	0.018504
1393.000000	0.018268
1392.000000	0.018071
1391.000000	0.017864
1390.000000	0.017649
1389.000000	0.017470
1388.000000	0.017338
1387.000000	0.017212
1386.000000	0.017082
1385.000000	0.016977
1384.000000	0.016888
1383.000000	0.016776
1382.000000	0.016636
1381.000000	0.016501
1380.000000	0.016383
1379.000000	0.016260
1378.000000	0.016124
1377.000000	0.015985
1376.000000	0.015838
1375.000000	0.015662
1374.000000	0.015478
1373.000000	0.015338
1372.000000	0.015249
1371.000000	0.015159
1370.000000	0.015037
1369.000000	0.014911
1368.000000	0.014796
1367.000000	0.014668
1366.000000	0.014516
1365.000000	0.014363
1364.000000	0.014233
1363.000000	0.014118
1362.000000	0.014005
1361.000000	0.013907
1360.000000	0.013830
1359.000000	0.013752
1358.000000	0.013652
1357.000000	0.013540
1356.000000	0.013425
1355.000000	0.013307
1354.000000	0.013194
1353.000000	0.013102
1352.000000	0.013027
1351.000000	0.012947
1350.000000	0.012850
1349.000000	0.012756
1348.000000	0.012675
1347.000000	0.012587
1346.000000	0.012482
1345.000000	0.012380
1344.000000	0.012294
1343.000000	0.012204
1342.000000	0.012096
1341.000000	0.011984
1340.000000	0.011890
1339.000000	0.011808
1338.000000	0.011734
1337.000000	0.011682
1336.000000	0.011645
1335.000000	0.011589
1334.000000	0.011504
1333.000000	0.011412
1332.000000	0.011328
1331.000000	0.011238
1330.000000	0.011138
1329.000000	0.011050
1328.000000	0.010993
1327.000000	0.010949
1326.000000	0.010896
1325.000000	0.010842
1324.000000	0.010785
1323.000000	0.010706
1322.000000	0.010607
1321.000000	0.010519
1320.000000	0.010450
1319.000000	0.010371
1318.000000	0.010268
1317.000000	0.010173
1316.000000	0.010101
1315.000000	0.010028
1314.000000	0.009940
1313.000000	0.009873
1312.000000	0.009846
1311.000000	0.009824
1310.000000	0.009773
1309.000000	0.009702
1308.000000	0.009632
1307.000000	0.009559
1306.000000	0.009477
1305.000000	0.009405
1304.000000	0.009352
1303.000000	0.009297
1302.000000	0.009228
1301.000000	0.009161
1300.000000	0.009107
1299.000000	0.009045
1298.000000	0.008969
1297.000000	0.008904
1296.000000	0.008863
1295.000000	0.008827
1294.000000	0.008784
1293.000000	0.008744
1292.000000	0.008705
1291.000000	0.008638
1290.000000	0.008543
1289.000000	0.008464
1288.000000	0.008423
1287.000000	0.008391
1286.000000	0.008337
1285.000000	0.008282
1284.000000	0.008249
1283.000000	0.008225
1282.000000	0.008187
1281.000000	0.008142
1280.000000	0.008098
1279.000000	0.008042
1278.000000	0.007968
1277.000000	0.007900
1276.000000	0.007851
1275.000000	0.007805
1274.000000	0.007754
1273.000000	0.007715
1272.000000	0.007686
1271.000000	0.007633
1270.000000	0.007549
1269.000000	0.007476
1268.000000	0.007447
1267.000000	0.007441
1266.000000	0.007433
1265.000000	0.007425
1264.000000	0.007422
1263.000000	0.007396
1262.000000	0.007340
1261.000000	0.007288
1260.000000	0.007264
1259.000000	0.007239
1258.000000	0.007187
1257.000000	0.007127
1256.000000	0.007081
1255.000000	0.007039
1254.000000	0.006995
1253.000000	0.006968
1252.000000	0.006964
1251.000000	0.006952
1250.000000	0.006914
1249.000000	0.006872
1248.000000	0.006845
1247.000000	0.006812
1246.000000	0.006765
1245.000000	0.006731
1244.000000	0.006726
1243.000000	0.006725
1242.000000	0.006707
1241.000000	0.006691
1240.000000	0.006691
1239.000000	0.006682
1238.000000	0.006645
1237.000000	0.006601
1236.000000	0.006571
1235.000000	0.006540
1234.000000	0.006491
1233.000000	0.006443
1232.000000	0.006418
1231.000000	0.006401
1230.000000	0.006381
1229.000000	0.006366
1228.000000	0.006362
1227.000000	0.006343
1226.000000	0.006298
1225.000000	0.006250
1224.000000	0.006213
1223.000000	0.006169
1222.000000	0.006107
1221.000000	0.006054
1220.000000	0.006018
1219.000000	0.005979
1218.000000	0.005928
1217.000000	0.005895
1216.000000	0.005896
1215.000000	0.005891
1214.000000	0.005850
1213.000000	0.005798
1212.000000	0.005764
1211.000000	0.005739
1210.000000	0.005703
1209.000000	0.005665
1208.000000	0.005641
1207.000000	0.005622
1206.000000	0.005596
1205.000000	0.005574
1204.000000	0.005557
1203.000000	0.005526
1202.000000	0.005480
1201.000000	0.005448
1200.000000	0.005447
1199.000000	0.005448
1198.000000	0.005430
1197.000000	0.005402
1196.000000	0.005370
1195.000000	0.005320
1194.000000	0.005261
1193.000000	0.005231
1192.000000	0.005238
1191.000000	0.005241
1190.000000	0.005214
1189.000000	0.005185
1188.000000	0.005181
1187.000000	0.005187
1186.000000	0.005185
1185.000000	0.005188
1184.000000	0.005198
1183.000000	0.005194
1182.000000	0.005172
1181.000000	0.005169
1180.000000	0.005198
1179.000000	0.005226
1178.000000	0.005228
1177.000000	0.005234
1176.000000	0.005267
1175.000000	0.005301
1174.000000	0.005305
1173.000000	0.005291
1172.000000	0.005278
1171.000000	0.005257
1170.000000	0.005236
1169.000000	0.005251
1168.000000	0.005304
1167.000000	0.005346
1166.000000	0.005350
1165.000000	0.005348
1164.000000	0.005360
1163.000000	0.005350
1162.000000	0.005298
1161.000000	0.005248
1160.000000	0.005245
1159.000000	0.005264
1158.000000	0.005260
1157.000000	0.005234
1156.000000	0.005215
1155.000000	0.005203
1154.000000	0.005188
1153.000000	0.005175
1152.000000	0.005160
1151.000000	0.005117
1150.000000	0.005051
1149.000000	0.005009
1148.000000	0.005008
1147.000000	0.005009
1146.000000	0.004985
1145.000000	0.004967
1144.000000	0.004977
1143.000000	0.004979
1142.000000	0.004944
1141.000000	0.004906
1140.000000	0.004900
1139.000000	0.004903
1138.000000	0.004880
1137.000000	0.004844
1136.000000	0.004811
1135.000000	0.004772
1134.000000	0.004725
1133.000000	0.004703
1132.000000	0.004718
1131.000000	0.004725
1130.000000	0.004700
1129.000000	0.004674
1128.000000	0.004679
1127.000000	0.004693
1126.000000	0.004696
1125.000000	0.004709
1124.000000	0.004742
1123.000000	0.004755
1122.000000	0.004719
1121.000000	0.004670
1120.000000	0.004647
1119.000000	0.004640
1118.000000	0.004638
1117.000000	0.004669
1116.000000	0.004745
1115.000000	0.004826
1114.000000	0.004880
1113.000000	0.004926
1112.000000	0.004981
1111.000000	0.005020
1110.000000	0.005036
1109.000000	0.005060
1108.000000	0.005087
1107.000000	0.005058
1106.000000	0.004964
1105.000000	0.004885
1104.000000	0.004870
1103.000000	0.004867
1102.000000	0.004816
1101.000000	0.004758
1100.000000	0.004759
1099.000000	0.004820
1098.000000	0.004910
1097.000000	0.005037
1096.000000	0.005211
1095.000000	0.005402
1094.000000	0.005573
1093.000000	0.005727
1092.000000	0.005856
1091.000000	0.005914
1090.000000	0.005889
1089.000000	0.005839
1088.000000	0.005808
1087.000000	0.005775
1086.000000	0.005719
1085.000000	0.005673
1084.000000	0.005655
1083.000000	0.005613
1082.000000	0.005514
1081.000000	0.005401
1080.000000	0.005321
1079.000000	0.005262
1078.000000	0.005203
1077.000000	0.005169
1076.000000	0.005173
1075.000000	0.005174
1074.000000	0.005149
1073.000000	0.005131
1072.000000	0.005136
1071.000000	0.005123
1070.000000	0.005069
1069.000000	0.005026
1068.000000	0.005029
1067.000000	0.005036
1066.000000	0.005006
1065.000000	0.004962
1064.000000	0.004935
1063.000000	0.004912
1062.000000	0.004894
1061.000000	0.004924
1060.000000	0.005000
1059.000000	0.005052
1058.000000	0.005046
1057.000000	0.005043
1056.000000	0.005094
1055.000000	0.005155
1054.000000	0.005169
1053.000000	0.005151
1052.000000	0.005135
1051.000000	0.005108
1050.000000	0.005068
1049.000000	0.005068
1048.000000	0.005125
1047.000000	0.005170
1046.000000	0.005153
1045.000000	0.005118
1044.000000	0.005113
1043.000000	0.005113
1042.000000	0.005096
1041.000000	0.005106
1040.000000	0.005173
1039.000000	0.005246
1038.000000	0.005268
1037.000000	0.005257
1036.000000	0.005242
1035.000000	0.005208
1034.000000	0.005155
1033.000000	0.005136
1032.000000	0.005173
1031.000000	0.005202
1030.000000	0.005179
1029.000000	0.005153
1028.000000	0.005175
1027.000000	0.005211
1026.000000	0.005205
1025.000000	0.005164
1024.000000	0.005114
1023.000000	0.005042
1022.000000	0.004954
1021.000000	0.004911
1020.000000	0.004941
1019.000000	0.004981
1018.000000	0.004978
1017.000000	0.004961
1016.000000	0.004973
1015.000000	0.004994
1014.000000	0.004994
1013.000000	0.004991
1012.000000	0.004992
1011.000000	0.004955
1010.000000	0.004879
1009.000000	0.004834
1008.000000	0.004850
1007.000000	0.004859
1006.000000	0.004807
1005.000000	0.004741
1004.000000	0.004719
1003.000000	0.004714
1002.000000	0.004683
1001.000000	0.004655
1000.000000	0.004668
999.000000	0.004687
998.000000	0.004668
997.000000	0.004630
996.000000	0.004611
995.000000	0.004592
994.000000	0.004552
993.000000	0.004526
992.000000	0.004542
991.000000	0.004566
990.000000	0.004567
989.000000	0.004582
988.000000	0.004642
987.000000	0.004706
986.000000	0.004730
985.000000	0.004747
984.000000	0.004796
983.000000	0.004859
982.000000	0.004912
981.000000	0.004986
980.000000	0.005117
979.000000	0.005273
978.000000	0.005416
977.000000	0.005560
976.000000	0.005720
975.000000	0.005861
974.000000	0.005969
973.000000	0.006102
972.000000	0.006309
971.000000	0.006557
970.000000	0.006799
969.000000	0.007045
968.000000	0.007316
967.000000	0.007589
966.000000	0.007843
965.000000	0.008104
964.000000	0.008380
963.000000	0.008632
962.000000	0.008855
961.000000	0.009114
960.000000	0.009441
959.000000	0.009776
958.000000	0.010061
957.000000	0.010327
956.000000	0.010612
955.000000	0.010881
954.000000	0.011091
953.000000	0.011266
952.000000	0.011430
951.000000	0.011546
950.000000	0.011575
949.000000	0.011548
948.000000	0.011495
947.000000	0.011398
946.000000	0.011246
945.000000	0.011081
944.000000	0.010926
943.000000	0.010744
942.000000	0.010527
941.000000	0.010331
940.000000	0.010187
939.000000	0.010041
938.000000	0.009856
937.000000	0.009665
936.000000	0.009492
935.000000	0.009299
934.000000	0.009070
933.000000	0.008868
932.000000	0.008733
931.000000	0.008608
930.000000	0.008439
929.000000	0.008257
928.000000	0.008099
927.000000	0.007945
926.000000	0.007776
925.000000	0.007626
924.000000	0.007498
923.000000	0.007331
922.000000	0.007107
921.000000	0.006904
920.000000	0.006771
919.000000	0.006652
918.000000	0.006496
917.000000	0.006347
916.000000	0.006248
915.000000	0.006158
914.000000	0.006032
913.000000	0.005908
912.000000	0.005822
911.000000	0.005735
910.000000	0.005617
909.000000	0.005514
908.000000	0.005453
907.000000	0.005377
906.000000	0.005242
905.000000	0.005105
904.000000	0.005019
903.000000	0.004942
902.000000	0.004821
901.000000	0.004698
900.000000	0.004627
899.000000	0.004574
898.000000	0.004482
897.000000	0.004364
896.000000	0.004259
895.000000	0.004163
894.000000	0.004082
893.000000	0.004062
892.000000	0.004091
891.000000	0.004064
890.000000	0.003917
889.000000	0.003724
888.000000	0.003580
887.000000	0.003481
886.000000	0.003399
885.000000	0.003362
884.000000	0.003376
883.000000	0.003364
882.000000	0.003278
881.000000	0.003188
880.000000	0.003162
879.000000	0.003157
878.000000	0.003118
877.000000	0.003081
876.000000	0.003096
875.000000	0.003116
874.000000	0.003084
873.000000	0.003030
872.000000	0.002993
871.000000	0.002942
870.000000	0.002862
869.000000	0.002817
868.000000	0.002839
867.000000	0.002858
866.000000	0.002824
865.000000	0.002807
864.000000	0.002868
863.000000	0.002948
862.000000	0.002984
861.000000	0.003032
860.000000	0.003170
859.000000	0.003368
858.000000	0.003560
857.000000	0.003765
856.000000	0.004020
855.000000	0.004293
854.000000	0.004551
853.000000	0.004845
852.000000	0.005214
851.000000	0.005603
850.000000	0.005954
849.000000	0.006314
848.000000	0.006737
847.000000	0.007185
846.000000	0.007619
845.000000	0.008096
844.000000	0.008668
843.000000	0.009281
842.000000	0.009856
841.000000	0.010408
840.000000	0.010958
839.000000	0.011448
838.000000	0.011834
837.000000	0.012166
836.000000	0.012492
835.000000	0.012747
834.000000	0.012858
833.000000	0.012866
832.000000	0.012847
831.000000	0.012800
830.000000	0.012707
829.000000	0.012603
828.000000	0.012504
827.000000	0.012361
826.000000	0.012184
825.000000	0.012088
824.000000	0.012128
823.000000	0.012201
822.000000	0.012230
821.000000	0.012290
820.000000	0.012462
819.000000	0.012683
818.000000	0.012861
817.000000	0.013010
816.000000	0.013158
815.000000	0.013245
814.000000	0.013217
813.000000	0.013118
812.000000	0.012985
811.000000	0.012774
810.000000	0.012483
809.000000	0.012222
808.000000	0.012061
807.000000	0.011913
806.000000	0.011685
805.000000	0.011416
804.000000	0.011177
803.000000	0.010948
802.000000	0.010719
801.000000	0.010569
800.000000	0.010528
799.000000	0.010477
798.000000	0.010307
797.000000	0.010076
796.000000	0.009880
795.000000	0.009703
794.000000	0.009492
793.000000	0.009290
792.000000	0.009144
791.000000	0.009009
790.000000	0.008842
789.000000	0.008707
788.000000	0.008646
787.000000	0.008573
786.000000	0.008398
785.000000	0.008179
784.000000	0.008026
783.000000	0.007947
782.000000	0.007891
781.000000	0.007859
780.000000	0.007859
779.000000	0.007851
778.000000	0.007820
777.000000	0.007838
776.000000	0.007963
775.000000	0.008149
774.000000	0.008359
773.000000	0.008644
772.000000	0.009024
771.000000	0.009396
770.000000	0.009647
769.000000	0.009777
768.000000	0.009819
767.000000	0.009746
766.000000	0.009557
765.000000	0.009342
764.000000	0.009172
763.000000	0.008998
762.000000	0.008765
761.000000	0.008526
760.000000	0.008336
759.000000	0.008155
758.000000	0.007948
757.000000	0.007785
756.000000	0.007733
755.000000	0.007743
754.000000	0.007757
753.000000	0.007811
752.000000	0.007943
751.000000	0.008077
750.000000	0.008130
749.000000	0.008137
748.000000	0.008175
747.000000	0.008239
746.000000	0.008300
745.000000	0.008383
744.000000	0.008496
743.000000	0.008573
742.000000	0.008580
741.000000	0.008585
740.000000	0.008627
739.000000	0.008619
738.000000	0.008485
737.000000	0.008300
736.000000	0.008181
735.000000	0.008128
734.000000	0.008074
733.000000	0.008010
732.000000	0.007951
731.000000	0.007855
730.000000	0.007698
729.000000	0.007555
728.000000	0.007486
727.000000	0.007428
726.000000	0.007306
725.000000	0.007158
724.000000	0.007044
723.000000	0.006933
722.000000	0.006789
721.000000	0.006661
720.000000	0.006591
719.000000	0.006532
718.000000	0.006446
717.000000	0.006384
716.000000	0.006386
715.000000	0.006389
714.000000	0.006337
713.000000	0.006276
712.000000	0.006246
711.000000	0.006175
710.000000	0.006000
709.000000	0.005788
708.000000	0.005643
707.000000	0.005558
706.000000	0.005490
705.000000	0.005471
704.000000	0.005515
703.000000	0.005550
702.000000	0.005522
701.000000	0.005485
700.000000	0.005496
699.000000	0.005498
698.000000	0.005423
697.000000	0.005316
696.000000	0.005233
695.000000	0.005154
694.000000	0.005055
693.000000	0.004978
692.000000	0.004951
691.000000	0.004899
690.000000	0.004754
689.000000	0.004568
688.000000	0.004407
687.000000	0.004262
686.000000	0.004117
685.000000	0.004021
684.000000	0.004003
683.000000	0.003993
682.000000	0.003940
681.000000	0.003900
680.000000	0.003935
679.000000	0.003985
678.000000	0.003953
677.000000	0.003888
676.000000	0.003885
675.000000	0.003923
674.000000	0.003924
673.000000	0.003876
672.000000	0.003740
671.000000	0.003344
670.000000	0.002545
669.000000	0.001515
668.000000	0.000964
667.000000	0.001455
666.000000	0.002242
665.000000	0.002919
664.000000	0.003458
663.000000	0.003728
662.000000	0.003704
661.000000	0.003583
660.000000	0.003525
659.000000	0.003449
658.000000	0.003277
657.000000	0.003171
656.000000	0.003246
655.000000	0.003328
654.000000	0.003241
653.000000	0.003095
652.000000	0.003027
651.000000	0.002982
650.000000	0.002930
649.000000	0.003021
648.000000	0.003291
647.000000	0.003505
646.000000	0.003504
645.000000	0.003433
644.000000	0.003429
643.000000	0.003389
642.000000	0.003210
641.000000	0.003022
640.000000	0.002957
639.000000	0.002924
638.000000	0.002830
637.000000	0.002785
636.000000	0.002872
635.000000	0.002964
634.000000	0.002959
633.000000	0.002952
632.000000	0.002989
631.000000	0.002908
630.000000	0.002635
629.000000	0.002388
628.000000	0.002369
627.000000	0.002472
626.000000	0.002520
625.000000	0.002548
624.000000	0.002638
623.000000	0.002695
622.000000	0.002611
621.000000	0.002486
620.000000	0.002464
619.000000	0.002524
618.000000	0.002597
617.000000	0.002711
616.000000	0.002847
615.000000	0.002863
614.000000	0.002725
613.000000	0.002618
612.000000	0.002667
611.000000	0.002763
610.000000	0.002809
609.000000	0.002899
608.000000	0.003067
607.000000	0.003112
606.000000	0.002922
605.000000	0.002689
604.000000	0.002617
603.000000	0.002634
602.000000	0.002614
601.000000	0.002612
600.000000	0.002699
599.000000	0.002746
598.000000	0.002651
597.000000	0.002526
596.000000	0.002479
595.000000	0.002406
594.000000	0.002217
593.000000	0.002052
592.000000	0.002048
591.000000	0.002115
590.000000	0.002132
589.000000	0.002157
588.000000	0.002236
587.000000	0.002238
586.000000	0.002102
585.000000	0.002003
584.000000	0.002070
583.000000	0.002164
582.000000	0.002134
581.000000	0.002054
580.000000	0.002013
579.000000	0.001916
578.000000	0.001727
577.000000	0.001638
576.000000	0.001769
575.000000	0.001963
574.000000	0.002071
573.000000	0.002173
572.000000	0.002311
571.000000	0.002310
570.000000	0.002073
569.000000	0.001793
568.000000	0.001618
567.000000	0.001442
566.000000	0.001217
565.000000	0.001152
564.000000	0.001351
563.000000	0.001570
562.000000	0.001588
561.000000	0.001511
560.000000	0.001506
559.000000	0.001534
558.000000	0.001553
557.000000	0.001653
556.000000	0.001799
555.000000	0.001769
554.000000	0.001551
553.000000	0.001431
552.000000	0.001496
551.000000	0.001461
550.000000	0.001199
549.000000	0.001017
548.000000	0.001120
547.000000	0.001260
546.000000	0.001205
545.000000	0.001137
544.000000	0.001256
543.000000	0.001405
542.000000	0.001421
541.000000	0.001452
540.000000	0.001606
539.000000	0.001678
538.000000	0.001549
537.000000	0.001454
536.000000	0.001554
535.000000	0.001620
534.000000	0.001485
533.000000	0.001380
532.000000	0.001492
531.000000	0.001588
530.000000	0.001417
529.000000	0.001139
528.000000	0.001016
527.000000	0.001003
526.000000	0.000974
525.000000	0.001022
524.000000	0.001171
523.000000	0.001194
522.000000	0.001037
521.000000	0.001001
520.000000	0.001248
519.000000	0.001471
518.000000	0.001389
517.000000	0.001193
516.000000	0.001102
515.000000	0.000975
514.000000	0.000740
513.000000	0.000677
512.000000	0.000945
511.000000	0.001252
510.000000	0.001340
509.000000	0.001395
508.000000	0.001620
507.000000	0.001818
506.000000	0.001829
505.000000	0.001956
504.000000	0.002467
503.000000	0.003107
502.000000	0.003525
501.000000	0.003833
500.000000	0.004269
499.000000	0.004696
498.000000	0.004919
497.000000	0.005074
496.000000	0.005301
495.000000	0.005411
494.000000	0.005253
493.000000	0.005048
492.000000	0.004975
491.000000	0.004818
490.000000	0.004483
489.000000	0.004346
488.000000	0.004597
487.000000	0.004741
486.000000	0.004257
485.000000	0.003375
484.000000	0.002668
483.000000	0.002222
482.000000	0.001828
481.000000	0.001567
480.000000	0.001568
479.000000	0.001569
478.000000	0.001342
477.000000	0.001135
476.000000	0.001190
475.000000	0.001210
474.000000	0.000861
473.000000	0.000435
472.000000	0.000416
471.000000	0.000649
470.000000	0.000790
469.000000	0.001004
468.000000	0.001518
467.000000	0.002063
466.000000	0.002331
465.000000	0.002545
464.000000	0.003019
463.000000	0.003633
462.000000	0.004221
461.000000	0.005000
460.000000	0.006053
459.000000	0.006893
458.000000	0.007140
457.000000	0.007224
456.000000	0.007595
455.000000	0.007916
454.000000	0.007889
453.000000	0.007850
452.000000	0.008106
451.000000	0.008333
450.000000	0.008288
