PE IR       SUBTECH     SPECTRUM    ASCII       PEDS        4.00        
   -1
P12-Bleu015_1.ASC
23/06/08
11:14:08.00
23/06/08
11:52:51.00
uco
Sample 015 By uco Date Thursday, June 08 2023
450.000000
#HDR
-1
-1
#GR
cm-1
A
1.0
0.0
4000.000000
-1.000000
3551
8
0.010646
-0.000445
#DATA
4000.000000	0.000399
3999.000000	0.000414
3998.000000	0.000416
3997.000000	0.000405
3996.000000	0.000391
3995.000000	0.000381
3994.000000	0.000380
3993.000000	0.000387
3992.000000	0.000396
3991.000000	0.000397
3990.000000	0.000389
3989.000000	0.000376
3988.000000	0.000364
3987.000000	0.000363
3986.000000	0.000374
3985.000000	0.000392
3984.000000	0.000412
3983.000000	0.000428
3982.000000	0.000436
3981.000000	0.000434
3980.000000	0.000423
3979.000000	0.000408
3978.000000	0.000395
3977.000000	0.000388
3976.000000	0.000390
3975.000000	0.000397
3974.000000	0.000408
3973.000000	0.000418
3972.000000	0.000424
3971.000000	0.000427
3970.000000	0.000429
3969.000000	0.000434
3968.000000	0.000439
3967.000000	0.000440
3966.000000	0.000436
3965.000000	0.000433
3964.000000	0.000439
3963.000000	0.000455
3962.000000	0.000473
3961.000000	0.000479
3960.000000	0.000470
3959.000000	0.000451
3958.000000	0.000435
3957.000000	0.000430
3956.000000	0.000439
3955.000000	0.000452
3954.000000	0.000459
3953.000000	0.000449
3952.000000	0.000423
3951.000000	0.000392
3950.000000	0.000372
3949.000000	0.000373
3948.000000	0.000390
3947.000000	0.000412
3946.000000	0.000427
3945.000000	0.000428
3944.000000	0.000418
3943.000000	0.000406
3942.000000	0.000400
3941.000000	0.000402
3940.000000	0.000416
3939.000000	0.000442
3938.000000	0.000472
3937.000000	0.000498
3936.000000	0.000509
3935.000000	0.000507
3934.000000	0.000501
3933.000000	0.000498
3932.000000	0.000495
3931.000000	0.000488
3930.000000	0.000478
3929.000000	0.000477
3928.000000	0.000485
3927.000000	0.000497
3926.000000	0.000507
3925.000000	0.000512
3924.000000	0.000512
3923.000000	0.000510
3922.000000	0.000507
3921.000000	0.000504
3920.000000	0.000507
3919.000000	0.000517
3918.000000	0.000532
3917.000000	0.000543
3916.000000	0.000548
3915.000000	0.000550
3914.000000	0.000557
3913.000000	0.000570
3912.000000	0.000585
3911.000000	0.000597
3910.000000	0.000602
3909.000000	0.000603
3908.000000	0.000600
3907.000000	0.000596
3906.000000	0.000595
3905.000000	0.000601
3904.000000	0.000614
3903.000000	0.000618
3902.000000	0.000594
3901.000000	0.000544
3900.000000	0.000492
3899.000000	0.000466
3898.000000	0.000473
3897.000000	0.000494
3896.000000	0.000508
3895.000000	0.000508
3894.000000	0.000498
3893.000000	0.000493
3892.000000	0.000511
3891.000000	0.000552
3890.000000	0.000595
3889.000000	0.000616
3888.000000	0.000606
3887.000000	0.000581
3886.000000	0.000564
3885.000000	0.000561
3884.000000	0.000555
3883.000000	0.000530
3882.000000	0.000498
3881.000000	0.000486
3880.000000	0.000514
3879.000000	0.000565
3878.000000	0.000608
3877.000000	0.000618
3876.000000	0.000600
3875.000000	0.000578
3874.000000	0.000572
3873.000000	0.000579
3872.000000	0.000583
3871.000000	0.000586
3870.000000	0.000598
3869.000000	0.000613
3868.000000	0.000609
3867.000000	0.000579
3866.000000	0.000537
3865.000000	0.000506
3864.000000	0.000499
3863.000000	0.000511
3862.000000	0.000530
3861.000000	0.000552
3860.000000	0.000573
3859.000000	0.000593
3858.000000	0.000612
3857.000000	0.000628
3856.000000	0.000634
3855.000000	0.000633
3854.000000	0.000638
3853.000000	0.000635
3852.000000	0.000603
3851.000000	0.000566
3850.000000	0.000556
3849.000000	0.000570
3848.000000	0.000592
3847.000000	0.000605
3846.000000	0.000599
3845.000000	0.000577
3844.000000	0.000553
3843.000000	0.000540
3842.000000	0.000541
3841.000000	0.000550
3840.000000	0.000562
3839.000000	0.000581
3838.000000	0.000603
3837.000000	0.000614
3836.000000	0.000610
3835.000000	0.000595
3834.000000	0.000578
3833.000000	0.000561
3832.000000	0.000547
3831.000000	0.000539
3830.000000	0.000537
3829.000000	0.000536
3828.000000	0.000536
3827.000000	0.000545
3826.000000	0.000567
3825.000000	0.000595
3824.000000	0.000613
3823.000000	0.000617
3822.000000	0.000623
3821.000000	0.000643
3820.000000	0.000658
3819.000000	0.000651
3818.000000	0.000621
3817.000000	0.000587
3816.000000	0.000565
3815.000000	0.000548
3814.000000	0.000517
3813.000000	0.000472
3812.000000	0.000432
3811.000000	0.000417
3810.000000	0.000432
3809.000000	0.000467
3808.000000	0.000512
3807.000000	0.000562
3806.000000	0.000607
3805.000000	0.000630
3804.000000	0.000626
3803.000000	0.000604
3802.000000	0.000585
3801.000000	0.000584
3800.000000	0.000600
3799.000000	0.000621
3798.000000	0.000639
3797.000000	0.000644
3796.000000	0.000630
3795.000000	0.000600
3794.000000	0.000561
3793.000000	0.000525
3792.000000	0.000498
3791.000000	0.000480
3790.000000	0.000466
3789.000000	0.000452
3788.000000	0.000439
3787.000000	0.000432
3786.000000	0.000437
3785.000000	0.000450
3784.000000	0.000466
3783.000000	0.000478
3782.000000	0.000478
3781.000000	0.000469
3780.000000	0.000460
3779.000000	0.000461
3778.000000	0.000467
3777.000000	0.000473
3776.000000	0.000479
3775.000000	0.000494
3774.000000	0.000520
3773.000000	0.000544
3772.000000	0.000557
3771.000000	0.000557
3770.000000	0.000551
3769.000000	0.000539
3768.000000	0.000520
3767.000000	0.000500
3766.000000	0.000488
3765.000000	0.000487
3764.000000	0.000492
3763.000000	0.000495
3762.000000	0.000495
3761.000000	0.000495
3760.000000	0.000500
3759.000000	0.000508
3758.000000	0.000515
3757.000000	0.000519
3756.000000	0.000526
3755.000000	0.000540
3754.000000	0.000563
3753.000000	0.000596
3752.000000	0.000635
3751.000000	0.000672
3750.000000	0.000701
3749.000000	0.000726
3748.000000	0.000744
3747.000000	0.000742
3746.000000	0.000716
3745.000000	0.000682
3744.000000	0.000666
3743.000000	0.000662
3742.000000	0.000654
3741.000000	0.000643
3740.000000	0.000638
3739.000000	0.000650
3738.000000	0.000681
3737.000000	0.000724
3736.000000	0.000763
3735.000000	0.000765
3734.000000	0.000722
3733.000000	0.000655
3732.000000	0.000596
3731.000000	0.000566
3730.000000	0.000557
3729.000000	0.000554
3728.000000	0.000549
3727.000000	0.000547
3726.000000	0.000549
3725.000000	0.000546
3724.000000	0.000529
3723.000000	0.000508
3722.000000	0.000499
3721.000000	0.000502
3720.000000	0.000504
3719.000000	0.000500
3718.000000	0.000494
3717.000000	0.000491
3716.000000	0.000493
3715.000000	0.000500
3714.000000	0.000516
3713.000000	0.000545
3712.000000	0.000576
3711.000000	0.000582
3710.000000	0.000548
3709.000000	0.000492
3708.000000	0.000445
3707.000000	0.000425
3706.000000	0.000429
3705.000000	0.000438
3704.000000	0.000436
3703.000000	0.000426
3702.000000	0.000418
3701.000000	0.000416
3700.000000	0.000416
3699.000000	0.000415
3698.000000	0.000416
3697.000000	0.000425
3696.000000	0.000449
3695.000000	0.000484
3694.000000	0.000514
3693.000000	0.000519
3692.000000	0.000495
3691.000000	0.000467
3690.000000	0.000469
3689.000000	0.000500
3688.000000	0.000533
3687.000000	0.000551
3686.000000	0.000556
3685.000000	0.000553
3684.000000	0.000545
3683.000000	0.000536
3682.000000	0.000532
3681.000000	0.000532
3680.000000	0.000531
3679.000000	0.000523
3678.000000	0.000505
3677.000000	0.000488
3676.000000	0.000499
3675.000000	0.000536
3674.000000	0.000564
3673.000000	0.000555
3672.000000	0.000515
3671.000000	0.000476
3670.000000	0.000469
3669.000000	0.000493
3668.000000	0.000521
3667.000000	0.000538
3666.000000	0.000539
3665.000000	0.000522
3664.000000	0.000490
3663.000000	0.000455
3662.000000	0.000431
3661.000000	0.000426
3660.000000	0.000435
3659.000000	0.000449
3658.000000	0.000463
3657.000000	0.000479
3656.000000	0.000502
3655.000000	0.000529
3654.000000	0.000548
3653.000000	0.000555
3652.000000	0.000563
3651.000000	0.000599
3650.000000	0.000670
3649.000000	0.000723
3648.000000	0.000706
3647.000000	0.000636
3646.000000	0.000560
3645.000000	0.000500
3644.000000	0.000458
3643.000000	0.000436
3642.000000	0.000432
3641.000000	0.000439
3640.000000	0.000442
3639.000000	0.000441
3638.000000	0.000442
3637.000000	0.000454
3636.000000	0.000478
3635.000000	0.000506
3634.000000	0.000527
3633.000000	0.000535
3632.000000	0.000527
3631.000000	0.000515
3630.000000	0.000520
3629.000000	0.000544
3628.000000	0.000567
3627.000000	0.000580
3626.000000	0.000591
3625.000000	0.000600
3624.000000	0.000597
3623.000000	0.000569
3622.000000	0.000514
3621.000000	0.000447
3620.000000	0.000410
3619.000000	0.000435
3618.000000	0.000507
3617.000000	0.000579
3616.000000	0.000616
3615.000000	0.000618
3614.000000	0.000609
3613.000000	0.000609
3612.000000	0.000624
3611.000000	0.000642
3610.000000	0.000647
3609.000000	0.000632
3608.000000	0.000601
3607.000000	0.000564
3606.000000	0.000523
3605.000000	0.000477
3604.000000	0.000434
3603.000000	0.000414
3602.000000	0.000432
3601.000000	0.000479
3600.000000	0.000528
3599.000000	0.000556
3598.000000	0.000559
3597.000000	0.000547
3596.000000	0.000534
3595.000000	0.000533
3594.000000	0.000551
3593.000000	0.000576
3592.000000	0.000591
3591.000000	0.000586
3590.000000	0.000564
3589.000000	0.000533
3588.000000	0.000511
3587.000000	0.000504
3586.000000	0.000506
3585.000000	0.000508
3584.000000	0.000510
3583.000000	0.000517
3582.000000	0.000529
3581.000000	0.000542
3580.000000	0.000552
3579.000000	0.000565
3578.000000	0.000580
3577.000000	0.000587
3576.000000	0.000576
3575.000000	0.000551
3574.000000	0.000528
3573.000000	0.000523
3572.000000	0.000540
3571.000000	0.000572
3570.000000	0.000603
3569.000000	0.000626
3568.000000	0.000646
3567.000000	0.000675
3566.000000	0.000710
3565.000000	0.000736
3564.000000	0.000744
3563.000000	0.000733
3562.000000	0.000715
3561.000000	0.000695
3560.000000	0.000671
3559.000000	0.000644
3558.000000	0.000613
3557.000000	0.000584
3556.000000	0.000569
3555.000000	0.000575
3554.000000	0.000598
3553.000000	0.000622
3552.000000	0.000634
3551.000000	0.000635
3550.000000	0.000637
3549.000000	0.000643
3548.000000	0.000654
3547.000000	0.000662
3546.000000	0.000661
3545.000000	0.000648
3544.000000	0.000637
3543.000000	0.000643
3542.000000	0.000664
3541.000000	0.000686
3540.000000	0.000699
3539.000000	0.000706
3538.000000	0.000712
3537.000000	0.000715
3536.000000	0.000706
3535.000000	0.000687
3534.000000	0.000669
3533.000000	0.000660
3532.000000	0.000660
3531.000000	0.000658
3530.000000	0.000648
3529.000000	0.000635
3528.000000	0.000638
3527.000000	0.000663
3526.000000	0.000697
3525.000000	0.000718
3524.000000	0.000718
3523.000000	0.000709
3522.000000	0.000704
3521.000000	0.000699
3520.000000	0.000690
3519.000000	0.000685
3518.000000	0.000691
3517.000000	0.000704
3516.000000	0.000715
3515.000000	0.000718
3514.000000	0.000716
3513.000000	0.000714
3512.000000	0.000720
3511.000000	0.000735
3510.000000	0.000753
3509.000000	0.000759
3508.000000	0.000744
3507.000000	0.000717
3506.000000	0.000698
3505.000000	0.000699
3504.000000	0.000723
3503.000000	0.000761
3502.000000	0.000799
3501.000000	0.000824
3500.000000	0.000832
3499.000000	0.000830
3498.000000	0.000824
3497.000000	0.000819
3496.000000	0.000815
3495.000000	0.000817
3494.000000	0.000825
3493.000000	0.000839
3492.000000	0.000854
3491.000000	0.000868
3490.000000	0.000878
3489.000000	0.000880
3488.000000	0.000876
3487.000000	0.000873
3486.000000	0.000876
3485.000000	0.000881
3484.000000	0.000883
3483.000000	0.000881
3482.000000	0.000878
3481.000000	0.000872
3480.000000	0.000864
3479.000000	0.000861
3478.000000	0.000866
3477.000000	0.000881
3476.000000	0.000902
3475.000000	0.000931
3474.000000	0.000964
3473.000000	0.000995
3472.000000	0.001017
3471.000000	0.001030
3470.000000	0.001039
3469.000000	0.001045
3468.000000	0.001052
3467.000000	0.001064
3466.000000	0.001084
3465.000000	0.001108
3464.000000	0.001134
3463.000000	0.001158
3462.000000	0.001171
3461.000000	0.001166
3460.000000	0.001147
3459.000000	0.001128
3458.000000	0.001124
3457.000000	0.001137
3456.000000	0.001160
3455.000000	0.001188
3454.000000	0.001217
3453.000000	0.001243
3452.000000	0.001265
3451.000000	0.001288
3450.000000	0.001316
3449.000000	0.001349
3448.000000	0.001389
3447.000000	0.001440
3446.000000	0.001498
3445.000000	0.001552
3444.000000	0.001597
3443.000000	0.001639
3442.000000	0.001688
3441.000000	0.001747
3440.000000	0.001813
3439.000000	0.001888
3438.000000	0.001966
3437.000000	0.002035
3436.000000	0.002090
3435.000000	0.002137
3434.000000	0.002191
3433.000000	0.002259
3432.000000	0.002339
3431.000000	0.002422
3430.000000	0.002497
3429.000000	0.002554
3428.000000	0.002592
3427.000000	0.002623
3426.000000	0.002650
3425.000000	0.002672
3424.000000	0.002684
3423.000000	0.002692
3422.000000	0.002697
3421.000000	0.002693
3420.000000	0.002674
3419.000000	0.002643
3418.000000	0.002610
3417.000000	0.002585
3416.000000	0.002576
3415.000000	0.002581
3414.000000	0.002592
3413.000000	0.002596
3412.000000	0.002585
3411.000000	0.002556
3410.000000	0.002511
3409.000000	0.002454
3408.000000	0.002402
3407.000000	0.002376
3406.000000	0.002381
3405.000000	0.002401
3404.000000	0.002414
3403.000000	0.002414
3402.000000	0.002400
3401.000000	0.002373
3400.000000	0.002333
3399.000000	0.002290
3398.000000	0.002257
3397.000000	0.002234
3396.000000	0.002217
3395.000000	0.002200
3394.000000	0.002181
3393.000000	0.002162
3392.000000	0.002143
3391.000000	0.002128
3390.000000	0.002114
3389.000000	0.002102
3388.000000	0.002094
3387.000000	0.002096
3386.000000	0.002108
3385.000000	0.002113
3384.000000	0.002098
3383.000000	0.002066
3382.000000	0.002033
3381.000000	0.002013
3380.000000	0.002009
3379.000000	0.002019
3378.000000	0.002033
3377.000000	0.002043
3376.000000	0.002048
3375.000000	0.002055
3374.000000	0.002070
3373.000000	0.002088
3372.000000	0.002098
3371.000000	0.002096
3370.000000	0.002081
3369.000000	0.002057
3368.000000	0.002032
3367.000000	0.002020
3366.000000	0.002024
3365.000000	0.002037
3364.000000	0.002044
3363.000000	0.002043
3362.000000	0.002037
3361.000000	0.002026
3360.000000	0.002012
3359.000000	0.001995
3358.000000	0.001976
3357.000000	0.001956
3356.000000	0.001938
3355.000000	0.001934
3354.000000	0.001947
3353.000000	0.001969
3352.000000	0.001982
3351.000000	0.001979
3350.000000	0.001962
3349.000000	0.001942
3348.000000	0.001929
3347.000000	0.001930
3346.000000	0.001945
3345.000000	0.001969
3344.000000	0.001995
3343.000000	0.002019
3342.000000	0.002036
3341.000000	0.002037
3340.000000	0.002018
3339.000000	0.001988
3338.000000	0.001960
3337.000000	0.001943
3336.000000	0.001941
3335.000000	0.001954
3334.000000	0.001970
3333.000000	0.001971
3332.000000	0.001947
3331.000000	0.001907
3330.000000	0.001870
3329.000000	0.001857
3328.000000	0.001872
3327.000000	0.001908
3326.000000	0.001949
3325.000000	0.001973
3324.000000	0.001967
3323.000000	0.001939
3322.000000	0.001910
3321.000000	0.001895
3320.000000	0.001894
3319.000000	0.001899
3318.000000	0.001901
3317.000000	0.001898
3316.000000	0.001893
3315.000000	0.001891
3314.000000	0.001899
3313.000000	0.001911
3312.000000	0.001917
3311.000000	0.001909
3310.000000	0.001890
3309.000000	0.001871
3308.000000	0.001864
3307.000000	0.001871
3306.000000	0.001886
3305.000000	0.001897
3304.000000	0.001898
3303.000000	0.001891
3302.000000	0.001887
3301.000000	0.001894
3300.000000	0.001906
3299.000000	0.001913
3298.000000	0.001904
3297.000000	0.001881
3296.000000	0.001854
3295.000000	0.001835
3294.000000	0.001826
3293.000000	0.001818
3292.000000	0.001804
3291.000000	0.001783
3290.000000	0.001759
3289.000000	0.001741
3288.000000	0.001737
3287.000000	0.001753
3286.000000	0.001782
3285.000000	0.001814
3284.000000	0.001847
3283.000000	0.001876
3282.000000	0.001894
3281.000000	0.001893
3280.000000	0.001876
3279.000000	0.001857
3278.000000	0.001849
3277.000000	0.001857
3276.000000	0.001874
3275.000000	0.001892
3274.000000	0.001895
3273.000000	0.001873
3272.000000	0.001833
3271.000000	0.001794
3270.000000	0.001774
3269.000000	0.001772
3268.000000	0.001775
3267.000000	0.001773
3266.000000	0.001762
3265.000000	0.001745
3264.000000	0.001731
3263.000000	0.001728
3262.000000	0.001734
3261.000000	0.001738
3260.000000	0.001737
3259.000000	0.001734
3258.000000	0.001735
3257.000000	0.001740
3256.000000	0.001746
3255.000000	0.001752
3254.000000	0.001752
3253.000000	0.001739
3252.000000	0.001716
3251.000000	0.001699
3250.000000	0.001701
3249.000000	0.001715
3248.000000	0.001726
3247.000000	0.001724
3246.000000	0.001711
3245.000000	0.001690
3244.000000	0.001665
3243.000000	0.001645
3242.000000	0.001634
3241.000000	0.001631
3240.000000	0.001631
3239.000000	0.001633
3238.000000	0.001642
3237.000000	0.001657
3236.000000	0.001673
3235.000000	0.001686
3234.000000	0.001693
3233.000000	0.001694
3232.000000	0.001695
3231.000000	0.001700
3230.000000	0.001706
3229.000000	0.001702
3228.000000	0.001689
3227.000000	0.001680
3226.000000	0.001687
3225.000000	0.001702
3224.000000	0.001706
3223.000000	0.001690
3222.000000	0.001663
3221.000000	0.001642
3220.000000	0.001633
3219.000000	0.001637
3218.000000	0.001646
3217.000000	0.001650
3216.000000	0.001636
3215.000000	0.001608
3214.000000	0.001582
3213.000000	0.001578
3212.000000	0.001606
3211.000000	0.001652
3210.000000	0.001688
3209.000000	0.001688
3208.000000	0.001651
3207.000000	0.001603
3206.000000	0.001570
3205.000000	0.001562
3204.000000	0.001569
3203.000000	0.001581
3202.000000	0.001588
3201.000000	0.001587
3200.000000	0.001582
3199.000000	0.001580
3198.000000	0.001586
3197.000000	0.001595
3196.000000	0.001602
3195.000000	0.001605
3194.000000	0.001607
3193.000000	0.001606
3192.000000	0.001596
3191.000000	0.001575
3190.000000	0.001551
3189.000000	0.001533
3188.000000	0.001526
3187.000000	0.001532
3186.000000	0.001549
3185.000000	0.001571
3184.000000	0.001590
3183.000000	0.001596
3182.000000	0.001589
3181.000000	0.001574
3180.000000	0.001558
3179.000000	0.001546
3178.000000	0.001538
3177.000000	0.001533
3176.000000	0.001532
3175.000000	0.001538
3174.000000	0.001550
3173.000000	0.001563
3172.000000	0.001575
3171.000000	0.001587
3170.000000	0.001604
3169.000000	0.001617
3168.000000	0.001622
3167.000000	0.001620
3166.000000	0.001614
3165.000000	0.001606
3164.000000	0.001592
3163.000000	0.001576
3162.000000	0.001559
3161.000000	0.001544
3160.000000	0.001527
3159.000000	0.001509
3158.000000	0.001495
3157.000000	0.001491
3156.000000	0.001496
3155.000000	0.001502
3154.000000	0.001500
3153.000000	0.001493
3152.000000	0.001490
3151.000000	0.001500
3150.000000	0.001518
3149.000000	0.001533
3148.000000	0.001539
3147.000000	0.001540
3146.000000	0.001542
3145.000000	0.001540
3144.000000	0.001531
3143.000000	0.001517
3142.000000	0.001505
3141.000000	0.001502
3140.000000	0.001506
3139.000000	0.001511
3138.000000	0.001509
3137.000000	0.001501
3136.000000	0.001490
3135.000000	0.001478
3134.000000	0.001468
3133.000000	0.001462
3132.000000	0.001463
3131.000000	0.001474
3130.000000	0.001492
3129.000000	0.001510
3128.000000	0.001523
3127.000000	0.001537
3126.000000	0.001552
3125.000000	0.001566
3124.000000	0.001575
3123.000000	0.001580
3122.000000	0.001581
3121.000000	0.001576
3120.000000	0.001567
3119.000000	0.001554
3118.000000	0.001539
3117.000000	0.001522
3116.000000	0.001510
3115.000000	0.001508
3114.000000	0.001518
3113.000000	0.001527
3112.000000	0.001526
3111.000000	0.001517
3110.000000	0.001506
3109.000000	0.001492
3108.000000	0.001471
3107.000000	0.001444
3106.000000	0.001423
3105.000000	0.001422
3104.000000	0.001446
3103.000000	0.001493
3102.000000	0.001546
3101.000000	0.001580
3100.000000	0.001584
3099.000000	0.001565
3098.000000	0.001539
3097.000000	0.001517
3096.000000	0.001502
3095.000000	0.001497
3094.000000	0.001502
3093.000000	0.001512
3092.000000	0.001522
3091.000000	0.001526
3090.000000	0.001528
3089.000000	0.001534
3088.000000	0.001544
3087.000000	0.001556
3086.000000	0.001558
3085.000000	0.001544
3084.000000	0.001523
3083.000000	0.001509
3082.000000	0.001511
3081.000000	0.001520
3080.000000	0.001524
3079.000000	0.001517
3078.000000	0.001501
3077.000000	0.001483
3076.000000	0.001467
3075.000000	0.001458
3074.000000	0.001462
3073.000000	0.001479
3072.000000	0.001502
3071.000000	0.001524
3070.000000	0.001545
3069.000000	0.001563
3068.000000	0.001577
3067.000000	0.001579
3066.000000	0.001568
3065.000000	0.001548
3064.000000	0.001530
3063.000000	0.001522
3062.000000	0.001519
3061.000000	0.001515
3060.000000	0.001510
3059.000000	0.001509
3058.000000	0.001515
3057.000000	0.001517
3056.000000	0.001508
3055.000000	0.001486
3054.000000	0.001459
3053.000000	0.001433
3052.000000	0.001412
3051.000000	0.001400
3050.000000	0.001402
3049.000000	0.001419
3048.000000	0.001444
3047.000000	0.001472
3046.000000	0.001497
3045.000000	0.001513
3044.000000	0.001521
3043.000000	0.001525
3042.000000	0.001526
3041.000000	0.001525
3040.000000	0.001522
3039.000000	0.001521
3038.000000	0.001528
3037.000000	0.001543
3036.000000	0.001556
3035.000000	0.001556
3034.000000	0.001544
3033.000000	0.001528
3032.000000	0.001518
3031.000000	0.001520
3030.000000	0.001536
3029.000000	0.001560
3028.000000	0.001581
3027.000000	0.001589
3026.000000	0.001580
3025.000000	0.001563
3024.000000	0.001546
3023.000000	0.001537
3022.000000	0.001533
3021.000000	0.001532
3020.000000	0.001533
3019.000000	0.001541
3018.000000	0.001548
3017.000000	0.001545
3016.000000	0.001529
3015.000000	0.001511
3014.000000	0.001505
3013.000000	0.001513
3012.000000	0.001530
3011.000000	0.001547
3010.000000	0.001563
3009.000000	0.001575
3008.000000	0.001589
3007.000000	0.001609
3006.000000	0.001637
3005.000000	0.001666
3004.000000	0.001682
3003.000000	0.001677
3002.000000	0.001652
3001.000000	0.001619
3000.000000	0.001592
2999.000000	0.001580
2998.000000	0.001583
2997.000000	0.001594
2996.000000	0.001608
2995.000000	0.001620
2994.000000	0.001626
2993.000000	0.001623
2992.000000	0.001612
2991.000000	0.001602
2990.000000	0.001598
2989.000000	0.001602
2988.000000	0.001608
2987.000000	0.001620
2986.000000	0.001642
2985.000000	0.001677
2984.000000	0.001719
2983.000000	0.001752
2982.000000	0.001767
2981.000000	0.001764
2980.000000	0.001756
2979.000000	0.001753
2978.000000	0.001755
2977.000000	0.001756
2976.000000	0.001750
2975.000000	0.001739
2974.000000	0.001732
2973.000000	0.001729
2972.000000	0.001730
2971.000000	0.001735
2970.000000	0.001744
2969.000000	0.001756
2968.000000	0.001771
2967.000000	0.001787
2966.000000	0.001803
2965.000000	0.001817
2964.000000	0.001828
2963.000000	0.001839
2962.000000	0.001850
2961.000000	0.001862
2960.000000	0.001872
2959.000000	0.001879
2958.000000	0.001882
2957.000000	0.001881
2956.000000	0.001878
2955.000000	0.001876
2954.000000	0.001871
2953.000000	0.001856
2952.000000	0.001833
2951.000000	0.001813
2950.000000	0.001810
2949.000000	0.001821
2948.000000	0.001833
2947.000000	0.001837
2946.000000	0.001830
2945.000000	0.001815
2944.000000	0.001791
2943.000000	0.001765
2942.000000	0.001747
2941.000000	0.001747
2940.000000	0.001761
2939.000000	0.001772
2938.000000	0.001771
2937.000000	0.001764
2936.000000	0.001765
2935.000000	0.001776
2934.000000	0.001790
2933.000000	0.001801
2932.000000	0.001806
2931.000000	0.001808
2930.000000	0.001808
2929.000000	0.001804
2928.000000	0.001798
2927.000000	0.001790
2926.000000	0.001784
2925.000000	0.001780
2924.000000	0.001785
2923.000000	0.001798
2922.000000	0.001814
2921.000000	0.001823
2920.000000	0.001818
2919.000000	0.001803
2918.000000	0.001789
2917.000000	0.001782
2916.000000	0.001782
2915.000000	0.001781
2914.000000	0.001775
2913.000000	0.001768
2912.000000	0.001766
2911.000000	0.001780
2910.000000	0.001810
2909.000000	0.001849
2908.000000	0.001885
2907.000000	0.001903
2906.000000	0.001898
2905.000000	0.001877
2904.000000	0.001855
2903.000000	0.001846
2902.000000	0.001854
2901.000000	0.001873
2900.000000	0.001891
2899.000000	0.001894
2898.000000	0.001879
2897.000000	0.001850
2896.000000	0.001823
2895.000000	0.001808
2894.000000	0.001807
2893.000000	0.001812
2892.000000	0.001817
2891.000000	0.001820
2890.000000	0.001821
2889.000000	0.001822
2888.000000	0.001823
2887.000000	0.001825
2886.000000	0.001826
2885.000000	0.001826
2884.000000	0.001826
2883.000000	0.001828
2882.000000	0.001831
2881.000000	0.001833
2880.000000	0.001834
2879.000000	0.001835
2878.000000	0.001833
2877.000000	0.001828
2876.000000	0.001819
2875.000000	0.001811
2874.000000	0.001804
2873.000000	0.001799
2872.000000	0.001804
2871.000000	0.001821
2870.000000	0.001843
2869.000000	0.001853
2868.000000	0.001843
2867.000000	0.001821
2866.000000	0.001801
2865.000000	0.001793
2864.000000	0.001795
2863.000000	0.001800
2862.000000	0.001801
2861.000000	0.001795
2860.000000	0.001783
2859.000000	0.001771
2858.000000	0.001764
2857.000000	0.001759
2856.000000	0.001756
2855.000000	0.001758
2854.000000	0.001763
2853.000000	0.001764
2852.000000	0.001756
2851.000000	0.001746
2850.000000	0.001745
2849.000000	0.001754
2848.000000	0.001765
2847.000000	0.001771
2846.000000	0.001771
2845.000000	0.001770
2844.000000	0.001767
2843.000000	0.001765
2842.000000	0.001767
2841.000000	0.001777
2840.000000	0.001792
2839.000000	0.001802
2838.000000	0.001797
2837.000000	0.001780
2836.000000	0.001762
2835.000000	0.001753
2834.000000	0.001751
2833.000000	0.001750
2832.000000	0.001745
2831.000000	0.001740
2830.000000	0.001737
2829.000000	0.001735
2828.000000	0.001731
2827.000000	0.001727
2826.000000	0.001727
2825.000000	0.001732
2824.000000	0.001739
2823.000000	0.001742
2822.000000	0.001736
2821.000000	0.001722
2820.000000	0.001708
2819.000000	0.001702
2818.000000	0.001708
2817.000000	0.001723
2816.000000	0.001738
2815.000000	0.001744
2814.000000	0.001739
2813.000000	0.001725
2812.000000	0.001712
2811.000000	0.001712
2810.000000	0.001727
2809.000000	0.001746
2808.000000	0.001750
2807.000000	0.001736
2806.000000	0.001715
2805.000000	0.001706
2804.000000	0.001713
2803.000000	0.001726
2802.000000	0.001734
2801.000000	0.001732
2800.000000	0.001727
2799.000000	0.001727
2798.000000	0.001736
2797.000000	0.001746
2796.000000	0.001744
2795.000000	0.001724
2794.000000	0.001697
2793.000000	0.001679
2792.000000	0.001678
2791.000000	0.001687
2790.000000	0.001691
2789.000000	0.001686
2788.000000	0.001677
2787.000000	0.001675
2786.000000	0.001681
2785.000000	0.001697
2784.000000	0.001718
2783.000000	0.001734
2782.000000	0.001735
2781.000000	0.001718
2780.000000	0.001692
2779.000000	0.001672
2778.000000	0.001664
2777.000000	0.001667
2776.000000	0.001672
2775.000000	0.001676
2774.000000	0.001678
2773.000000	0.001682
2772.000000	0.001685
2771.000000	0.001682
2770.000000	0.001670
2769.000000	0.001657
2768.000000	0.001656
2767.000000	0.001672
2766.000000	0.001693
2765.000000	0.001704
2764.000000	0.001702
2763.000000	0.001697
2762.000000	0.001701
2761.000000	0.001710
2760.000000	0.001717
2759.000000	0.001714
2758.000000	0.001705
2757.000000	0.001697
2756.000000	0.001696
2755.000000	0.001706
2754.000000	0.001723
2753.000000	0.001735
2752.000000	0.001733
2751.000000	0.001720
2750.000000	0.001706
2749.000000	0.001695
2748.000000	0.001689
2747.000000	0.001686
2746.000000	0.001686
2745.000000	0.001689
2744.000000	0.001694
2743.000000	0.001698
2742.000000	0.001704
2741.000000	0.001713
2740.000000	0.001728
2739.000000	0.001743
2738.000000	0.001751
2737.000000	0.001748
2736.000000	0.001739
2735.000000	0.001730
2734.000000	0.001722
2733.000000	0.001712
2732.000000	0.001702
2731.000000	0.001695
2730.000000	0.001693
2729.000000	0.001693
2728.000000	0.001689
2727.000000	0.001681
2726.000000	0.001672
2725.000000	0.001663
2724.000000	0.001656
2723.000000	0.001657
2722.000000	0.001674
2721.000000	0.001706
2720.000000	0.001742
2719.000000	0.001767
2718.000000	0.001778
2717.000000	0.001774
2716.000000	0.001760
2715.000000	0.001740
2714.000000	0.001724
2713.000000	0.001721
2712.000000	0.001728
2711.000000	0.001738
2710.000000	0.001741
2709.000000	0.001737
2708.000000	0.001729
2707.000000	0.001717
2706.000000	0.001702
2705.000000	0.001687
2704.000000	0.001681
2703.000000	0.001687
2702.000000	0.001703
2701.000000	0.001725
2700.000000	0.001749
2699.000000	0.001772
2698.000000	0.001786
2697.000000	0.001784
2696.000000	0.001771
2695.000000	0.001757
2694.000000	0.001747
2693.000000	0.001741
2692.000000	0.001731
2691.000000	0.001717
2690.000000	0.001703
2689.000000	0.001692
2688.000000	0.001683
2687.000000	0.001674
2686.000000	0.001670
2685.000000	0.001674
2684.000000	0.001689
2683.000000	0.001709
2682.000000	0.001722
2681.000000	0.001723
2680.000000	0.001717
2679.000000	0.001717
2678.000000	0.001727
2677.000000	0.001740
2676.000000	0.001745
2675.000000	0.001737
2674.000000	0.001719
2673.000000	0.001694
2672.000000	0.001667
2671.000000	0.001648
2670.000000	0.001651
2669.000000	0.001677
2668.000000	0.001707
2667.000000	0.001724
2666.000000	0.001728
2665.000000	0.001735
2664.000000	0.001758
2663.000000	0.001790
2662.000000	0.001815
2661.000000	0.001828
2660.000000	0.001834
2659.000000	0.001846
2658.000000	0.001864
2657.000000	0.001884
2656.000000	0.001896
2655.000000	0.001899
2654.000000	0.001892
2653.000000	0.001879
2652.000000	0.001866
2651.000000	0.001861
2650.000000	0.001870
2649.000000	0.001889
2648.000000	0.001904
2647.000000	0.001905
2646.000000	0.001896
2645.000000	0.001887
2644.000000	0.001884
2643.000000	0.001885
2642.000000	0.001884
2641.000000	0.001880
2640.000000	0.001874
2639.000000	0.001871
2638.000000	0.001873
2637.000000	0.001878
2636.000000	0.001878
2635.000000	0.001869
2634.000000	0.001854
2633.000000	0.001840
2632.000000	0.001831
2631.000000	0.001817
2630.000000	0.001796
2629.000000	0.001774
2628.000000	0.001760
2627.000000	0.001758
2626.000000	0.001761
2625.000000	0.001765
2624.000000	0.001770
2623.000000	0.001779
2622.000000	0.001789
2621.000000	0.001794
2620.000000	0.001783
2619.000000	0.001760
2618.000000	0.001736
2617.000000	0.001728
2616.000000	0.001737
2615.000000	0.001749
2614.000000	0.001747
2613.000000	0.001729
2612.000000	0.001710
2611.000000	0.001705
2610.000000	0.001711
2609.000000	0.001718
2608.000000	0.001717
2607.000000	0.001703
2606.000000	0.001677
2605.000000	0.001646
2604.000000	0.001626
2603.000000	0.001631
2602.000000	0.001662
2601.000000	0.001702
2600.000000	0.001731
2599.000000	0.001743
2598.000000	0.001746
2597.000000	0.001750
2596.000000	0.001759
2595.000000	0.001765
2594.000000	0.001764
2593.000000	0.001755
2592.000000	0.001746
2591.000000	0.001736
2590.000000	0.001718
2589.000000	0.001685
2588.000000	0.001647
2587.000000	0.001628
2586.000000	0.001642
2585.000000	0.001682
2584.000000	0.001721
2583.000000	0.001740
2582.000000	0.001740
2581.000000	0.001725
2580.000000	0.001696
2579.000000	0.001653
2578.000000	0.001610
2577.000000	0.001587
2576.000000	0.001588
2575.000000	0.001602
2574.000000	0.001615
2573.000000	0.001628
2572.000000	0.001642
2571.000000	0.001656
2570.000000	0.001663
2569.000000	0.001666
2568.000000	0.001672
2567.000000	0.001685
2566.000000	0.001700
2565.000000	0.001710
2564.000000	0.001713
2563.000000	0.001710
2562.000000	0.001702
2561.000000	0.001692
2560.000000	0.001679
2559.000000	0.001666
2558.000000	0.001656
2557.000000	0.001647
2556.000000	0.001636
2555.000000	0.001625
2554.000000	0.001622
2553.000000	0.001632
2552.000000	0.001655
2551.000000	0.001678
2550.000000	0.001685
2549.000000	0.001667
2548.000000	0.001635
2547.000000	0.001613
2546.000000	0.001619
2545.000000	0.001647
2544.000000	0.001677
2543.000000	0.001696
2542.000000	0.001706
2541.000000	0.001708
2540.000000	0.001694
2539.000000	0.001659
2538.000000	0.001616
2537.000000	0.001582
2536.000000	0.001562
2535.000000	0.001549
2534.000000	0.001546
2533.000000	0.001560
2532.000000	0.001593
2531.000000	0.001634
2530.000000	0.001668
2529.000000	0.001683
2528.000000	0.001677
2527.000000	0.001651
2526.000000	0.001618
2525.000000	0.001588
2524.000000	0.001571
2523.000000	0.001569
2522.000000	0.001580
2521.000000	0.001594
2520.000000	0.001596
2519.000000	0.001583
2518.000000	0.001567
2517.000000	0.001563
2516.000000	0.001570
2515.000000	0.001576
2514.000000	0.001583
2513.000000	0.001607
2512.000000	0.001653
2511.000000	0.001699
2510.000000	0.001712
2509.000000	0.001685
2508.000000	0.001643
2507.000000	0.001628
2506.000000	0.001659
2505.000000	0.001717
2504.000000	0.001763
2503.000000	0.001778
2502.000000	0.001773
2501.000000	0.001764
2500.000000	0.001751
2499.000000	0.001729
2498.000000	0.001704
2497.000000	0.001687
2496.000000	0.001666
2495.000000	0.001620
2494.000000	0.001548
2493.000000	0.001474
2492.000000	0.001421
2491.000000	0.001403
2490.000000	0.001425
2489.000000	0.001481
2488.000000	0.001543
2487.000000	0.001578
2486.000000	0.001574
2485.000000	0.001557
2484.000000	0.001545
2483.000000	0.001537
2482.000000	0.001526
2481.000000	0.001522
2480.000000	0.001538
2479.000000	0.001568
2478.000000	0.001593
2477.000000	0.001605
2476.000000	0.001612
2475.000000	0.001622
2474.000000	0.001636
2473.000000	0.001652
2472.000000	0.001660
2471.000000	0.001644
2470.000000	0.001598
2469.000000	0.001532
2468.000000	0.001466
2467.000000	0.001422
2466.000000	0.001415
2465.000000	0.001452
2464.000000	0.001519
2463.000000	0.001585
2462.000000	0.001626
2461.000000	0.001641
2460.000000	0.001648
2459.000000	0.001658
2458.000000	0.001672
2457.000000	0.001686
2456.000000	0.001698
2455.000000	0.001703
2454.000000	0.001698
2453.000000	0.001691
2452.000000	0.001688
2451.000000	0.001682
2450.000000	0.001666
2449.000000	0.001642
2448.000000	0.001618
2447.000000	0.001595
2446.000000	0.001577
2445.000000	0.001569
2444.000000	0.001572
2443.000000	0.001581
2442.000000	0.001596
2441.000000	0.001617
2440.000000	0.001637
2439.000000	0.001638
2438.000000	0.001614
2437.000000	0.001581
2436.000000	0.001562
2435.000000	0.001553
2434.000000	0.001541
2433.000000	0.001533
2432.000000	0.001544
2431.000000	0.001569
2430.000000	0.001584
2429.000000	0.001579
2428.000000	0.001568
2427.000000	0.001568
2426.000000	0.001570
2425.000000	0.001561
2424.000000	0.001539
2423.000000	0.001510
2422.000000	0.001479
2421.000000	0.001451
2420.000000	0.001438
2419.000000	0.001451
2418.000000	0.001487
2417.000000	0.001536
2416.000000	0.001581
2415.000000	0.001609
2414.000000	0.001610
2413.000000	0.001592
2412.000000	0.001572
2411.000000	0.001564
2410.000000	0.001567
2409.000000	0.001567
2408.000000	0.001550
2407.000000	0.001517
2406.000000	0.001484
2405.000000	0.001473
2404.000000	0.001492
2403.000000	0.001523
2402.000000	0.001537
2401.000000	0.001520
2400.000000	0.001480
2399.000000	0.001439
2398.000000	0.001412
2397.000000	0.001404
2396.000000	0.001409
2395.000000	0.001420
2394.000000	0.001430
2393.000000	0.001436
2392.000000	0.001440
2391.000000	0.001440
2390.000000	0.001432
2389.000000	0.001422
2388.000000	0.001423
2387.000000	0.001444
2386.000000	0.001474
2385.000000	0.001491
2384.000000	0.001486
2383.000000	0.001465
2382.000000	0.001438
2381.000000	0.001413
2380.000000	0.001398
2379.000000	0.001404
2378.000000	0.001432
2377.000000	0.001463
2376.000000	0.001473
2375.000000	0.001452
2374.000000	0.001412
2373.000000	0.001377
2372.000000	0.001363
2371.000000	0.001374
2370.000000	0.001402
2369.000000	0.001429
2368.000000	0.001438
2367.000000	0.001424
2366.000000	0.001401
2365.000000	0.001385
2364.000000	0.001388
2363.000000	0.001407
2362.000000	0.001437
2361.000000	0.001473
2360.000000	0.001507
2359.000000	0.001529
2358.000000	0.001525
2357.000000	0.001495
2356.000000	0.001462
2355.000000	0.001456
2354.000000	0.001476
2353.000000	0.001490
2352.000000	0.001477
2351.000000	0.001457
2350.000000	0.001458
2349.000000	0.001483
2348.000000	0.001515
2347.000000	0.001529
2346.000000	0.001519
2345.000000	0.001506
2344.000000	0.001508
2343.000000	0.001525
2342.000000	0.001555
2341.000000	0.001598
2340.000000	0.001647
2339.000000	0.001688
2338.000000	0.001709
2337.000000	0.001706
2336.000000	0.001679
2335.000000	0.001627
2334.000000	0.001560
2333.000000	0.001504
2332.000000	0.001493
2331.000000	0.001534
2330.000000	0.001605
2329.000000	0.001685
2328.000000	0.001776
2327.000000	0.001893
2326.000000	0.002031
2325.000000	0.002154
2324.000000	0.002220
2323.000000	0.002215
2322.000000	0.002168
2321.000000	0.002128
2320.000000	0.002123
2319.000000	0.002146
2318.000000	0.002170
2317.000000	0.002162
2316.000000	0.002099
2315.000000	0.001981
2314.000000	0.001852
2313.000000	0.001771
2312.000000	0.001769
2311.000000	0.001818
2310.000000	0.001870
2309.000000	0.001888
2308.000000	0.001870
2307.000000	0.001824
2306.000000	0.001772
2305.000000	0.001737
2304.000000	0.001741
2303.000000	0.001775
2302.000000	0.001811
2301.000000	0.001825
2300.000000	0.001824
2299.000000	0.001830
2298.000000	0.001860
2297.000000	0.001901
2296.000000	0.001925
2295.000000	0.001914
2294.000000	0.001887
2293.000000	0.001885
2292.000000	0.001933
2291.000000	0.002005
2290.000000	0.002052
2289.000000	0.002055
2288.000000	0.002042
2287.000000	0.002044
2286.000000	0.002067
2285.000000	0.002084
2284.000000	0.002073
2283.000000	0.002038
2282.000000	0.002005
2281.000000	0.002001
2280.000000	0.002029
2279.000000	0.002074
2278.000000	0.002113
2277.000000	0.002121
2276.000000	0.002091
2275.000000	0.002033
2274.000000	0.001974
2273.000000	0.001938
2272.000000	0.001918
2271.000000	0.001891
2270.000000	0.001844
2269.000000	0.001794
2268.000000	0.001761
2267.000000	0.001744
2266.000000	0.001727
2265.000000	0.001697
2264.000000	0.001651
2263.000000	0.001604
2262.000000	0.001589
2261.000000	0.001629
2260.000000	0.001702
2259.000000	0.001751
2258.000000	0.001735
2257.000000	0.001668
2256.000000	0.001591
2255.000000	0.001536
2254.000000	0.001517
2253.000000	0.001549
2252.000000	0.001631
2251.000000	0.001721
2250.000000	0.001759
2249.000000	0.001716
2248.000000	0.001618
2247.000000	0.001529
2246.000000	0.001516
2245.000000	0.001601
2244.000000	0.001739
2243.000000	0.001841
2242.000000	0.001848
2241.000000	0.001770
2240.000000	0.001660
2239.000000	0.001560
2238.000000	0.001493
2237.000000	0.001469
2236.000000	0.001489
2235.000000	0.001528
2234.000000	0.001551
2233.000000	0.001534
2232.000000	0.001490
2231.000000	0.001453
2230.000000	0.001457
2229.000000	0.001499
2228.000000	0.001538
2227.000000	0.001538
2226.000000	0.001517
2225.000000	0.001535
2224.000000	0.001621
2223.000000	0.001726
2222.000000	0.001772
2221.000000	0.001722
2220.000000	0.001602
2219.000000	0.001475
2218.000000	0.001390
2217.000000	0.001352
2216.000000	0.001328
2215.000000	0.001287
2214.000000	0.001242
2213.000000	0.001234
2212.000000	0.001279
2211.000000	0.001352
2210.000000	0.001419
2209.000000	0.001451
2208.000000	0.001420
2207.000000	0.001330
2206.000000	0.001258
2205.000000	0.001313
2204.000000	0.001504
2203.000000	0.001719
2202.000000	0.001836
2201.000000	0.001839
2200.000000	0.001789
2199.000000	0.001727
2198.000000	0.001663
2197.000000	0.001602
2196.000000	0.001558
2195.000000	0.001525
2194.000000	0.001498
2193.000000	0.001492
2192.000000	0.001524
2191.000000	0.001584
2190.000000	0.001647
2189.000000	0.001703
2188.000000	0.001740
2187.000000	0.001735
2186.000000	0.001689
2185.000000	0.001640
2184.000000	0.001616
2183.000000	0.001594
2182.000000	0.001544
2181.000000	0.001495
2180.000000	0.001516
2179.000000	0.001629
2178.000000	0.001776
2177.000000	0.001857
2176.000000	0.001806
2175.000000	0.001644
2174.000000	0.001472
2173.000000	0.001391
2172.000000	0.001433
2171.000000	0.001568
2170.000000	0.001749
2169.000000	0.001908
2168.000000	0.001945
2167.000000	0.001809
2166.000000	0.001605
2165.000000	0.001547
2164.000000	0.001764
2163.000000	0.002172
2162.000000	0.002553
2161.000000	0.002676
2160.000000	0.002371
2159.000000	0.001644
2158.000000	0.000782
2157.000000	0.000178
2156.000000	-0.000017
2155.000000	0.000046
2154.000000	0.000182
2153.000000	0.000317
2152.000000	0.000423
2151.000000	0.000460
2150.000000	0.000430
2149.000000	0.000406
2148.000000	0.000448
2147.000000	0.000538
2146.000000	0.000635
2145.000000	0.000738
2144.000000	0.000840
2143.000000	0.000893
2142.000000	0.000852
2141.000000	0.000745
2140.000000	0.000644
2139.000000	0.000599
2138.000000	0.000611
2137.000000	0.000647
2136.000000	0.000658
2135.000000	0.000621
2134.000000	0.000564
2133.000000	0.000538
2132.000000	0.000552
2131.000000	0.000572
2130.000000	0.000581
2129.000000	0.000601
2128.000000	0.000648
2127.000000	0.000709
2126.000000	0.000768
2125.000000	0.000836
2124.000000	0.000926
2123.000000	0.001026
2122.000000	0.001113
2121.000000	0.001178
2120.000000	0.001212
2119.000000	0.001220
2118.000000	0.001235
2117.000000	0.001300
2116.000000	0.001412
2115.000000	0.001504
2114.000000	0.001530
2113.000000	0.001523
2112.000000	0.001547
2111.000000	0.001611
2110.000000	0.001662
2109.000000	0.001652
2108.000000	0.001588
2107.000000	0.001516
2106.000000	0.001474
2105.000000	0.001470
2104.000000	0.001475
2103.000000	0.001454
2102.000000	0.001398
2101.000000	0.001339
2100.000000	0.001304
2099.000000	0.001296
2098.000000	0.001299
2097.000000	0.001301
2096.000000	0.001288
2095.000000	0.001249
2094.000000	0.001203
2093.000000	0.001193
2092.000000	0.001235
2091.000000	0.001299
2090.000000	0.001338
2089.000000	0.001341
2088.000000	0.001335
2087.000000	0.001354
2086.000000	0.001420
2085.000000	0.001530
2084.000000	0.001642
2083.000000	0.001702
2082.000000	0.001693
2081.000000	0.001636
2080.000000	0.001560
2079.000000	0.001476
2078.000000	0.001398
2077.000000	0.001351
2076.000000	0.001337
2075.000000	0.001323
2074.000000	0.001291
2073.000000	0.001272
2072.000000	0.001303
2071.000000	0.001383
2070.000000	0.001485
2069.000000	0.001589
2068.000000	0.001674
2067.000000	0.001712
2066.000000	0.001686
2065.000000	0.001613
2064.000000	0.001519
2063.000000	0.001435
2062.000000	0.001399
2061.000000	0.001437
2060.000000	0.001519
2059.000000	0.001573
2058.000000	0.001557
2057.000000	0.001494
2056.000000	0.001425
2055.000000	0.001394
2054.000000	0.001461
2053.000000	0.001675
2052.000000	0.001979
2051.000000	0.002199
2050.000000	0.002189
2049.000000	0.001958
2048.000000	0.001647
2047.000000	0.001393
2046.000000	0.001248
2045.000000	0.001210
2044.000000	0.001243
2043.000000	0.001293
2042.000000	0.001327
2041.000000	0.001350
2040.000000	0.001354
2039.000000	0.001312
2038.000000	0.001233
2037.000000	0.001179
2036.000000	0.001173
2035.000000	0.001167
2034.000000	0.001147
2033.000000	0.001188
2032.000000	0.001343
2031.000000	0.001545
2030.000000	0.001676
2029.000000	0.001659
2028.000000	0.001475
2027.000000	0.001157
2026.000000	0.000832
2025.000000	0.000657
2024.000000	0.000652
2023.000000	0.000668
2022.000000	0.000586
2021.000000	0.000465
2020.000000	0.000449
2019.000000	0.000605
2018.000000	0.000895
2017.000000	0.001198
2016.000000	0.001350
2015.000000	0.001245
2014.000000	0.000948
2013.000000	0.000652
2012.000000	0.000484
2011.000000	0.000425
2010.000000	0.000425
2009.000000	0.000491
2008.000000	0.000600
2007.000000	0.000655
2006.000000	0.000607
2005.000000	0.000530
2004.000000	0.000513
2003.000000	0.000550
2002.000000	0.000612
2001.000000	0.000723
2000.000000	0.000906
1999.000000	0.001117
1998.000000	0.001299
1997.000000	0.001432
1996.000000	0.001509
1995.000000	0.001518
1994.000000	0.001483
1993.000000	0.001465
1992.000000	0.001482
1991.000000	0.001484
1990.000000	0.001445
1989.000000	0.001423
1988.000000	0.001475
1987.000000	0.001583
1986.000000	0.001700
1985.000000	0.001802
1984.000000	0.001867
1983.000000	0.001875
1982.000000	0.001859
1981.000000	0.001880
1980.000000	0.001916
1979.000000	0.001860
1978.000000	0.001662
1977.000000	0.001402
1976.000000	0.001135
1975.000000	0.000831
1974.000000	0.000539
1973.000000	0.000412
1972.000000	0.000473
1971.000000	0.000524
1970.000000	0.000411
1969.000000	0.000235
1968.000000	0.000190
1967.000000	0.000305
1966.000000	0.000455
1965.000000	0.000549
1964.000000	0.000564
1963.000000	0.000484
1962.000000	0.000330
1961.000000	0.000218
1960.000000	0.000256
1959.000000	0.000419
1958.000000	0.000597
1957.000000	0.000731
1956.000000	0.000837
1955.000000	0.000938
1954.000000	0.001024
1953.000000	0.001065
1952.000000	0.001034
1951.000000	0.000931
1950.000000	0.000815
1949.000000	0.000759
1948.000000	0.000768
1947.000000	0.000763
1946.000000	0.000686
1945.000000	0.000574
1944.000000	0.000501
1943.000000	0.000488
1942.000000	0.000499
1941.000000	0.000500
1940.000000	0.000495
1939.000000	0.000528
1938.000000	0.000653
1937.000000	0.000872
1936.000000	0.001096
1935.000000	0.001213
1934.000000	0.001208
1933.000000	0.001159
1932.000000	0.001121
1931.000000	0.001072
1930.000000	0.000983
1929.000000	0.000872
1928.000000	0.000773
1927.000000	0.000693
1926.000000	0.000640
1925.000000	0.000644
1924.000000	0.000715
1923.000000	0.000820
1922.000000	0.000917
1921.000000	0.000999
1920.000000	0.001057
1919.000000	0.001057
1918.000000	0.000990
1917.000000	0.000906
1916.000000	0.000865
1915.000000	0.000864
1914.000000	0.000874
1913.000000	0.000884
1912.000000	0.000891
1911.000000	0.000878
1910.000000	0.000832
1909.000000	0.000769
1908.000000	0.000707
1907.000000	0.000650
1906.000000	0.000619
1905.000000	0.000655
1904.000000	0.000760
1903.000000	0.000870
1902.000000	0.000917
1901.000000	0.000904
1900.000000	0.000885
1899.000000	0.000886
1898.000000	0.000892
1897.000000	0.000884
1896.000000	0.000859
1895.000000	0.000830
1894.000000	0.000816
1893.000000	0.000845
1892.000000	0.000916
1891.000000	0.000995
1890.000000	0.001047
1889.000000	0.001072
1888.000000	0.001082
1887.000000	0.001069
1886.000000	0.001025
1885.000000	0.000979
1884.000000	0.000963
1883.000000	0.000970
1882.000000	0.000965
1881.000000	0.000938
1880.000000	0.000911
1879.000000	0.000894
1878.000000	0.000884
1877.000000	0.000885
1876.000000	0.000907
1875.000000	0.000936
1874.000000	0.000939
1873.000000	0.000899
1872.000000	0.000840
1871.000000	0.000802
1870.000000	0.000810
1869.000000	0.000857
1868.000000	0.000910
1867.000000	0.000941
1866.000000	0.000943
1865.000000	0.000923
1864.000000	0.000892
1863.000000	0.000859
1862.000000	0.000843
1861.000000	0.000858
1860.000000	0.000893
1859.000000	0.000916
1858.000000	0.000913
1857.000000	0.000901
1856.000000	0.000901
1855.000000	0.000911
1854.000000	0.000915
1853.000000	0.000909
1852.000000	0.000900
1851.000000	0.000888
1850.000000	0.000876
1849.000000	0.000867
1848.000000	0.000855
1847.000000	0.000831
1846.000000	0.000799
1845.000000	0.000789
1844.000000	0.000822
1843.000000	0.000878
1842.000000	0.000920
1841.000000	0.000935
1840.000000	0.000924
1839.000000	0.000888
1838.000000	0.000845
1837.000000	0.000825
1836.000000	0.000837
1835.000000	0.000860
1834.000000	0.000872
1833.000000	0.000876
1832.000000	0.000876
1831.000000	0.000865
1830.000000	0.000852
1829.000000	0.000865
1828.000000	0.000899
1827.000000	0.000920
1826.000000	0.000912
1825.000000	0.000888
1824.000000	0.000863
1823.000000	0.000844
1822.000000	0.000836
1821.000000	0.000838
1820.000000	0.000830
1819.000000	0.000787
1818.000000	0.000717
1817.000000	0.000664
1816.000000	0.000659
1815.000000	0.000688
1814.000000	0.000721
1813.000000	0.000739
1812.000000	0.000739
1811.000000	0.000729
1810.000000	0.000725
1809.000000	0.000737
1808.000000	0.000760
1807.000000	0.000788
1806.000000	0.000815
1805.000000	0.000833
1804.000000	0.000833
1803.000000	0.000813
1802.000000	0.000789
1801.000000	0.000785
1800.000000	0.000801
1799.000000	0.000821
1798.000000	0.000828
1797.000000	0.000819
1796.000000	0.000806
1795.000000	0.000796
1794.000000	0.000791
1793.000000	0.000787
1792.000000	0.000768
1791.000000	0.000728
1790.000000	0.000688
1789.000000	0.000667
1788.000000	0.000676
1787.000000	0.000702
1786.000000	0.000723
1785.000000	0.000731
1784.000000	0.000727
1783.000000	0.000717
1782.000000	0.000708
1781.000000	0.000710
1780.000000	0.000720
1779.000000	0.000718
1778.000000	0.000692
1777.000000	0.000653
1776.000000	0.000621
1775.000000	0.000606
1774.000000	0.000617
1773.000000	0.000657
1772.000000	0.000702
1771.000000	0.000717
1770.000000	0.000710
1769.000000	0.000710
1768.000000	0.000720
1767.000000	0.000716
1766.000000	0.000691
1765.000000	0.000664
1764.000000	0.000649
1763.000000	0.000633
1762.000000	0.000610
1761.000000	0.000604
1760.000000	0.000630
1759.000000	0.000674
1758.000000	0.000721
1757.000000	0.000777
1756.000000	0.000837
1755.000000	0.000883
1754.000000	0.000911
1753.000000	0.000947
1752.000000	0.001000
1751.000000	0.001043
1750.000000	0.001057
1749.000000	0.001063
1748.000000	0.001076
1747.000000	0.001081
1746.000000	0.001079
1745.000000	0.001086
1744.000000	0.001097
1743.000000	0.001087
1742.000000	0.001056
1741.000000	0.001036
1740.000000	0.001037
1739.000000	0.001033
1738.000000	0.001013
1737.000000	0.001002
1736.000000	0.001025
1735.000000	0.001054
1734.000000	0.001016
1733.000000	0.000924
1732.000000	0.000844
1731.000000	0.000787
1730.000000	0.000740
1729.000000	0.000697
1728.000000	0.000660
1727.000000	0.000620
1726.000000	0.000580
1725.000000	0.000555
1724.000000	0.000551
1723.000000	0.000548
1722.000000	0.000534
1721.000000	0.000513
1720.000000	0.000489
1719.000000	0.000460
1718.000000	0.000443
1717.000000	0.000449
1716.000000	0.000469
1715.000000	0.000492
1714.000000	0.000505
1713.000000	0.000508
1712.000000	0.000507
1711.000000	0.000500
1710.000000	0.000489
1709.000000	0.000482
1708.000000	0.000474
1707.000000	0.000453
1706.000000	0.000419
1705.000000	0.000386
1704.000000	0.000374
1703.000000	0.000390
1702.000000	0.000450
1701.000000	0.000552
1700.000000	0.000627
1699.000000	0.000632
1698.000000	0.000589
1697.000000	0.000542
1696.000000	0.000511
1695.000000	0.000508
1694.000000	0.000515
1693.000000	0.000514
1692.000000	0.000517
1691.000000	0.000529
1690.000000	0.000542
1689.000000	0.000554
1688.000000	0.000560
1687.000000	0.000564
1686.000000	0.000573
1685.000000	0.000571
1684.000000	0.000524
1683.000000	0.000474
1682.000000	0.000456
1681.000000	0.000464
1680.000000	0.000487
1679.000000	0.000498
1678.000000	0.000497
1677.000000	0.000512
1676.000000	0.000555
1675.000000	0.000584
1674.000000	0.000574
1673.000000	0.000550
1672.000000	0.000542
1671.000000	0.000537
1670.000000	0.000507
1669.000000	0.000477
1668.000000	0.000483
1667.000000	0.000501
1666.000000	0.000505
1665.000000	0.000503
1664.000000	0.000504
1663.000000	0.000499
1662.000000	0.000493
1661.000000	0.000507
1660.000000	0.000547
1659.000000	0.000588
1658.000000	0.000605
1657.000000	0.000600
1656.000000	0.000594
1655.000000	0.000602
1654.000000	0.000601
1653.000000	0.000573
1652.000000	0.000585
1651.000000	0.000588
1650.000000	0.000571
1649.000000	0.000577
1648.000000	0.000615
1647.000000	0.000642
1646.000000	0.000632
1645.000000	0.000622
1644.000000	0.000624
1643.000000	0.000625
1642.000000	0.000618
1641.000000	0.000605
1640.000000	0.000594
1639.000000	0.000588
1638.000000	0.000592
1637.000000	0.000615
1636.000000	0.000650
1635.000000	0.000666
1634.000000	0.000657
1633.000000	0.000637
1632.000000	0.000627
1631.000000	0.000624
1630.000000	0.000614
1629.000000	0.000596
1628.000000	0.000582
1627.000000	0.000568
1626.000000	0.000547
1625.000000	0.000531
1624.000000	0.000531
1623.000000	0.000531
1622.000000	0.000513
1621.000000	0.000489
1620.000000	0.000474
1619.000000	0.000464
1618.000000	0.000449
1617.000000	0.000432
1616.000000	0.000435
1615.000000	0.000447
1614.000000	0.000449
1613.000000	0.000447
1612.000000	0.000448
1611.000000	0.000433
1610.000000	0.000396
1609.000000	0.000375
1608.000000	0.000398
1607.000000	0.000437
1606.000000	0.000449
1605.000000	0.000439
1604.000000	0.000430
1603.000000	0.000425
1602.000000	0.000415
1601.000000	0.000408
1600.000000	0.000417
1599.000000	0.000432
1598.000000	0.000441
1597.000000	0.000446
1596.000000	0.000443
1595.000000	0.000417
1594.000000	0.000372
1593.000000	0.000346
1592.000000	0.000359
1591.000000	0.000388
1590.000000	0.000400
1589.000000	0.000397
1588.000000	0.000399
1587.000000	0.000403
1586.000000	0.000402
1585.000000	0.000407
1584.000000	0.000425
1583.000000	0.000431
1582.000000	0.000410
1581.000000	0.000382
1580.000000	0.000374
1579.000000	0.000385
1578.000000	0.000408
1577.000000	0.000458
1576.000000	0.000540
1575.000000	0.000601
1574.000000	0.000609
1573.000000	0.000603
1572.000000	0.000617
1571.000000	0.000643
1570.000000	0.000658
1569.000000	0.000682
1568.000000	0.000739
1567.000000	0.000799
1566.000000	0.000843
1565.000000	0.000889
1564.000000	0.000939
1563.000000	0.000966
1562.000000	0.000961
1561.000000	0.000967
1560.000000	0.001042
1559.000000	0.001156
1558.000000	0.001233
1557.000000	0.001321
1556.000000	0.001420
1555.000000	0.001523
1554.000000	0.001614
1553.000000	0.001684
1552.000000	0.001731
1551.000000	0.001761
1550.000000	0.001798
1549.000000	0.001871
1548.000000	0.001974
1547.000000	0.002069
1546.000000	0.002133
1545.000000	0.002174
1544.000000	0.002207
1543.000000	0.002240
1542.000000	0.002280
1541.000000	0.002338
1540.000000	0.002415
1539.000000	0.002496
1538.000000	0.002566
1537.000000	0.002630
1536.000000	0.002710
1535.000000	0.002808
1534.000000	0.002893
1533.000000	0.002947
1532.000000	0.002990
1531.000000	0.003043
1530.000000	0.003112
1529.000000	0.003198
1528.000000	0.003291
1527.000000	0.003363
1526.000000	0.003400
1525.000000	0.003419
1524.000000	0.003448
1523.000000	0.003497
1522.000000	0.003555
1521.000000	0.003612
1520.000000	0.003668
1519.000000	0.003708
1518.000000	0.003731
1517.000000	0.003762
1516.000000	0.003823
1515.000000	0.003905
1514.000000	0.003982
1513.000000	0.004047
1512.000000	0.004091
1511.000000	0.004111
1510.000000	0.004124
1509.000000	0.004164
1508.000000	0.004220
1507.000000	0.004226
1506.000000	0.004215
1505.000000	0.004266
1504.000000	0.004323
1503.000000	0.004361
1502.000000	0.004388
1501.000000	0.004420
1500.000000	0.004451
1499.000000	0.004473
1498.000000	0.004498
1497.000000	0.004546
1496.000000	0.004597
1495.000000	0.004619
1494.000000	0.004615
1493.000000	0.004610
1492.000000	0.004603
1491.000000	0.004572
1490.000000	0.004512
1489.000000	0.004460
1488.000000	0.004448
1487.000000	0.004464
1486.000000	0.004485
1485.000000	0.004510
1484.000000	0.004544
1483.000000	0.004568
1482.000000	0.004569
1481.000000	0.004560
1480.000000	0.004561
1479.000000	0.004568
1478.000000	0.004572
1477.000000	0.004582
1476.000000	0.004610
1475.000000	0.004659
1474.000000	0.004730
1473.000000	0.004828
1472.000000	0.004947
1471.000000	0.005079
1470.000000	0.005224
1469.000000	0.005388
1468.000000	0.005570
1467.000000	0.005755
1466.000000	0.005936
1465.000000	0.006111
1464.000000	0.006258
1463.000000	0.006338
1462.000000	0.006344
1461.000000	0.006302
1460.000000	0.006234
1459.000000	0.006135
1458.000000	0.005988
1457.000000	0.005809
1456.000000	0.005671
1455.000000	0.005594
1454.000000	0.005562
1453.000000	0.005572
1452.000000	0.005609
1451.000000	0.005641
1450.000000	0.005656
1449.000000	0.005670
1448.000000	0.005699
1447.000000	0.005742
1446.000000	0.005804
1445.000000	0.005898
1444.000000	0.006018
1443.000000	0.006147
1442.000000	0.006271
1441.000000	0.006396
1440.000000	0.006516
1439.000000	0.006616
1438.000000	0.006701
1437.000000	0.006810
1436.000000	0.006952
1435.000000	0.007084
1434.000000	0.007192
1433.000000	0.007307
1432.000000	0.007443
1431.000000	0.007586
1430.000000	0.007731
1429.000000	0.007897
1428.000000	0.008079
1427.000000	0.008243
1426.000000	0.008389
1425.000000	0.008548
1424.000000	0.008720
1423.000000	0.008871
1422.000000	0.009007
1421.000000	0.009180
1420.000000	0.009398
1419.000000	0.009585
1418.000000	0.009709
1417.000000	0.009825
1416.000000	0.009950
1415.000000	0.010058
1414.000000	0.010148
1413.000000	0.010245
1412.000000	0.010352
1411.000000	0.010440
1410.000000	0.010504
1409.000000	0.010568
1408.000000	0.010627
1407.000000	0.010646
1406.000000	0.010623
1405.000000	0.010593
1404.000000	0.010565
1403.000000	0.010522
1402.000000	0.010473
1401.000000	0.010448
1400.000000	0.010435
1399.000000	0.010385
1398.000000	0.010299
1397.000000	0.010230
1396.000000	0.010185
1395.000000	0.010116
1394.000000	0.010016
1393.000000	0.009936
1392.000000	0.009880
1391.000000	0.009817
1390.000000	0.009748
1389.000000	0.009698
1388.000000	0.009664
1387.000000	0.009604
1386.000000	0.009515
1385.000000	0.009439
1384.000000	0.009387
1383.000000	0.009333
1382.000000	0.009269
1381.000000	0.009217
1380.000000	0.009185
1379.000000	0.009148
1378.000000	0.009099
1377.000000	0.009051
1376.000000	0.009000
1375.000000	0.008918
1374.000000	0.008812
1373.000000	0.008742
1372.000000	0.008727
1371.000000	0.008718
1370.000000	0.008671
1369.000000	0.008599
1368.000000	0.008526
1367.000000	0.008452
1366.000000	0.008374
1365.000000	0.008303
1364.000000	0.008233
1363.000000	0.008144
1362.000000	0.008042
1361.000000	0.007968
1360.000000	0.007931
1359.000000	0.007894
1358.000000	0.007834
1357.000000	0.007766
1356.000000	0.007708
1355.000000	0.007650
1354.000000	0.007589
1353.000000	0.007540
1352.000000	0.007503
1351.000000	0.007455
1350.000000	0.007391
1349.000000	0.007339
1348.000000	0.007312
1347.000000	0.007284
1346.000000	0.007230
1345.000000	0.007162
1344.000000	0.007095
1343.000000	0.007028
1342.000000	0.006959
1341.000000	0.006906
1340.000000	0.006864
1339.000000	0.006804
1338.000000	0.006723
1337.000000	0.006659
1336.000000	0.006627
1335.000000	0.006599
1334.000000	0.006558
1333.000000	0.006518
1332.000000	0.006489
1331.000000	0.006453
1330.000000	0.006398
1329.000000	0.006348
1328.000000	0.006317
1327.000000	0.006284
1326.000000	0.006232
1325.000000	0.006180
1324.000000	0.006144
1323.000000	0.006109
1322.000000	0.006062
1321.000000	0.006018
1320.000000	0.005985
1319.000000	0.005939
1318.000000	0.005868
1317.000000	0.005796
1316.000000	0.005745
1315.000000	0.005701
1314.000000	0.005658
1313.000000	0.005638
1312.000000	0.005644
1311.000000	0.005641
1310.000000	0.005602
1309.000000	0.005545
1308.000000	0.005492
1307.000000	0.005434
1306.000000	0.005362
1305.000000	0.005295
1304.000000	0.005252
1303.000000	0.005218
1302.000000	0.005177
1301.000000	0.005143
1300.000000	0.005123
1299.000000	0.005098
1298.000000	0.005051
1297.000000	0.005001
1296.000000	0.004964
1295.000000	0.004929
1294.000000	0.004888
1293.000000	0.004856
1292.000000	0.004834
1291.000000	0.004799
1290.000000	0.004741
1289.000000	0.004688
1288.000000	0.004659
1287.000000	0.004630
1286.000000	0.004574
1285.000000	0.004512
1284.000000	0.004469
1283.000000	0.004442
1282.000000	0.004421
1281.000000	0.004409
1280.000000	0.004403
1279.000000	0.004382
1278.000000	0.004338
1277.000000	0.004292
1276.000000	0.004258
1275.000000	0.004221
1274.000000	0.004176
1273.000000	0.004141
1272.000000	0.004121
1271.000000	0.004090
1270.000000	0.004039
1269.000000	0.004001
1268.000000	0.003999
1267.000000	0.004009
1266.000000	0.004001
1265.000000	0.003981
1264.000000	0.003956
1263.000000	0.003914
1262.000000	0.003857
1261.000000	0.003821
1260.000000	0.003818
1259.000000	0.003819
1258.000000	0.003803
1257.000000	0.003790
1256.000000	0.003799
1255.000000	0.003810
1254.000000	0.003805
1253.000000	0.003796
1252.000000	0.003791
1251.000000	0.003771
1250.000000	0.003728
1249.000000	0.003685
1248.000000	0.003654
1247.000000	0.003616
1246.000000	0.003568
1245.000000	0.003547
1244.000000	0.003566
1243.000000	0.003586
1242.000000	0.003574
1241.000000	0.003550
1240.000000	0.003539
1239.000000	0.003525
1238.000000	0.003492
1237.000000	0.003461
1236.000000	0.003453
1235.000000	0.003453
1234.000000	0.003436
1233.000000	0.003406
1232.000000	0.003373
1231.000000	0.003332
1230.000000	0.003289
1229.000000	0.003267
1228.000000	0.003270
1227.000000	0.003262
1226.000000	0.003224
1225.000000	0.003176
1224.000000	0.003140
1223.000000	0.003111
1222.000000	0.003085
1221.000000	0.003077
1220.000000	0.003085
1219.000000	0.003075
1218.000000	0.003036
1217.000000	0.002998
1216.000000	0.002979
1215.000000	0.002957
1214.000000	0.002919
1213.000000	0.002893
1212.000000	0.002894
1211.000000	0.002892
1210.000000	0.002868
1209.000000	0.002848
1208.000000	0.002857
1207.000000	0.002877
1206.000000	0.002884
1205.000000	0.002883
1204.000000	0.002875
1203.000000	0.002843
1202.000000	0.002793
1201.000000	0.002763
1200.000000	0.002769
1199.000000	0.002776
1198.000000	0.002759
1197.000000	0.002738
1196.000000	0.002732
1195.000000	0.002727
1194.000000	0.002714
1193.000000	0.002709
1192.000000	0.002716
1191.000000	0.002704
1190.000000	0.002665
1189.000000	0.002636
1188.000000	0.002633
1187.000000	0.002629
1186.000000	0.002613
1185.000000	0.002621
1184.000000	0.002669
1183.000000	0.002719
1182.000000	0.002740
1181.000000	0.002757
1180.000000	0.002790
1179.000000	0.002807
1178.000000	0.002788
1177.000000	0.002771
1176.000000	0.002787
1175.000000	0.002813
1174.000000	0.002824
1173.000000	0.002843
1172.000000	0.002890
1171.000000	0.002941
1170.000000	0.002969
1169.000000	0.002994
1168.000000	0.003030
1167.000000	0.003047
1166.000000	0.003023
1165.000000	0.002994
1164.000000	0.002995
1163.000000	0.003004
1162.000000	0.002993
1161.000000	0.002979
1160.000000	0.002989
1159.000000	0.002997
1158.000000	0.002975
1157.000000	0.002948
1156.000000	0.002949
1155.000000	0.002966
1154.000000	0.002972
1153.000000	0.002970
1152.000000	0.002968
1151.000000	0.002950
1150.000000	0.002918
1149.000000	0.002908
1148.000000	0.002933
1147.000000	0.002950
1146.000000	0.002931
1145.000000	0.002911
1144.000000	0.002922
1143.000000	0.002933
1142.000000	0.002912
1141.000000	0.002884
1140.000000	0.002880
1139.000000	0.002880
1138.000000	0.002861
1137.000000	0.002839
1136.000000	0.002834
1135.000000	0.002823
1134.000000	0.002787
1133.000000	0.002752
1132.000000	0.002740
1131.000000	0.002723
1130.000000	0.002685
1129.000000	0.002663
1128.000000	0.002693
1127.000000	0.002750
1126.000000	0.002792
1125.000000	0.002821
1124.000000	0.002853
1123.000000	0.002874
1122.000000	0.002869
1121.000000	0.002858
1120.000000	0.002859
1119.000000	0.002863
1118.000000	0.002871
1117.000000	0.002904
1116.000000	0.002956
1115.000000	0.002978
1114.000000	0.002963
1113.000000	0.002965
1112.000000	0.003017
1111.000000	0.003084
1110.000000	0.003131
1109.000000	0.003167
1108.000000	0.003186
1107.000000	0.003144
1106.000000	0.003046
1105.000000	0.002972
1104.000000	0.002972
1103.000000	0.002998
1102.000000	0.003001
1101.000000	0.003009
1100.000000	0.003059
1099.000000	0.003127
1098.000000	0.003180
1097.000000	0.003246
1096.000000	0.003354
1095.000000	0.003476
1094.000000	0.003575
1093.000000	0.003656
1092.000000	0.003722
1091.000000	0.003741
1090.000000	0.003707
1089.000000	0.003678
1088.000000	0.003687
1087.000000	0.003699
1086.000000	0.003682
1085.000000	0.003667
1084.000000	0.003667
1083.000000	0.003641
1082.000000	0.003565
1081.000000	0.003494
1080.000000	0.003469
1079.000000	0.003461
1078.000000	0.003444
1077.000000	0.003446
1076.000000	0.003483
1075.000000	0.003507
1074.000000	0.003486
1073.000000	0.003458
1072.000000	0.003449
1071.000000	0.003424
1070.000000	0.003365
1069.000000	0.003325
1068.000000	0.003340
1067.000000	0.003370
1066.000000	0.003378
1065.000000	0.003394
1064.000000	0.003437
1063.000000	0.003457
1062.000000	0.003423
1061.000000	0.003387
1060.000000	0.003397
1059.000000	0.003421
1058.000000	0.003426
1057.000000	0.003442
1056.000000	0.003497
1055.000000	0.003551
1054.000000	0.003566
1053.000000	0.003569
1052.000000	0.003588
1051.000000	0.003592
1050.000000	0.003564
1049.000000	0.003551
1048.000000	0.003576
1047.000000	0.003591
1046.000000	0.003563
1045.000000	0.003536
1044.000000	0.003535
1043.000000	0.003519
1042.000000	0.003477
1041.000000	0.003475
1040.000000	0.003551
1039.000000	0.003637
1038.000000	0.003670
1037.000000	0.003679
1036.000000	0.003706
1035.000000	0.003718
1034.000000	0.003682
1033.000000	0.003644
1032.000000	0.003649
1031.000000	0.003665
1030.000000	0.003663
1029.000000	0.003687
1028.000000	0.003768
1027.000000	0.003845
1026.000000	0.003850
1025.000000	0.003804
1024.000000	0.003763
1023.000000	0.003724
1022.000000	0.003673
1021.000000	0.003646
1020.000000	0.003664
1019.000000	0.003690
1018.000000	0.003688
1017.000000	0.003691
1016.000000	0.003728
1015.000000	0.003763
1014.000000	0.003763
1013.000000	0.003756
1012.000000	0.003765
1011.000000	0.003754
1010.000000	0.003705
1009.000000	0.003663
1008.000000	0.003656
1007.000000	0.003641
1006.000000	0.003590
1005.000000	0.003549
1004.000000	0.003553
1003.000000	0.003560
1002.000000	0.003529
1001.000000	0.003492
1000.000000	0.003480
999.000000	0.003461
998.000000	0.003408
997.000000	0.003362
996.000000	0.003355
995.000000	0.003358
994.000000	0.003347
993.000000	0.003357
992.000000	0.003407
991.000000	0.003450
990.000000	0.003455
989.000000	0.003469
988.000000	0.003531
987.000000	0.003597
986.000000	0.003625
985.000000	0.003641
984.000000	0.003675
983.000000	0.003691
982.000000	0.003662
981.000000	0.003635
980.000000	0.003660
979.000000	0.003719
978.000000	0.003784
977.000000	0.003869
976.000000	0.003969
975.000000	0.004036
974.000000	0.004056
973.000000	0.004097
972.000000	0.004203
971.000000	0.004326
970.000000	0.004418
969.000000	0.004503
968.000000	0.004612
967.000000	0.004718
966.000000	0.004805
965.000000	0.004909
964.000000	0.005036
963.000000	0.005126
962.000000	0.005161
961.000000	0.005222
960.000000	0.005375
959.000000	0.005576
958.000000	0.005753
957.000000	0.005907
956.000000	0.006057
955.000000	0.006171
954.000000	0.006232
953.000000	0.006300
952.000000	0.006416
951.000000	0.006532
950.000000	0.006590
949.000000	0.006607
948.000000	0.006612
947.000000	0.006578
946.000000	0.006488
945.000000	0.006387
944.000000	0.006305
943.000000	0.006207
942.000000	0.006087
941.000000	0.006008
940.000000	0.005998
939.000000	0.005984
938.000000	0.005900
937.000000	0.005779
936.000000	0.005677
935.000000	0.005580
934.000000	0.005470
933.000000	0.005384
932.000000	0.005336
931.000000	0.005263
930.000000	0.005121
929.000000	0.004960
928.000000	0.004838
927.000000	0.004742
926.000000	0.004642
925.000000	0.004560
924.000000	0.004499
923.000000	0.004404
922.000000	0.004256
921.000000	0.004119
920.000000	0.004034
919.000000	0.003958
918.000000	0.003857
917.000000	0.003775
916.000000	0.003732
915.000000	0.003673
914.000000	0.003563
913.000000	0.003464
912.000000	0.003420
911.000000	0.003380
910.000000	0.003303
909.000000	0.003229
908.000000	0.003188
907.000000	0.003131
906.000000	0.003029
905.000000	0.002947
904.000000	0.002923
903.000000	0.002882
902.000000	0.002763
901.000000	0.002624
900.000000	0.002541
899.000000	0.002496
898.000000	0.002440
897.000000	0.002389
896.000000	0.002355
895.000000	0.002288
894.000000	0.002170
893.000000	0.002071
892.000000	0.002034
891.000000	0.002002
890.000000	0.001929
889.000000	0.001872
888.000000	0.001872
887.000000	0.001870
886.000000	0.001817
885.000000	0.001773
884.000000	0.001791
883.000000	0.001810
882.000000	0.001770
881.000000	0.001728
880.000000	0.001750
879.000000	0.001791
878.000000	0.001787
877.000000	0.001766
876.000000	0.001768
875.000000	0.001746
874.000000	0.001662
873.000000	0.001577
872.000000	0.001548
871.000000	0.001525
870.000000	0.001460
869.000000	0.001406
868.000000	0.001410
867.000000	0.001420
866.000000	0.001389
865.000000	0.001369
864.000000	0.001400
863.000000	0.001408
862.000000	0.001337
861.000000	0.001268
860.000000	0.001298
859.000000	0.001393
858.000000	0.001468
857.000000	0.001525
856.000000	0.001599
855.000000	0.001670
854.000000	0.001729
853.000000	0.001845
852.000000	0.002055
851.000000	0.002273
850.000000	0.002425
849.000000	0.002561
848.000000	0.002753
847.000000	0.002969
846.000000	0.003163
845.000000	0.003383
844.000000	0.003676
843.000000	0.003986
842.000000	0.004256
841.000000	0.004533
840.000000	0.004871
839.000000	0.005206
838.000000	0.005453
837.000000	0.005636
836.000000	0.005811
835.000000	0.005951
834.000000	0.006010
833.000000	0.006019
832.000000	0.006021
831.000000	0.006001
830.000000	0.005960
829.000000	0.005973
828.000000	0.006058
827.000000	0.006111
826.000000	0.006059
825.000000	0.005985
824.000000	0.005986
823.000000	0.006027
822.000000	0.006051
821.000000	0.006096
820.000000	0.006193
819.000000	0.006282
818.000000	0.006324
817.000000	0.006386
816.000000	0.006502
815.000000	0.006588
814.000000	0.006578
813.000000	0.006540
812.000000	0.006537
811.000000	0.006525
810.000000	0.006458
809.000000	0.006389
808.000000	0.006354
807.000000	0.006285
806.000000	0.006147
805.000000	0.006025
804.000000	0.005969
803.000000	0.005903
802.000000	0.005786
801.000000	0.005722
800.000000	0.005786
799.000000	0.005878
798.000000	0.005883
797.000000	0.005832
796.000000	0.005782
795.000000	0.005679
794.000000	0.005478
793.000000	0.005270
792.000000	0.005147
791.000000	0.005064
790.000000	0.004956
789.000000	0.004866
788.000000	0.004850
787.000000	0.004835
786.000000	0.004740
785.000000	0.004609
784.000000	0.004526
783.000000	0.004485
782.000000	0.004459
781.000000	0.004474
780.000000	0.004532
779.000000	0.004548
778.000000	0.004474
777.000000	0.004403
776.000000	0.004430
775.000000	0.004536
774.000000	0.004669
773.000000	0.004847
772.000000	0.005067
771.000000	0.005238
770.000000	0.005307
769.000000	0.005345
768.000000	0.005403
767.000000	0.005419
766.000000	0.005341
765.000000	0.005237
764.000000	0.005163
763.000000	0.005056
762.000000	0.004864
761.000000	0.004670
760.000000	0.004550
759.000000	0.004451
758.000000	0.004311
757.000000	0.004191
756.000000	0.004162
755.000000	0.004184
754.000000	0.004199
753.000000	0.004237
752.000000	0.004317
751.000000	0.004358
750.000000	0.004309
749.000000	0.004260
748.000000	0.004299
747.000000	0.004388
746.000000	0.004464
745.000000	0.004550
744.000000	0.004662
743.000000	0.004722
742.000000	0.004686
741.000000	0.004643
740.000000	0.004658
739.000000	0.004653
738.000000	0.004549
737.000000	0.004412
736.000000	0.004337
735.000000	0.004313
734.000000	0.004303
733.000000	0.004347
732.000000	0.004452
731.000000	0.004511
730.000000	0.004449
729.000000	0.004346
728.000000	0.004285
727.000000	0.004220
726.000000	0.004089
725.000000	0.003956
724.000000	0.003883
723.000000	0.003820
722.000000	0.003712
721.000000	0.003621
720.000000	0.003598
719.000000	0.003570
718.000000	0.003480
717.000000	0.003409
716.000000	0.003435
715.000000	0.003485
714.000000	0.003464
713.000000	0.003398
712.000000	0.003343
711.000000	0.003259
710.000000	0.003120
709.000000	0.003005
708.000000	0.002970
707.000000	0.002939
706.000000	0.002853
705.000000	0.002790
704.000000	0.002817
703.000000	0.002857
702.000000	0.002826
701.000000	0.002776
700.000000	0.002775
699.000000	0.002771
698.000000	0.002709
697.000000	0.002653
696.000000	0.002657
695.000000	0.002653
694.000000	0.002592
693.000000	0.002559
692.000000	0.002611
691.000000	0.002636
690.000000	0.002532
689.000000	0.002370
688.000000	0.002253
687.000000	0.002149
686.000000	0.002003
685.000000	0.001885
684.000000	0.001863
683.000000	0.001863
682.000000	0.001825
681.000000	0.001833
680.000000	0.001953
679.000000	0.002068
678.000000	0.002039
677.000000	0.001917
676.000000	0.001823
675.000000	0.001761
674.000000	0.001689
673.000000	0.001646
672.000000	0.001665
671.000000	0.001668
670.000000	0.001580
669.000000	0.001442
668.000000	0.001384
667.000000	0.001400
666.000000	0.001364
665.000000	0.001381
664.000000	0.001511
663.000000	0.001608
662.000000	0.001550
661.000000	0.001428
660.000000	0.001364
659.000000	0.001306
658.000000	0.001186
657.000000	0.001100
656.000000	0.001129
655.000000	0.001182
654.000000	0.001167
653.000000	0.001156
652.000000	0.001213
651.000000	0.001246
650.000000	0.001194
649.000000	0.001192
648.000000	0.001338
647.000000	0.001503
646.000000	0.001540
645.000000	0.001506
644.000000	0.001505
643.000000	0.001496
642.000000	0.001415
641.000000	0.001336
640.000000	0.001328
639.000000	0.001304
638.000000	0.001199
637.000000	0.001110
636.000000	0.001122
635.000000	0.001147
634.000000	0.001109
633.000000	0.001080
632.000000	0.001098
631.000000	0.001034
630.000000	0.000831
629.000000	0.000670
628.000000	0.000697
627.000000	0.000792
626.000000	0.000783
625.000000	0.000719
624.000000	0.000727
623.000000	0.000774
622.000000	0.000776
621.000000	0.000782
620.000000	0.000848
619.000000	0.000902
618.000000	0.000893
617.000000	0.000924
616.000000	0.001044
615.000000	0.001102
614.000000	0.001000
613.000000	0.000880
612.000000	0.000898
611.000000	0.000980
610.000000	0.001003
609.000000	0.001009
608.000000	0.001064
607.000000	0.001069
606.000000	0.000957
605.000000	0.000854
604.000000	0.000877
603.000000	0.000943
602.000000	0.000961
601.000000	0.001006
600.000000	0.001105
599.000000	0.001093
598.000000	0.000884
597.000000	0.000678
596.000000	0.000665
595.000000	0.000750
594.000000	0.000772
593.000000	0.000762
592.000000	0.000793
591.000000	0.000778
590.000000	0.000671
589.000000	0.000626
588.000000	0.000733
587.000000	0.000823
586.000000	0.000763
585.000000	0.000686
584.000000	0.000739
583.000000	0.000796
582.000000	0.000707
581.000000	0.000573
580.000000	0.000530
579.000000	0.000494
578.000000	0.000369
577.000000	0.000279
576.000000	0.000342
575.000000	0.000425
574.000000	0.000395
573.000000	0.000359
572.000000	0.000423
571.000000	0.000472
570.000000	0.000407
569.000000	0.000373
568.000000	0.000477
567.000000	0.000564
566.000000	0.000511
565.000000	0.000474
564.000000	0.000575
563.000000	0.000633
562.000000	0.000473
561.000000	0.000237
560.000000	0.000146
559.000000	0.000179
558.000000	0.000258
557.000000	0.000451
556.000000	0.000753
555.000000	0.000929
554.000000	0.000832
553.000000	0.000636
552.000000	0.000514
551.000000	0.000391
550.000000	0.000229
549.000000	0.000220
548.000000	0.000429
547.000000	0.000590
546.000000	0.000511
545.000000	0.000376
544.000000	0.000356
543.000000	0.000318
542.000000	0.000187
541.000000	0.000189
540.000000	0.000432
539.000000	0.000613
538.000000	0.000483
537.000000	0.000255
536.000000	0.000220
535.000000	0.000293
534.000000	0.000306
533.000000	0.000364
532.000000	0.000574
531.000000	0.000727
530.000000	0.000627
529.000000	0.000432
528.000000	0.000355
527.000000	0.000306
526.000000	0.000159
525.000000	0.000088
524.000000	0.000239
523.000000	0.000428
522.000000	0.000478
521.000000	0.000505
520.000000	0.000623
519.000000	0.000681
518.000000	0.000589
517.000000	0.000541
516.000000	0.000577
515.000000	0.000393
514.000000	-0.000086
513.000000	-0.000445
512.000000	-0.000374
511.000000	-0.000122
510.000000	-0.000023
509.000000	0.000005
508.000000	0.000142
507.000000	0.000225
506.000000	0.000101
505.000000	0.000025
504.000000	0.000251
503.000000	0.000617
502.000000	0.000901
501.000000	0.001226
500.000000	0.001703
499.000000	0.002054
498.000000	0.002049
497.000000	0.001893
496.000000	0.001847
495.000000	0.001812
494.000000	0.001666
493.000000	0.001614
492.000000	0.001805
491.000000	0.001973
490.000000	0.001923
489.000000	0.001917
488.000000	0.002133
487.000000	0.002212
486.000000	0.001818
485.000000	0.001238
484.000000	0.000916
483.000000	0.000759
482.000000	0.000477
481.000000	0.000207
480.000000	0.000200
479.000000	0.000313
478.000000	0.000334
477.000000	0.000395
476.000000	0.000598
475.000000	0.000632
474.000000	0.000286
473.000000	-0.000036
472.000000	0.000101
471.000000	0.000408
470.000000	0.000465
469.000000	0.000463
468.000000	0.000676
467.000000	0.000880
466.000000	0.000856
465.000000	0.000918
464.000000	0.001346
463.000000	0.001830
462.000000	0.002048
461.000000	0.002316
460.000000	0.002990
459.000000	0.003718
458.000000	0.003936
457.000000	0.003808
456.000000	0.003817
455.000000	0.003879
454.000000	0.003823
453.000000	0.003927
452.000000	0.004337
451.000000	0.004605
450.000000	0.004488
