PE UV       SUBTECH     SPECTRUM    ASCII       PEDS        4.00        
   -1
001-3S-JB02-x-F001-9566.Sample.asc
23/12/20
10:35:24.00
23/12/20
10:35:24.00
Administrator

250.000000
1
Lambda 750
750N8071901
PerkinElmer UV WinLab 6.0.4.0738 / 1.61.00 Lambda 900

0
0
3350/servo 860.8/2
0
0
UV/VIS
1
1
1
CommonBeamDepol,150mm sphere / downward view
0
0
0
0
Program
Program
3350/servo 860.8/2
3350/0.2 860.8/0.2
3350/0.2 860.8/0.2
0
1
 
 
 
0
 
860.8
319.2
860.8
Front
100
on
 
 
0
0
0
 
0
 
 
 
0
 
 
0
0
0
0
0
 
 
 
 
0
0


0
0
#HDR
-1
-1
#GR
nm
%R
1.0
0.0
2300.000000
-10.000000
206
8
61.334538
8.712975
#DATA
2300.000000	10.468982
2290.000000	10.723012
2280.000000	11.268185
2270.000000	13.537691
2260.000000	13.944185
2250.000000	14.375506
2240.000000	14.177300
2230.000000	13.949296
2220.000000	14.349717
2210.000000	13.350384
2200.000000	12.498354
2190.000000	12.954614
2180.000000	13.084402
2170.000000	13.745894
2160.000000	14.775367
2150.000000	16.167426
2140.000000	16.329594
2130.000000	16.248735
2120.000000	16.434614
2110.000000	16.353432
2100.000000	15.449881
2090.000000	15.612008
2080.000000	14.020309
2070.000000	13.063878
2060.000000	12.191945
2050.000000	12.940469
2040.000000	13.522558
2030.000000	13.514052
2020.000000	12.822646
2010.000000	11.994296
2000.000000	11.244694
1990.000000	10.523739
1980.000000	9.921599
1970.000000	9.670620
1960.000000	9.661105
1950.000000	9.497044
1940.000000	11.040210
1930.000000	13.269173
1920.000000	17.053160
1910.000000	22.222925
1900.000000	27.625762
1890.000000	32.239346
1880.000000	35.056860
1870.000000	35.966476
1860.000000	36.178270
1850.000000	35.871746
1840.000000	35.277916
1830.000000	34.680933
1820.000000	34.167174
1810.000000	33.654830
1800.000000	33.269980
1790.000000	32.815424
1780.000000	32.052075
1770.000000	31.387768
1760.000000	30.653937
1750.000000	30.200286
1740.000000	30.640460
1730.000000	32.069820
1720.000000	32.934230
1710.000000	33.116132
1700.000000	34.529400
1690.000000	36.928385
1680.000000	39.111726
1670.000000	40.016222
1660.000000	40.055904
1650.000000	39.484723
1640.000000	38.690529
1630.000000	37.666539
1620.000000	36.523919
1610.000000	35.344131
1600.000000	34.405634
1590.000000	33.478104
1580.000000	32.709244
1570.000000	32.382993
1560.000000	31.671602
1550.000000	30.430369
1540.000000	29.268662
1530.000000	28.633974
1520.000000	28.152836
1510.000000	27.896784
1500.000000	27.906225
1490.000000	28.152115
1480.000000	28.433993
1470.000000	29.029076
1460.000000	30.028767
1450.000000	31.465253
1440.000000	33.628036
1430.000000	36.654804
1420.000000	40.528093
1410.000000	44.622259
1400.000000	47.957722
1390.000000	50.058762
1380.000000	51.229360
1370.000000	52.467506
1360.000000	53.773393
1350.000000	54.998321
1340.000000	55.987410
1330.000000	56.905170
1320.000000	57.488608
1310.000000	57.570675
1300.000000	57.505568
1290.000000	57.442759
1280.000000	57.327970
1270.000000	57.453794
1260.000000	57.294776
1250.000000	56.955313
1240.000000	56.533157
1230.000000	56.065764
1220.000000	55.330404
1210.000000	54.571324
1200.000000	54.403806
1190.000000	54.974979
1180.000000	56.193921
1170.000000	57.810530
1160.000000	58.992532
1150.000000	59.961123
1140.000000	60.597508
1130.000000	60.846226
1120.000000	61.034009
1110.000000	61.137184
1100.000000	61.108300
1090.000000	60.972303
1080.000000	60.723581
1070.000000	60.525317
1060.000000	60.367154
1050.000000	60.253214
1040.000000	60.105452
1030.000000	59.996579
1020.000000	59.999463
1010.000000	60.181379
1000.000000	60.253328
990.000000	60.374928
980.000000	60.468841
970.000000	60.701723
960.000000	60.881498
950.000000	60.911796
940.000000	60.873909
930.000000	60.840238
920.000000	60.908657
910.000000	60.877123
900.000000	60.905654
890.000000	61.299288
880.000000	61.252777
870.000000	60.958713
860.000000	60.942723
850.000000	61.334538
840.000000	60.796866
830.000000	60.921319
820.000000	60.732530
810.000000	60.684685
800.000000	60.323715
790.000000	60.478318
780.000000	60.213660
770.000000	60.093626
760.000000	59.725439
750.000000	59.597029
740.000000	59.318236
730.000000	59.081725
720.000000	58.691220
710.000000	58.227873
700.000000	57.762421
690.000000	57.551473
680.000000	56.987517
670.000000	56.250363
660.000000	55.548367
650.000000	54.786959
640.000000	53.926062
630.000000	53.127700
620.000000	52.115023
610.000000	51.347126
600.000000	50.453821
590.000000	49.787418
580.000000	48.830555
570.000000	47.941467
560.000000	47.114785
550.000000	46.161216
540.000000	45.194833
530.000000	44.135749
520.000000	43.152320
510.000000	42.002732
500.000000	40.491442
490.000000	38.973608
480.000000	37.138542
470.000000	35.084126
460.000000	32.768814
450.000000	30.100966
440.000000	27.268844
430.000000	24.298854
420.000000	21.483532
410.000000	19.437929
400.000000	18.696934
390.000000	18.129915
380.000000	17.256406
370.000000	15.946047
360.000000	14.876835
350.000000	13.785786
340.000000	13.106638
330.000000	12.195581
320.000000	12.137706
310.000000	11.163878
300.000000	9.973306
290.000000	8.712975
280.000000	8.870381
270.000000	9.285799
260.000000	9.802816
250.000000	10.078696
