PE UV       SUBTECH     SPECTRUM    ASCII       PEDS        4.00        
   -1
001-3S-JB02-x-F001-9387_block.Sample.asc
23/12/20
10:29:14.00
23/12/20
10:29:14.00
Administrator

250.000000
1
Lambda 750
750N8071901
PerkinElmer UV WinLab 6.0.4.0738 / 1.61.00 Lambda 900

0
0
3350/servo 860.8/2
0
0
UV/VIS
1
1
1
CommonBeamDepol,150mm sphere / downward view
0
0
0
0
Program
Program
3350/servo 860.8/2
3350/0.2 860.8/0.2
3350/0.2 860.8/0.2
0
1
 
 
 
0
 
860.8
319.2
860.8
Front
100
on
 
 
0
0
0
 
0
 
 
 
0
 
 
0
0
0
0
0
 
 
 
 
0
0


0
0
#HDR
-1
-1
#GR
nm
%R
1.0
0.0
2300.000000
-10.000000
206
8
56.694014
8.708661
#DATA
2300.000000	10.784999
2290.000000	11.000969
2280.000000	10.885575
2270.000000	11.801300
2260.000000	13.345511
2250.000000	13.471675
2240.000000	13.287280
2230.000000	13.322395
2220.000000	13.038474
2210.000000	13.166148
2200.000000	12.329964
2190.000000	12.734218
2180.000000	12.437776
2170.000000	13.981009
2160.000000	14.140557
2150.000000	15.145740
2140.000000	15.187740
2130.000000	15.866379
2120.000000	15.520870
2110.000000	15.550635
2100.000000	15.177165
2090.000000	14.658523
2080.000000	13.447717
2070.000000	12.652388
2060.000000	11.756096
2050.000000	12.121624
2040.000000	12.976892
2030.000000	12.660538
2020.000000	12.162540
2010.000000	11.493901
2000.000000	11.020808
1990.000000	10.216060
1980.000000	9.653379
1970.000000	9.565607
1960.000000	9.187394
1950.000000	9.338969
1940.000000	10.554948
1930.000000	12.733147
1920.000000	16.288704
1910.000000	21.118796
1900.000000	25.829447
1890.000000	30.063796
1880.000000	32.428705
1870.000000	33.269615
1860.000000	33.310207
1850.000000	33.020751
1840.000000	32.561553
1830.000000	32.216076
1820.000000	31.660594
1810.000000	31.210795
1800.000000	30.907526
1790.000000	30.413636
1780.000000	29.729990
1770.000000	29.248373
1760.000000	28.813070
1750.000000	28.271854
1740.000000	28.748435
1730.000000	29.934617
1720.000000	30.693164
1710.000000	30.856771
1700.000000	32.061154
1690.000000	34.190450
1680.000000	36.086173
1670.000000	36.901218
1660.000000	36.958413
1650.000000	36.449383
1640.000000	35.785867
1630.000000	34.832476
1620.000000	33.835950
1610.000000	32.819225
1600.000000	32.081362
1590.000000	31.208350
1580.000000	30.621296
1570.000000	30.268169
1560.000000	29.655240
1550.000000	28.567929
1540.000000	27.522113
1530.000000	26.923854
1520.000000	26.526715
1510.000000	26.243464
1500.000000	26.225188
1490.000000	26.488408
1480.000000	26.738864
1470.000000	27.260687
1460.000000	28.188448
1450.000000	29.509213
1440.000000	31.400529
1430.000000	34.159683
1420.000000	37.566037
1410.000000	41.140583
1400.000000	44.030826
1390.000000	45.866708
1380.000000	46.857548
1370.000000	47.980127
1360.000000	49.087899
1350.000000	50.056620
1340.000000	51.001384
1330.000000	51.856301
1320.000000	52.384854
1310.000000	52.574289
1300.000000	52.465204
1290.000000	52.310086
1280.000000	52.299585
1270.000000	52.407555
1260.000000	52.379853
1250.000000	52.087456
1240.000000	51.701478
1230.000000	51.285590
1220.000000	50.653142
1210.000000	50.040273
1200.000000	49.875637
1190.000000	50.544639
1180.000000	51.529510
1170.000000	52.875096
1160.000000	53.960198
1150.000000	54.790357
1140.000000	55.393127
1130.000000	55.661510
1120.000000	55.770064
1110.000000	55.933501
1100.000000	55.919747
1090.000000	55.858658
1080.000000	55.749581
1070.000000	55.590181
1060.000000	55.442197
1050.000000	55.314960
1040.000000	55.203860
1030.000000	55.102325
1020.000000	55.153147
1010.000000	55.333382
1000.000000	55.420133
990.000000	55.521695
980.000000	55.733215
970.000000	55.914545
960.000000	56.185496
950.000000	56.338804
940.000000	56.175206
930.000000	56.181716
920.000000	56.285133
910.000000	56.310736
900.000000	56.533490
890.000000	56.575557
880.000000	56.694014
870.000000	56.547563
860.000000	56.257466
850.000000	56.368716
840.000000	55.970051
830.000000	56.207232
820.000000	55.785550
810.000000	56.008562
800.000000	55.855693
790.000000	56.048897
780.000000	55.783553
770.000000	55.625429
760.000000	55.381849
750.000000	55.387478
740.000000	55.181018
730.000000	54.963422
720.000000	54.708523
710.000000	54.383242
700.000000	53.918313
690.000000	53.742245
680.000000	53.380854
670.000000	52.776728
660.000000	52.288356
650.000000	51.598475
640.000000	50.942739
630.000000	50.184025
620.000000	49.510299
610.000000	48.899849
600.000000	48.167230
590.000000	47.576995
580.000000	46.784777
570.000000	46.007978
560.000000	45.275842
550.000000	44.477923
540.000000	43.591513
530.000000	42.667042
520.000000	41.713852
510.000000	40.672562
500.000000	39.320682
490.000000	37.908706
480.000000	36.244485
470.000000	34.384897
460.000000	32.268928
450.000000	29.821688
440.000000	27.241147
430.000000	24.464708
420.000000	21.718320
410.000000	19.719819
400.000000	18.850703
390.000000	18.176754
380.000000	17.106419
370.000000	15.898065
360.000000	14.670634
350.000000	13.609145
340.000000	12.977837
330.000000	12.317177
320.000000	11.632951
310.000000	10.931846
300.000000	9.866709
290.000000	8.708661
280.000000	8.785415
270.000000	9.282119
260.000000	9.750410
250.000000	10.045082
