PE UV       SUBTECH     SPECTRUM    ASCII       PEDS        4.00        
   -1
SGRGD11_1.Sample.asc
23/09/07
12:21:00.00
23/09/07
12:21:00.00
Administrator

250.000000
1
Lambda 750
750N8071901
PerkinElmer UV WinLab 6.0.4.0738 / 1.61.00 Lambda 900

0
0
3350/servo 860.8/2
0
0
UV/VIS
1
1
1
CommonBeamDepol,150mm sphere / downward view
0
0
0
0
Program
Program
3350/servo 860.8/2
3350/0.2 860.8/0.2
3350/0.2 860.8/0.2
0
1
 
 
 
0
 
860.8
319.2
860.8
Front
100
on
 
 
0
0
0
 
0
 
 
 
0
 
 
0
0
0
0
0
 
 
 
 
0
0


0
0
#HDR
-1
-1
#GR
nm
%R
1.0
0.0
2500.000000
-10.000000
226
8
75.655826
19.889901
#DATA
2500.000000	39.470081
2490.000000	37.690336
2480.000000	38.797847
2470.000000	41.455248
2460.000000	40.635002
2450.000000	44.033553
2440.000000	42.821004
2430.000000	44.807474
2420.000000	43.108210
2410.000000	44.948976
2400.000000	43.691941
2390.000000	45.100513
2380.000000	43.801461
2370.000000	45.227694
2360.000000	44.394307
2350.000000	44.796014
2340.000000	45.077888
2330.000000	44.427565
2320.000000	44.017278
2310.000000	43.021454
2300.000000	43.229294
2290.000000	43.761309
2280.000000	44.323027
2270.000000	45.095644
2260.000000	47.243473
2250.000000	48.918468
2240.000000	49.179205
2230.000000	49.103195
2220.000000	47.609597
2210.000000	47.208081
2200.000000	46.748333
2190.000000	47.239289
2180.000000	47.577899
2170.000000	48.741637
2160.000000	50.501592
2150.000000	51.367976
2140.000000	51.675357
2130.000000	52.201536
2120.000000	52.023641
2110.000000	51.854042
2100.000000	51.184432
2090.000000	50.350439
2080.000000	49.254218
2070.000000	47.841293
2060.000000	46.925370
2050.000000	47.198483
2040.000000	47.797464
2030.000000	47.565508
2020.000000	46.662913
2010.000000	45.534660
2000.000000	44.311734
1990.000000	43.198053
1980.000000	41.888430
1970.000000	41.104805
1960.000000	40.746897
1950.000000	41.061363
1940.000000	43.266620
1930.000000	45.864372
1920.000000	49.605451
1910.000000	54.772825
1900.000000	58.430309
1890.000000	61.514553
1880.000000	63.207379
1870.000000	63.879802
1860.000000	63.744686
1850.000000	63.686430
1840.000000	63.377809
1830.000000	63.312017
1820.000000	63.004658
1810.000000	62.870974
1800.000000	62.686801
1790.000000	62.527204
1780.000000	62.284849
1770.000000	62.185231
1760.000000	61.858431
1750.000000	61.761290
1740.000000	61.960799
1730.000000	62.712739
1720.000000	63.094010
1710.000000	63.340412
1700.000000	63.844872
1690.000000	64.751141
1680.000000	65.556392
1670.000000	65.822005
1660.000000	65.846333
1650.000000	65.741071
1640.000000	65.479934
1630.000000	65.187038
1620.000000	64.769709
1610.000000	64.419399
1600.000000	64.030012
1590.000000	63.771956
1580.000000	63.476426
1570.000000	63.315813
1560.000000	62.982879
1550.000000	62.383954
1540.000000	61.893178
1530.000000	61.554294
1520.000000	61.366816
1510.000000	61.157506
1500.000000	61.164399
1490.000000	61.248304
1480.000000	61.347772
1470.000000	61.675698
1460.000000	62.165738
1450.000000	62.925101
1440.000000	63.891210
1430.000000	65.069452
1420.000000	66.592850
1410.000000	68.173317
1400.000000	69.320788
1390.000000	69.983823
1380.000000	70.278416
1370.000000	70.597899
1360.000000	70.930272
1350.000000	71.230014
1340.000000	71.268084
1330.000000	71.579785
1320.000000	71.937808
1310.000000	72.093614
1300.000000	72.105296
1290.000000	72.199087
1280.000000	72.107118
1270.000000	72.080697
1260.000000	72.068522
1250.000000	72.098603
1240.000000	72.158073
1230.000000	72.082135
1220.000000	71.941304
1210.000000	71.839473
1200.000000	71.927214
1190.000000	72.112010
1180.000000	72.315743
1170.000000	72.668537
1160.000000	72.941165
1150.000000	73.164069
1140.000000	73.341415
1130.000000	73.376708
1120.000000	73.474589
1110.000000	73.556794
1100.000000	73.495741
1090.000000	73.576498
1080.000000	73.590584
1070.000000	73.626327
1060.000000	73.667344
1050.000000	73.714120
1040.000000	73.675061
1030.000000	73.646084
1020.000000	73.669640
1010.000000	73.900400
1000.000000	73.995834
990.000000	74.082329
980.000000	74.176111
970.000000	74.315162
960.000000	74.466190
950.000000	74.468978
940.000000	74.486150
930.000000	74.639762
920.000000	74.693431
910.000000	74.968794
900.000000	74.929639
890.000000	74.959275
880.000000	74.989394
870.000000	75.224433
860.000000	74.963741
850.000000	74.414027
840.000000	75.556305
830.000000	75.138441
820.000000	75.259327
810.000000	75.247007
800.000000	75.655826
790.000000	75.241206
780.000000	75.338307
770.000000	75.434934
760.000000	75.319099
750.000000	75.169168
740.000000	75.318729
730.000000	75.475299
720.000000	75.208090
710.000000	75.329264
700.000000	75.345794
690.000000	75.239876
680.000000	75.223615
670.000000	75.203980
660.000000	75.291182
650.000000	75.142831
640.000000	75.131396
630.000000	74.867348
620.000000	74.843457
610.000000	74.663349
600.000000	74.665339
590.000000	74.343619
580.000000	74.344486
570.000000	74.030552
560.000000	73.829431
550.000000	73.568451
540.000000	73.394249
530.000000	73.128373
520.000000	72.778590
510.000000	72.388987
500.000000	71.934239
490.000000	71.535363
480.000000	71.026689
470.000000	70.587646
460.000000	70.048665
450.000000	69.206049
440.000000	68.438592
430.000000	67.245827
420.000000	66.018373
410.000000	64.251980
400.000000	62.731099
390.000000	61.226429
380.000000	59.753559
370.000000	57.957644
360.000000	55.236135
350.000000	53.209769
340.000000	50.930833
330.000000	48.660271
320.000000	45.942365
310.000000	43.951907
300.000000	39.552446
290.000000	30.262771
280.000000	23.430758
270.000000	20.493469
260.000000	19.889901
250.000000	20.788684
