PE UV       SUBTECH     SPECTRUM    ASCII       PEDS        4.00        
   -1
SFRAD10_2.Sample.asc
23/09/07
11:56:17.00
23/09/07
11:56:17.00
Administrator

250.000000
1
Lambda 750
750N8071901
PerkinElmer UV WinLab 6.0.4.0738 / 1.61.00 Lambda 900

0
0
3350/servo 860.8/2
0
0
UV/VIS
1
1
1
CommonBeamDepol,150mm sphere / downward view
0
0
0
0
Program
Program
3350/servo 860.8/2
3350/0.2 860.8/0.2
3350/0.2 860.8/0.2
0
1
 
 
 
0
 
860.8
319.2
860.8
Front
100
on
 
 
0
0
0
 
0
 
 
 
0
 
 
0
0
0
0
0
 
 
 
 
0
0


0
0
#HDR
-1
-1
#GR
nm
%R
1.0
0.0
2500.000000
-10.000000
226
8
80.646284
18.789868
#DATA
2500.000000	34.978281
2490.000000	35.664455
2480.000000	36.559263
2470.000000	37.035747
2460.000000	37.512357
2450.000000	40.605109
2440.000000	39.335303
2430.000000	41.822086
2420.000000	41.038141
2410.000000	42.100963
2400.000000	40.811029
2390.000000	43.520596
2380.000000	42.810771
2370.000000	42.288803
2360.000000	43.014706
2350.000000	42.284203
2340.000000	42.766647
2330.000000	42.186477
2320.000000	42.086187
2310.000000	40.531463
2300.000000	40.317369
2290.000000	40.666359
2280.000000	40.562656
2270.000000	42.769811
2260.000000	44.933305
2250.000000	46.819423
2240.000000	47.243064
2230.000000	46.336472
2220.000000	45.821199
2210.000000	44.998650
2200.000000	44.666844
2190.000000	44.773533
2180.000000	45.858558
2170.000000	46.871412
2160.000000	48.389200
2150.000000	49.650664
2140.000000	49.606167
2130.000000	49.749351
2120.000000	49.458728
2110.000000	49.601706
2100.000000	48.889189
2090.000000	48.014509
2080.000000	46.759120
2070.000000	45.153816
2060.000000	43.775100
2050.000000	44.425633
2040.000000	44.887066
2030.000000	44.633086
2020.000000	43.578591
2010.000000	42.224721
2000.000000	40.661376
1990.000000	39.379316
1980.000000	38.050778
1970.000000	37.057370
1960.000000	36.704261
1950.000000	37.353819
1940.000000	39.258138
1930.000000	42.596770
1920.000000	47.620342
1910.000000	53.429383
1900.000000	58.368595
1890.000000	62.257923
1880.000000	64.595241
1870.000000	65.541089
1860.000000	65.602455
1850.000000	65.627718
1840.000000	65.340910
1830.000000	65.141759
1820.000000	64.552326
1810.000000	64.354136
1800.000000	63.998452
1790.000000	63.722232
1780.000000	63.484688
1770.000000	63.059146
1760.000000	62.796816
1750.000000	62.578784
1740.000000	62.882678
1730.000000	63.770779
1720.000000	64.360384
1710.000000	64.639812
1700.000000	65.225180
1690.000000	66.575420
1680.000000	67.857667
1670.000000	68.210813
1660.000000	68.263871
1650.000000	68.022657
1640.000000	67.548491
1630.000000	66.934930
1620.000000	66.313591
1610.000000	65.657201
1600.000000	65.062660
1590.000000	64.529318
1580.000000	64.013239
1570.000000	63.654590
1560.000000	63.162046
1550.000000	62.306894
1540.000000	61.503130
1530.000000	60.988341
1520.000000	60.655865
1510.000000	60.309499
1500.000000	60.239063
1490.000000	60.324985
1480.000000	60.445292
1470.000000	60.861022
1460.000000	61.550508
1450.000000	62.591864
1440.000000	64.036950
1430.000000	65.911260
1420.000000	68.311740
1410.000000	70.840177
1400.000000	72.764267
1390.000000	73.868992
1380.000000	74.446080
1370.000000	74.981271
1360.000000	75.570760
1350.000000	76.116536
1340.000000	76.376849
1330.000000	76.761785
1320.000000	77.167638
1310.000000	77.292901
1300.000000	77.203211
1290.000000	77.335417
1280.000000	77.298280
1270.000000	77.348453
1260.000000	77.286676
1250.000000	77.223889
1240.000000	77.194970
1230.000000	76.958375
1220.000000	76.660285
1210.000000	76.462871
1200.000000	76.445855
1190.000000	76.739952
1180.000000	77.155149
1170.000000	77.713854
1160.000000	78.280088
1150.000000	78.724653
1140.000000	78.898025
1130.000000	78.975541
1120.000000	79.098466
1110.000000	79.187587
1100.000000	79.173078
1090.000000	79.151428
1080.000000	79.180139
1070.000000	79.134422
1060.000000	79.134338
1050.000000	79.092449
1040.000000	79.062439
1030.000000	78.961579
1020.000000	79.002127
1010.000000	79.198196
1000.000000	79.265718
990.000000	79.349753
980.000000	79.495791
970.000000	79.645637
960.000000	79.774254
950.000000	79.759140
940.000000	79.745194
930.000000	79.978772
920.000000	79.967920
910.000000	80.029044
900.000000	80.154427
890.000000	80.127354
880.000000	80.045414
870.000000	80.486663
860.000000	80.646284
850.000000	79.295835
840.000000	80.438037
830.000000	80.110883
820.000000	80.179024
810.000000	80.115544
800.000000	80.423231
790.000000	80.046779
780.000000	79.973431
770.000000	80.076583
760.000000	79.818717
750.000000	79.971683
740.000000	79.871552
730.000000	80.154205
720.000000	79.818817
710.000000	79.952506
700.000000	79.834827
690.000000	79.684076
680.000000	79.721319
670.000000	79.584034
660.000000	79.434333
650.000000	79.404363
640.000000	79.338782
630.000000	79.019588
620.000000	78.817448
610.000000	78.733055
600.000000	78.530459
590.000000	78.256335
580.000000	78.109894
570.000000	77.802861
560.000000	77.454491
550.000000	77.188740
540.000000	76.829033
530.000000	76.546741
520.000000	76.085662
510.000000	75.677557
500.000000	75.209441
490.000000	74.584315
480.000000	73.976088
470.000000	73.459321
460.000000	72.675249
450.000000	71.660159
440.000000	70.538733
430.000000	69.018788
420.000000	67.415416
410.000000	65.418459
400.000000	63.230089
390.000000	60.837815
380.000000	58.319704
370.000000	55.359497
360.000000	51.589765
350.000000	48.825422
340.000000	45.242168
330.000000	42.430651
320.000000	38.426004
310.000000	36.859798
300.000000	32.559651
290.000000	26.458421
280.000000	20.829140
270.000000	19.740405
260.000000	19.395744
250.000000	18.789868
