PE IR       SUBTECH     SPECTRUM    ASCII       PEDS        4.00        
   -1
Peau004_1.ASC
23/06/14
14:37:48.00
23/06/14
14:44:30.00
uco
Sample 004 By uco Date Wednesday, June 14 2023
450.000000
#HDR
-1
-1
#GR
cm-1
A
1.0
0.0
4000.000000
-1.000000
3551
8
0.041514
0.002893
#DATA
4000.000000	0.003523
3999.000000	0.003523
3998.000000	0.003523
3997.000000	0.003523
3996.000000	0.003523
3995.000000	0.003523
3994.000000	0.003527
3993.000000	0.003540
3992.000000	0.003563
3991.000000	0.003595
3990.000000	0.003632
3989.000000	0.003665
3988.000000	0.003685
3987.000000	0.003687
3986.000000	0.003675
3985.000000	0.003655
3984.000000	0.003637
3983.000000	0.003631
3982.000000	0.003641
3981.000000	0.003661
3980.000000	0.003679
3979.000000	0.003679
3978.000000	0.003659
3977.000000	0.003630
3976.000000	0.003610
3975.000000	0.003604
3974.000000	0.003611
3973.000000	0.003622
3972.000000	0.003637
3971.000000	0.003659
3970.000000	0.003684
3969.000000	0.003706
3968.000000	0.003713
3967.000000	0.003709
3966.000000	0.003705
3965.000000	0.003712
3964.000000	0.003727
3963.000000	0.003740
3962.000000	0.003742
3961.000000	0.003737
3960.000000	0.003737
3959.000000	0.003747
3958.000000	0.003763
3957.000000	0.003773
3956.000000	0.003776
3955.000000	0.003775
3954.000000	0.003772
3953.000000	0.003768
3952.000000	0.003758
3951.000000	0.003739
3950.000000	0.003720
3949.000000	0.003709
3948.000000	0.003708
3947.000000	0.003714
3946.000000	0.003717
3945.000000	0.003714
3944.000000	0.003705
3943.000000	0.003697
3942.000000	0.003696
3941.000000	0.003709
3940.000000	0.003733
3939.000000	0.003760
3938.000000	0.003776
3937.000000	0.003772
3936.000000	0.003752
3935.000000	0.003728
3934.000000	0.003711
3933.000000	0.003705
3932.000000	0.003711
3931.000000	0.003727
3930.000000	0.003748
3929.000000	0.003773
3928.000000	0.003798
3927.000000	0.003821
3926.000000	0.003836
3925.000000	0.003837
3924.000000	0.003827
3923.000000	0.003816
3922.000000	0.003813
3921.000000	0.003818
3920.000000	0.003825
3919.000000	0.003829
3918.000000	0.003829
3917.000000	0.003824
3916.000000	0.003811
3915.000000	0.003791
3914.000000	0.003773
3913.000000	0.003763
3912.000000	0.003765
3911.000000	0.003774
3910.000000	0.003781
3909.000000	0.003782
3908.000000	0.003778
3907.000000	0.003773
3906.000000	0.003768
3905.000000	0.003769
3904.000000	0.003777
3903.000000	0.003799
3902.000000	0.003832
3901.000000	0.003864
3900.000000	0.003878
3899.000000	0.003870
3898.000000	0.003844
3897.000000	0.003817
3896.000000	0.003799
3895.000000	0.003793
3894.000000	0.003797
3893.000000	0.003803
3892.000000	0.003803
3891.000000	0.003800
3890.000000	0.003810
3889.000000	0.003838
3888.000000	0.003871
3887.000000	0.003889
3886.000000	0.003879
3885.000000	0.003850
3884.000000	0.003819
3883.000000	0.003795
3882.000000	0.003776
3881.000000	0.003758
3880.000000	0.003750
3879.000000	0.003762
3878.000000	0.003791
3877.000000	0.003821
3876.000000	0.003837
3875.000000	0.003838
3874.000000	0.003835
3873.000000	0.003839
3872.000000	0.003849
3871.000000	0.003853
3870.000000	0.003837
3869.000000	0.003805
3868.000000	0.003772
3867.000000	0.003754
3866.000000	0.003749
3865.000000	0.003748
3864.000000	0.003744
3863.000000	0.003739
3862.000000	0.003742
3861.000000	0.003760
3860.000000	0.003790
3859.000000	0.003820
3858.000000	0.003843
3857.000000	0.003854
3856.000000	0.003851
3855.000000	0.003826
3854.000000	0.003778
3853.000000	0.003724
3852.000000	0.003683
3851.000000	0.003667
3850.000000	0.003674
3849.000000	0.003691
3848.000000	0.003713
3847.000000	0.003745
3846.000000	0.003787
3845.000000	0.003833
3844.000000	0.003879
3843.000000	0.003922
3842.000000	0.003954
3841.000000	0.003967
3840.000000	0.003959
3839.000000	0.003936
3838.000000	0.003909
3837.000000	0.003881
3836.000000	0.003847
3835.000000	0.003802
3834.000000	0.003751
3833.000000	0.003706
3832.000000	0.003678
3831.000000	0.003671
3830.000000	0.003679
3829.000000	0.003691
3828.000000	0.003701
3827.000000	0.003710
3826.000000	0.003731
3825.000000	0.003775
3824.000000	0.003840
3823.000000	0.003905
3822.000000	0.003933
3821.000000	0.003903
3820.000000	0.003838
3819.000000	0.003782
3818.000000	0.003749
3817.000000	0.003713
3816.000000	0.003651
3815.000000	0.003579
3814.000000	0.003534
3813.000000	0.003533
3812.000000	0.003567
3811.000000	0.003618
3810.000000	0.003666
3809.000000	0.003697
3808.000000	0.003705
3807.000000	0.003698
3806.000000	0.003689
3805.000000	0.003687
3804.000000	0.003695
3803.000000	0.003706
3802.000000	0.003715
3801.000000	0.003722
3800.000000	0.003728
3799.000000	0.003732
3798.000000	0.003730
3797.000000	0.003722
3796.000000	0.003712
3795.000000	0.003703
3794.000000	0.003691
3793.000000	0.003673
3792.000000	0.003657
3791.000000	0.003654
3790.000000	0.003666
3789.000000	0.003688
3788.000000	0.003706
3787.000000	0.003710
3786.000000	0.003694
3785.000000	0.003663
3784.000000	0.003633
3783.000000	0.003620
3782.000000	0.003634
3781.000000	0.003668
3780.000000	0.003705
3779.000000	0.003729
3778.000000	0.003729
3777.000000	0.003707
3776.000000	0.003677
3775.000000	0.003648
3774.000000	0.003633
3773.000000	0.003639
3772.000000	0.003668
3771.000000	0.003709
3770.000000	0.003744
3769.000000	0.003758
3768.000000	0.003748
3767.000000	0.003720
3766.000000	0.003688
3765.000000	0.003666
3764.000000	0.003660
3763.000000	0.003667
3762.000000	0.003678
3761.000000	0.003686
3760.000000	0.003696
3759.000000	0.003709
3758.000000	0.003719
3757.000000	0.003720
3756.000000	0.003710
3755.000000	0.003697
3754.000000	0.003694
3753.000000	0.003713
3752.000000	0.003750
3751.000000	0.003788
3750.000000	0.003809
3749.000000	0.003808
3748.000000	0.003783
3747.000000	0.003735
3746.000000	0.003675
3745.000000	0.003638
3744.000000	0.003640
3743.000000	0.003658
3742.000000	0.003663
3741.000000	0.003651
3740.000000	0.003637
3739.000000	0.003637
3738.000000	0.003650
3737.000000	0.003660
3736.000000	0.003644
3735.000000	0.003601
3734.000000	0.003552
3733.000000	0.003526
3732.000000	0.003538
3731.000000	0.003573
3730.000000	0.003612
3729.000000	0.003644
3728.000000	0.003670
3727.000000	0.003690
3726.000000	0.003703
3725.000000	0.003709
3724.000000	0.003708
3723.000000	0.003706
3722.000000	0.003712
3721.000000	0.003726
3720.000000	0.003738
3719.000000	0.003738
3718.000000	0.003724
3717.000000	0.003704
3716.000000	0.003688
3715.000000	0.003679
3714.000000	0.003673
3713.000000	0.003663
3712.000000	0.003645
3711.000000	0.003631
3710.000000	0.003633
3709.000000	0.003648
3708.000000	0.003662
3707.000000	0.003660
3706.000000	0.003647
3705.000000	0.003639
3704.000000	0.003636
3703.000000	0.003622
3702.000000	0.003585
3701.000000	0.003536
3700.000000	0.003500
3699.000000	0.003490
3698.000000	0.003497
3697.000000	0.003504
3696.000000	0.003507
3695.000000	0.003512
3694.000000	0.003524
3693.000000	0.003543
3692.000000	0.003562
3691.000000	0.003573
3690.000000	0.003569
3689.000000	0.003550
3688.000000	0.003532
3687.000000	0.003527
3686.000000	0.003537
3685.000000	0.003556
3684.000000	0.003580
3683.000000	0.003608
3682.000000	0.003632
3681.000000	0.003642
3680.000000	0.003640
3679.000000	0.003634
3678.000000	0.003634
3677.000000	0.003649
3676.000000	0.003675
3675.000000	0.003697
3674.000000	0.003706
3673.000000	0.003703
3672.000000	0.003688
3671.000000	0.003655
3670.000000	0.003622
3669.000000	0.003612
3668.000000	0.003627
3667.000000	0.003653
3666.000000	0.003665
3665.000000	0.003650
3664.000000	0.003624
3663.000000	0.003614
3662.000000	0.003645
3661.000000	0.003716
3660.000000	0.003808
3659.000000	0.003893
3658.000000	0.003942
3657.000000	0.003944
3656.000000	0.003908
3655.000000	0.003869
3654.000000	0.003857
3653.000000	0.003885
3652.000000	0.003943
3651.000000	0.004015
3650.000000	0.004083
3649.000000	0.004138
3648.000000	0.004183
3647.000000	0.004227
3646.000000	0.004264
3645.000000	0.004282
3644.000000	0.004279
3643.000000	0.004266
3642.000000	0.004251
3641.000000	0.004240
3640.000000	0.004237
3639.000000	0.004247
3638.000000	0.004267
3637.000000	0.004288
3636.000000	0.004303
3635.000000	0.004307
3634.000000	0.004302
3633.000000	0.004291
3632.000000	0.004280
3631.000000	0.004279
3630.000000	0.004303
3629.000000	0.004349
3628.000000	0.004395
3627.000000	0.004427
3626.000000	0.004455
3625.000000	0.004487
3624.000000	0.004521
3623.000000	0.004558
3622.000000	0.004597
3621.000000	0.004639
3620.000000	0.004688
3619.000000	0.004741
3618.000000	0.004786
3617.000000	0.004813
3616.000000	0.004830
3615.000000	0.004853
3614.000000	0.004893
3613.000000	0.004947
3612.000000	0.004999
3611.000000	0.005037
3610.000000	0.005063
3609.000000	0.005081
3608.000000	0.005089
3607.000000	0.005088
3606.000000	0.005089
3605.000000	0.005104
3604.000000	0.005138
3603.000000	0.005186
3602.000000	0.005242
3601.000000	0.005298
3600.000000	0.005345
3599.000000	0.005371
3598.000000	0.005379
3597.000000	0.005380
3596.000000	0.005385
3595.000000	0.005401
3594.000000	0.005433
3593.000000	0.005486
3592.000000	0.005553
3591.000000	0.005616
3590.000000	0.005663
3589.000000	0.005700
3588.000000	0.005744
3587.000000	0.005801
3586.000000	0.005860
3585.000000	0.005907
3584.000000	0.005939
3583.000000	0.005962
3582.000000	0.005990
3581.000000	0.006029
3580.000000	0.006068
3579.000000	0.006091
3578.000000	0.006098
3577.000000	0.006102
3576.000000	0.006116
3575.000000	0.006140
3574.000000	0.006168
3573.000000	0.006200
3572.000000	0.006239
3571.000000	0.006288
3570.000000	0.006343
3569.000000	0.006397
3568.000000	0.006452
3567.000000	0.006516
3566.000000	0.006597
3565.000000	0.006693
3564.000000	0.006785
3563.000000	0.006845
3562.000000	0.006867
3561.000000	0.006864
3560.000000	0.006859
3559.000000	0.006867
3558.000000	0.006892
3557.000000	0.006935
3556.000000	0.006991
3555.000000	0.007052
3554.000000	0.007113
3553.000000	0.007170
3552.000000	0.007221
3551.000000	0.007269
3550.000000	0.007313
3549.000000	0.007350
3548.000000	0.007378
3547.000000	0.007407
3546.000000	0.007444
3545.000000	0.007491
3544.000000	0.007533
3543.000000	0.007559
3542.000000	0.007573
3541.000000	0.007594
3540.000000	0.007631
3539.000000	0.007674
3538.000000	0.007713
3537.000000	0.007750
3536.000000	0.007796
3535.000000	0.007855
3534.000000	0.007916
3533.000000	0.007969
3532.000000	0.008013
3531.000000	0.008054
3530.000000	0.008095
3529.000000	0.008136
3528.000000	0.008177
3527.000000	0.008219
3526.000000	0.008265
3525.000000	0.008314
3524.000000	0.008365
3523.000000	0.008415
3522.000000	0.008461
3521.000000	0.008505
3520.000000	0.008551
3519.000000	0.008601
3518.000000	0.008652
3517.000000	0.008697
3516.000000	0.008728
3515.000000	0.008738
3514.000000	0.008728
3513.000000	0.008711
3512.000000	0.008708
3511.000000	0.008731
3510.000000	0.008784
3509.000000	0.008856
3508.000000	0.008931
3507.000000	0.008987
3506.000000	0.009009
3505.000000	0.009003
3504.000000	0.009005
3503.000000	0.009052
3502.000000	0.009141
3501.000000	0.009239
3500.000000	0.009309
3499.000000	0.009342
3498.000000	0.009358
3497.000000	0.009385
3496.000000	0.009432
3495.000000	0.009489
3494.000000	0.009536
3493.000000	0.009560
3492.000000	0.009564
3491.000000	0.009563
3490.000000	0.009575
3489.000000	0.009603
3488.000000	0.009644
3487.000000	0.009688
3486.000000	0.009731
3485.000000	0.009776
3484.000000	0.009822
3483.000000	0.009866
3482.000000	0.009902
3481.000000	0.009929
3480.000000	0.009957
3479.000000	0.009996
3478.000000	0.010041
3477.000000	0.010080
3476.000000	0.010105
3475.000000	0.010121
3474.000000	0.010140
3473.000000	0.010169
3472.000000	0.010210
3471.000000	0.010256
3470.000000	0.010299
3469.000000	0.010328
3468.000000	0.010346
3467.000000	0.010363
3466.000000	0.010387
3465.000000	0.010413
3464.000000	0.010427
3463.000000	0.010431
3462.000000	0.010443
3461.000000	0.010476
3460.000000	0.010526
3459.000000	0.010576
3458.000000	0.010619
3457.000000	0.010654
3456.000000	0.010686
3455.000000	0.010713
3454.000000	0.010733
3453.000000	0.010746
3452.000000	0.010758
3451.000000	0.010776
3450.000000	0.010804
3449.000000	0.010847
3448.000000	0.010904
3447.000000	0.010976
3446.000000	0.011058
3445.000000	0.011139
3444.000000	0.011202
3443.000000	0.011241
3442.000000	0.011263
3441.000000	0.011276
3440.000000	0.011288
3439.000000	0.011305
3438.000000	0.011338
3437.000000	0.011393
3436.000000	0.011464
3435.000000	0.011531
3434.000000	0.011577
3433.000000	0.011594
3432.000000	0.011579
3431.000000	0.011536
3430.000000	0.011478
3429.000000	0.011439
3428.000000	0.011454
3427.000000	0.011532
3426.000000	0.011643
3425.000000	0.011746
3424.000000	0.011815
3423.000000	0.011857
3422.000000	0.011891
3421.000000	0.011925
3420.000000	0.011961
3419.000000	0.011995
3418.000000	0.012033
3417.000000	0.012080
3416.000000	0.012137
3415.000000	0.012199
3414.000000	0.012252
3413.000000	0.012288
3412.000000	0.012310
3411.000000	0.012332
3410.000000	0.012364
3409.000000	0.012403
3408.000000	0.012440
3407.000000	0.012471
3406.000000	0.012500
3405.000000	0.012530
3404.000000	0.012555
3403.000000	0.012570
3402.000000	0.012581
3401.000000	0.012601
3400.000000	0.012640
3399.000000	0.012695
3398.000000	0.012757
3397.000000	0.012823
3396.000000	0.012891
3395.000000	0.012958
3394.000000	0.013016
3393.000000	0.013055
3392.000000	0.013074
3391.000000	0.013079
3390.000000	0.013084
3389.000000	0.013097
3388.000000	0.013124
3387.000000	0.013162
3386.000000	0.013202
3385.000000	0.013235
3384.000000	0.013260
3383.000000	0.013284
3382.000000	0.013323
3381.000000	0.013382
3380.000000	0.013452
3379.000000	0.013518
3378.000000	0.013575
3377.000000	0.013630
3376.000000	0.013692
3375.000000	0.013760
3374.000000	0.013820
3373.000000	0.013860
3372.000000	0.013879
3371.000000	0.013894
3370.000000	0.013927
3369.000000	0.013989
3368.000000	0.014076
3367.000000	0.014176
3366.000000	0.014274
3365.000000	0.014358
3364.000000	0.014422
3363.000000	0.014462
3362.000000	0.014478
3361.000000	0.014475
3360.000000	0.014476
3359.000000	0.014504
3358.000000	0.014571
3357.000000	0.014669
3356.000000	0.014781
3355.000000	0.014891
3354.000000	0.014992
3353.000000	0.015076
3352.000000	0.015141
3351.000000	0.015190
3350.000000	0.015236
3349.000000	0.015290
3348.000000	0.015351
3347.000000	0.015418
3346.000000	0.015486
3345.000000	0.015551
3344.000000	0.015608
3343.000000	0.015655
3342.000000	0.015699
3341.000000	0.015753
3340.000000	0.015826
3339.000000	0.015915
3338.000000	0.016011
3337.000000	0.016099
3336.000000	0.016170
3335.000000	0.016224
3334.000000	0.016275
3333.000000	0.016341
3332.000000	0.016430
3331.000000	0.016529
3330.000000	0.016615
3329.000000	0.016672
3328.000000	0.016701
3327.000000	0.016722
3326.000000	0.016750
3325.000000	0.016789
3324.000000	0.016832
3323.000000	0.016877
3322.000000	0.016925
3321.000000	0.016977
3320.000000	0.017029
3319.000000	0.017077
3318.000000	0.017122
3317.000000	0.017169
3316.000000	0.017221
3315.000000	0.017279
3314.000000	0.017342
3313.000000	0.017402
3312.000000	0.017444
3311.000000	0.017455
3310.000000	0.017435
3309.000000	0.017400
3308.000000	0.017378
3307.000000	0.017387
3306.000000	0.017431
3305.000000	0.017493
3304.000000	0.017554
3303.000000	0.017607
3302.000000	0.017656
3301.000000	0.017706
3300.000000	0.017747
3299.000000	0.017770
3298.000000	0.017772
3297.000000	0.017759
3296.000000	0.017740
3295.000000	0.017726
3294.000000	0.017724
3293.000000	0.017742
3292.000000	0.017776
3291.000000	0.017811
3290.000000	0.017839
3289.000000	0.017859
3288.000000	0.017875
3287.000000	0.017886
3286.000000	0.017890
3285.000000	0.017885
3284.000000	0.017874
3283.000000	0.017863
3282.000000	0.017858
3281.000000	0.017858
3280.000000	0.017856
3279.000000	0.017841
3278.000000	0.017815
3277.000000	0.017793
3276.000000	0.017787
3275.000000	0.017798
3274.000000	0.017805
3273.000000	0.017784
3272.000000	0.017726
3271.000000	0.017647
3270.000000	0.017577
3269.000000	0.017540
3268.000000	0.017536
3267.000000	0.017545
3266.000000	0.017544
3265.000000	0.017522
3264.000000	0.017480
3263.000000	0.017424
3262.000000	0.017361
3261.000000	0.017301
3260.000000	0.017250
3259.000000	0.017212
3258.000000	0.017187
3257.000000	0.017173
3256.000000	0.017167
3255.000000	0.017164
3254.000000	0.017155
3253.000000	0.017133
3252.000000	0.017098
3251.000000	0.017059
3250.000000	0.017023
3249.000000	0.016990
3248.000000	0.016956
3247.000000	0.016918
3246.000000	0.016877
3245.000000	0.016837
3244.000000	0.016810
3243.000000	0.016802
3242.000000	0.016805
3241.000000	0.016802
3240.000000	0.016779
3239.000000	0.016735
3238.000000	0.016676
3237.000000	0.016614
3236.000000	0.016558
3235.000000	0.016521
3234.000000	0.016507
3233.000000	0.016503
3232.000000	0.016486
3231.000000	0.016447
3230.000000	0.016398
3229.000000	0.016360
3228.000000	0.016339
3227.000000	0.016325
3226.000000	0.016306
3225.000000	0.016283
3224.000000	0.016258
3223.000000	0.016228
3222.000000	0.016183
3221.000000	0.016124
3220.000000	0.016074
3219.000000	0.016055
3218.000000	0.016068
3217.000000	0.016085
3216.000000	0.016077
3215.000000	0.016038
3214.000000	0.015987
3213.000000	0.015940
3212.000000	0.015899
3211.000000	0.015862
3210.000000	0.015829
3209.000000	0.015800
3208.000000	0.015766
3207.000000	0.015721
3206.000000	0.015671
3205.000000	0.015631
3204.000000	0.015609
3203.000000	0.015598
3202.000000	0.015588
3201.000000	0.015566
3200.000000	0.015528
3199.000000	0.015477
3198.000000	0.015427
3197.000000	0.015393
3196.000000	0.015375
3195.000000	0.015361
3194.000000	0.015335
3193.000000	0.015291
3192.000000	0.015227
3191.000000	0.015149
3190.000000	0.015065
3189.000000	0.014989
3188.000000	0.014937
3187.000000	0.014911
3186.000000	0.014901
3185.000000	0.014885
3184.000000	0.014846
3183.000000	0.014783
3182.000000	0.014709
3181.000000	0.014638
3180.000000	0.014577
3179.000000	0.014530
3178.000000	0.014495
3177.000000	0.014465
3176.000000	0.014428
3175.000000	0.014379
3174.000000	0.014323
3173.000000	0.014273
3172.000000	0.014233
3171.000000	0.014194
3170.000000	0.014142
3169.000000	0.014073
3168.000000	0.013994
3167.000000	0.013916
3166.000000	0.013848
3165.000000	0.013793
3164.000000	0.013751
3163.000000	0.013727
3162.000000	0.013719
3161.000000	0.013717
3160.000000	0.013700
3159.000000	0.013654
3158.000000	0.013585
3157.000000	0.013513
3156.000000	0.013453
3155.000000	0.013405
3154.000000	0.013363
3153.000000	0.013319
3152.000000	0.013266
3151.000000	0.013203
3150.000000	0.013135
3149.000000	0.013069
3148.000000	0.013008
3147.000000	0.012954
3146.000000	0.012908
3145.000000	0.012873
3144.000000	0.012845
3143.000000	0.012818
3142.000000	0.012785
3141.000000	0.012749
3140.000000	0.012709
3139.000000	0.012665
3138.000000	0.012621
3137.000000	0.012578
3136.000000	0.012539
3135.000000	0.012500
3134.000000	0.012462
3133.000000	0.012434
3132.000000	0.012431
3131.000000	0.012454
3130.000000	0.012482
3129.000000	0.012484
3128.000000	0.012448
3127.000000	0.012392
3126.000000	0.012349
3125.000000	0.012330
3124.000000	0.012320
3123.000000	0.012299
3122.000000	0.012266
3121.000000	0.012229
3120.000000	0.012190
3119.000000	0.012143
3118.000000	0.012093
3117.000000	0.012067
3116.000000	0.012084
3115.000000	0.012133
3114.000000	0.012181
3113.000000	0.012212
3112.000000	0.012230
3111.000000	0.012245
3110.000000	0.012258
3109.000000	0.012265
3108.000000	0.012268
3107.000000	0.012279
3106.000000	0.012300
3105.000000	0.012326
3104.000000	0.012352
3103.000000	0.012381
3102.000000	0.012413
3101.000000	0.012443
3100.000000	0.012466
3099.000000	0.012486
3098.000000	0.012509
3097.000000	0.012535
3096.000000	0.012557
3095.000000	0.012571
3094.000000	0.012576
3093.000000	0.012577
3092.000000	0.012576
3091.000000	0.012578
3090.000000	0.012590
3089.000000	0.012615
3088.000000	0.012649
3087.000000	0.012676
3086.000000	0.012685
3085.000000	0.012678
3084.000000	0.012671
3083.000000	0.012684
3082.000000	0.012720
3081.000000	0.012760
3080.000000	0.012792
3079.000000	0.012819
3078.000000	0.012852
3077.000000	0.012888
3076.000000	0.012908
3075.000000	0.012897
3074.000000	0.012870
3073.000000	0.012850
3072.000000	0.012847
3071.000000	0.012855
3070.000000	0.012864
3069.000000	0.012873
3068.000000	0.012882
3067.000000	0.012889
3066.000000	0.012883
3065.000000	0.012853
3064.000000	0.012800
3063.000000	0.012738
3062.000000	0.012693
3061.000000	0.012678
3060.000000	0.012684
3059.000000	0.012688
3058.000000	0.012674
3057.000000	0.012642
3056.000000	0.012601
3055.000000	0.012557
3054.000000	0.012512
3053.000000	0.012465
3052.000000	0.012420
3051.000000	0.012386
3050.000000	0.012365
3049.000000	0.012345
3048.000000	0.012307
3047.000000	0.012245
3046.000000	0.012167
3045.000000	0.012082
3044.000000	0.011994
3043.000000	0.011915
3042.000000	0.011868
3041.000000	0.011859
3040.000000	0.011862
3039.000000	0.011838
3038.000000	0.011782
3037.000000	0.011718
3036.000000	0.011670
3035.000000	0.011639
3034.000000	0.011610
3033.000000	0.011578
3032.000000	0.011543
3031.000000	0.011504
3030.000000	0.011463
3029.000000	0.011421
3028.000000	0.011376
3027.000000	0.011323
3026.000000	0.011263
3025.000000	0.011208
3024.000000	0.011164
3023.000000	0.011125
3022.000000	0.011077
3021.000000	0.011021
3020.000000	0.010966
3019.000000	0.010918
3018.000000	0.010876
3017.000000	0.010837
3016.000000	0.010804
3015.000000	0.010785
3014.000000	0.010778
3013.000000	0.010775
3012.000000	0.010763
3011.000000	0.010745
3010.000000	0.010733
3009.000000	0.010735
3008.000000	0.010741
3007.000000	0.010734
3006.000000	0.010708
3005.000000	0.010687
3004.000000	0.010701
3003.000000	0.010749
3002.000000	0.010805
3001.000000	0.010846
3000.000000	0.010875
2999.000000	0.010908
2998.000000	0.010956
2997.000000	0.011013
2996.000000	0.011066
2995.000000	0.011110
2994.000000	0.011151
2993.000000	0.011203
2992.000000	0.011270
2991.000000	0.011347
2990.000000	0.011426
2989.000000	0.011504
2988.000000	0.011584
2987.000000	0.011672
2986.000000	0.011773
2985.000000	0.011886
2984.000000	0.012009
2983.000000	0.012134
2982.000000	0.012253
2981.000000	0.012363
2980.000000	0.012466
2979.000000	0.012569
2978.000000	0.012676
2977.000000	0.012791
2976.000000	0.012921
2975.000000	0.013069
2974.000000	0.013230
2973.000000	0.013393
2972.000000	0.013545
2971.000000	0.013688
2970.000000	0.013839
2969.000000	0.014015
2968.000000	0.014224
2967.000000	0.014452
2966.000000	0.014677
2965.000000	0.014883
2964.000000	0.015069
2963.000000	0.015242
2962.000000	0.015399
2961.000000	0.015526
2960.000000	0.015604
2959.000000	0.015630
2958.000000	0.015617
2957.000000	0.015584
2956.000000	0.015539
2955.000000	0.015488
2954.000000	0.015434
2953.000000	0.015385
2952.000000	0.015348
2951.000000	0.015325
2950.000000	0.015311
2949.000000	0.015299
2948.000000	0.015291
2947.000000	0.015299
2946.000000	0.015334
2945.000000	0.015397
2944.000000	0.015479
2943.000000	0.015576
2942.000000	0.015694
2941.000000	0.015843
2940.000000	0.016024
2939.000000	0.016225
2938.000000	0.016430
2937.000000	0.016620
2936.000000	0.016775
2935.000000	0.016892
2934.000000	0.016981
2933.000000	0.017053
2932.000000	0.017107
2931.000000	0.017141
2930.000000	0.017162
2929.000000	0.017182
2928.000000	0.017194
2927.000000	0.017174
2926.000000	0.017109
2925.000000	0.017010
2924.000000	0.016895
2923.000000	0.016766
2922.000000	0.016616
2921.000000	0.016444
2920.000000	0.016262
2919.000000	0.016076
2918.000000	0.015882
2917.000000	0.015675
2916.000000	0.015464
2915.000000	0.015265
2914.000000	0.015090
2913.000000	0.014934
2912.000000	0.014785
2911.000000	0.014631
2910.000000	0.014471
2909.000000	0.014311
2908.000000	0.014162
2907.000000	0.014023
2906.000000	0.013889
2905.000000	0.013755
2904.000000	0.013621
2903.000000	0.013497
2902.000000	0.013387
2901.000000	0.013286
2900.000000	0.013177
2899.000000	0.013049
2898.000000	0.012910
2897.000000	0.012777
2896.000000	0.012658
2895.000000	0.012550
2894.000000	0.012449
2893.000000	0.012361
2892.000000	0.012292
2891.000000	0.012241
2890.000000	0.012208
2889.000000	0.012196
2888.000000	0.012204
2887.000000	0.012214
2886.000000	0.012211
2885.000000	0.012200
2884.000000	0.012206
2883.000000	0.012254
2882.000000	0.012343
2881.000000	0.012450
2880.000000	0.012548
2879.000000	0.012624
2878.000000	0.012693
2877.000000	0.012775
2876.000000	0.012875
2875.000000	0.012969
2874.000000	0.013029
2873.000000	0.013045
2872.000000	0.013030
2871.000000	0.013001
2870.000000	0.012966
2869.000000	0.012928
2868.000000	0.012891
2867.000000	0.012859
2866.000000	0.012838
2865.000000	0.012829
2864.000000	0.012839
2863.000000	0.012866
2862.000000	0.012900
2861.000000	0.012928
2860.000000	0.012951
2859.000000	0.012978
2858.000000	0.013006
2857.000000	0.013013
2856.000000	0.012974
2855.000000	0.012884
2854.000000	0.012756
2853.000000	0.012607
2852.000000	0.012445
2851.000000	0.012262
2850.000000	0.012054
2849.000000	0.011829
2848.000000	0.011602
2847.000000	0.011391
2846.000000	0.011209
2845.000000	0.011062
2844.000000	0.010941
2843.000000	0.010828
2842.000000	0.010705
2841.000000	0.010572
2840.000000	0.010447
2839.000000	0.010347
2838.000000	0.010269
2837.000000	0.010203
2836.000000	0.010137
2835.000000	0.010070
2834.000000	0.010005
2833.000000	0.009944
2832.000000	0.009890
2831.000000	0.009843
2830.000000	0.009804
2829.000000	0.009766
2828.000000	0.009726
2827.000000	0.009681
2826.000000	0.009634
2825.000000	0.009590
2824.000000	0.009557
2823.000000	0.009545
2822.000000	0.009555
2821.000000	0.009576
2820.000000	0.009586
2819.000000	0.009571
2818.000000	0.009530
2817.000000	0.009479
2816.000000	0.009432
2815.000000	0.009399
2814.000000	0.009380
2813.000000	0.009363
2812.000000	0.009338
2811.000000	0.009300
2810.000000	0.009263
2809.000000	0.009240
2808.000000	0.009231
2807.000000	0.009221
2806.000000	0.009199
2805.000000	0.009165
2804.000000	0.009130
2803.000000	0.009102
2802.000000	0.009085
2801.000000	0.009079
2800.000000	0.009082
2799.000000	0.009088
2798.000000	0.009092
2797.000000	0.009091
2796.000000	0.009084
2795.000000	0.009073
2794.000000	0.009063
2793.000000	0.009053
2792.000000	0.009037
2791.000000	0.009009
2790.000000	0.008968
2789.000000	0.008921
2788.000000	0.008877
2787.000000	0.008839
2786.000000	0.008812
2785.000000	0.008797
2784.000000	0.008793
2783.000000	0.008786
2782.000000	0.008767
2781.000000	0.008737
2780.000000	0.008703
2779.000000	0.008674
2778.000000	0.008655
2777.000000	0.008648
2776.000000	0.008645
2775.000000	0.008632
2774.000000	0.008599
2773.000000	0.008557
2772.000000	0.008527
2771.000000	0.008522
2770.000000	0.008535
2769.000000	0.008548
2768.000000	0.008546
2767.000000	0.008522
2766.000000	0.008485
2765.000000	0.008457
2764.000000	0.008455
2763.000000	0.008476
2762.000000	0.008505
2761.000000	0.008528
2760.000000	0.008537
2759.000000	0.008529
2758.000000	0.008502
2757.000000	0.008467
2756.000000	0.008441
2755.000000	0.008433
2754.000000	0.008429
2753.000000	0.008410
2752.000000	0.008374
2751.000000	0.008333
2750.000000	0.008305
2749.000000	0.008293
2748.000000	0.008286
2747.000000	0.008266
2746.000000	0.008228
2745.000000	0.008183
2744.000000	0.008151
2743.000000	0.008140
2742.000000	0.008143
2741.000000	0.008152
2740.000000	0.008162
2739.000000	0.008169
2738.000000	0.008164
2737.000000	0.008144
2736.000000	0.008122
2735.000000	0.008105
2734.000000	0.008084
2733.000000	0.008047
2732.000000	0.008009
2731.000000	0.007998
2730.000000	0.008020
2729.000000	0.008051
2728.000000	0.008059
2727.000000	0.008038
2726.000000	0.008013
2725.000000	0.008004
2724.000000	0.008015
2723.000000	0.008030
2722.000000	0.008027
2721.000000	0.007999
2720.000000	0.007956
2719.000000	0.007921
2718.000000	0.007905
2717.000000	0.007902
2716.000000	0.007899
2715.000000	0.007888
2714.000000	0.007866
2713.000000	0.007837
2712.000000	0.007809
2711.000000	0.007795
2710.000000	0.007794
2709.000000	0.007795
2708.000000	0.007786
2707.000000	0.007772
2706.000000	0.007764
2705.000000	0.007764
2704.000000	0.007765
2703.000000	0.007759
2702.000000	0.007744
2701.000000	0.007727
2700.000000	0.007708
2699.000000	0.007688
2698.000000	0.007663
2697.000000	0.007635
2696.000000	0.007609
2695.000000	0.007597
2694.000000	0.007608
2693.000000	0.007642
2692.000000	0.007683
2691.000000	0.007716
2690.000000	0.007730
2689.000000	0.007728
2688.000000	0.007717
2687.000000	0.007703
2686.000000	0.007692
2685.000000	0.007688
2684.000000	0.007689
2683.000000	0.007695
2682.000000	0.007702
2681.000000	0.007704
2680.000000	0.007696
2679.000000	0.007679
2678.000000	0.007658
2677.000000	0.007636
2676.000000	0.007615
2675.000000	0.007596
2674.000000	0.007584
2673.000000	0.007581
2672.000000	0.007585
2671.000000	0.007593
2670.000000	0.007604
2669.000000	0.007614
2668.000000	0.007614
2667.000000	0.007603
2666.000000	0.007589
2665.000000	0.007585
2664.000000	0.007593
2663.000000	0.007604
2662.000000	0.007609
2661.000000	0.007603
2660.000000	0.007587
2659.000000	0.007565
2658.000000	0.007544
2657.000000	0.007536
2656.000000	0.007545
2655.000000	0.007562
2654.000000	0.007576
2653.000000	0.007581
2652.000000	0.007580
2651.000000	0.007580
2650.000000	0.007579
2649.000000	0.007573
2648.000000	0.007560
2647.000000	0.007540
2646.000000	0.007517
2645.000000	0.007499
2644.000000	0.007488
2643.000000	0.007480
2642.000000	0.007467
2641.000000	0.007444
2640.000000	0.007416
2639.000000	0.007394
2638.000000	0.007383
2637.000000	0.007377
2636.000000	0.007360
2635.000000	0.007324
2634.000000	0.007273
2633.000000	0.007222
2632.000000	0.007188
2631.000000	0.007175
2630.000000	0.007171
2629.000000	0.007160
2628.000000	0.007143
2627.000000	0.007132
2626.000000	0.007132
2625.000000	0.007129
2624.000000	0.007105
2623.000000	0.007061
2622.000000	0.007020
2621.000000	0.007002
2620.000000	0.007015
2619.000000	0.007052
2618.000000	0.007092
2617.000000	0.007106
2616.000000	0.007074
2615.000000	0.007007
2614.000000	0.006939
2613.000000	0.006898
2612.000000	0.006884
2611.000000	0.006881
2610.000000	0.006875
2609.000000	0.006861
2608.000000	0.006835
2607.000000	0.006799
2606.000000	0.006763
2605.000000	0.006742
2604.000000	0.006748
2603.000000	0.006778
2602.000000	0.006825
2601.000000	0.006872
2600.000000	0.006907
2599.000000	0.006916
2598.000000	0.006897
2597.000000	0.006852
2596.000000	0.006793
2595.000000	0.006743
2594.000000	0.006717
2593.000000	0.006704
2592.000000	0.006681
2591.000000	0.006642
2590.000000	0.006609
2589.000000	0.006601
2588.000000	0.006600
2587.000000	0.006576
2586.000000	0.006520
2585.000000	0.006454
2584.000000	0.006406
2583.000000	0.006384
2582.000000	0.006387
2581.000000	0.006415
2580.000000	0.006460
2579.000000	0.006498
2578.000000	0.006501
2577.000000	0.006469
2576.000000	0.006434
2575.000000	0.006430
2574.000000	0.006467
2573.000000	0.006518
2572.000000	0.006549
2571.000000	0.006545
2570.000000	0.006516
2569.000000	0.006473
2568.000000	0.006421
2567.000000	0.006364
2566.000000	0.006317
2565.000000	0.006292
2564.000000	0.006296
2563.000000	0.006324
2562.000000	0.006366
2561.000000	0.006403
2560.000000	0.006418
2559.000000	0.006409
2558.000000	0.006396
2557.000000	0.006394
2556.000000	0.006393
2555.000000	0.006373
2554.000000	0.006333
2553.000000	0.006302
2552.000000	0.006295
2551.000000	0.006298
2550.000000	0.006285
2549.000000	0.006248
2548.000000	0.006213
2547.000000	0.006211
2546.000000	0.006245
2545.000000	0.006286
2544.000000	0.006311
2543.000000	0.006327
2542.000000	0.006352
2541.000000	0.006372
2540.000000	0.006345
2539.000000	0.006257
2538.000000	0.006152
2537.000000	0.006096
2536.000000	0.006113
2535.000000	0.006172
2534.000000	0.006220
2533.000000	0.006230
2532.000000	0.006205
2531.000000	0.006166
2530.000000	0.006140
2529.000000	0.006143
2528.000000	0.006172
2527.000000	0.006215
2526.000000	0.006259
2525.000000	0.006301
2524.000000	0.006332
2523.000000	0.006348
2522.000000	0.006349
2521.000000	0.006343
2520.000000	0.006330
2519.000000	0.006304
2518.000000	0.006267
2517.000000	0.006232
2516.000000	0.006209
2515.000000	0.006199
2514.000000	0.006198
2513.000000	0.006201
2512.000000	0.006204
2511.000000	0.006210
2510.000000	0.006220
2509.000000	0.006229
2508.000000	0.006225
2507.000000	0.006203
2506.000000	0.006168
2505.000000	0.006123
2504.000000	0.006048
2503.000000	0.005937
2502.000000	0.005828
2501.000000	0.005788
2500.000000	0.005838
2499.000000	0.005932
2498.000000	0.006001
2497.000000	0.006023
2496.000000	0.006017
2495.000000	0.006005
2494.000000	0.005986
2493.000000	0.005951
2492.000000	0.005909
2491.000000	0.005881
2490.000000	0.005878
2489.000000	0.005898
2488.000000	0.005924
2487.000000	0.005945
2486.000000	0.005961
2485.000000	0.005978
2484.000000	0.006000
2483.000000	0.006020
2482.000000	0.006027
2481.000000	0.006013
2480.000000	0.005978
2479.000000	0.005932
2478.000000	0.005894
2477.000000	0.005876
2476.000000	0.005875
2475.000000	0.005881
2474.000000	0.005888
2473.000000	0.005901
2472.000000	0.005923
2471.000000	0.005944
2470.000000	0.005949
2469.000000	0.005947
2468.000000	0.005956
2467.000000	0.005977
2466.000000	0.005980
2465.000000	0.005933
2464.000000	0.005844
2463.000000	0.005759
2462.000000	0.005717
2461.000000	0.005714
2460.000000	0.005719
2459.000000	0.005716
2458.000000	0.005720
2457.000000	0.005746
2456.000000	0.005775
2455.000000	0.005779
2454.000000	0.005758
2453.000000	0.005743
2452.000000	0.005764
2451.000000	0.005818
2450.000000	0.005878
2449.000000	0.005911
2448.000000	0.005907
2447.000000	0.005877
2446.000000	0.005842
2445.000000	0.005816
2444.000000	0.005801
2443.000000	0.005794
2442.000000	0.005796
2441.000000	0.005806
2440.000000	0.005817
2439.000000	0.005823
2438.000000	0.005820
2437.000000	0.005811
2436.000000	0.005797
2435.000000	0.005782
2434.000000	0.005779
2433.000000	0.005794
2432.000000	0.005822
2431.000000	0.005847
2430.000000	0.005865
2429.000000	0.005872
2428.000000	0.005860
2427.000000	0.005818
2426.000000	0.005747
2425.000000	0.005661
2424.000000	0.005580
2423.000000	0.005523
2422.000000	0.005506
2421.000000	0.005532
2420.000000	0.005583
2419.000000	0.005634
2418.000000	0.005664
2417.000000	0.005671
2416.000000	0.005663
2415.000000	0.005654
2414.000000	0.005651
2413.000000	0.005653
2412.000000	0.005649
2411.000000	0.005639
2410.000000	0.005631
2409.000000	0.005635
2408.000000	0.005643
2407.000000	0.005646
2406.000000	0.005647
2405.000000	0.005656
2404.000000	0.005667
2403.000000	0.005663
2402.000000	0.005632
2401.000000	0.005580
2400.000000	0.005526
2399.000000	0.005498
2398.000000	0.005516
2397.000000	0.005576
2396.000000	0.005644
2395.000000	0.005682
2394.000000	0.005680
2393.000000	0.005655
2392.000000	0.005629
2391.000000	0.005614
2390.000000	0.005615
2389.000000	0.005625
2388.000000	0.005626
2387.000000	0.005599
2386.000000	0.005548
2385.000000	0.005502
2384.000000	0.005487
2383.000000	0.005504
2382.000000	0.005531
2381.000000	0.005538
2380.000000	0.005514
2379.000000	0.005469
2378.000000	0.005440
2377.000000	0.005453
2376.000000	0.005500
2375.000000	0.005547
2374.000000	0.005560
2373.000000	0.005534
2372.000000	0.005489
2371.000000	0.005461
2370.000000	0.005477
2369.000000	0.005524
2368.000000	0.005558
2367.000000	0.005557
2366.000000	0.005555
2365.000000	0.005599
2364.000000	0.005674
2363.000000	0.005726
2362.000000	0.005721
2361.000000	0.005666
2360.000000	0.005597
2359.000000	0.005547
2358.000000	0.005525
2357.000000	0.005531
2356.000000	0.005540
2355.000000	0.005551
2354.000000	0.005578
2353.000000	0.005597
2352.000000	0.005563
2351.000000	0.005479
2350.000000	0.005444
2349.000000	0.005549
2348.000000	0.005791
2347.000000	0.006064
2346.000000	0.006203
2345.000000	0.006134
2344.000000	0.005930
2343.000000	0.005745
2342.000000	0.005652
2341.000000	0.005626
2340.000000	0.005634
2339.000000	0.005643
2338.000000	0.005637
2337.000000	0.005614
2336.000000	0.005596
2335.000000	0.005584
2334.000000	0.005557
2333.000000	0.005494
2332.000000	0.005419
2331.000000	0.005360
2330.000000	0.005351
2329.000000	0.005388
2328.000000	0.005469
2327.000000	0.005598
2326.000000	0.005764
2325.000000	0.005934
2324.000000	0.006044
2323.000000	0.006052
2322.000000	0.005970
2321.000000	0.005852
2320.000000	0.005755
2319.000000	0.005686
2318.000000	0.005644
2317.000000	0.005620
2316.000000	0.005624
2315.000000	0.005644
2314.000000	0.005663
2313.000000	0.005661
2312.000000	0.005635
2311.000000	0.005587
2310.000000	0.005524
2309.000000	0.005455
2308.000000	0.005398
2307.000000	0.005368
2306.000000	0.005377
2305.000000	0.005425
2304.000000	0.005500
2303.000000	0.005575
2302.000000	0.005628
2301.000000	0.005653
2300.000000	0.005660
2299.000000	0.005658
2298.000000	0.005647
2297.000000	0.005622
2296.000000	0.005591
2295.000000	0.005571
2294.000000	0.005574
2293.000000	0.005601
2292.000000	0.005647
2291.000000	0.005715
2290.000000	0.005798
2289.000000	0.005875
2288.000000	0.005911
2287.000000	0.005901
2286.000000	0.005877
2285.000000	0.005881
2284.000000	0.005910
2283.000000	0.005933
2282.000000	0.005928
2281.000000	0.005889
2280.000000	0.005824
2279.000000	0.005747
2278.000000	0.005694
2277.000000	0.005696
2276.000000	0.005747
2275.000000	0.005809
2274.000000	0.005843
2273.000000	0.005835
2272.000000	0.005780
2271.000000	0.005685
2270.000000	0.005584
2269.000000	0.005532
2268.000000	0.005554
2267.000000	0.005639
2266.000000	0.005748
2265.000000	0.005830
2264.000000	0.005825
2263.000000	0.005710
2262.000000	0.005537
2261.000000	0.005402
2260.000000	0.005358
2259.000000	0.005382
2258.000000	0.005432
2257.000000	0.005489
2256.000000	0.005525
2255.000000	0.005506
2254.000000	0.005437
2253.000000	0.005384
2252.000000	0.005392
2251.000000	0.005418
2250.000000	0.005390
2249.000000	0.005304
2248.000000	0.005236
2247.000000	0.005256
2246.000000	0.005370
2245.000000	0.005527
2244.000000	0.005653
2243.000000	0.005696
2242.000000	0.005653
2241.000000	0.005561
2240.000000	0.005445
2239.000000	0.005299
2238.000000	0.005133
2237.000000	0.004999
2236.000000	0.004945
2235.000000	0.004961
2234.000000	0.005019
2233.000000	0.005126
2232.000000	0.005303
2231.000000	0.005497
2230.000000	0.005593
2229.000000	0.005527
2228.000000	0.005356
2227.000000	0.005211
2226.000000	0.005166
2225.000000	0.005188
2224.000000	0.005198
2223.000000	0.005162
2222.000000	0.005129
2221.000000	0.005159
2220.000000	0.005245
2219.000000	0.005313
2218.000000	0.005315
2217.000000	0.005278
2216.000000	0.005259
2215.000000	0.005279
2214.000000	0.005325
2213.000000	0.005390
2212.000000	0.005464
2211.000000	0.005497
2210.000000	0.005428
2209.000000	0.005258
2208.000000	0.005084
2207.000000	0.005025
2206.000000	0.005121
2205.000000	0.005308
2204.000000	0.005473
2203.000000	0.005524
2202.000000	0.005432
2201.000000	0.005212
2200.000000	0.004914
2199.000000	0.004614
2198.000000	0.004431
2197.000000	0.004481
2196.000000	0.004801
2195.000000	0.005283
2194.000000	0.005706
2193.000000	0.005859
2192.000000	0.005671
2191.000000	0.005263
2190.000000	0.004860
2189.000000	0.004642
2188.000000	0.004648
2187.000000	0.004805
2186.000000	0.005007
2185.000000	0.005160
2184.000000	0.005187
2183.000000	0.005046
2182.000000	0.004767
2181.000000	0.004452
2180.000000	0.004227
2179.000000	0.004179
2178.000000	0.004307
2177.000000	0.004529
2176.000000	0.004754
2175.000000	0.004962
2174.000000	0.005182
2173.000000	0.005381
2172.000000	0.005431
2171.000000	0.005252
2170.000000	0.004929
2169.000000	0.004641
2168.000000	0.004489
2167.000000	0.004451
2166.000000	0.004475
2165.000000	0.004550
2164.000000	0.004671
2163.000000	0.004792
2162.000000	0.004825
2161.000000	0.004657
2160.000000	0.004208
2159.000000	0.003566
2158.000000	0.003033
2157.000000	0.002893
2156.000000	0.003129
2155.000000	0.003488
2154.000000	0.003747
2153.000000	0.003846
2152.000000	0.003844
2151.000000	0.003842
2150.000000	0.003917
2149.000000	0.004073
2148.000000	0.004236
2147.000000	0.004332
2146.000000	0.004336
2145.000000	0.004253
2144.000000	0.004088
2143.000000	0.003885
2142.000000	0.003746
2141.000000	0.003759
2140.000000	0.003915
2139.000000	0.004144
2138.000000	0.004388
2137.000000	0.004589
2136.000000	0.004673
2135.000000	0.004628
2134.000000	0.004562
2133.000000	0.004597
2132.000000	0.004704
2131.000000	0.004740
2130.000000	0.004644
2129.000000	0.004511
2128.000000	0.004469
2127.000000	0.004545
2126.000000	0.004672
2125.000000	0.004775
2124.000000	0.004823
2123.000000	0.004841
2122.000000	0.004881
2121.000000	0.004952
2120.000000	0.004980
2119.000000	0.004873
2118.000000	0.004655
2117.000000	0.004478
2116.000000	0.004486
2115.000000	0.004682
2114.000000	0.004953
2113.000000	0.005176
2112.000000	0.005274
2111.000000	0.005227
2110.000000	0.005081
2109.000000	0.004934
2108.000000	0.004870
2107.000000	0.004902
2106.000000	0.004988
2105.000000	0.005091
2104.000000	0.005194
2103.000000	0.005275
2102.000000	0.005308
2101.000000	0.005285
2100.000000	0.005219
2099.000000	0.005131
2098.000000	0.005043
2097.000000	0.004983
2096.000000	0.004965
2095.000000	0.004978
2094.000000	0.005004
2093.000000	0.005046
2092.000000	0.005114
2091.000000	0.005202
2090.000000	0.005275
2089.000000	0.005287
2088.000000	0.005220
2087.000000	0.005121
2086.000000	0.005075
2085.000000	0.005129
2084.000000	0.005224
2083.000000	0.005257
2082.000000	0.005195
2081.000000	0.005091
2080.000000	0.004998
2079.000000	0.004909
2078.000000	0.004822
2077.000000	0.004804
2076.000000	0.004912
2075.000000	0.005102
2074.000000	0.005248
2073.000000	0.005269
2072.000000	0.005188
2071.000000	0.005074
2070.000000	0.004982
2069.000000	0.004947
2068.000000	0.004981
2067.000000	0.005069
2066.000000	0.005155
2065.000000	0.005173
2064.000000	0.005082
2063.000000	0.004895
2062.000000	0.004682
2061.000000	0.004529
2060.000000	0.004480
2059.000000	0.004495
2058.000000	0.004510
2057.000000	0.004505
2056.000000	0.004517
2055.000000	0.004595
2054.000000	0.004747
2053.000000	0.004925
2052.000000	0.005034
2051.000000	0.004971
2050.000000	0.004718
2049.000000	0.004413
2048.000000	0.004266
2047.000000	0.004345
2046.000000	0.004508
2045.000000	0.004592
2044.000000	0.004624
2043.000000	0.004734
2042.000000	0.004892
2041.000000	0.004861
2040.000000	0.004533
2039.000000	0.004168
2038.000000	0.004131
2037.000000	0.004430
2036.000000	0.004655
2035.000000	0.004475
2034.000000	0.004017
2033.000000	0.003679
2032.000000	0.003674
2031.000000	0.003915
2030.000000	0.004222
2029.000000	0.004439
2028.000000	0.004434
2027.000000	0.004186
2026.000000	0.003863
2025.000000	0.003670
2024.000000	0.003640
2023.000000	0.003654
2022.000000	0.003639
2021.000000	0.003615
2020.000000	0.003582
2019.000000	0.003506
2018.000000	0.003419
2017.000000	0.003397
2016.000000	0.003440
2015.000000	0.003478
2014.000000	0.003502
2013.000000	0.003587
2012.000000	0.003779
2011.000000	0.004061
2010.000000	0.004402
2009.000000	0.004728
2008.000000	0.004891
2007.000000	0.004794
2006.000000	0.004540
2005.000000	0.004340
2004.000000	0.004288
2003.000000	0.004322
2002.000000	0.004365
2001.000000	0.004370
2000.000000	0.004274
1999.000000	0.004051
1998.000000	0.003804
1997.000000	0.003712
1996.000000	0.003834
1995.000000	0.004068
1994.000000	0.004307
1993.000000	0.004512
1992.000000	0.004625
1991.000000	0.004562
1990.000000	0.004351
1989.000000	0.004150
1988.000000	0.004076
1987.000000	0.004082
1986.000000	0.004080
1985.000000	0.004078
1984.000000	0.004138
1983.000000	0.004274
1982.000000	0.004453
1981.000000	0.004631
1980.000000	0.004733
1979.000000	0.004675
1978.000000	0.004455
1977.000000	0.004176
1976.000000	0.003915
1975.000000	0.003668
1974.000000	0.003465
1973.000000	0.003391
1972.000000	0.003426
1971.000000	0.003439
1970.000000	0.003406
1969.000000	0.003478
1968.000000	0.003702
1967.000000	0.003842
1966.000000	0.003672
1965.000000	0.003354
1964.000000	0.003296
1963.000000	0.003656
1962.000000	0.004156
1961.000000	0.004402
1960.000000	0.004286
1959.000000	0.004026
1958.000000	0.003850
1957.000000	0.003791
1956.000000	0.003755
1955.000000	0.003695
1954.000000	0.003663
1953.000000	0.003699
1952.000000	0.003754
1951.000000	0.003750
1950.000000	0.003694
1949.000000	0.003668
1948.000000	0.003724
1947.000000	0.003825
1946.000000	0.003890
1945.000000	0.003866
1944.000000	0.003767
1943.000000	0.003651
1942.000000	0.003573
1941.000000	0.003543
1940.000000	0.003531
1939.000000	0.003527
1938.000000	0.003550
1937.000000	0.003600
1936.000000	0.003627
1935.000000	0.003591
1934.000000	0.003504
1933.000000	0.003420
1932.000000	0.003396
1931.000000	0.003479
1930.000000	0.003690
1929.000000	0.003965
1928.000000	0.004173
1927.000000	0.004236
1926.000000	0.004199
1925.000000	0.004152
1924.000000	0.004119
1923.000000	0.004064
1922.000000	0.003973
1921.000000	0.003857
1920.000000	0.003729
1919.000000	0.003629
1918.000000	0.003644
1917.000000	0.003815
1916.000000	0.004053
1915.000000	0.004220
1914.000000	0.004260
1913.000000	0.004207
1912.000000	0.004118
1911.000000	0.004035
1910.000000	0.003995
1909.000000	0.004004
1908.000000	0.004011
1907.000000	0.003952
1906.000000	0.003832
1905.000000	0.003718
1904.000000	0.003664
1903.000000	0.003676
1902.000000	0.003742
1901.000000	0.003837
1900.000000	0.003922
1899.000000	0.003963
1898.000000	0.003959
1897.000000	0.003927
1896.000000	0.003874
1895.000000	0.003808
1894.000000	0.003762
1893.000000	0.003746
1892.000000	0.003722
1891.000000	0.003660
1890.000000	0.003604
1889.000000	0.003623
1888.000000	0.003706
1887.000000	0.003781
1886.000000	0.003838
1885.000000	0.003929
1884.000000	0.004057
1883.000000	0.004152
1882.000000	0.004160
1881.000000	0.004103
1880.000000	0.004039
1879.000000	0.003995
1878.000000	0.003975
1877.000000	0.003975
1876.000000	0.003972
1875.000000	0.003936
1874.000000	0.003888
1873.000000	0.003875
1872.000000	0.003903
1871.000000	0.003917
1870.000000	0.003876
1869.000000	0.003796
1868.000000	0.003726
1867.000000	0.003681
1866.000000	0.003650
1865.000000	0.003633
1864.000000	0.003636
1863.000000	0.003653
1862.000000	0.003687
1861.000000	0.003752
1860.000000	0.003833
1859.000000	0.003882
1858.000000	0.003882
1857.000000	0.003860
1856.000000	0.003842
1855.000000	0.003825
1854.000000	0.003801
1853.000000	0.003780
1852.000000	0.003767
1851.000000	0.003759
1850.000000	0.003751
1849.000000	0.003761
1848.000000	0.003780
1847.000000	0.003768
1846.000000	0.003717
1845.000000	0.003677
1844.000000	0.003683
1843.000000	0.003701
1842.000000	0.003698
1841.000000	0.003680
1840.000000	0.003659
1839.000000	0.003635
1838.000000	0.003622
1837.000000	0.003657
1836.000000	0.003735
1835.000000	0.003801
1834.000000	0.003810
1833.000000	0.003767
1832.000000	0.003700
1831.000000	0.003623
1830.000000	0.003547
1829.000000	0.003508
1828.000000	0.003503
1827.000000	0.003489
1826.000000	0.003457
1825.000000	0.003451
1824.000000	0.003493
1823.000000	0.003550
1822.000000	0.003587
1821.000000	0.003614
1820.000000	0.003636
1819.000000	0.003627
1818.000000	0.003583
1817.000000	0.003533
1816.000000	0.003501
1815.000000	0.003476
1814.000000	0.003457
1813.000000	0.003464
1812.000000	0.003514
1811.000000	0.003575
1810.000000	0.003619
1809.000000	0.003645
1808.000000	0.003664
1807.000000	0.003681
1806.000000	0.003691
1805.000000	0.003702
1804.000000	0.003719
1803.000000	0.003735
1802.000000	0.003739
1801.000000	0.003740
1800.000000	0.003759
1799.000000	0.003791
1798.000000	0.003835
1797.000000	0.003895
1796.000000	0.003954
1795.000000	0.003967
1794.000000	0.003907
1793.000000	0.003803
1792.000000	0.003705
1791.000000	0.003631
1790.000000	0.003584
1789.000000	0.003567
1788.000000	0.003584
1787.000000	0.003622
1786.000000	0.003658
1785.000000	0.003684
1784.000000	0.003691
1783.000000	0.003664
1782.000000	0.003604
1781.000000	0.003557
1780.000000	0.003567
1779.000000	0.003599
1778.000000	0.003602
1777.000000	0.003572
1776.000000	0.003538
1775.000000	0.003503
1774.000000	0.003465
1773.000000	0.003454
1772.000000	0.003476
1771.000000	0.003480
1770.000000	0.003451
1769.000000	0.003467
1768.000000	0.003595
1767.000000	0.003801
1766.000000	0.003987
1765.000000	0.004104
1764.000000	0.004188
1763.000000	0.004294
1762.000000	0.004442
1761.000000	0.004626
1760.000000	0.004832
1759.000000	0.005060
1758.000000	0.005367
1757.000000	0.005808
1756.000000	0.006347
1755.000000	0.006862
1754.000000	0.007301
1753.000000	0.007770
1752.000000	0.008385
1751.000000	0.009109
1750.000000	0.009791
1749.000000	0.010351
1748.000000	0.010808
1747.000000	0.011208
1746.000000	0.011576
1745.000000	0.011930
1744.000000	0.012249
1743.000000	0.012460
1742.000000	0.012518
1741.000000	0.012428
1740.000000	0.012221
1739.000000	0.011953
1738.000000	0.011704
1737.000000	0.011489
1736.000000	0.011256
1735.000000	0.010940
1734.000000	0.010530
1733.000000	0.010127
1732.000000	0.009764
1731.000000	0.009357
1730.000000	0.008916
1729.000000	0.008525
1728.000000	0.008214
1727.000000	0.007916
1726.000000	0.007593
1725.000000	0.007292
1724.000000	0.007047
1723.000000	0.006832
1722.000000	0.006640
1721.000000	0.006472
1720.000000	0.006313
1719.000000	0.006143
1718.000000	0.005989
1717.000000	0.005925
1716.000000	0.005943
1715.000000	0.005931
1714.000000	0.005879
1713.000000	0.005882
1712.000000	0.005987
1711.000000	0.006153
1710.000000	0.006336
1709.000000	0.006538
1708.000000	0.006768
1707.000000	0.007003
1706.000000	0.007246
1705.000000	0.007539
1704.000000	0.007843
1703.000000	0.008086
1702.000000	0.008331
1701.000000	0.008786
1700.000000	0.009426
1699.000000	0.009918
1698.000000	0.010242
1697.000000	0.010702
1696.000000	0.011446
1695.000000	0.012288
1694.000000	0.012899
1693.000000	0.013218
1692.000000	0.013461
1691.000000	0.013824
1690.000000	0.014350
1689.000000	0.014926
1688.000000	0.015406
1687.000000	0.015775
1686.000000	0.016203
1685.000000	0.016938
1684.000000	0.017880
1683.000000	0.018567
1682.000000	0.018868
1681.000000	0.019122
1680.000000	0.019617
1679.000000	0.020281
1678.000000	0.020913
1677.000000	0.021487
1676.000000	0.022138
1675.000000	0.022880
1674.000000	0.023546
1673.000000	0.024086
1672.000000	0.024618
1671.000000	0.025250
1670.000000	0.026024
1669.000000	0.026867
1668.000000	0.027645
1667.000000	0.028306
1666.000000	0.028923
1665.000000	0.029591
1664.000000	0.030351
1663.000000	0.031152
1662.000000	0.031872
1661.000000	0.032476
1660.000000	0.033038
1659.000000	0.033594
1658.000000	0.034118
1657.000000	0.034544
1656.000000	0.034829
1655.000000	0.035044
1654.000000	0.035503
1653.000000	0.036387
1652.000000	0.037202
1651.000000	0.037556
1650.000000	0.037640
1649.000000	0.037646
1648.000000	0.037759
1647.000000	0.038132
1646.000000	0.038607
1645.000000	0.038978
1644.000000	0.039249
1643.000000	0.039511
1642.000000	0.039773
1641.000000	0.040036
1640.000000	0.040302
1639.000000	0.040488
1638.000000	0.040559
1637.000000	0.040627
1636.000000	0.040812
1635.000000	0.041018
1634.000000	0.041084
1633.000000	0.041085
1632.000000	0.041163
1631.000000	0.041313
1630.000000	0.041453
1629.000000	0.041514
1628.000000	0.041448
1627.000000	0.041247
1626.000000	0.040936
1625.000000	0.040557
1624.000000	0.040138
1623.000000	0.039671
1622.000000	0.039158
1621.000000	0.038631
1620.000000	0.038114
1619.000000	0.037602
1618.000000	0.037083
1617.000000	0.036532
1616.000000	0.035903
1615.000000	0.035173
1614.000000	0.034367
1613.000000	0.033548
1612.000000	0.032781
1611.000000	0.032082
1610.000000	0.031403
1609.000000	0.030697
1608.000000	0.029986
1607.000000	0.029316
1606.000000	0.028686
1605.000000	0.028062
1604.000000	0.027434
1603.000000	0.026822
1602.000000	0.026249
1601.000000	0.025705
1600.000000	0.025174
1599.000000	0.024667
1598.000000	0.024208
1597.000000	0.023796
1596.000000	0.023411
1595.000000	0.023052
1594.000000	0.022733
1593.000000	0.022452
1592.000000	0.022199
1591.000000	0.021981
1590.000000	0.021800
1589.000000	0.021634
1588.000000	0.021472
1587.000000	0.021346
1586.000000	0.021289
1585.000000	0.021278
1584.000000	0.021280
1583.000000	0.021297
1582.000000	0.021351
1581.000000	0.021434
1580.000000	0.021502
1579.000000	0.021545
1578.000000	0.021646
1577.000000	0.021915
1576.000000	0.022330
1575.000000	0.022725
1574.000000	0.022967
1573.000000	0.023081
1572.000000	0.023193
1571.000000	0.023444
1570.000000	0.023880
1569.000000	0.024363
1568.000000	0.024765
1567.000000	0.025133
1566.000000	0.025586
1565.000000	0.026129
1564.000000	0.026657
1563.000000	0.027061
1562.000000	0.027377
1561.000000	0.027753
1560.000000	0.028414
1559.000000	0.029306
1558.000000	0.029951
1557.000000	0.030179
1556.000000	0.030368
1555.000000	0.030851
1554.000000	0.031534
1553.000000	0.032193
1552.000000	0.032696
1551.000000	0.033088
1550.000000	0.033503
1549.000000	0.033936
1548.000000	0.034268
1547.000000	0.034482
1546.000000	0.034684
1545.000000	0.034941
1544.000000	0.035183
1543.000000	0.035306
1542.000000	0.035316
1541.000000	0.035350
1540.000000	0.035538
1539.000000	0.035835
1538.000000	0.036072
1537.000000	0.036180
1536.000000	0.036175
1535.000000	0.036114
1534.000000	0.036116
1533.000000	0.036181
1532.000000	0.036189
1531.000000	0.036118
1530.000000	0.036053
1529.000000	0.036013
1528.000000	0.035935
1527.000000	0.035794
1526.000000	0.035618
1525.000000	0.035422
1524.000000	0.035187
1523.000000	0.034928
1522.000000	0.034722
1521.000000	0.034593
1520.000000	0.034447
1519.000000	0.034177
1518.000000	0.033811
1517.000000	0.033461
1516.000000	0.033178
1515.000000	0.032918
1514.000000	0.032627
1513.000000	0.032330
1512.000000	0.032044
1511.000000	0.031726
1510.000000	0.031326
1509.000000	0.030841
1508.000000	0.030298
1507.000000	0.029688
1506.000000	0.029041
1505.000000	0.028364
1504.000000	0.027751
1503.000000	0.027301
1502.000000	0.026888
1501.000000	0.026472
1500.000000	0.026071
1499.000000	0.025619
1498.000000	0.025071
1497.000000	0.024493
1496.000000	0.023979
1495.000000	0.023534
1494.000000	0.023093
1493.000000	0.022620
1492.000000	0.022145
1491.000000	0.021703
1490.000000	0.021310
1489.000000	0.020979
1488.000000	0.020692
1487.000000	0.020424
1486.000000	0.020209
1485.000000	0.020080
1484.000000	0.020034
1483.000000	0.020027
1482.000000	0.020045
1481.000000	0.020125
1480.000000	0.020259
1479.000000	0.020408
1478.000000	0.020571
1477.000000	0.020783
1476.000000	0.021034
1475.000000	0.021292
1474.000000	0.021594
1473.000000	0.022038
1472.000000	0.022598
1471.000000	0.023114
1470.000000	0.023540
1469.000000	0.023960
1468.000000	0.024388
1467.000000	0.024778
1466.000000	0.025140
1465.000000	0.025542
1464.000000	0.025983
1463.000000	0.026367
1462.000000	0.026678
1461.000000	0.026967
1460.000000	0.027260
1459.000000	0.027601
1458.000000	0.028106
1457.000000	0.028808
1456.000000	0.029459
1455.000000	0.029845
1454.000000	0.030062
1453.000000	0.030260
1452.000000	0.030482
1451.000000	0.030692
1450.000000	0.030827
1449.000000	0.030893
1448.000000	0.030930
1447.000000	0.030942
1446.000000	0.030917
1445.000000	0.030890
1444.000000	0.030896
1443.000000	0.030907
1442.000000	0.030892
1441.000000	0.030828
1440.000000	0.030701
1439.000000	0.030510
1438.000000	0.030278
1437.000000	0.030025
1436.000000	0.029751
1435.000000	0.029464
1434.000000	0.029191
1433.000000	0.028949
1432.000000	0.028735
1431.000000	0.028529
1430.000000	0.028314
1429.000000	0.028117
1428.000000	0.027985
1427.000000	0.027929
1426.000000	0.027905
1425.000000	0.027889
1424.000000	0.027876
1423.000000	0.027845
1422.000000	0.027788
1421.000000	0.027744
1420.000000	0.027760
1419.000000	0.027803
1418.000000	0.027800
1417.000000	0.027732
1416.000000	0.027630
1415.000000	0.027547
1414.000000	0.027510
1413.000000	0.027503
1412.000000	0.027504
1411.000000	0.027502
1410.000000	0.027496
1409.000000	0.027491
1408.000000	0.027492
1407.000000	0.027512
1406.000000	0.027556
1405.000000	0.027625
1404.000000	0.027703
1403.000000	0.027743
1402.000000	0.027721
1401.000000	0.027654
1400.000000	0.027574
1399.000000	0.027502
1398.000000	0.027436
1397.000000	0.027367
1396.000000	0.027305
1395.000000	0.027268
1394.000000	0.027252
1393.000000	0.027236
1392.000000	0.027216
1391.000000	0.027198
1390.000000	0.027174
1389.000000	0.027127
1388.000000	0.027042
1387.000000	0.026920
1386.000000	0.026789
1385.000000	0.026667
1384.000000	0.026559
1383.000000	0.026458
1382.000000	0.026348
1381.000000	0.026220
1380.000000	0.026080
1379.000000	0.025938
1378.000000	0.025782
1377.000000	0.025589
1376.000000	0.025352
1375.000000	0.025103
1374.000000	0.024875
1373.000000	0.024659
1372.000000	0.024421
1371.000000	0.024158
1370.000000	0.023900
1369.000000	0.023668
1368.000000	0.023442
1367.000000	0.023184
1366.000000	0.022883
1365.000000	0.022562
1364.000000	0.022261
1363.000000	0.022010
1362.000000	0.021818
1361.000000	0.021655
1360.000000	0.021490
1359.000000	0.021335
1358.000000	0.021221
1357.000000	0.021159
1356.000000	0.021142
1355.000000	0.021153
1354.000000	0.021181
1353.000000	0.021228
1352.000000	0.021300
1351.000000	0.021413
1350.000000	0.021575
1349.000000	0.021776
1348.000000	0.021989
1347.000000	0.022192
1346.000000	0.022390
1345.000000	0.022591
1344.000000	0.022791
1343.000000	0.022982
1342.000000	0.023176
1341.000000	0.023407
1340.000000	0.023686
1339.000000	0.023971
1338.000000	0.024201
1337.000000	0.024341
1336.000000	0.024394
1335.000000	0.024372
1334.000000	0.024288
1333.000000	0.024164
1332.000000	0.024028
1331.000000	0.023883
1330.000000	0.023714
1329.000000	0.023508
1328.000000	0.023271
1327.000000	0.023026
1326.000000	0.022796
1325.000000	0.022598
1324.000000	0.022433
1323.000000	0.022294
1322.000000	0.022182
1321.000000	0.022100
1320.000000	0.022047
1319.000000	0.022006
1318.000000	0.021956
1317.000000	0.021881
1316.000000	0.021778
1315.000000	0.021651
1314.000000	0.021506
1313.000000	0.021350
1312.000000	0.021181
1311.000000	0.020999
1310.000000	0.020804
1309.000000	0.020599
1308.000000	0.020383
1307.000000	0.020164
1306.000000	0.019960
1305.000000	0.019795
1304.000000	0.019669
1303.000000	0.019559
1302.000000	0.019450
1301.000000	0.019339
1300.000000	0.019232
1299.000000	0.019122
1298.000000	0.019000
1297.000000	0.018875
1296.000000	0.018773
1295.000000	0.018718
1294.000000	0.018717
1293.000000	0.018764
1292.000000	0.018852
1291.000000	0.018977
1290.000000	0.019135
1289.000000	0.019315
1288.000000	0.019505
1287.000000	0.019683
1286.000000	0.019834
1285.000000	0.019953
1284.000000	0.020043
1283.000000	0.020107
1282.000000	0.020158
1281.000000	0.020215
1280.000000	0.020290
1279.000000	0.020378
1278.000000	0.020461
1277.000000	0.020531
1276.000000	0.020589
1275.000000	0.020638
1274.000000	0.020679
1273.000000	0.020720
1272.000000	0.020779
1271.000000	0.020869
1270.000000	0.020987
1269.000000	0.021118
1268.000000	0.021260
1267.000000	0.021422
1266.000000	0.021615
1265.000000	0.021834
1264.000000	0.022063
1263.000000	0.022289
1262.000000	0.022517
1261.000000	0.022754
1260.000000	0.022997
1259.000000	0.023231
1258.000000	0.023452
1257.000000	0.023674
1256.000000	0.023921
1255.000000	0.024204
1254.000000	0.024511
1253.000000	0.024819
1252.000000	0.025116
1251.000000	0.025408
1250.000000	0.025713
1249.000000	0.026039
1248.000000	0.026380
1247.000000	0.026724
1246.000000	0.027066
1245.000000	0.027401
1244.000000	0.027717
1243.000000	0.028012
1242.000000	0.028303
1241.000000	0.028604
1240.000000	0.028900
1239.000000	0.029163
1238.000000	0.029384
1237.000000	0.029575
1236.000000	0.029731
1235.000000	0.029826
1234.000000	0.029848
1233.000000	0.029814
1232.000000	0.029741
1231.000000	0.029624
1230.000000	0.029455
1229.000000	0.029235
1228.000000	0.028968
1227.000000	0.028648
1226.000000	0.028267
1225.000000	0.027827
1224.000000	0.027346
1223.000000	0.026848
1222.000000	0.026358
1221.000000	0.025888
1220.000000	0.025431
1219.000000	0.024984
1218.000000	0.024569
1217.000000	0.024216
1216.000000	0.023934
1215.000000	0.023704
1214.000000	0.023505
1213.000000	0.023336
1212.000000	0.023206
1211.000000	0.023128
1210.000000	0.023113
1209.000000	0.023166
1208.000000	0.023275
1207.000000	0.023414
1206.000000	0.023558
1205.000000	0.023695
1204.000000	0.023813
1203.000000	0.023896
1202.000000	0.023929
1201.000000	0.023899
1200.000000	0.023792
1199.000000	0.023600
1198.000000	0.023346
1197.000000	0.023080
1196.000000	0.022838
1195.000000	0.022611
1194.000000	0.022375
1193.000000	0.022126
1192.000000	0.021887
1191.000000	0.021678
1190.000000	0.021501
1189.000000	0.021344
1188.000000	0.021201
1187.000000	0.021070
1186.000000	0.020959
1185.000000	0.020880
1184.000000	0.020839
1183.000000	0.020823
1182.000000	0.020817
1181.000000	0.020815
1180.000000	0.020825
1179.000000	0.020851
1178.000000	0.020891
1177.000000	0.020946
1176.000000	0.021020
1175.000000	0.021115
1174.000000	0.021229
1173.000000	0.021356
1172.000000	0.021488
1171.000000	0.021613
1170.000000	0.021712
1169.000000	0.021780
1168.000000	0.021841
1167.000000	0.021924
1166.000000	0.022040
1165.000000	0.022173
1164.000000	0.022296
1163.000000	0.022391
1162.000000	0.022452
1161.000000	0.022468
1160.000000	0.022424
1159.000000	0.022305
1158.000000	0.022108
1157.000000	0.021845
1156.000000	0.021538
1155.000000	0.021205
1154.000000	0.020854
1153.000000	0.020477
1152.000000	0.020069
1151.000000	0.019634
1150.000000	0.019187
1149.000000	0.018739
1148.000000	0.018290
1147.000000	0.017840
1146.000000	0.017388
1145.000000	0.016935
1144.000000	0.016488
1143.000000	0.016065
1142.000000	0.015683
1141.000000	0.015340
1140.000000	0.015017
1139.000000	0.014699
1138.000000	0.014392
1137.000000	0.014110
1136.000000	0.013856
1135.000000	0.013625
1134.000000	0.013412
1133.000000	0.013219
1132.000000	0.013051
1131.000000	0.012913
1130.000000	0.012801
1129.000000	0.012701
1128.000000	0.012594
1127.000000	0.012481
1126.000000	0.012388
1125.000000	0.012344
1124.000000	0.012358
1123.000000	0.012406
1122.000000	0.012460
1121.000000	0.012504
1120.000000	0.012540
1119.000000	0.012578
1118.000000	0.012623
1117.000000	0.012687
1116.000000	0.012799
1115.000000	0.012980
1114.000000	0.013227
1113.000000	0.013503
1112.000000	0.013774
1111.000000	0.014020
1110.000000	0.014231
1109.000000	0.014392
1108.000000	0.014493
1107.000000	0.014541
1106.000000	0.014562
1105.000000	0.014571
1104.000000	0.014567
1103.000000	0.014560
1102.000000	0.014573
1101.000000	0.014628
1100.000000	0.014728
1099.000000	0.014866
1098.000000	0.015029
1097.000000	0.015201
1096.000000	0.015369
1095.000000	0.015530
1094.000000	0.015695
1093.000000	0.015861
1092.000000	0.016003
1091.000000	0.016099
1090.000000	0.016166
1089.000000	0.016246
1088.000000	0.016371
1087.000000	0.016536
1086.000000	0.016707
1085.000000	0.016837
1084.000000	0.016894
1083.000000	0.016889
1082.000000	0.016857
1081.000000	0.016813
1080.000000	0.016713
1079.000000	0.016506
1078.000000	0.016210
1077.000000	0.015894
1076.000000	0.015608
1075.000000	0.015343
1074.000000	0.015078
1073.000000	0.014822
1072.000000	0.014600
1071.000000	0.014427
1070.000000	0.014300
1069.000000	0.014224
1068.000000	0.014206
1067.000000	0.014239
1066.000000	0.014305
1065.000000	0.014384
1064.000000	0.014460
1063.000000	0.014514
1062.000000	0.014530
1061.000000	0.014506
1060.000000	0.014448
1059.000000	0.014354
1058.000000	0.014230
1057.000000	0.014093
1056.000000	0.013971
1055.000000	0.013871
1054.000000	0.013776
1053.000000	0.013669
1052.000000	0.013540
1051.000000	0.013397
1050.000000	0.013253
1049.000000	0.013117
1048.000000	0.012991
1047.000000	0.012878
1046.000000	0.012798
1045.000000	0.012780
1044.000000	0.012829
1043.000000	0.012903
1042.000000	0.012958
1041.000000	0.013004
1040.000000	0.013101
1039.000000	0.013296
1038.000000	0.013573
1037.000000	0.013884
1036.000000	0.014202
1035.000000	0.014515
1034.000000	0.014805
1033.000000	0.015036
1032.000000	0.015184
1031.000000	0.015251
1030.000000	0.015249
1029.000000	0.015194
1028.000000	0.015111
1027.000000	0.015023
1026.000000	0.014934
1025.000000	0.014824
1024.000000	0.014681
1023.000000	0.014515
1022.000000	0.014346
1021.000000	0.014180
1020.000000	0.014009
1019.000000	0.013835
1018.000000	0.013671
1017.000000	0.013527
1016.000000	0.013403
1015.000000	0.013295
1014.000000	0.013204
1013.000000	0.013126
1012.000000	0.013043
1011.000000	0.012920
1010.000000	0.012730
1009.000000	0.012482
1008.000000	0.012225
1007.000000	0.012001
1006.000000	0.011814
1005.000000	0.011649
1004.000000	0.011522
1003.000000	0.011469
1002.000000	0.011460
1001.000000	0.011386
1000.000000	0.011160
999.000000	0.010822
998.000000	0.010509
997.000000	0.010300
996.000000	0.010160
995.000000	0.010020
994.000000	0.009871
993.000000	0.009744
992.000000	0.009639
991.000000	0.009517
990.000000	0.009350
989.000000	0.009154
988.000000	0.008971
987.000000	0.008835
986.000000	0.008765
985.000000	0.008750
984.000000	0.008756
983.000000	0.008749
982.000000	0.008726
981.000000	0.008712
980.000000	0.008719
979.000000	0.008743
978.000000	0.008777
977.000000	0.008834
976.000000	0.008931
975.000000	0.009058
974.000000	0.009175
973.000000	0.009233
972.000000	0.009207
971.000000	0.009119
970.000000	0.009020
969.000000	0.008945
968.000000	0.008884
967.000000	0.008811
966.000000	0.008718
965.000000	0.008624
964.000000	0.008537
963.000000	0.008441
962.000000	0.008316
961.000000	0.008169
960.000000	0.008023
959.000000	0.007899
958.000000	0.007797
957.000000	0.007706
956.000000	0.007611
955.000000	0.007507
954.000000	0.007403
953.000000	0.007314
952.000000	0.007243
951.000000	0.007176
950.000000	0.007100
949.000000	0.007010
948.000000	0.006919
947.000000	0.006844
946.000000	0.006795
945.000000	0.006766
944.000000	0.006739
943.000000	0.006700
942.000000	0.006655
941.000000	0.006618
940.000000	0.006591
939.000000	0.006563
938.000000	0.006519
937.000000	0.006456
936.000000	0.006375
935.000000	0.006286
934.000000	0.006208
933.000000	0.006150
932.000000	0.006090
931.000000	0.005991
930.000000	0.005851
929.000000	0.005714
928.000000	0.005626
927.000000	0.005587
926.000000	0.005564
925.000000	0.005541
924.000000	0.005535
923.000000	0.005557
922.000000	0.005583
921.000000	0.005568
920.000000	0.005487
919.000000	0.005356
918.000000	0.005216
917.000000	0.005094
916.000000	0.004987
915.000000	0.004871
914.000000	0.004741
913.000000	0.004615
912.000000	0.004516
911.000000	0.004447
910.000000	0.004382
909.000000	0.004301
908.000000	0.004205
907.000000	0.004114
906.000000	0.004044
905.000000	0.003997
904.000000	0.003957
903.000000	0.003909
902.000000	0.003850
901.000000	0.003788
900.000000	0.003733
899.000000	0.003680
898.000000	0.003621
897.000000	0.003560
896.000000	0.003515
895.000000	0.003500
894.000000	0.003502
893.000000	0.003492
892.000000	0.003451
891.000000	0.003394
890.000000	0.003367
889.000000	0.003418
888.000000	0.003578
887.000000	0.003853
886.000000	0.004231
885.000000	0.004671
884.000000	0.005108
883.000000	0.005493
882.000000	0.005838
881.000000	0.006203
880.000000	0.006640
879.000000	0.007133
878.000000	0.007625
877.000000	0.008063
876.000000	0.008419
875.000000	0.008669
874.000000	0.008793
873.000000	0.008779
872.000000	0.008623
871.000000	0.008334
870.000000	0.007939
869.000000	0.007490
868.000000	0.007051
867.000000	0.006666
866.000000	0.006345
865.000000	0.006075
864.000000	0.005827
863.000000	0.005584
862.000000	0.005357
861.000000	0.005175
860.000000	0.005051
859.000000	0.004962
858.000000	0.004881
857.000000	0.004798
856.000000	0.004723
855.000000	0.004658
854.000000	0.004602
853.000000	0.004553
852.000000	0.004516
851.000000	0.004487
850.000000	0.004460
849.000000	0.004431
848.000000	0.004389
847.000000	0.004312
846.000000	0.004194
845.000000	0.004070
844.000000	0.003992
843.000000	0.003977
842.000000	0.003992
841.000000	0.003987
840.000000	0.003934
839.000000	0.003836
838.000000	0.003717
837.000000	0.003615
836.000000	0.003551
835.000000	0.003516
834.000000	0.003489
833.000000	0.003468
832.000000	0.003468
831.000000	0.003488
830.000000	0.003502
829.000000	0.003501
828.000000	0.003498
827.000000	0.003503
826.000000	0.003502
825.000000	0.003486
824.000000	0.003469
823.000000	0.003473
822.000000	0.003499
821.000000	0.003536
820.000000	0.003578
819.000000	0.003624
818.000000	0.003664
817.000000	0.003690
816.000000	0.003706
815.000000	0.003719
814.000000	0.003720
813.000000	0.003701
812.000000	0.003663
811.000000	0.003608
810.000000	0.003536
809.000000	0.003452
808.000000	0.003386
807.000000	0.003372
806.000000	0.003418
805.000000	0.003496
804.000000	0.003565
803.000000	0.003600
802.000000	0.003596
801.000000	0.003562
800.000000	0.003513
799.000000	0.003469
798.000000	0.003451
797.000000	0.003469
796.000000	0.003511
795.000000	0.003541
794.000000	0.003534
793.000000	0.003507
792.000000	0.003492
791.000000	0.003497
790.000000	0.003500
789.000000	0.003492
788.000000	0.003495
787.000000	0.003532
786.000000	0.003582
785.000000	0.003605
784.000000	0.003582
783.000000	0.003538
782.000000	0.003508
781.000000	0.003505
780.000000	0.003528
779.000000	0.003576
778.000000	0.003643
777.000000	0.003713
776.000000	0.003760
775.000000	0.003767
774.000000	0.003732
773.000000	0.003668
772.000000	0.003589
771.000000	0.003513
770.000000	0.003466
769.000000	0.003474
768.000000	0.003544
767.000000	0.003656
766.000000	0.003775
765.000000	0.003878
764.000000	0.003954
763.000000	0.004002
762.000000	0.004025
761.000000	0.004039
760.000000	0.004064
759.000000	0.004111
758.000000	0.004168
757.000000	0.004212
756.000000	0.004226
755.000000	0.004219
754.000000	0.004222
753.000000	0.004260
752.000000	0.004324
751.000000	0.004369
750.000000	0.004367
749.000000	0.004331
748.000000	0.004310
747.000000	0.004331
746.000000	0.004381
745.000000	0.004430
744.000000	0.004469
743.000000	0.004509
742.000000	0.004553
741.000000	0.004583
740.000000	0.004581
739.000000	0.004554
738.000000	0.004542
737.000000	0.004579
736.000000	0.004675
735.000000	0.004815
734.000000	0.004973
733.000000	0.005105
732.000000	0.005156
731.000000	0.005107
730.000000	0.005010
729.000000	0.004965
728.000000	0.005022
727.000000	0.005141
726.000000	0.005251
725.000000	0.005334
724.000000	0.005425
723.000000	0.005547
722.000000	0.005677
721.000000	0.005788
720.000000	0.005886
719.000000	0.006015
718.000000	0.006226
717.000000	0.006545
716.000000	0.006955
715.000000	0.007409
714.000000	0.007840
713.000000	0.008171
712.000000	0.008317
711.000000	0.008229
710.000000	0.007962
709.000000	0.007670
708.000000	0.007508
707.000000	0.007516
706.000000	0.007626
705.000000	0.007752
704.000000	0.007853
703.000000	0.007929
702.000000	0.007989
701.000000	0.008043
700.000000	0.008105
699.000000	0.008178
698.000000	0.008251
697.000000	0.008312
696.000000	0.008344
695.000000	0.008329
694.000000	0.008265
693.000000	0.008192
692.000000	0.008157
691.000000	0.008169
690.000000	0.008196
689.000000	0.008227
688.000000	0.008301
687.000000	0.008455
686.000000	0.008654
685.000000	0.008803
684.000000	0.008842
683.000000	0.008801
682.000000	0.008762
681.000000	0.008782
680.000000	0.008857
679.000000	0.008933
678.000000	0.008961
677.000000	0.008957
676.000000	0.008994
675.000000	0.009115
674.000000	0.009275
673.000000	0.009381
672.000000	0.009361
671.000000	0.009199
670.000000	0.008947
669.000000	0.008715
668.000000	0.008641
667.000000	0.008766
666.000000	0.008967
665.000000	0.009151
664.000000	0.009294
663.000000	0.009385
662.000000	0.009455
661.000000	0.009550
660.000000	0.009700
659.000000	0.009865
658.000000	0.009977
657.000000	0.010026
656.000000	0.010047
655.000000	0.010046
654.000000	0.010022
653.000000	0.010014
652.000000	0.010068
651.000000	0.010166
650.000000	0.010253
649.000000	0.010309
648.000000	0.010356
647.000000	0.010416
646.000000	0.010490
645.000000	0.010566
644.000000	0.010618
643.000000	0.010633
642.000000	0.010652
641.000000	0.010740
640.000000	0.010912
639.000000	0.011090
638.000000	0.011193
637.000000	0.011209
636.000000	0.011177
635.000000	0.011129
634.000000	0.011099
633.000000	0.011114
632.000000	0.011171
631.000000	0.011242
630.000000	0.011328
629.000000	0.011476
628.000000	0.011696
627.000000	0.011909
626.000000	0.012010
625.000000	0.011967
624.000000	0.011823
623.000000	0.011634
622.000000	0.011452
621.000000	0.011318
620.000000	0.011259
619.000000	0.011295
618.000000	0.011453
617.000000	0.011725
616.000000	0.012012
615.000000	0.012175
614.000000	0.012169
613.000000	0.012084
612.000000	0.012013
611.000000	0.011961
610.000000	0.011887
609.000000	0.011791
608.000000	0.011701
607.000000	0.011635
606.000000	0.011606
605.000000	0.011621
604.000000	0.011639
603.000000	0.011580
602.000000	0.011444
601.000000	0.011334
600.000000	0.011336
599.000000	0.011405
598.000000	0.011445
597.000000	0.011429
596.000000	0.011387
595.000000	0.011320
594.000000	0.011214
593.000000	0.011105
592.000000	0.011044
591.000000	0.011020
590.000000	0.010990
589.000000	0.010972
588.000000	0.011029
587.000000	0.011158
586.000000	0.011268
585.000000	0.011280
584.000000	0.011214
583.000000	0.011146
582.000000	0.011127
581.000000	0.011150
580.000000	0.011196
579.000000	0.011280
578.000000	0.011431
577.000000	0.011608
576.000000	0.011674
575.000000	0.011535
574.000000	0.011290
573.000000	0.011158
572.000000	0.011239
571.000000	0.011436
570.000000	0.011626
569.000000	0.011809
568.000000	0.012040
567.000000	0.012277
566.000000	0.012426
565.000000	0.012478
564.000000	0.012507
563.000000	0.012559
562.000000	0.012623
561.000000	0.012679
560.000000	0.012704
559.000000	0.012678
558.000000	0.012636
557.000000	0.012674
556.000000	0.012817
555.000000	0.012940
554.000000	0.012910
553.000000	0.012756
552.000000	0.012609
551.000000	0.012523
550.000000	0.012457
549.000000	0.012379
548.000000	0.012285
547.000000	0.012149
546.000000	0.011985
545.000000	0.011891
544.000000	0.011932
543.000000	0.011996
542.000000	0.011913
541.000000	0.011701
540.000000	0.011554
539.000000	0.011574
538.000000	0.011664
537.000000	0.011708
536.000000	0.011738
535.000000	0.011841
534.000000	0.011993
533.000000	0.012099
532.000000	0.012139
531.000000	0.012193
530.000000	0.012322
529.000000	0.012476
528.000000	0.012535
527.000000	0.012428
526.000000	0.012233
525.000000	0.012121
524.000000	0.012167
523.000000	0.012296
522.000000	0.012386
521.000000	0.012378
520.000000	0.012273
519.000000	0.012103
518.000000	0.011940
517.000000	0.011862
516.000000	0.011837
515.000000	0.011739
514.000000	0.011540
513.000000	0.011375
512.000000	0.011357
511.000000	0.011393
510.000000	0.011309
509.000000	0.011088
508.000000	0.010852
507.000000	0.010638
506.000000	0.010361
505.000000	0.010017
504.000000	0.009756
503.000000	0.009693
502.000000	0.009729
501.000000	0.009668
500.000000	0.009492
499.000000	0.009393
498.000000	0.009528
497.000000	0.009814
496.000000	0.009985
495.000000	0.009867
494.000000	0.009553
493.000000	0.009272
492.000000	0.009108
491.000000	0.008950
490.000000	0.008721
489.000000	0.008518
488.000000	0.008475
487.000000	0.008575
486.000000	0.008667
485.000000	0.008628
484.000000	0.008448
483.000000	0.008204
482.000000	0.007988
481.000000	0.007839
480.000000	0.007707
479.000000	0.007527
478.000000	0.007318
477.000000	0.007173
476.000000	0.007124
475.000000	0.007108
474.000000	0.007094
473.000000	0.007124
472.000000	0.007180
471.000000	0.007171
470.000000	0.007092
469.000000	0.007013
468.000000	0.006911
467.000000	0.006667
466.000000	0.006319
465.000000	0.006094
464.000000	0.006088
463.000000	0.006110
462.000000	0.005987
461.000000	0.005806
460.000000	0.005770
459.000000	0.005778
458.000000	0.005742
457.000000	0.005597
456.000000	0.005435
455.000000	0.005337
454.000000	0.005023
453.000000	0.004463
452.000000	0.003805
451.000000	0.003377
450.000000	0.003270
