PE IR       SUBTECH     SPECTRUM    ASCII       PEDS        4.00        
   -1
Peau010_1.ASC
23/06/14
14:43:14.00
23/06/14
14:44:30.00
uco
Sample 010 By uco Date Wednesday, June 14 2023
450.000000
#HDR
-1
-1
#GR
cm-1
A
1.0
0.0
4000.000000
-1.000000
3551
8
0.028460
0.003267
#DATA
4000.000000	0.003793
3999.000000	0.003799
3998.000000	0.003799
3997.000000	0.003791
3996.000000	0.003776
3995.000000	0.003759
3994.000000	0.003751
3993.000000	0.003754
3992.000000	0.003765
3991.000000	0.003778
3990.000000	0.003790
3989.000000	0.003800
3988.000000	0.003810
3987.000000	0.003819
3986.000000	0.003823
3985.000000	0.003823
3984.000000	0.003823
3983.000000	0.003826
3982.000000	0.003834
3981.000000	0.003848
3980.000000	0.003867
3979.000000	0.003891
3978.000000	0.003915
3977.000000	0.003930
3976.000000	0.003930
3975.000000	0.003916
3974.000000	0.003898
3973.000000	0.003888
3972.000000	0.003890
3971.000000	0.003901
3970.000000	0.003914
3969.000000	0.003920
3968.000000	0.003921
3967.000000	0.003916
3966.000000	0.003907
3965.000000	0.003891
3964.000000	0.003871
3963.000000	0.003852
3962.000000	0.003842
3961.000000	0.003846
3960.000000	0.003863
3959.000000	0.003888
3958.000000	0.003914
3957.000000	0.003935
3956.000000	0.003947
3955.000000	0.003953
3954.000000	0.003954
3953.000000	0.003956
3952.000000	0.003959
3951.000000	0.003963
3950.000000	0.003965
3949.000000	0.003962
3948.000000	0.003955
3947.000000	0.003949
3946.000000	0.003950
3945.000000	0.003961
3944.000000	0.003977
3943.000000	0.003988
3942.000000	0.003984
3941.000000	0.003962
3940.000000	0.003932
3939.000000	0.003906
3938.000000	0.003894
3937.000000	0.003895
3936.000000	0.003903
3935.000000	0.003910
3934.000000	0.003914
3933.000000	0.003915
3932.000000	0.003916
3931.000000	0.003918
3930.000000	0.003922
3929.000000	0.003932
3928.000000	0.003947
3927.000000	0.003963
3926.000000	0.003976
3925.000000	0.003989
3924.000000	0.004007
3923.000000	0.004030
3922.000000	0.004048
3921.000000	0.004056
3920.000000	0.004052
3919.000000	0.004038
3918.000000	0.004015
3917.000000	0.003986
3916.000000	0.003964
3915.000000	0.003956
3914.000000	0.003964
3913.000000	0.003980
3912.000000	0.003992
3911.000000	0.003993
3910.000000	0.003981
3909.000000	0.003968
3908.000000	0.003967
3907.000000	0.003981
3906.000000	0.004000
3905.000000	0.004008
3904.000000	0.004000
3903.000000	0.003986
3902.000000	0.003980
3901.000000	0.003984
3900.000000	0.003992
3899.000000	0.003997
3898.000000	0.003998
3897.000000	0.003999
3896.000000	0.004005
3895.000000	0.004019
3894.000000	0.004034
3893.000000	0.004034
3892.000000	0.004015
3891.000000	0.003990
3890.000000	0.003976
3889.000000	0.003975
3888.000000	0.003980
3887.000000	0.003984
3886.000000	0.003991
3885.000000	0.004006
3884.000000	0.004019
3883.000000	0.004017
3882.000000	0.003997
3881.000000	0.003973
3880.000000	0.003966
3879.000000	0.003981
3878.000000	0.004006
3877.000000	0.004024
3876.000000	0.004034
3875.000000	0.004043
3874.000000	0.004064
3873.000000	0.004089
3872.000000	0.004096
3871.000000	0.004073
3870.000000	0.004038
3869.000000	0.004024
3868.000000	0.004035
3867.000000	0.004046
3866.000000	0.004037
3865.000000	0.004013
3864.000000	0.003987
3863.000000	0.003972
3862.000000	0.003969
3861.000000	0.003979
3860.000000	0.004000
3859.000000	0.004033
3858.000000	0.004079
3857.000000	0.004136
3856.000000	0.004191
3855.000000	0.004214
3854.000000	0.004190
3853.000000	0.004147
3852.000000	0.004114
3851.000000	0.004084
3850.000000	0.004052
3849.000000	0.004025
3848.000000	0.004009
3847.000000	0.004002
3846.000000	0.004001
3845.000000	0.004005
3844.000000	0.004015
3843.000000	0.004026
3842.000000	0.004032
3841.000000	0.004029
3840.000000	0.004020
3839.000000	0.004019
3838.000000	0.004034
3837.000000	0.004056
3836.000000	0.004073
3835.000000	0.004075
3834.000000	0.004065
3833.000000	0.004050
3832.000000	0.004035
3831.000000	0.004026
3830.000000	0.004022
3829.000000	0.004017
3828.000000	0.004007
3827.000000	0.003994
3826.000000	0.003992
3825.000000	0.004003
3824.000000	0.004016
3823.000000	0.004013
3822.000000	0.003988
3821.000000	0.003962
3820.000000	0.003957
3819.000000	0.003963
3818.000000	0.003962
3817.000000	0.003954
3816.000000	0.003956
3815.000000	0.003977
3814.000000	0.004001
3813.000000	0.004011
3812.000000	0.004014
3811.000000	0.004023
3810.000000	0.004036
3809.000000	0.004040
3808.000000	0.004025
3807.000000	0.004004
3806.000000	0.003994
3805.000000	0.003997
3804.000000	0.003998
3803.000000	0.003985
3802.000000	0.003969
3801.000000	0.003973
3800.000000	0.003998
3799.000000	0.004019
3798.000000	0.004021
3797.000000	0.004010
3796.000000	0.003999
3795.000000	0.003991
3794.000000	0.003982
3793.000000	0.003968
3792.000000	0.003958
3791.000000	0.003959
3790.000000	0.003971
3789.000000	0.003987
3788.000000	0.004003
3787.000000	0.004017
3786.000000	0.004028
3785.000000	0.004040
3784.000000	0.004050
3783.000000	0.004054
3782.000000	0.004045
3781.000000	0.004023
3780.000000	0.003999
3779.000000	0.003987
3778.000000	0.003990
3777.000000	0.003997
3776.000000	0.003996
3775.000000	0.003990
3774.000000	0.003983
3773.000000	0.003978
3772.000000	0.003969
3771.000000	0.003952
3770.000000	0.003932
3769.000000	0.003917
3768.000000	0.003904
3767.000000	0.003892
3766.000000	0.003882
3765.000000	0.003879
3764.000000	0.003883
3763.000000	0.003890
3762.000000	0.003896
3761.000000	0.003901
3760.000000	0.003907
3759.000000	0.003914
3758.000000	0.003919
3757.000000	0.003924
3756.000000	0.003930
3755.000000	0.003939
3754.000000	0.003952
3753.000000	0.003975
3752.000000	0.004009
3751.000000	0.004044
3750.000000	0.004065
3749.000000	0.004067
3748.000000	0.004055
3747.000000	0.004037
3746.000000	0.004015
3745.000000	0.004000
3744.000000	0.004004
3743.000000	0.004010
3742.000000	0.003990
3741.000000	0.003953
3740.000000	0.003927
3739.000000	0.003921
3738.000000	0.003918
3737.000000	0.003897
3736.000000	0.003857
3735.000000	0.003819
3734.000000	0.003800
3733.000000	0.003800
3732.000000	0.003813
3731.000000	0.003833
3730.000000	0.003856
3729.000000	0.003880
3728.000000	0.003906
3727.000000	0.003935
3726.000000	0.003961
3725.000000	0.003969
3724.000000	0.003953
3723.000000	0.003923
3722.000000	0.003899
3721.000000	0.003894
3720.000000	0.003900
3719.000000	0.003902
3718.000000	0.003895
3717.000000	0.003884
3716.000000	0.003880
3715.000000	0.003885
3714.000000	0.003896
3713.000000	0.003908
3712.000000	0.003920
3711.000000	0.003926
3710.000000	0.003917
3709.000000	0.003884
3708.000000	0.003836
3707.000000	0.003788
3706.000000	0.003757
3705.000000	0.003745
3704.000000	0.003747
3703.000000	0.003755
3702.000000	0.003766
3701.000000	0.003786
3700.000000	0.003814
3699.000000	0.003841
3698.000000	0.003860
3697.000000	0.003868
3696.000000	0.003869
3695.000000	0.003863
3694.000000	0.003849
3693.000000	0.003826
3692.000000	0.003796
3691.000000	0.003769
3690.000000	0.003751
3689.000000	0.003753
3688.000000	0.003770
3687.000000	0.003784
3686.000000	0.003785
3685.000000	0.003776
3684.000000	0.003774
3683.000000	0.003787
3682.000000	0.003810
3681.000000	0.003836
3680.000000	0.003860
3679.000000	0.003880
3678.000000	0.003889
3677.000000	0.003879
3676.000000	0.003860
3675.000000	0.003859
3674.000000	0.003871
3673.000000	0.003870
3672.000000	0.003846
3671.000000	0.003817
3670.000000	0.003807
3669.000000	0.003821
3668.000000	0.003836
3667.000000	0.003831
3666.000000	0.003810
3665.000000	0.003789
3664.000000	0.003783
3663.000000	0.003796
3662.000000	0.003819
3661.000000	0.003843
3660.000000	0.003863
3659.000000	0.003880
3658.000000	0.003894
3657.000000	0.003913
3656.000000	0.003948
3655.000000	0.004004
3654.000000	0.004068
3653.000000	0.004119
3652.000000	0.004146
3651.000000	0.004149
3650.000000	0.004143
3649.000000	0.004148
3648.000000	0.004166
3647.000000	0.004190
3646.000000	0.004211
3645.000000	0.004224
3644.000000	0.004222
3643.000000	0.004205
3642.000000	0.004180
3641.000000	0.004161
3640.000000	0.004161
3639.000000	0.004185
3638.000000	0.004225
3637.000000	0.004269
3636.000000	0.004300
3635.000000	0.004311
3634.000000	0.004311
3633.000000	0.004308
3632.000000	0.004305
3631.000000	0.004298
3630.000000	0.004292
3629.000000	0.004308
3628.000000	0.004352
3627.000000	0.004403
3626.000000	0.004437
3625.000000	0.004459
3624.000000	0.004478
3623.000000	0.004491
3622.000000	0.004489
3621.000000	0.004473
3620.000000	0.004460
3619.000000	0.004473
3618.000000	0.004511
3617.000000	0.004555
3616.000000	0.004584
3615.000000	0.004599
3614.000000	0.004618
3613.000000	0.004658
3612.000000	0.004718
3611.000000	0.004778
3610.000000	0.004812
3609.000000	0.004814
3608.000000	0.004795
3607.000000	0.004779
3606.000000	0.004781
3605.000000	0.004800
3604.000000	0.004824
3603.000000	0.004843
3602.000000	0.004854
3601.000000	0.004864
3600.000000	0.004876
3599.000000	0.004887
3598.000000	0.004896
3597.000000	0.004904
3596.000000	0.004921
3595.000000	0.004949
3594.000000	0.004989
3593.000000	0.005037
3592.000000	0.005091
3591.000000	0.005145
3590.000000	0.005190
3589.000000	0.005212
3588.000000	0.005214
3587.000000	0.005210
3586.000000	0.005220
3585.000000	0.005245
3584.000000	0.005275
3583.000000	0.005305
3582.000000	0.005335
3581.000000	0.005364
3580.000000	0.005392
3579.000000	0.005415
3578.000000	0.005436
3577.000000	0.005459
3576.000000	0.005487
3575.000000	0.005523
3574.000000	0.005565
3573.000000	0.005614
3572.000000	0.005667
3571.000000	0.005716
3570.000000	0.005756
3569.000000	0.005786
3568.000000	0.005813
3567.000000	0.005840
3566.000000	0.005863
3565.000000	0.005876
3564.000000	0.005881
3563.000000	0.005886
3562.000000	0.005897
3561.000000	0.005917
3560.000000	0.005943
3559.000000	0.005971
3558.000000	0.006000
3557.000000	0.006031
3556.000000	0.006065
3555.000000	0.006098
3554.000000	0.006129
3553.000000	0.006156
3552.000000	0.006179
3551.000000	0.006201
3550.000000	0.006226
3549.000000	0.006256
3548.000000	0.006292
3547.000000	0.006327
3546.000000	0.006357
3545.000000	0.006381
3544.000000	0.006406
3543.000000	0.006433
3542.000000	0.006458
3541.000000	0.006478
3540.000000	0.006497
3539.000000	0.006521
3538.000000	0.006555
3537.000000	0.006592
3536.000000	0.006622
3535.000000	0.006642
3534.000000	0.006656
3533.000000	0.006675
3532.000000	0.006703
3531.000000	0.006733
3530.000000	0.006756
3529.000000	0.006771
3528.000000	0.006788
3527.000000	0.006814
3526.000000	0.006852
3525.000000	0.006896
3524.000000	0.006941
3523.000000	0.006987
3522.000000	0.007031
3521.000000	0.007073
3520.000000	0.007106
3519.000000	0.007126
3518.000000	0.007129
3517.000000	0.007121
3516.000000	0.007110
3515.000000	0.007110
3514.000000	0.007127
3513.000000	0.007161
3512.000000	0.007208
3511.000000	0.007261
3510.000000	0.007314
3509.000000	0.007361
3508.000000	0.007400
3507.000000	0.007432
3506.000000	0.007463
3505.000000	0.007494
3504.000000	0.007516
3503.000000	0.007520
3502.000000	0.007504
3501.000000	0.007484
3500.000000	0.007477
3499.000000	0.007493
3498.000000	0.007526
3497.000000	0.007563
3496.000000	0.007595
3495.000000	0.007625
3494.000000	0.007658
3493.000000	0.007700
3492.000000	0.007747
3491.000000	0.007792
3490.000000	0.007830
3489.000000	0.007863
3488.000000	0.007893
3487.000000	0.007921
3486.000000	0.007945
3485.000000	0.007966
3484.000000	0.007981
3483.000000	0.007993
3482.000000	0.008000
3481.000000	0.008004
3480.000000	0.008012
3479.000000	0.008033
3478.000000	0.008070
3477.000000	0.008119
3476.000000	0.008164
3475.000000	0.008197
3474.000000	0.008218
3473.000000	0.008236
3472.000000	0.008254
3471.000000	0.008273
3470.000000	0.008297
3469.000000	0.008328
3468.000000	0.008364
3467.000000	0.008391
3466.000000	0.008401
3465.000000	0.008396
3464.000000	0.008392
3463.000000	0.008399
3462.000000	0.008418
3461.000000	0.008446
3460.000000	0.008474
3459.000000	0.008500
3458.000000	0.008521
3457.000000	0.008539
3456.000000	0.008558
3455.000000	0.008583
3454.000000	0.008612
3453.000000	0.008641
3452.000000	0.008667
3451.000000	0.008690
3450.000000	0.008715
3449.000000	0.008743
3448.000000	0.008769
3447.000000	0.008790
3446.000000	0.008805
3445.000000	0.008819
3444.000000	0.008837
3443.000000	0.008864
3442.000000	0.008896
3441.000000	0.008929
3440.000000	0.008954
3439.000000	0.008972
3438.000000	0.008988
3437.000000	0.009009
3436.000000	0.009035
3435.000000	0.009059
3434.000000	0.009076
3433.000000	0.009081
3432.000000	0.009077
3431.000000	0.009070
3430.000000	0.009067
3429.000000	0.009074
3428.000000	0.009097
3427.000000	0.009137
3426.000000	0.009191
3425.000000	0.009248
3424.000000	0.009298
3423.000000	0.009337
3422.000000	0.009366
3421.000000	0.009386
3420.000000	0.009400
3419.000000	0.009412
3418.000000	0.009430
3417.000000	0.009462
3416.000000	0.009501
3415.000000	0.009539
3414.000000	0.009567
3413.000000	0.009587
3412.000000	0.009598
3411.000000	0.009601
3410.000000	0.009600
3409.000000	0.009605
3408.000000	0.009627
3407.000000	0.009668
3406.000000	0.009718
3405.000000	0.009764
3404.000000	0.009794
3403.000000	0.009807
3402.000000	0.009809
3401.000000	0.009812
3400.000000	0.009825
3399.000000	0.009850
3398.000000	0.009883
3397.000000	0.009919
3396.000000	0.009958
3395.000000	0.009998
3394.000000	0.010038
3393.000000	0.010077
3392.000000	0.010112
3391.000000	0.010139
3390.000000	0.010159
3389.000000	0.010174
3388.000000	0.010190
3387.000000	0.010207
3386.000000	0.010224
3385.000000	0.010240
3384.000000	0.010258
3383.000000	0.010282
3382.000000	0.010312
3381.000000	0.010341
3380.000000	0.010368
3379.000000	0.010395
3378.000000	0.010429
3377.000000	0.010471
3376.000000	0.010518
3375.000000	0.010562
3374.000000	0.010600
3373.000000	0.010631
3372.000000	0.010660
3371.000000	0.010692
3370.000000	0.010733
3369.000000	0.010785
3368.000000	0.010842
3367.000000	0.010891
3366.000000	0.010923
3365.000000	0.010941
3364.000000	0.010959
3363.000000	0.010989
3362.000000	0.011030
3361.000000	0.011079
3360.000000	0.011130
3359.000000	0.011182
3358.000000	0.011232
3357.000000	0.011280
3356.000000	0.011328
3355.000000	0.011379
3354.000000	0.011432
3353.000000	0.011480
3352.000000	0.011518
3351.000000	0.011545
3350.000000	0.011568
3349.000000	0.011595
3348.000000	0.011636
3347.000000	0.011696
3346.000000	0.011774
3345.000000	0.011858
3344.000000	0.011935
3343.000000	0.011994
3342.000000	0.012033
3341.000000	0.012057
3340.000000	0.012079
3339.000000	0.012106
3338.000000	0.012142
3337.000000	0.012184
3336.000000	0.012228
3335.000000	0.012271
3334.000000	0.012313
3333.000000	0.012358
3332.000000	0.012406
3331.000000	0.012456
3330.000000	0.012505
3329.000000	0.012549
3328.000000	0.012589
3327.000000	0.012630
3326.000000	0.012669
3325.000000	0.012701
3324.000000	0.012726
3323.000000	0.012751
3322.000000	0.012785
3321.000000	0.012827
3320.000000	0.012865
3319.000000	0.012889
3318.000000	0.012909
3317.000000	0.012935
3316.000000	0.012975
3315.000000	0.013021
3314.000000	0.013060
3313.000000	0.013085
3312.000000	0.013097
3311.000000	0.013101
3310.000000	0.013102
3309.000000	0.013100
3308.000000	0.013094
3307.000000	0.013086
3306.000000	0.013083
3305.000000	0.013098
3304.000000	0.013137
3303.000000	0.013196
3302.000000	0.013259
3301.000000	0.013308
3300.000000	0.013332
3299.000000	0.013332
3298.000000	0.013319
3297.000000	0.013306
3296.000000	0.013301
3295.000000	0.013308
3294.000000	0.013323
3293.000000	0.013343
3292.000000	0.013365
3291.000000	0.013389
3290.000000	0.013412
3289.000000	0.013429
3288.000000	0.013436
3287.000000	0.013433
3286.000000	0.013425
3285.000000	0.013418
3284.000000	0.013417
3283.000000	0.013417
3282.000000	0.013415
3281.000000	0.013409
3280.000000	0.013396
3279.000000	0.013377
3278.000000	0.013350
3277.000000	0.013318
3276.000000	0.013286
3275.000000	0.013259
3274.000000	0.013238
3273.000000	0.013220
3272.000000	0.013205
3271.000000	0.013194
3270.000000	0.013190
3269.000000	0.013189
3268.000000	0.013187
3267.000000	0.013177
3266.000000	0.013157
3265.000000	0.013128
3264.000000	0.013090
3263.000000	0.013046
3262.000000	0.013000
3261.000000	0.012958
3260.000000	0.012926
3259.000000	0.012909
3258.000000	0.012903
3257.000000	0.012901
3256.000000	0.012894
3255.000000	0.012880
3254.000000	0.012864
3253.000000	0.012851
3252.000000	0.012840
3251.000000	0.012825
3250.000000	0.012806
3249.000000	0.012787
3248.000000	0.012772
3247.000000	0.012762
3246.000000	0.012750
3245.000000	0.012729
3244.000000	0.012699
3243.000000	0.012667
3242.000000	0.012643
3241.000000	0.012630
3240.000000	0.012622
3239.000000	0.012605
3238.000000	0.012567
3237.000000	0.012517
3236.000000	0.012472
3235.000000	0.012448
3234.000000	0.012443
3233.000000	0.012444
3232.000000	0.012442
3231.000000	0.012436
3230.000000	0.012427
3229.000000	0.012413
3228.000000	0.012393
3227.000000	0.012373
3226.000000	0.012363
3225.000000	0.012367
3224.000000	0.012373
3223.000000	0.012361
3222.000000	0.012321
3221.000000	0.012262
3220.000000	0.012208
3219.000000	0.012178
3218.000000	0.012174
3217.000000	0.012181
3216.000000	0.012186
3215.000000	0.012186
3214.000000	0.012179
3213.000000	0.012166
3212.000000	0.012144
3211.000000	0.012115
3210.000000	0.012078
3209.000000	0.012034
3208.000000	0.011981
3207.000000	0.011930
3206.000000	0.011895
3205.000000	0.011886
3204.000000	0.011892
3203.000000	0.011899
3202.000000	0.011894
3201.000000	0.011877
3200.000000	0.011851
3199.000000	0.011821
3198.000000	0.011792
3197.000000	0.011765
3196.000000	0.011738
3195.000000	0.011711
3194.000000	0.011685
3193.000000	0.011663
3192.000000	0.011644
3191.000000	0.011627
3190.000000	0.011614
3189.000000	0.011606
3188.000000	0.011596
3187.000000	0.011576
3186.000000	0.011536
3185.000000	0.011485
3184.000000	0.011433
3183.000000	0.011390
3182.000000	0.011354
3181.000000	0.011321
3180.000000	0.011294
3179.000000	0.011276
3178.000000	0.011263
3177.000000	0.011249
3176.000000	0.011228
3175.000000	0.011200
3174.000000	0.011167
3173.000000	0.011131
3172.000000	0.011094
3171.000000	0.011053
3170.000000	0.011010
3169.000000	0.010967
3168.000000	0.010930
3167.000000	0.010903
3166.000000	0.010885
3165.000000	0.010866
3164.000000	0.010839
3163.000000	0.010801
3162.000000	0.010755
3161.000000	0.010706
3160.000000	0.010658
3159.000000	0.010613
3158.000000	0.010576
3157.000000	0.010548
3156.000000	0.010529
3155.000000	0.010513
3154.000000	0.010495
3153.000000	0.010474
3152.000000	0.010448
3151.000000	0.010421
3150.000000	0.010396
3149.000000	0.010373
3148.000000	0.010353
3147.000000	0.010329
3146.000000	0.010293
3145.000000	0.010243
3144.000000	0.010188
3143.000000	0.010143
3142.000000	0.010119
3141.000000	0.010110
3140.000000	0.010104
3139.000000	0.010095
3138.000000	0.010087
3137.000000	0.010086
3136.000000	0.010082
3135.000000	0.010065
3134.000000	0.010037
3133.000000	0.010014
3132.000000	0.010009
3131.000000	0.010018
3130.000000	0.010027
3129.000000	0.010027
3128.000000	0.010021
3127.000000	0.010013
3126.000000	0.009999
3125.000000	0.009971
3124.000000	0.009929
3123.000000	0.009881
3122.000000	0.009834
3121.000000	0.009796
3120.000000	0.009768
3119.000000	0.009752
3118.000000	0.009748
3117.000000	0.009751
3116.000000	0.009759
3115.000000	0.009769
3114.000000	0.009783
3113.000000	0.009797
3112.000000	0.009810
3111.000000	0.009826
3110.000000	0.009846
3109.000000	0.009871
3108.000000	0.009894
3107.000000	0.009913
3106.000000	0.009927
3105.000000	0.009938
3104.000000	0.009948
3103.000000	0.009957
3102.000000	0.009963
3101.000000	0.009963
3100.000000	0.009960
3099.000000	0.009962
3098.000000	0.009975
3097.000000	0.009996
3096.000000	0.010014
3095.000000	0.010014
3094.000000	0.009999
3093.000000	0.009983
3092.000000	0.009980
3091.000000	0.009996
3090.000000	0.010024
3089.000000	0.010058
3088.000000	0.010089
3087.000000	0.010115
3086.000000	0.010135
3085.000000	0.010150
3084.000000	0.010160
3083.000000	0.010168
3082.000000	0.010171
3081.000000	0.010166
3080.000000	0.010149
3079.000000	0.010126
3078.000000	0.010114
3077.000000	0.010126
3076.000000	0.010162
3075.000000	0.010204
3074.000000	0.010232
3073.000000	0.010239
3072.000000	0.010235
3071.000000	0.010229
3070.000000	0.010223
3069.000000	0.010211
3068.000000	0.010193
3067.000000	0.010180
3066.000000	0.010179
3065.000000	0.010186
3064.000000	0.010186
3063.000000	0.010172
3062.000000	0.010146
3061.000000	0.010117
3060.000000	0.010092
3059.000000	0.010074
3058.000000	0.010063
3057.000000	0.010056
3056.000000	0.010045
3055.000000	0.010024
3054.000000	0.009991
3053.000000	0.009955
3052.000000	0.009925
3051.000000	0.009905
3050.000000	0.009894
3049.000000	0.009888
3048.000000	0.009883
3047.000000	0.009872
3046.000000	0.009846
3045.000000	0.009800
3044.000000	0.009740
3043.000000	0.009683
3042.000000	0.009643
3041.000000	0.009626
3040.000000	0.009622
3039.000000	0.009617
3038.000000	0.009596
3037.000000	0.009555
3036.000000	0.009499
3035.000000	0.009443
3034.000000	0.009397
3033.000000	0.009359
3032.000000	0.009319
3031.000000	0.009280
3030.000000	0.009251
3029.000000	0.009235
3028.000000	0.009223
3027.000000	0.009204
3026.000000	0.009174
3025.000000	0.009141
3024.000000	0.009110
3023.000000	0.009084
3022.000000	0.009061
3021.000000	0.009038
3020.000000	0.009009
3019.000000	0.008974
3018.000000	0.008933
3017.000000	0.008894
3016.000000	0.008866
3015.000000	0.008853
3014.000000	0.008853
3013.000000	0.008856
3012.000000	0.008851
3011.000000	0.008834
3010.000000	0.008814
3009.000000	0.008802
3008.000000	0.008796
3007.000000	0.008787
3006.000000	0.008774
3005.000000	0.008767
3004.000000	0.008775
3003.000000	0.008797
3002.000000	0.008828
3001.000000	0.008861
3000.000000	0.008888
2999.000000	0.008907
2998.000000	0.008922
2997.000000	0.008942
2996.000000	0.008977
2995.000000	0.009024
2994.000000	0.009074
2993.000000	0.009116
2992.000000	0.009146
2991.000000	0.009169
2990.000000	0.009197
2989.000000	0.009241
2988.000000	0.009306
2987.000000	0.009391
2986.000000	0.009486
2985.000000	0.009584
2984.000000	0.009674
2983.000000	0.009755
2982.000000	0.009833
2981.000000	0.009916
2980.000000	0.010007
2979.000000	0.010106
2978.000000	0.010209
2977.000000	0.010314
2976.000000	0.010422
2975.000000	0.010538
2974.000000	0.010671
2973.000000	0.010824
2972.000000	0.010989
2971.000000	0.011157
2970.000000	0.011326
2969.000000	0.011503
2968.000000	0.011686
2967.000000	0.011859
2966.000000	0.012014
2965.000000	0.012154
2964.000000	0.012290
2963.000000	0.012426
2962.000000	0.012552
2961.000000	0.012656
2960.000000	0.012738
2959.000000	0.012799
2958.000000	0.012843
2957.000000	0.012868
2956.000000	0.012873
2955.000000	0.012857
2954.000000	0.012820
2953.000000	0.012770
2952.000000	0.012715
2951.000000	0.012666
2950.000000	0.012632
2949.000000	0.012616
2948.000000	0.012620
2947.000000	0.012647
2946.000000	0.012692
2945.000000	0.012750
2944.000000	0.012814
2943.000000	0.012890
2942.000000	0.012992
2941.000000	0.013128
2940.000000	0.013296
2939.000000	0.013484
2938.000000	0.013676
2937.000000	0.013858
2936.000000	0.014022
2935.000000	0.014160
2934.000000	0.014276
2933.000000	0.014377
2932.000000	0.014461
2931.000000	0.014522
2930.000000	0.014559
2929.000000	0.014576
2928.000000	0.014584
2927.000000	0.014586
2926.000000	0.014577
2925.000000	0.014546
2924.000000	0.014484
2923.000000	0.014388
2922.000000	0.014266
2921.000000	0.014128
2920.000000	0.013980
2919.000000	0.013815
2918.000000	0.013631
2917.000000	0.013437
2916.000000	0.013249
2915.000000	0.013081
2914.000000	0.012934
2913.000000	0.012801
2912.000000	0.012671
2911.000000	0.012535
2910.000000	0.012392
2909.000000	0.012247
2908.000000	0.012107
2907.000000	0.011973
2906.000000	0.011842
2905.000000	0.011713
2904.000000	0.011585
2903.000000	0.011459
2902.000000	0.011342
2901.000000	0.011238
2900.000000	0.011150
2899.000000	0.011069
2898.000000	0.010983
2897.000000	0.010886
2896.000000	0.010786
2895.000000	0.010695
2894.000000	0.010619
2893.000000	0.010555
2892.000000	0.010494
2891.000000	0.010437
2890.000000	0.010387
2889.000000	0.010351
2888.000000	0.010331
2887.000000	0.010326
2886.000000	0.010330
2885.000000	0.010340
2884.000000	0.010356
2883.000000	0.010381
2882.000000	0.010419
2881.000000	0.010466
2880.000000	0.010517
2879.000000	0.010571
2878.000000	0.010636
2877.000000	0.010720
2876.000000	0.010818
2875.000000	0.010913
2874.000000	0.010987
2873.000000	0.011032
2872.000000	0.011050
2871.000000	0.011051
2870.000000	0.011047
2869.000000	0.011050
2868.000000	0.011064
2867.000000	0.011087
2866.000000	0.011116
2865.000000	0.011155
2864.000000	0.011207
2863.000000	0.011265
2862.000000	0.011316
2861.000000	0.011352
2860.000000	0.011379
2859.000000	0.011408
2858.000000	0.011438
2857.000000	0.011460
2856.000000	0.011458
2855.000000	0.011420
2854.000000	0.011343
2853.000000	0.011235
2852.000000	0.011107
2851.000000	0.010966
2850.000000	0.010816
2849.000000	0.010658
2848.000000	0.010489
2847.000000	0.010310
2846.000000	0.010125
2845.000000	0.009944
2844.000000	0.009783
2843.000000	0.009646
2842.000000	0.009531
2841.000000	0.009429
2840.000000	0.009337
2839.000000	0.009254
2838.000000	0.009175
2837.000000	0.009096
2836.000000	0.009019
2835.000000	0.008951
2834.000000	0.008899
2833.000000	0.008863
2832.000000	0.008832
2831.000000	0.008796
2830.000000	0.008749
2829.000000	0.008695
2828.000000	0.008645
2827.000000	0.008611
2826.000000	0.008593
2825.000000	0.008579
2824.000000	0.008556
2823.000000	0.008525
2822.000000	0.008497
2821.000000	0.008480
2820.000000	0.008475
2819.000000	0.008474
2818.000000	0.008472
2817.000000	0.008466
2816.000000	0.008461
2815.000000	0.008460
2814.000000	0.008465
2813.000000	0.008466
2812.000000	0.008451
2811.000000	0.008415
2810.000000	0.008365
2809.000000	0.008319
2808.000000	0.008289
2807.000000	0.008272
2806.000000	0.008262
2805.000000	0.008254
2804.000000	0.008246
2803.000000	0.008233
2802.000000	0.008210
2801.000000	0.008180
2800.000000	0.008152
2799.000000	0.008136
2798.000000	0.008134
2797.000000	0.008141
2796.000000	0.008145
2795.000000	0.008138
2794.000000	0.008119
2793.000000	0.008094
2792.000000	0.008069
2791.000000	0.008046
2790.000000	0.008023
2789.000000	0.008002
2788.000000	0.007984
2787.000000	0.007971
2786.000000	0.007962
2785.000000	0.007956
2784.000000	0.007953
2783.000000	0.007954
2782.000000	0.007955
2781.000000	0.007950
2780.000000	0.007938
2779.000000	0.007921
2778.000000	0.007906
2777.000000	0.007895
2776.000000	0.007885
2775.000000	0.007869
2774.000000	0.007844
2773.000000	0.007820
2772.000000	0.007808
2771.000000	0.007813
2770.000000	0.007827
2769.000000	0.007838
2768.000000	0.007839
2767.000000	0.007830
2766.000000	0.007815
2765.000000	0.007799
2764.000000	0.007783
2763.000000	0.007770
2762.000000	0.007757
2761.000000	0.007745
2760.000000	0.007736
2759.000000	0.007733
2758.000000	0.007735
2757.000000	0.007736
2756.000000	0.007731
2755.000000	0.007717
2754.000000	0.007694
2753.000000	0.007668
2752.000000	0.007646
2751.000000	0.007635
2750.000000	0.007636
2749.000000	0.007646
2748.000000	0.007656
2747.000000	0.007655
2746.000000	0.007641
2745.000000	0.007618
2744.000000	0.007595
2743.000000	0.007581
2742.000000	0.007575
2741.000000	0.007572
2740.000000	0.007570
2739.000000	0.007568
2738.000000	0.007566
2737.000000	0.007562
2736.000000	0.007554
2735.000000	0.007543
2734.000000	0.007533
2733.000000	0.007528
2732.000000	0.007531
2731.000000	0.007541
2730.000000	0.007554
2729.000000	0.007563
2728.000000	0.007564
2727.000000	0.007555
2726.000000	0.007535
2725.000000	0.007507
2724.000000	0.007476
2723.000000	0.007453
2722.000000	0.007444
2721.000000	0.007446
2720.000000	0.007450
2719.000000	0.007454
2718.000000	0.007458
2717.000000	0.007464
2716.000000	0.007466
2715.000000	0.007457
2714.000000	0.007439
2713.000000	0.007422
2712.000000	0.007413
2711.000000	0.007412
2710.000000	0.007411
2709.000000	0.007404
2708.000000	0.007392
2707.000000	0.007380
2706.000000	0.007369
2705.000000	0.007360
2704.000000	0.007349
2703.000000	0.007340
2702.000000	0.007338
2701.000000	0.007342
2700.000000	0.007345
2699.000000	0.007336
2698.000000	0.007319
2697.000000	0.007305
2696.000000	0.007302
2695.000000	0.007308
2694.000000	0.007315
2693.000000	0.007315
2692.000000	0.007304
2691.000000	0.007286
2690.000000	0.007269
2689.000000	0.007264
2688.000000	0.007276
2687.000000	0.007297
2686.000000	0.007312
2685.000000	0.007314
2684.000000	0.007307
2683.000000	0.007296
2682.000000	0.007286
2681.000000	0.007280
2680.000000	0.007276
2679.000000	0.007272
2678.000000	0.007265
2677.000000	0.007259
2676.000000	0.007258
2675.000000	0.007264
2674.000000	0.007275
2673.000000	0.007282
2672.000000	0.007281
2671.000000	0.007271
2670.000000	0.007259
2669.000000	0.007251
2668.000000	0.007250
2667.000000	0.007249
2666.000000	0.007241
2665.000000	0.007225
2664.000000	0.007211
2663.000000	0.007208
2662.000000	0.007220
2661.000000	0.007239
2660.000000	0.007253
2659.000000	0.007254
2658.000000	0.007242
2657.000000	0.007227
2656.000000	0.007218
2655.000000	0.007217
2654.000000	0.007217
2653.000000	0.007209
2652.000000	0.007194
2651.000000	0.007180
2650.000000	0.007176
2649.000000	0.007178
2648.000000	0.007174
2647.000000	0.007155
2646.000000	0.007122
2645.000000	0.007084
2644.000000	0.007054
2643.000000	0.007034
2642.000000	0.007025
2641.000000	0.007023
2640.000000	0.007023
2639.000000	0.007021
2638.000000	0.007013
2637.000000	0.006998
2636.000000	0.006974
2635.000000	0.006939
2634.000000	0.006899
2633.000000	0.006864
2632.000000	0.006846
2631.000000	0.006842
2630.000000	0.006841
2629.000000	0.006832
2628.000000	0.006810
2627.000000	0.006779
2626.000000	0.006745
2625.000000	0.006718
2624.000000	0.006701
2623.000000	0.006696
2622.000000	0.006694
2621.000000	0.006687
2620.000000	0.006679
2619.000000	0.006677
2618.000000	0.006681
2617.000000	0.006682
2616.000000	0.006668
2615.000000	0.006645
2614.000000	0.006629
2613.000000	0.006625
2612.000000	0.006626
2611.000000	0.006621
2610.000000	0.006611
2609.000000	0.006603
2608.000000	0.006602
2607.000000	0.006603
2606.000000	0.006600
2605.000000	0.006584
2604.000000	0.006552
2603.000000	0.006515
2602.000000	0.006490
2601.000000	0.006493
2600.000000	0.006516
2599.000000	0.006531
2598.000000	0.006515
2597.000000	0.006472
2596.000000	0.006426
2595.000000	0.006398
2594.000000	0.006392
2593.000000	0.006394
2592.000000	0.006391
2591.000000	0.006379
2590.000000	0.006366
2589.000000	0.006358
2588.000000	0.006351
2587.000000	0.006341
2586.000000	0.006325
2585.000000	0.006311
2584.000000	0.006308
2583.000000	0.006320
2582.000000	0.006341
2581.000000	0.006363
2580.000000	0.006377
2579.000000	0.006383
2578.000000	0.006384
2577.000000	0.006380
2576.000000	0.006367
2575.000000	0.006342
2574.000000	0.006312
2573.000000	0.006290
2572.000000	0.006286
2571.000000	0.006291
2570.000000	0.006290
2569.000000	0.006267
2568.000000	0.006223
2567.000000	0.006171
2566.000000	0.006131
2565.000000	0.006117
2564.000000	0.006126
2563.000000	0.006145
2562.000000	0.006166
2561.000000	0.006189
2560.000000	0.006210
2559.000000	0.006219
2558.000000	0.006209
2557.000000	0.006191
2556.000000	0.006184
2555.000000	0.006195
2554.000000	0.006213
2553.000000	0.006221
2552.000000	0.006209
2551.000000	0.006177
2550.000000	0.006132
2549.000000	0.006082
2548.000000	0.006044
2547.000000	0.006029
2546.000000	0.006036
2545.000000	0.006054
2544.000000	0.006080
2543.000000	0.006116
2542.000000	0.006157
2541.000000	0.006186
2540.000000	0.006185
2539.000000	0.006156
2538.000000	0.006119
2537.000000	0.006090
2536.000000	0.006070
2535.000000	0.006062
2534.000000	0.006071
2533.000000	0.006098
2532.000000	0.006129
2531.000000	0.006149
2530.000000	0.006162
2529.000000	0.006183
2528.000000	0.006211
2527.000000	0.006232
2526.000000	0.006235
2525.000000	0.006226
2524.000000	0.006212
2523.000000	0.006199
2522.000000	0.006187
2521.000000	0.006174
2520.000000	0.006156
2519.000000	0.006124
2518.000000	0.006078
2517.000000	0.006039
2516.000000	0.006033
2515.000000	0.006065
2514.000000	0.006106
2513.000000	0.006125
2512.000000	0.006115
2511.000000	0.006097
2510.000000	0.006096
2509.000000	0.006116
2508.000000	0.006137
2507.000000	0.006141
2506.000000	0.006125
2505.000000	0.006092
2504.000000	0.006048
2503.000000	0.005993
2502.000000	0.005940
2501.000000	0.005910
2500.000000	0.005912
2499.000000	0.005937
2498.000000	0.005967
2497.000000	0.005991
2496.000000	0.006014
2495.000000	0.006039
2494.000000	0.006056
2493.000000	0.006057
2492.000000	0.006045
2491.000000	0.006035
2490.000000	0.006037
2489.000000	0.006050
2488.000000	0.006056
2487.000000	0.006041
2486.000000	0.006005
2485.000000	0.005962
2484.000000	0.005931
2483.000000	0.005915
2482.000000	0.005905
2481.000000	0.005886
2480.000000	0.005859
2479.000000	0.005837
2478.000000	0.005831
2477.000000	0.005840
2476.000000	0.005844
2475.000000	0.005834
2474.000000	0.005814
2473.000000	0.005803
2472.000000	0.005812
2471.000000	0.005832
2470.000000	0.005846
2469.000000	0.005837
2468.000000	0.005806
2467.000000	0.005771
2466.000000	0.005751
2465.000000	0.005752
2464.000000	0.005765
2463.000000	0.005776
2462.000000	0.005784
2461.000000	0.005793
2460.000000	0.005803
2459.000000	0.005807
2458.000000	0.005798
2457.000000	0.005780
2456.000000	0.005763
2455.000000	0.005760
2454.000000	0.005773
2453.000000	0.005796
2452.000000	0.005827
2451.000000	0.005863
2450.000000	0.005897
2449.000000	0.005909
2448.000000	0.005885
2447.000000	0.005832
2446.000000	0.005778
2445.000000	0.005749
2444.000000	0.005744
2443.000000	0.005749
2442.000000	0.005747
2441.000000	0.005735
2440.000000	0.005712
2439.000000	0.005683
2438.000000	0.005655
2437.000000	0.005636
2436.000000	0.005631
2435.000000	0.005641
2434.000000	0.005665
2433.000000	0.005697
2432.000000	0.005725
2431.000000	0.005741
2430.000000	0.005746
2429.000000	0.005746
2428.000000	0.005755
2427.000000	0.005778
2426.000000	0.005810
2425.000000	0.005827
2424.000000	0.005801
2423.000000	0.005730
2422.000000	0.005649
2421.000000	0.005596
2420.000000	0.005587
2419.000000	0.005610
2418.000000	0.005643
2417.000000	0.005667
2416.000000	0.005668
2415.000000	0.005641
2414.000000	0.005599
2413.000000	0.005565
2412.000000	0.005555
2411.000000	0.005573
2410.000000	0.005611
2409.000000	0.005657
2408.000000	0.005693
2407.000000	0.005704
2406.000000	0.005688
2405.000000	0.005658
2404.000000	0.005630
2403.000000	0.005615
2402.000000	0.005613
2401.000000	0.005618
2400.000000	0.005618
2399.000000	0.005609
2398.000000	0.005597
2397.000000	0.005591
2396.000000	0.005594
2395.000000	0.005598
2394.000000	0.005599
2393.000000	0.005597
2392.000000	0.005590
2391.000000	0.005582
2390.000000	0.005576
2389.000000	0.005578
2388.000000	0.005584
2387.000000	0.005595
2386.000000	0.005611
2385.000000	0.005629
2384.000000	0.005631
2383.000000	0.005604
2382.000000	0.005557
2381.000000	0.005509
2380.000000	0.005472
2379.000000	0.005444
2378.000000	0.005428
2377.000000	0.005440
2376.000000	0.005489
2375.000000	0.005563
2374.000000	0.005627
2373.000000	0.005652
2372.000000	0.005628
2371.000000	0.005568
2370.000000	0.005500
2369.000000	0.005445
2368.000000	0.005412
2367.000000	0.005400
2366.000000	0.005414
2365.000000	0.005456
2364.000000	0.005518
2363.000000	0.005581
2362.000000	0.005624
2361.000000	0.005635
2360.000000	0.005625
2359.000000	0.005616
2358.000000	0.005614
2357.000000	0.005610
2356.000000	0.005599
2355.000000	0.005602
2354.000000	0.005622
2353.000000	0.005631
2352.000000	0.005614
2351.000000	0.005592
2350.000000	0.005593
2349.000000	0.005623
2348.000000	0.005663
2347.000000	0.005686
2346.000000	0.005681
2345.000000	0.005671
2344.000000	0.005681
2343.000000	0.005710
2342.000000	0.005728
2341.000000	0.005716
2340.000000	0.005686
2339.000000	0.005668
2338.000000	0.005679
2337.000000	0.005710
2336.000000	0.005742
2335.000000	0.005749
2334.000000	0.005717
2333.000000	0.005646
2332.000000	0.005569
2331.000000	0.005521
2330.000000	0.005529
2329.000000	0.005586
2328.000000	0.005688
2327.000000	0.005820
2326.000000	0.005963
2325.000000	0.006083
2324.000000	0.006147
2323.000000	0.006149
2322.000000	0.006113
2321.000000	0.006076
2320.000000	0.006055
2319.000000	0.006030
2318.000000	0.005978
2317.000000	0.005889
2316.000000	0.005792
2315.000000	0.005717
2314.000000	0.005687
2313.000000	0.005692
2312.000000	0.005714
2311.000000	0.005729
2310.000000	0.005740
2309.000000	0.005752
2308.000000	0.005764
2307.000000	0.005761
2306.000000	0.005748
2305.000000	0.005737
2304.000000	0.005737
2303.000000	0.005737
2302.000000	0.005722
2301.000000	0.005693
2300.000000	0.005666
2299.000000	0.005657
2298.000000	0.005674
2297.000000	0.005708
2296.000000	0.005741
2295.000000	0.005756
2294.000000	0.005756
2293.000000	0.005749
2292.000000	0.005742
2291.000000	0.005737
2290.000000	0.005743
2289.000000	0.005768
2288.000000	0.005806
2287.000000	0.005839
2286.000000	0.005854
2285.000000	0.005849
2284.000000	0.005818
2283.000000	0.005756
2282.000000	0.005673
2281.000000	0.005594
2280.000000	0.005532
2279.000000	0.005484
2278.000000	0.005466
2277.000000	0.005502
2276.000000	0.005586
2275.000000	0.005667
2274.000000	0.005699
2273.000000	0.005681
2272.000000	0.005645
2271.000000	0.005605
2270.000000	0.005557
2269.000000	0.005503
2268.000000	0.005456
2267.000000	0.005426
2266.000000	0.005427
2265.000000	0.005470
2264.000000	0.005543
2263.000000	0.005602
2262.000000	0.005613
2261.000000	0.005588
2260.000000	0.005564
2259.000000	0.005555
2258.000000	0.005546
2257.000000	0.005523
2256.000000	0.005479
2255.000000	0.005410
2254.000000	0.005327
2253.000000	0.005278
2252.000000	0.005304
2251.000000	0.005386
2250.000000	0.005450
2249.000000	0.005446
2248.000000	0.005393
2247.000000	0.005348
2246.000000	0.005354
2245.000000	0.005420
2244.000000	0.005515
2243.000000	0.005583
2242.000000	0.005586
2241.000000	0.005538
2240.000000	0.005480
2239.000000	0.005429
2238.000000	0.005370
2237.000000	0.005303
2236.000000	0.005269
2235.000000	0.005291
2234.000000	0.005335
2233.000000	0.005344
2232.000000	0.005315
2231.000000	0.005299
2230.000000	0.005326
2229.000000	0.005367
2228.000000	0.005370
2227.000000	0.005316
2226.000000	0.005223
2225.000000	0.005124
2224.000000	0.005043
2223.000000	0.005002
2222.000000	0.005009
2221.000000	0.005048
2220.000000	0.005087
2219.000000	0.005109
2218.000000	0.005125
2217.000000	0.005155
2216.000000	0.005193
2215.000000	0.005220
2214.000000	0.005224
2213.000000	0.005220
2212.000000	0.005232
2211.000000	0.005265
2210.000000	0.005290
2209.000000	0.005265
2208.000000	0.005176
2207.000000	0.005067
2206.000000	0.005016
2205.000000	0.005061
2204.000000	0.005159
2203.000000	0.005227
2202.000000	0.005211
2201.000000	0.005127
2200.000000	0.005023
2199.000000	0.004944
2198.000000	0.004921
2197.000000	0.004961
2196.000000	0.005044
2195.000000	0.005140
2194.000000	0.005233
2193.000000	0.005324
2192.000000	0.005400
2191.000000	0.005425
2190.000000	0.005368
2189.000000	0.005243
2188.000000	0.005114
2187.000000	0.005061
2186.000000	0.005112
2185.000000	0.005206
2184.000000	0.005221
2183.000000	0.005083
2182.000000	0.004844
2181.000000	0.004645
2180.000000	0.004590
2179.000000	0.004671
2178.000000	0.004810
2177.000000	0.004938
2176.000000	0.005023
2175.000000	0.005059
2174.000000	0.005054
2173.000000	0.005014
2172.000000	0.004943
2171.000000	0.004863
2170.000000	0.004825
2169.000000	0.004877
2168.000000	0.005003
2167.000000	0.005118
2166.000000	0.005128
2165.000000	0.005010
2164.000000	0.004838
2163.000000	0.004713
2162.000000	0.004662
2161.000000	0.004594
2160.000000	0.004386
2159.000000	0.004031
2158.000000	0.003676
2157.000000	0.003465
2156.000000	0.003420
2155.000000	0.003494
2154.000000	0.003665
2153.000000	0.003898
2152.000000	0.004107
2151.000000	0.004229
2150.000000	0.004292
2149.000000	0.004367
2148.000000	0.004458
2147.000000	0.004499
2146.000000	0.004448
2145.000000	0.004343
2144.000000	0.004269
2143.000000	0.004287
2142.000000	0.004403
2141.000000	0.004568
2140.000000	0.004715
2139.000000	0.004807
2138.000000	0.004856
2137.000000	0.004868
2136.000000	0.004815
2135.000000	0.004691
2134.000000	0.004558
2133.000000	0.004495
2132.000000	0.004504
2131.000000	0.004519
2130.000000	0.004508
2129.000000	0.004502
2128.000000	0.004543
2127.000000	0.004633
2126.000000	0.004750
2125.000000	0.004865
2124.000000	0.004949
2123.000000	0.004979
2122.000000	0.004964
2121.000000	0.004944
2120.000000	0.004957
2119.000000	0.004998
2118.000000	0.005041
2117.000000	0.005065
2116.000000	0.005070
2115.000000	0.005076
2114.000000	0.005103
2113.000000	0.005148
2112.000000	0.005177
2111.000000	0.005159
2110.000000	0.005100
2109.000000	0.005039
2108.000000	0.005004
2107.000000	0.004996
2106.000000	0.005010
2105.000000	0.005047
2104.000000	0.005099
2103.000000	0.005145
2102.000000	0.005160
2101.000000	0.005130
2100.000000	0.005044
2099.000000	0.004921
2098.000000	0.004822
2097.000000	0.004809
2096.000000	0.004880
2095.000000	0.004967
2094.000000	0.005013
2093.000000	0.005022
2092.000000	0.005034
2091.000000	0.005061
2090.000000	0.005082
2089.000000	0.005070
2088.000000	0.005023
2087.000000	0.004959
2086.000000	0.004915
2085.000000	0.004916
2084.000000	0.004946
2083.000000	0.004968
2082.000000	0.004962
2081.000000	0.004936
2080.000000	0.004903
2079.000000	0.004863
2078.000000	0.004822
2077.000000	0.004799
2076.000000	0.004805
2075.000000	0.004834
2074.000000	0.004880
2073.000000	0.004946
2072.000000	0.005022
2071.000000	0.005080
2070.000000	0.005081
2069.000000	0.005007
2068.000000	0.004881
2067.000000	0.004763
2066.000000	0.004724
2065.000000	0.004777
2064.000000	0.004845
2063.000000	0.004836
2062.000000	0.004741
2061.000000	0.004630
2060.000000	0.004559
2059.000000	0.004531
2058.000000	0.004542
2057.000000	0.004594
2056.000000	0.004662
2055.000000	0.004693
2054.000000	0.004683
2053.000000	0.004697
2052.000000	0.004767
2051.000000	0.004827
2050.000000	0.004775
2049.000000	0.004607
2048.000000	0.004423
2047.000000	0.004311
2046.000000	0.004265
2045.000000	0.004239
2044.000000	0.004217
2043.000000	0.004216
2042.000000	0.004246
2041.000000	0.004298
2040.000000	0.004359
2039.000000	0.004427
2038.000000	0.004499
2037.000000	0.004528
2036.000000	0.004454
2035.000000	0.004290
2034.000000	0.004140
2033.000000	0.004074
2032.000000	0.004029
2031.000000	0.003915
2030.000000	0.003780
2029.000000	0.003760
2028.000000	0.003883
2027.000000	0.004021
2026.000000	0.004068
2025.000000	0.004049
2024.000000	0.004038
2023.000000	0.004039
2022.000000	0.004026
2021.000000	0.004011
2020.000000	0.004025
2019.000000	0.004065
2018.000000	0.004101
2017.000000	0.004098
2016.000000	0.004030
2015.000000	0.003900
2014.000000	0.003778
2013.000000	0.003751
2012.000000	0.003830
2011.000000	0.003930
2010.000000	0.003974
2009.000000	0.003953
2008.000000	0.003892
2007.000000	0.003815
2006.000000	0.003752
2005.000000	0.003740
2004.000000	0.003770
2003.000000	0.003803
2002.000000	0.003834
2001.000000	0.003917
2000.000000	0.004083
1999.000000	0.004297
1998.000000	0.004476
1997.000000	0.004544
1996.000000	0.004484
1995.000000	0.004372
1994.000000	0.004335
1993.000000	0.004429
1992.000000	0.004561
1991.000000	0.004579
1990.000000	0.004447
1989.000000	0.004253
1988.000000	0.004082
1987.000000	0.003949
1986.000000	0.003878
1985.000000	0.003927
1984.000000	0.004107
1983.000000	0.004343
1982.000000	0.004545
1981.000000	0.004660
1980.000000	0.004650
1979.000000	0.004493
1978.000000	0.004241
1977.000000	0.004012
1976.000000	0.003872
1975.000000	0.003771
1974.000000	0.003670
1973.000000	0.003617
1972.000000	0.003663
1971.000000	0.003774
1970.000000	0.003882
1969.000000	0.003958
1968.000000	0.004006
1967.000000	0.004032
1966.000000	0.004045
1965.000000	0.004055
1964.000000	0.004061
1963.000000	0.004049
1962.000000	0.004023
1961.000000	0.003991
1960.000000	0.003939
1959.000000	0.003868
1958.000000	0.003823
1957.000000	0.003845
1956.000000	0.003889
1955.000000	0.003877
1954.000000	0.003813
1953.000000	0.003774
1952.000000	0.003800
1951.000000	0.003853
1950.000000	0.003901
1949.000000	0.003962
1948.000000	0.004033
1947.000000	0.004049
1946.000000	0.003969
1945.000000	0.003855
1944.000000	0.003810
1943.000000	0.003869
1942.000000	0.003972
1941.000000	0.004034
1940.000000	0.004012
1939.000000	0.003926
1938.000000	0.003839
1937.000000	0.003809
1936.000000	0.003834
1935.000000	0.003869
1934.000000	0.003894
1933.000000	0.003927
1932.000000	0.003969
1931.000000	0.003982
1930.000000	0.003947
1929.000000	0.003902
1928.000000	0.003887
1927.000000	0.003906
1926.000000	0.003945
1925.000000	0.004004
1924.000000	0.004071
1923.000000	0.004103
1922.000000	0.004077
1921.000000	0.004021
1920.000000	0.003975
1919.000000	0.003958
1918.000000	0.003982
1917.000000	0.004073
1916.000000	0.004222
1915.000000	0.004363
1914.000000	0.004420
1913.000000	0.004376
1912.000000	0.004273
1911.000000	0.004175
1910.000000	0.004123
1909.000000	0.004125
1908.000000	0.004148
1907.000000	0.004156
1906.000000	0.004145
1905.000000	0.004151
1904.000000	0.004192
1903.000000	0.004227
1902.000000	0.004214
1901.000000	0.004151
1900.000000	0.004075
1899.000000	0.004017
1898.000000	0.003992
1897.000000	0.004011
1896.000000	0.004069
1895.000000	0.004124
1894.000000	0.004138
1893.000000	0.004112
1892.000000	0.004075
1891.000000	0.004054
1890.000000	0.004047
1889.000000	0.004046
1888.000000	0.004042
1887.000000	0.004027
1886.000000	0.003996
1885.000000	0.003957
1884.000000	0.003927
1883.000000	0.003918
1882.000000	0.003942
1881.000000	0.003990
1880.000000	0.004034
1879.000000	0.004036
1878.000000	0.003993
1877.000000	0.003936
1876.000000	0.003910
1875.000000	0.003924
1874.000000	0.003954
1873.000000	0.003968
1872.000000	0.003957
1871.000000	0.003942
1870.000000	0.003957
1869.000000	0.004013
1868.000000	0.004076
1867.000000	0.004104
1866.000000	0.004096
1865.000000	0.004072
1864.000000	0.004046
1863.000000	0.004021
1862.000000	0.004002
1861.000000	0.004005
1860.000000	0.004037
1859.000000	0.004085
1858.000000	0.004137
1857.000000	0.004179
1856.000000	0.004197
1855.000000	0.004181
1854.000000	0.004142
1853.000000	0.004099
1852.000000	0.004051
1851.000000	0.003998
1850.000000	0.003942
1849.000000	0.003878
1848.000000	0.003796
1847.000000	0.003702
1846.000000	0.003651
1845.000000	0.003687
1844.000000	0.003773
1843.000000	0.003826
1842.000000	0.003836
1841.000000	0.003854
1840.000000	0.003906
1839.000000	0.003965
1838.000000	0.003992
1837.000000	0.003986
1836.000000	0.003961
1835.000000	0.003913
1834.000000	0.003837
1833.000000	0.003749
1832.000000	0.003691
1831.000000	0.003694
1830.000000	0.003741
1829.000000	0.003784
1828.000000	0.003809
1827.000000	0.003827
1826.000000	0.003843
1825.000000	0.003848
1824.000000	0.003840
1823.000000	0.003838
1822.000000	0.003856
1821.000000	0.003888
1820.000000	0.003904
1819.000000	0.003880
1818.000000	0.003825
1817.000000	0.003784
1816.000000	0.003782
1815.000000	0.003808
1814.000000	0.003838
1813.000000	0.003860
1812.000000	0.003874
1811.000000	0.003875
1810.000000	0.003867
1809.000000	0.003869
1808.000000	0.003888
1807.000000	0.003913
1806.000000	0.003939
1805.000000	0.003974
1804.000000	0.004013
1803.000000	0.004038
1802.000000	0.004051
1801.000000	0.004067
1800.000000	0.004108
1799.000000	0.004163
1798.000000	0.004207
1797.000000	0.004219
1796.000000	0.004185
1795.000000	0.004113
1794.000000	0.004041
1793.000000	0.004004
1792.000000	0.003997
1791.000000	0.003986
1790.000000	0.003964
1789.000000	0.003948
1788.000000	0.003944
1787.000000	0.003946
1786.000000	0.003950
1785.000000	0.003964
1784.000000	0.003982
1783.000000	0.003994
1782.000000	0.004000
1781.000000	0.003985
1780.000000	0.003947
1779.000000	0.003896
1778.000000	0.003856
1777.000000	0.003826
1776.000000	0.003783
1775.000000	0.003731
1774.000000	0.003703
1773.000000	0.003718
1772.000000	0.003738
1771.000000	0.003737
1770.000000	0.003754
1769.000000	0.003831
1768.000000	0.003945
1767.000000	0.004031
1766.000000	0.004073
1765.000000	0.004113
1764.000000	0.004196
1763.000000	0.004332
1762.000000	0.004499
1761.000000	0.004673
1760.000000	0.004862
1759.000000	0.005082
1758.000000	0.005371
1757.000000	0.005753
1756.000000	0.006186
1755.000000	0.006613
1754.000000	0.007037
1753.000000	0.007523
1752.000000	0.008111
1751.000000	0.008755
1750.000000	0.009365
1749.000000	0.009920
1748.000000	0.010416
1747.000000	0.010838
1746.000000	0.011188
1745.000000	0.011479
1744.000000	0.011701
1743.000000	0.011814
1742.000000	0.011829
1741.000000	0.011801
1740.000000	0.011732
1739.000000	0.011561
1738.000000	0.011297
1737.000000	0.011018
1736.000000	0.010754
1735.000000	0.010445
1734.000000	0.010024
1733.000000	0.009595
1732.000000	0.009283
1731.000000	0.009035
1730.000000	0.008768
1729.000000	0.008454
1728.000000	0.008106
1727.000000	0.007757
1726.000000	0.007434
1725.000000	0.007155
1724.000000	0.006910
1723.000000	0.006644
1722.000000	0.006333
1721.000000	0.006025
1720.000000	0.005793
1719.000000	0.005666
1718.000000	0.005603
1717.000000	0.005557
1716.000000	0.005525
1715.000000	0.005505
1714.000000	0.005501
1713.000000	0.005540
1712.000000	0.005618
1711.000000	0.005698
1710.000000	0.005752
1709.000000	0.005791
1708.000000	0.005852
1707.000000	0.005986
1706.000000	0.006193
1705.000000	0.006394
1704.000000	0.006495
1703.000000	0.006502
1702.000000	0.006541
1701.000000	0.006765
1700.000000	0.007140
1699.000000	0.007466
1698.000000	0.007753
1697.000000	0.008148
1696.000000	0.008650
1695.000000	0.009092
1694.000000	0.009407
1693.000000	0.009687
1692.000000	0.010004
1691.000000	0.010345
1690.000000	0.010663
1689.000000	0.010916
1688.000000	0.011086
1687.000000	0.011218
1686.000000	0.011432
1685.000000	0.011893
1684.000000	0.012513
1683.000000	0.013002
1682.000000	0.013395
1681.000000	0.013822
1680.000000	0.014253
1679.000000	0.014590
1678.000000	0.014839
1677.000000	0.015141
1676.000000	0.015618
1675.000000	0.016196
1674.000000	0.016701
1673.000000	0.017099
1672.000000	0.017491
1671.000000	0.017955
1670.000000	0.018523
1669.000000	0.019161
1668.000000	0.019782
1667.000000	0.020301
1666.000000	0.020706
1665.000000	0.021083
1664.000000	0.021534
1663.000000	0.022062
1662.000000	0.022586
1661.000000	0.023057
1660.000000	0.023486
1659.000000	0.023855
1658.000000	0.024103
1657.000000	0.024197
1656.000000	0.024192
1655.000000	0.024239
1654.000000	0.024555
1653.000000	0.025144
1652.000000	0.025661
1651.000000	0.025942
1650.000000	0.026067
1649.000000	0.026201
1648.000000	0.026444
1647.000000	0.026743
1646.000000	0.026970
1645.000000	0.027143
1644.000000	0.027313
1643.000000	0.027468
1642.000000	0.027600
1641.000000	0.027696
1640.000000	0.027745
1639.000000	0.027746
1638.000000	0.027740
1637.000000	0.027803
1636.000000	0.027949
1635.000000	0.028097
1634.000000	0.028213
1633.000000	0.028326
1632.000000	0.028421
1631.000000	0.028460
1630.000000	0.028425
1629.000000	0.028333
1628.000000	0.028195
1627.000000	0.028000
1626.000000	0.027757
1625.000000	0.027497
1624.000000	0.027238
1623.000000	0.026949
1622.000000	0.026607
1621.000000	0.026232
1620.000000	0.025842
1619.000000	0.025440
1618.000000	0.025016
1617.000000	0.024546
1616.000000	0.024044
1615.000000	0.023580
1614.000000	0.023184
1613.000000	0.022822
1612.000000	0.022444
1611.000000	0.022024
1610.000000	0.021577
1609.000000	0.021123
1608.000000	0.020667
1607.000000	0.020223
1606.000000	0.019812
1605.000000	0.019427
1604.000000	0.019047
1603.000000	0.018674
1602.000000	0.018316
1601.000000	0.017978
1600.000000	0.017655
1599.000000	0.017358
1598.000000	0.017096
1597.000000	0.016862
1596.000000	0.016635
1595.000000	0.016413
1594.000000	0.016208
1593.000000	0.016031
1592.000000	0.015878
1591.000000	0.015749
1590.000000	0.015643
1589.000000	0.015546
1588.000000	0.015448
1587.000000	0.015368
1586.000000	0.015330
1585.000000	0.015328
1584.000000	0.015328
1583.000000	0.015337
1582.000000	0.015371
1581.000000	0.015411
1580.000000	0.015418
1579.000000	0.015413
1578.000000	0.015466
1577.000000	0.015629
1576.000000	0.015855
1575.000000	0.016054
1574.000000	0.016207
1573.000000	0.016332
1572.000000	0.016461
1571.000000	0.016652
1570.000000	0.016948
1569.000000	0.017297
1568.000000	0.017622
1567.000000	0.017933
1566.000000	0.018269
1565.000000	0.018618
1564.000000	0.018899
1563.000000	0.019059
1562.000000	0.019113
1561.000000	0.019166
1560.000000	0.019451
1559.000000	0.020045
1558.000000	0.020580
1557.000000	0.021010
1556.000000	0.021438
1555.000000	0.021879
1554.000000	0.022298
1553.000000	0.022651
1552.000000	0.022961
1551.000000	0.023273
1550.000000	0.023568
1549.000000	0.023791
1548.000000	0.023927
1547.000000	0.024033
1546.000000	0.024161
1545.000000	0.024293
1544.000000	0.024358
1543.000000	0.024345
1542.000000	0.024346
1541.000000	0.024490
1540.000000	0.024733
1539.000000	0.024924
1538.000000	0.025037
1537.000000	0.025083
1536.000000	0.025082
1535.000000	0.025072
1534.000000	0.025084
1533.000000	0.025096
1532.000000	0.025097
1531.000000	0.025081
1530.000000	0.025030
1529.000000	0.024951
1528.000000	0.024864
1527.000000	0.024765
1526.000000	0.024626
1525.000000	0.024438
1524.000000	0.024241
1523.000000	0.024089
1522.000000	0.023984
1521.000000	0.023868
1520.000000	0.023729
1519.000000	0.023616
1518.000000	0.023551
1517.000000	0.023487
1516.000000	0.023352
1515.000000	0.023150
1514.000000	0.022941
1513.000000	0.022747
1512.000000	0.022550
1511.000000	0.022313
1510.000000	0.022033
1509.000000	0.021743
1508.000000	0.021454
1507.000000	0.021049
1506.000000	0.020554
1505.000000	0.020258
1504.000000	0.020165
1503.000000	0.020100
1502.000000	0.019959
1501.000000	0.019709
1500.000000	0.019377
1499.000000	0.019038
1498.000000	0.018750
1497.000000	0.018524
1496.000000	0.018329
1495.000000	0.018126
1494.000000	0.017911
1493.000000	0.017712
1492.000000	0.017549
1491.000000	0.017402
1490.000000	0.017238
1489.000000	0.017070
1488.000000	0.016960
1487.000000	0.016908
1486.000000	0.016892
1485.000000	0.016911
1484.000000	0.016958
1483.000000	0.017027
1482.000000	0.017110
1481.000000	0.017211
1480.000000	0.017331
1479.000000	0.017471
1478.000000	0.017633
1477.000000	0.017825
1476.000000	0.018031
1475.000000	0.018245
1474.000000	0.018528
1473.000000	0.018938
1472.000000	0.019428
1471.000000	0.019899
1470.000000	0.020325
1469.000000	0.020712
1468.000000	0.021053
1467.000000	0.021341
1466.000000	0.021617
1465.000000	0.021919
1464.000000	0.022231
1463.000000	0.022514
1462.000000	0.022749
1461.000000	0.022947
1460.000000	0.023132
1459.000000	0.023359
1458.000000	0.023696
1457.000000	0.024127
1456.000000	0.024534
1455.000000	0.024872
1454.000000	0.025168
1453.000000	0.025442
1452.000000	0.025668
1451.000000	0.025822
1450.000000	0.025932
1449.000000	0.026042
1448.000000	0.026149
1447.000000	0.026221
1446.000000	0.026281
1445.000000	0.026351
1444.000000	0.026421
1443.000000	0.026466
1442.000000	0.026478
1441.000000	0.026468
1440.000000	0.026439
1439.000000	0.026396
1438.000000	0.026353
1437.000000	0.026323
1436.000000	0.026292
1435.000000	0.026266
1434.000000	0.026252
1433.000000	0.026230
1432.000000	0.026174
1431.000000	0.026093
1430.000000	0.026027
1429.000000	0.026013
1428.000000	0.026045
1427.000000	0.026096
1426.000000	0.026156
1425.000000	0.026202
1424.000000	0.026203
1423.000000	0.026160
1422.000000	0.026121
1421.000000	0.026121
1420.000000	0.026150
1419.000000	0.026165
1418.000000	0.026150
1417.000000	0.026139
1416.000000	0.026131
1415.000000	0.026099
1414.000000	0.026043
1413.000000	0.025986
1412.000000	0.025931
1411.000000	0.025862
1410.000000	0.025774
1409.000000	0.025681
1408.000000	0.025596
1407.000000	0.025519
1406.000000	0.025455
1405.000000	0.025391
1404.000000	0.025311
1403.000000	0.025221
1402.000000	0.025144
1401.000000	0.025090
1400.000000	0.025045
1399.000000	0.024985
1398.000000	0.024913
1397.000000	0.024841
1396.000000	0.024750
1395.000000	0.024617
1394.000000	0.024481
1393.000000	0.024399
1392.000000	0.024369
1391.000000	0.024343
1390.000000	0.024286
1389.000000	0.024191
1388.000000	0.024049
1387.000000	0.023858
1386.000000	0.023657
1385.000000	0.023489
1384.000000	0.023350
1383.000000	0.023211
1382.000000	0.023061
1381.000000	0.022916
1380.000000	0.022774
1379.000000	0.022615
1378.000000	0.022428
1377.000000	0.022224
1376.000000	0.022014
1375.000000	0.021791
1374.000000	0.021554
1373.000000	0.021321
1372.000000	0.021109
1371.000000	0.020914
1370.000000	0.020721
1369.000000	0.020514
1368.000000	0.020282
1367.000000	0.020034
1366.000000	0.019799
1365.000000	0.019591
1364.000000	0.019401
1363.000000	0.019199
1362.000000	0.018982
1361.000000	0.018787
1360.000000	0.018645
1359.000000	0.018552
1358.000000	0.018486
1357.000000	0.018430
1356.000000	0.018377
1355.000000	0.018328
1354.000000	0.018287
1353.000000	0.018261
1352.000000	0.018259
1351.000000	0.018288
1350.000000	0.018346
1349.000000	0.018413
1348.000000	0.018474
1347.000000	0.018537
1346.000000	0.018617
1345.000000	0.018716
1344.000000	0.018822
1343.000000	0.018935
1342.000000	0.019069
1341.000000	0.019227
1340.000000	0.019383
1339.000000	0.019505
1338.000000	0.019590
1337.000000	0.019650
1336.000000	0.019687
1335.000000	0.019695
1334.000000	0.019675
1333.000000	0.019633
1332.000000	0.019564
1331.000000	0.019462
1330.000000	0.019331
1329.000000	0.019180
1328.000000	0.019015
1327.000000	0.018844
1326.000000	0.018685
1325.000000	0.018547
1324.000000	0.018428
1323.000000	0.018324
1322.000000	0.018233
1321.000000	0.018149
1320.000000	0.018065
1319.000000	0.017978
1318.000000	0.017897
1317.000000	0.017827
1316.000000	0.017757
1315.000000	0.017668
1314.000000	0.017553
1313.000000	0.017416
1312.000000	0.017266
1311.000000	0.017115
1310.000000	0.016975
1309.000000	0.016845
1308.000000	0.016713
1307.000000	0.016572
1306.000000	0.016428
1305.000000	0.016291
1304.000000	0.016169
1303.000000	0.016067
1302.000000	0.015985
1301.000000	0.015913
1300.000000	0.015831
1299.000000	0.015731
1298.000000	0.015624
1297.000000	0.015531
1296.000000	0.015468
1295.000000	0.015437
1294.000000	0.015438
1293.000000	0.015462
1292.000000	0.015503
1291.000000	0.015557
1290.000000	0.015625
1289.000000	0.015706
1288.000000	0.015786
1287.000000	0.015857
1286.000000	0.015926
1285.000000	0.015999
1284.000000	0.016067
1283.000000	0.016115
1282.000000	0.016145
1281.000000	0.016173
1280.000000	0.016213
1279.000000	0.016257
1278.000000	0.016293
1277.000000	0.016318
1276.000000	0.016341
1275.000000	0.016371
1274.000000	0.016422
1273.000000	0.016496
1272.000000	0.016586
1271.000000	0.016679
1270.000000	0.016775
1269.000000	0.016883
1268.000000	0.017013
1267.000000	0.017163
1266.000000	0.017324
1265.000000	0.017488
1264.000000	0.017653
1263.000000	0.017819
1262.000000	0.017994
1261.000000	0.018184
1260.000000	0.018384
1259.000000	0.018577
1258.000000	0.018753
1257.000000	0.018915
1256.000000	0.019070
1255.000000	0.019219
1254.000000	0.019362
1253.000000	0.019507
1252.000000	0.019670
1251.000000	0.019863
1250.000000	0.020085
1249.000000	0.020320
1248.000000	0.020554
1247.000000	0.020787
1246.000000	0.021028
1245.000000	0.021275
1244.000000	0.021514
1243.000000	0.021737
1242.000000	0.021957
1241.000000	0.022180
1240.000000	0.022390
1239.000000	0.022560
1238.000000	0.022687
1237.000000	0.022786
1236.000000	0.022859
1235.000000	0.022893
1234.000000	0.022883
1233.000000	0.022842
1232.000000	0.022782
1231.000000	0.022695
1230.000000	0.022573
1229.000000	0.022416
1228.000000	0.022220
1227.000000	0.021977
1226.000000	0.021684
1225.000000	0.021355
1224.000000	0.021011
1223.000000	0.020669
1222.000000	0.020338
1221.000000	0.020018
1220.000000	0.019707
1219.000000	0.019407
1218.000000	0.019132
1217.000000	0.018896
1216.000000	0.018698
1215.000000	0.018535
1214.000000	0.018404
1213.000000	0.018308
1212.000000	0.018243
1211.000000	0.018204
1210.000000	0.018189
1209.000000	0.018202
1208.000000	0.018241
1207.000000	0.018303
1206.000000	0.018388
1205.000000	0.018489
1204.000000	0.018590
1203.000000	0.018664
1202.000000	0.018695
1201.000000	0.018683
1200.000000	0.018636
1199.000000	0.018562
1198.000000	0.018462
1197.000000	0.018332
1196.000000	0.018176
1195.000000	0.018008
1194.000000	0.017852
1193.000000	0.017719
1192.000000	0.017598
1191.000000	0.017472
1190.000000	0.017346
1189.000000	0.017243
1188.000000	0.017170
1187.000000	0.017118
1186.000000	0.017076
1185.000000	0.017047
1184.000000	0.017035
1183.000000	0.017042
1182.000000	0.017071
1181.000000	0.017124
1180.000000	0.017195
1179.000000	0.017269
1178.000000	0.017340
1177.000000	0.017416
1176.000000	0.017510
1175.000000	0.017620
1174.000000	0.017739
1173.000000	0.017854
1172.000000	0.017959
1171.000000	0.018047
1170.000000	0.018120
1169.000000	0.018189
1168.000000	0.018271
1167.000000	0.018368
1166.000000	0.018473
1165.000000	0.018572
1164.000000	0.018644
1163.000000	0.018677
1162.000000	0.018668
1161.000000	0.018624
1160.000000	0.018555
1159.000000	0.018465
1158.000000	0.018356
1157.000000	0.018222
1156.000000	0.018060
1155.000000	0.017860
1154.000000	0.017619
1153.000000	0.017331
1152.000000	0.017002
1151.000000	0.016649
1150.000000	0.016297
1149.000000	0.015953
1148.000000	0.015607
1147.000000	0.015250
1146.000000	0.014888
1145.000000	0.014535
1144.000000	0.014196
1143.000000	0.013873
1142.000000	0.013573
1141.000000	0.013295
1140.000000	0.013032
1139.000000	0.012780
1138.000000	0.012547
1137.000000	0.012338
1136.000000	0.012145
1135.000000	0.011954
1134.000000	0.011767
1133.000000	0.011599
1132.000000	0.011463
1131.000000	0.011358
1130.000000	0.011280
1129.000000	0.011231
1128.000000	0.011202
1127.000000	0.011178
1126.000000	0.011146
1125.000000	0.011113
1124.000000	0.011094
1123.000000	0.011094
1122.000000	0.011106
1121.000000	0.011119
1120.000000	0.011139
1119.000000	0.011186
1118.000000	0.011276
1117.000000	0.011410
1116.000000	0.011573
1115.000000	0.011746
1114.000000	0.011931
1113.000000	0.012136
1112.000000	0.012362
1111.000000	0.012583
1110.000000	0.012766
1109.000000	0.012892
1108.000000	0.012967
1107.000000	0.013004
1106.000000	0.013011
1105.000000	0.012993
1104.000000	0.012962
1103.000000	0.012935
1102.000000	0.012935
1101.000000	0.012980
1100.000000	0.013067
1099.000000	0.013178
1098.000000	0.013291
1097.000000	0.013394
1096.000000	0.013490
1095.000000	0.013593
1094.000000	0.013712
1093.000000	0.013844
1092.000000	0.013967
1091.000000	0.014058
1090.000000	0.014110
1089.000000	0.014133
1088.000000	0.014144
1087.000000	0.014154
1086.000000	0.014171
1085.000000	0.014193
1084.000000	0.014198
1083.000000	0.014154
1082.000000	0.014050
1081.000000	0.013907
1080.000000	0.013753
1079.000000	0.013596
1078.000000	0.013426
1077.000000	0.013245
1076.000000	0.013063
1075.000000	0.012892
1074.000000	0.012734
1073.000000	0.012593
1072.000000	0.012480
1071.000000	0.012407
1070.000000	0.012369
1069.000000	0.012350
1068.000000	0.012340
1067.000000	0.012341
1066.000000	0.012371
1065.000000	0.012439
1064.000000	0.012528
1063.000000	0.012606
1062.000000	0.012640
1061.000000	0.012620
1060.000000	0.012556
1059.000000	0.012475
1058.000000	0.012402
1057.000000	0.012344
1056.000000	0.012291
1055.000000	0.012222
1054.000000	0.012133
1053.000000	0.012035
1052.000000	0.011942
1051.000000	0.011859
1050.000000	0.011786
1049.000000	0.011733
1048.000000	0.011705
1047.000000	0.011692
1046.000000	0.011677
1045.000000	0.011655
1044.000000	0.011638
1043.000000	0.011643
1042.000000	0.011683
1041.000000	0.011767
1040.000000	0.011893
1039.000000	0.012047
1038.000000	0.012210
1037.000000	0.012381
1036.000000	0.012572
1035.000000	0.012785
1034.000000	0.012996
1033.000000	0.013174
1032.000000	0.013305
1031.000000	0.013388
1030.000000	0.013428
1029.000000	0.013440
1028.000000	0.013442
1027.000000	0.013440
1026.000000	0.013417
1025.000000	0.013348
1024.000000	0.013233
1023.000000	0.013098
1022.000000	0.012967
1021.000000	0.012843
1020.000000	0.012731
1019.000000	0.012644
1018.000000	0.012593
1017.000000	0.012567
1016.000000	0.012535
1015.000000	0.012473
1014.000000	0.012384
1013.000000	0.012283
1012.000000	0.012184
1011.000000	0.012084
1010.000000	0.011971
1009.000000	0.011836
1008.000000	0.011686
1007.000000	0.011536
1006.000000	0.011391
1005.000000	0.011253
1004.000000	0.011123
1003.000000	0.011011
1002.000000	0.010914
1001.000000	0.010808
1000.000000	0.010669
999.000000	0.010499
998.000000	0.010329
997.000000	0.010185
996.000000	0.010066
995.000000	0.009960
994.000000	0.009865
993.000000	0.009781
992.000000	0.009703
991.000000	0.009612
990.000000	0.009495
989.000000	0.009359
988.000000	0.009229
987.000000	0.009132
986.000000	0.009076
985.000000	0.009046
984.000000	0.009013
983.000000	0.008965
982.000000	0.008909
981.000000	0.008869
980.000000	0.008864
979.000000	0.008889
978.000000	0.008923
977.000000	0.008948
976.000000	0.008962
975.000000	0.008978
974.000000	0.008999
973.000000	0.009015
972.000000	0.009010
971.000000	0.008983
970.000000	0.008942
969.000000	0.008893
968.000000	0.008834
967.000000	0.008762
966.000000	0.008675
965.000000	0.008575
964.000000	0.008470
963.000000	0.008369
962.000000	0.008285
961.000000	0.008212
960.000000	0.008139
959.000000	0.008057
958.000000	0.007974
957.000000	0.007899
956.000000	0.007825
955.000000	0.007743
954.000000	0.007648
953.000000	0.007552
952.000000	0.007461
951.000000	0.007378
950.000000	0.007299
949.000000	0.007223
948.000000	0.007143
947.000000	0.007053
946.000000	0.006949
945.000000	0.006839
944.000000	0.006742
943.000000	0.006680
942.000000	0.006655
941.000000	0.006646
940.000000	0.006624
939.000000	0.006574
938.000000	0.006507
937.000000	0.006447
936.000000	0.006405
935.000000	0.006373
934.000000	0.006329
933.000000	0.006258
932.000000	0.006159
931.000000	0.006046
930.000000	0.005938
929.000000	0.005850
928.000000	0.005787
927.000000	0.005741
926.000000	0.005698
925.000000	0.005650
924.000000	0.005602
923.000000	0.005558
922.000000	0.005513
921.000000	0.005460
920.000000	0.005399
919.000000	0.005342
918.000000	0.005292
917.000000	0.005231
916.000000	0.005135
915.000000	0.004999
914.000000	0.004853
913.000000	0.004734
912.000000	0.004656
911.000000	0.004606
910.000000	0.004560
909.000000	0.004509
908.000000	0.004456
907.000000	0.004402
906.000000	0.004343
905.000000	0.004276
904.000000	0.004208
903.000000	0.004150
902.000000	0.004109
901.000000	0.004079
900.000000	0.004054
899.000000	0.004024
898.000000	0.003984
897.000000	0.003932
896.000000	0.003874
895.000000	0.003817
894.000000	0.003764
893.000000	0.003712
892.000000	0.003665
891.000000	0.003635
890.000000	0.003639
889.000000	0.003695
888.000000	0.003823
887.000000	0.004060
886.000000	0.004429
885.000000	0.004921
884.000000	0.005483
883.000000	0.006066
882.000000	0.006667
881.000000	0.007331
880.000000	0.008097
879.000000	0.008956
878.000000	0.009847
877.000000	0.010685
876.000000	0.011378
875.000000	0.011831
874.000000	0.011973
873.000000	0.011784
872.000000	0.011302
871.000000	0.010612
870.000000	0.009820
869.000000	0.009034
868.000000	0.008337
867.000000	0.007765
866.000000	0.007303
865.000000	0.006908
864.000000	0.006545
863.000000	0.006213
862.000000	0.005929
861.000000	0.005705
860.000000	0.005531
859.000000	0.005389
858.000000	0.005262
857.000000	0.005134
856.000000	0.004997
855.000000	0.004858
854.000000	0.004745
853.000000	0.004685
852.000000	0.004690
851.000000	0.004750
850.000000	0.004839
849.000000	0.004917
848.000000	0.004935
847.000000	0.004861
846.000000	0.004712
845.000000	0.004538
844.000000	0.004384
843.000000	0.004263
842.000000	0.004178
841.000000	0.004128
840.000000	0.004095
839.000000	0.004049
838.000000	0.003973
837.000000	0.003891
836.000000	0.003830
835.000000	0.003793
834.000000	0.003761
833.000000	0.003738
832.000000	0.003743
831.000000	0.003773
830.000000	0.003796
829.000000	0.003790
828.000000	0.003769
827.000000	0.003764
826.000000	0.003784
825.000000	0.003819
824.000000	0.003857
823.000000	0.003878
822.000000	0.003864
821.000000	0.003811
820.000000	0.003743
819.000000	0.003697
818.000000	0.003694
817.000000	0.003726
816.000000	0.003771
815.000000	0.003807
814.000000	0.003821
813.000000	0.003817
812.000000	0.003806
811.000000	0.003791
810.000000	0.003769
809.000000	0.003739
808.000000	0.003716
807.000000	0.003710
806.000000	0.003722
805.000000	0.003743
804.000000	0.003766
803.000000	0.003789
802.000000	0.003805
801.000000	0.003813
800.000000	0.003822
799.000000	0.003839
798.000000	0.003854
797.000000	0.003850
796.000000	0.003817
795.000000	0.003771
794.000000	0.003743
793.000000	0.003754
792.000000	0.003797
791.000000	0.003835
790.000000	0.003835
789.000000	0.003804
788.000000	0.003778
787.000000	0.003783
786.000000	0.003802
785.000000	0.003804
784.000000	0.003785
783.000000	0.003768
782.000000	0.003773
781.000000	0.003787
780.000000	0.003786
779.000000	0.003765
778.000000	0.003745
777.000000	0.003747
776.000000	0.003775
775.000000	0.003810
774.000000	0.003836
773.000000	0.003852
772.000000	0.003856
771.000000	0.003846
770.000000	0.003825
769.000000	0.003815
768.000000	0.003832
767.000000	0.003866
766.000000	0.003890
765.000000	0.003898
764.000000	0.003912
763.000000	0.003951
762.000000	0.004006
761.000000	0.004049
760.000000	0.004065
759.000000	0.004054
758.000000	0.004021
757.000000	0.003980
756.000000	0.003952
755.000000	0.003944
754.000000	0.003955
753.000000	0.003983
752.000000	0.004034
751.000000	0.004102
750.000000	0.004157
749.000000	0.004177
748.000000	0.004179
747.000000	0.004205
746.000000	0.004266
745.000000	0.004327
744.000000	0.004352
743.000000	0.004345
742.000000	0.004338
741.000000	0.004349
740.000000	0.004371
739.000000	0.004390
738.000000	0.004405
737.000000	0.004435
736.000000	0.004493
735.000000	0.004580
734.000000	0.004682
733.000000	0.004783
732.000000	0.004869
731.000000	0.004920
730.000000	0.004924
729.000000	0.004901
728.000000	0.004890
727.000000	0.004913
726.000000	0.004956
725.000000	0.005000
724.000000	0.005051
723.000000	0.005117
722.000000	0.005192
721.000000	0.005267
720.000000	0.005348
719.000000	0.005463
718.000000	0.005640
717.000000	0.005920
716.000000	0.006348
715.000000	0.006926
714.000000	0.007546
713.000000	0.008014
712.000000	0.008183
711.000000	0.008056
710.000000	0.007763
709.000000	0.007450
708.000000	0.007199
707.000000	0.007024
706.000000	0.006909
705.000000	0.006849
704.000000	0.006851
703.000000	0.006920
702.000000	0.007031
701.000000	0.007126
700.000000	0.007152
699.000000	0.007102
698.000000	0.007017
697.000000	0.006957
696.000000	0.006942
695.000000	0.006953
694.000000	0.006959
693.000000	0.006954
692.000000	0.006965
691.000000	0.007007
690.000000	0.007053
689.000000	0.007075
688.000000	0.007088
687.000000	0.007143
686.000000	0.007245
685.000000	0.007342
684.000000	0.007392
683.000000	0.007405
682.000000	0.007409
681.000000	0.007406
680.000000	0.007394
679.000000	0.007392
678.000000	0.007410
677.000000	0.007439
676.000000	0.007477
675.000000	0.007530
674.000000	0.007588
673.000000	0.007610
672.000000	0.007557
671.000000	0.007438
670.000000	0.007293
669.000000	0.007188
668.000000	0.007245
667.000000	0.007454
666.000000	0.007540
665.000000	0.007535
664.000000	0.007552
663.000000	0.007592
662.000000	0.007640
661.000000	0.007702
660.000000	0.007788
659.000000	0.007882
658.000000	0.007962
657.000000	0.008046
656.000000	0.008142
655.000000	0.008210
654.000000	0.008226
653.000000	0.008220
652.000000	0.008219
651.000000	0.008214
650.000000	0.008202
649.000000	0.008210
648.000000	0.008254
647.000000	0.008314
646.000000	0.008394
645.000000	0.008526
644.000000	0.008693
643.000000	0.008822
642.000000	0.008867
641.000000	0.008876
640.000000	0.008917
639.000000	0.008996
638.000000	0.009076
637.000000	0.009138
636.000000	0.009179
635.000000	0.009184
634.000000	0.009162
633.000000	0.009154
632.000000	0.009189
631.000000	0.009239
630.000000	0.009257
629.000000	0.009233
628.000000	0.009187
627.000000	0.009143
626.000000	0.009132
625.000000	0.009186
624.000000	0.009302
623.000000	0.009438
622.000000	0.009553
621.000000	0.009626
620.000000	0.009648
619.000000	0.009628
618.000000	0.009609
617.000000	0.009643
616.000000	0.009719
615.000000	0.009768
614.000000	0.009747
613.000000	0.009697
612.000000	0.009690
611.000000	0.009743
610.000000	0.009816
609.000000	0.009865
608.000000	0.009869
607.000000	0.009840
606.000000	0.009815
605.000000	0.009817
604.000000	0.009811
603.000000	0.009750
602.000000	0.009639
601.000000	0.009531
600.000000	0.009447
599.000000	0.009361
598.000000	0.009264
597.000000	0.009184
596.000000	0.009120
595.000000	0.009020
594.000000	0.008870
593.000000	0.008751
592.000000	0.008751
591.000000	0.008861
590.000000	0.008991
589.000000	0.009070
588.000000	0.009085
587.000000	0.009049
586.000000	0.008989
585.000000	0.008952
584.000000	0.008973
583.000000	0.009036
582.000000	0.009100
581.000000	0.009147
580.000000	0.009192
579.000000	0.009253
578.000000	0.009318
577.000000	0.009351
576.000000	0.009315
575.000000	0.009221
574.000000	0.009145
573.000000	0.009166
572.000000	0.009276
571.000000	0.009399
570.000000	0.009493
569.000000	0.009582
568.000000	0.009686
567.000000	0.009763
566.000000	0.009777
565.000000	0.009758
564.000000	0.009759
563.000000	0.009785
562.000000	0.009829
561.000000	0.009911
560.000000	0.010034
559.000000	0.010143
558.000000	0.010179
557.000000	0.010141
556.000000	0.010069
555.000000	0.009978
554.000000	0.009876
553.000000	0.009800
552.000000	0.009784
551.000000	0.009821
550.000000	0.009883
549.000000	0.009949
548.000000	0.009964
547.000000	0.009848
546.000000	0.009604
545.000000	0.009374
544.000000	0.009300
543.000000	0.009372
542.000000	0.009463
541.000000	0.009483
540.000000	0.009452
539.000000	0.009421
538.000000	0.009420
537.000000	0.009471
536.000000	0.009588
535.000000	0.009760
534.000000	0.009953
533.000000	0.010115
532.000000	0.010192
531.000000	0.010157
530.000000	0.010071
529.000000	0.010043
528.000000	0.010104
527.000000	0.010161
526.000000	0.010123
525.000000	0.010028
524.000000	0.009983
523.000000	0.010021
522.000000	0.010085
521.000000	0.010090
520.000000	0.009962
519.000000	0.009676
518.000000	0.009344
517.000000	0.009167
516.000000	0.009213
515.000000	0.009324
514.000000	0.009316
513.000000	0.009193
512.000000	0.009085
511.000000	0.009049
510.000000	0.009037
509.000000	0.009006
508.000000	0.008962
507.000000	0.008893
506.000000	0.008776
505.000000	0.008644
504.000000	0.008558
503.000000	0.008527
502.000000	0.008498
501.000000	0.008437
500.000000	0.008351
499.000000	0.008232
498.000000	0.008067
497.000000	0.007901
496.000000	0.007803
495.000000	0.007780
494.000000	0.007768
493.000000	0.007710
492.000000	0.007586
491.000000	0.007387
490.000000	0.007127
489.000000	0.006884
488.000000	0.006760
487.000000	0.006789
486.000000	0.006914
485.000000	0.007034
484.000000	0.007070
483.000000	0.006987
482.000000	0.006819
481.000000	0.006660
480.000000	0.006596
479.000000	0.006650
478.000000	0.006787
477.000000	0.006944
476.000000	0.007042
475.000000	0.007016
474.000000	0.006887
473.000000	0.006763
472.000000	0.006721
471.000000	0.006717
470.000000	0.006672
469.000000	0.006573
468.000000	0.006453
467.000000	0.006345
466.000000	0.006296
465.000000	0.006324
464.000000	0.006345
463.000000	0.006206
462.000000	0.005888
461.000000	0.005566
460.000000	0.005373
459.000000	0.005234
458.000000	0.005024
457.000000	0.004848
456.000000	0.004922
455.000000	0.005199
454.000000	0.005385
453.000000	0.005211
452.000000	0.004631
451.000000	0.003861
450.000000	0.003267
