PE IR       SUBTECH     SPECTRUM    ASCII       PEDS        4.00        
   -1
Peau003_1.ASC
23/06/14
14:36:52.00
23/06/14
14:44:30.00
uco
Sample 003 By uco Date Wednesday, June 14 2023
450.000000
#HDR
-1
-1
#GR
cm-1
A
1.0
0.0
4000.000000
-1.000000
3551
8
0.021848
0.001316
#DATA
4000.000000	0.001767
3999.000000	0.001754
3998.000000	0.001741
3997.000000	0.001718
3996.000000	0.001699
3995.000000	0.001694
3994.000000	0.001705
3993.000000	0.001725
3992.000000	0.001744
3991.000000	0.001755
3990.000000	0.001757
3989.000000	0.001755
3988.000000	0.001757
3987.000000	0.001762
3986.000000	0.001766
3985.000000	0.001764
3984.000000	0.001754
3983.000000	0.001745
3982.000000	0.001746
3981.000000	0.001756
3980.000000	0.001765
3979.000000	0.001766
3978.000000	0.001762
3977.000000	0.001763
3976.000000	0.001776
3975.000000	0.001797
3974.000000	0.001814
3973.000000	0.001823
3972.000000	0.001823
3971.000000	0.001823
3970.000000	0.001823
3969.000000	0.001824
3968.000000	0.001823
3967.000000	0.001821
3966.000000	0.001820
3965.000000	0.001817
3964.000000	0.001810
3963.000000	0.001796
3962.000000	0.001779
3961.000000	0.001765
3960.000000	0.001759
3959.000000	0.001762
3958.000000	0.001769
3957.000000	0.001774
3956.000000	0.001775
3955.000000	0.001772
3954.000000	0.001770
3953.000000	0.001775
3952.000000	0.001788
3951.000000	0.001808
3950.000000	0.001829
3949.000000	0.001843
3948.000000	0.001845
3947.000000	0.001837
3946.000000	0.001824
3945.000000	0.001808
3944.000000	0.001794
3943.000000	0.001785
3942.000000	0.001785
3941.000000	0.001793
3940.000000	0.001804
3939.000000	0.001811
3938.000000	0.001814
3937.000000	0.001819
3936.000000	0.001829
3935.000000	0.001846
3934.000000	0.001862
3933.000000	0.001867
3932.000000	0.001856
3931.000000	0.001832
3930.000000	0.001805
3929.000000	0.001788
3928.000000	0.001788
3927.000000	0.001804
3926.000000	0.001824
3925.000000	0.001840
3924.000000	0.001846
3923.000000	0.001847
3922.000000	0.001847
3921.000000	0.001849
3920.000000	0.001856
3919.000000	0.001867
3918.000000	0.001877
3917.000000	0.001880
3916.000000	0.001876
3915.000000	0.001872
3914.000000	0.001871
3913.000000	0.001872
3912.000000	0.001869
3911.000000	0.001861
3910.000000	0.001854
3909.000000	0.001855
3908.000000	0.001867
3907.000000	0.001884
3906.000000	0.001900
3905.000000	0.001908
3904.000000	0.001908
3903.000000	0.001906
3902.000000	0.001905
3901.000000	0.001903
3900.000000	0.001895
3899.000000	0.001881
3898.000000	0.001866
3897.000000	0.001856
3896.000000	0.001853
3895.000000	0.001857
3894.000000	0.001864
3893.000000	0.001862
3892.000000	0.001842
3891.000000	0.001812
3890.000000	0.001792
3889.000000	0.001797
3888.000000	0.001819
3887.000000	0.001842
3886.000000	0.001854
3885.000000	0.001853
3884.000000	0.001851
3883.000000	0.001849
3882.000000	0.001844
3881.000000	0.001833
3880.000000	0.001824
3879.000000	0.001830
3878.000000	0.001856
3877.000000	0.001890
3876.000000	0.001913
3875.000000	0.001918
3874.000000	0.001909
3873.000000	0.001899
3872.000000	0.001896
3871.000000	0.001889
3870.000000	0.001870
3869.000000	0.001846
3868.000000	0.001832
3867.000000	0.001833
3866.000000	0.001837
3865.000000	0.001840
3864.000000	0.001844
3863.000000	0.001852
3862.000000	0.001862
3861.000000	0.001866
3860.000000	0.001864
3859.000000	0.001859
3858.000000	0.001856
3857.000000	0.001863
3856.000000	0.001885
3855.000000	0.001919
3854.000000	0.001951
3853.000000	0.001960
3852.000000	0.001952
3851.000000	0.001945
3850.000000	0.001942
3849.000000	0.001935
3848.000000	0.001923
3847.000000	0.001905
3846.000000	0.001880
3845.000000	0.001855
3844.000000	0.001840
3843.000000	0.001843
3842.000000	0.001861
3841.000000	0.001884
3840.000000	0.001900
3839.000000	0.001902
3838.000000	0.001890
3837.000000	0.001873
3836.000000	0.001860
3835.000000	0.001850
3834.000000	0.001840
3833.000000	0.001828
3832.000000	0.001821
3831.000000	0.001825
3830.000000	0.001844
3829.000000	0.001870
3828.000000	0.001894
3827.000000	0.001908
3826.000000	0.001919
3825.000000	0.001936
3824.000000	0.001964
3823.000000	0.001988
3822.000000	0.001988
3821.000000	0.001953
3820.000000	0.001902
3819.000000	0.001864
3818.000000	0.001844
3817.000000	0.001831
3816.000000	0.001816
3815.000000	0.001804
3814.000000	0.001806
3813.000000	0.001823
3812.000000	0.001842
3811.000000	0.001857
3810.000000	0.001862
3809.000000	0.001854
3808.000000	0.001838
3807.000000	0.001824
3806.000000	0.001828
3805.000000	0.001849
3804.000000	0.001870
3803.000000	0.001868
3802.000000	0.001837
3801.000000	0.001797
3800.000000	0.001779
3799.000000	0.001790
3798.000000	0.001809
3797.000000	0.001819
3796.000000	0.001818
3795.000000	0.001812
3794.000000	0.001807
3793.000000	0.001807
3792.000000	0.001816
3791.000000	0.001836
3790.000000	0.001864
3789.000000	0.001889
3788.000000	0.001902
3787.000000	0.001899
3786.000000	0.001882
3785.000000	0.001856
3784.000000	0.001831
3783.000000	0.001821
3782.000000	0.001833
3781.000000	0.001859
3780.000000	0.001882
3779.000000	0.001889
3778.000000	0.001882
3777.000000	0.001870
3776.000000	0.001859
3775.000000	0.001846
3774.000000	0.001835
3773.000000	0.001834
3772.000000	0.001850
3771.000000	0.001879
3770.000000	0.001907
3769.000000	0.001919
3768.000000	0.001910
3767.000000	0.001884
3766.000000	0.001854
3765.000000	0.001834
3764.000000	0.001836
3763.000000	0.001858
3762.000000	0.001884
3761.000000	0.001896
3760.000000	0.001888
3759.000000	0.001871
3758.000000	0.001860
3757.000000	0.001853
3756.000000	0.001837
3755.000000	0.001807
3754.000000	0.001779
3753.000000	0.001781
3752.000000	0.001829
3751.000000	0.001897
3750.000000	0.001936
3749.000000	0.001932
3748.000000	0.001910
3747.000000	0.001892
3746.000000	0.001879
3745.000000	0.001865
3744.000000	0.001848
3743.000000	0.001839
3742.000000	0.001840
3741.000000	0.001836
3740.000000	0.001815
3739.000000	0.001786
3738.000000	0.001761
3737.000000	0.001743
3736.000000	0.001728
3735.000000	0.001713
3734.000000	0.001704
3733.000000	0.001705
3732.000000	0.001720
3731.000000	0.001749
3730.000000	0.001790
3729.000000	0.001837
3728.000000	0.001875
3727.000000	0.001895
3726.000000	0.001896
3725.000000	0.001888
3724.000000	0.001876
3723.000000	0.001859
3722.000000	0.001836
3721.000000	0.001814
3720.000000	0.001799
3719.000000	0.001791
3718.000000	0.001790
3717.000000	0.001798
3716.000000	0.001820
3715.000000	0.001853
3714.000000	0.001886
3713.000000	0.001902
3712.000000	0.001890
3711.000000	0.001851
3710.000000	0.001800
3709.000000	0.001754
3708.000000	0.001722
3707.000000	0.001709
3706.000000	0.001719
3705.000000	0.001744
3704.000000	0.001771
3703.000000	0.001784
3702.000000	0.001779
3701.000000	0.001762
3700.000000	0.001742
3699.000000	0.001725
3698.000000	0.001713
3697.000000	0.001710
3696.000000	0.001720
3695.000000	0.001748
3694.000000	0.001784
3693.000000	0.001817
3692.000000	0.001830
3691.000000	0.001815
3690.000000	0.001776
3689.000000	0.001732
3688.000000	0.001706
3687.000000	0.001706
3686.000000	0.001719
3685.000000	0.001731
3684.000000	0.001737
3683.000000	0.001744
3682.000000	0.001758
3681.000000	0.001778
3680.000000	0.001794
3679.000000	0.001805
3678.000000	0.001817
3677.000000	0.001833
3676.000000	0.001840
3675.000000	0.001828
3674.000000	0.001809
3673.000000	0.001802
3672.000000	0.001803
3671.000000	0.001797
3670.000000	0.001779
3669.000000	0.001762
3668.000000	0.001765
3667.000000	0.001789
3666.000000	0.001818
3665.000000	0.001841
3664.000000	0.001852
3663.000000	0.001853
3662.000000	0.001849
3661.000000	0.001843
3660.000000	0.001841
3659.000000	0.001845
3658.000000	0.001855
3657.000000	0.001869
3656.000000	0.001887
3655.000000	0.001910
3654.000000	0.001937
3653.000000	0.001965
3652.000000	0.001987
3651.000000	0.002007
3650.000000	0.002032
3649.000000	0.002061
3648.000000	0.002088
3647.000000	0.002104
3646.000000	0.002110
3645.000000	0.002111
3644.000000	0.002109
3643.000000	0.002104
3642.000000	0.002099
3641.000000	0.002095
3640.000000	0.002095
3639.000000	0.002097
3638.000000	0.002104
3637.000000	0.002121
3636.000000	0.002150
3635.000000	0.002177
3634.000000	0.002185
3633.000000	0.002172
3632.000000	0.002153
3631.000000	0.002145
3630.000000	0.002158
3629.000000	0.002184
3628.000000	0.002211
3627.000000	0.002235
3626.000000	0.002259
3625.000000	0.002277
3624.000000	0.002283
3623.000000	0.002278
3622.000000	0.002269
3621.000000	0.002267
3620.000000	0.002279
3619.000000	0.002309
3618.000000	0.002349
3617.000000	0.002392
3616.000000	0.002429
3615.000000	0.002450
3614.000000	0.002450
3613.000000	0.002433
3612.000000	0.002417
3611.000000	0.002423
3610.000000	0.002459
3609.000000	0.002507
3608.000000	0.002538
3607.000000	0.002538
3606.000000	0.002523
3605.000000	0.002515
3604.000000	0.002523
3603.000000	0.002539
3602.000000	0.002555
3601.000000	0.002573
3600.000000	0.002594
3599.000000	0.002617
3598.000000	0.002640
3597.000000	0.002665
3596.000000	0.002691
3595.000000	0.002712
3594.000000	0.002721
3593.000000	0.002724
3592.000000	0.002737
3591.000000	0.002766
3590.000000	0.002806
3589.000000	0.002842
3588.000000	0.002859
3587.000000	0.002858
3586.000000	0.002856
3585.000000	0.002867
3584.000000	0.002894
3583.000000	0.002930
3582.000000	0.002968
3581.000000	0.003001
3580.000000	0.003027
3579.000000	0.003049
3578.000000	0.003074
3577.000000	0.003107
3576.000000	0.003148
3575.000000	0.003190
3574.000000	0.003223
3573.000000	0.003248
3572.000000	0.003268
3571.000000	0.003291
3570.000000	0.003321
3569.000000	0.003357
3568.000000	0.003394
3567.000000	0.003420
3566.000000	0.003430
3565.000000	0.003433
3564.000000	0.003439
3563.000000	0.003455
3562.000000	0.003480
3561.000000	0.003510
3560.000000	0.003542
3559.000000	0.003571
3558.000000	0.003594
3557.000000	0.003613
3556.000000	0.003628
3555.000000	0.003643
3554.000000	0.003661
3553.000000	0.003686
3552.000000	0.003718
3551.000000	0.003753
3550.000000	0.003784
3549.000000	0.003807
3548.000000	0.003823
3547.000000	0.003834
3546.000000	0.003840
3545.000000	0.003839
3544.000000	0.003831
3543.000000	0.003822
3542.000000	0.003818
3541.000000	0.003825
3540.000000	0.003847
3539.000000	0.003882
3538.000000	0.003924
3537.000000	0.003965
3536.000000	0.004001
3535.000000	0.004037
3534.000000	0.004075
3533.000000	0.004117
3532.000000	0.004155
3531.000000	0.004181
3530.000000	0.004194
3529.000000	0.004193
3528.000000	0.004187
3527.000000	0.004188
3526.000000	0.004207
3525.000000	0.004245
3524.000000	0.004293
3523.000000	0.004336
3522.000000	0.004366
3521.000000	0.004384
3520.000000	0.004396
3519.000000	0.004406
3518.000000	0.004419
3517.000000	0.004438
3516.000000	0.004463
3515.000000	0.004492
3514.000000	0.004517
3513.000000	0.004538
3512.000000	0.004557
3511.000000	0.004579
3510.000000	0.004604
3509.000000	0.004631
3508.000000	0.004658
3507.000000	0.004686
3506.000000	0.004717
3505.000000	0.004750
3504.000000	0.004781
3503.000000	0.004797
3502.000000	0.004794
3501.000000	0.004779
3500.000000	0.004765
3499.000000	0.004762
3498.000000	0.004769
3497.000000	0.004785
3496.000000	0.004810
3495.000000	0.004845
3494.000000	0.004886
3493.000000	0.004922
3492.000000	0.004943
3491.000000	0.004952
3490.000000	0.004966
3489.000000	0.004997
3488.000000	0.005043
3487.000000	0.005093
3486.000000	0.005129
3485.000000	0.005142
3484.000000	0.005136
3483.000000	0.005121
3482.000000	0.005115
3481.000000	0.005127
3480.000000	0.005158
3479.000000	0.005196
3478.000000	0.005227
3477.000000	0.005240
3476.000000	0.005237
3475.000000	0.005230
3474.000000	0.005231
3473.000000	0.005245
3472.000000	0.005271
3471.000000	0.005306
3470.000000	0.005346
3469.000000	0.005390
3468.000000	0.005431
3467.000000	0.005461
3466.000000	0.005474
3465.000000	0.005477
3464.000000	0.005478
3463.000000	0.005484
3462.000000	0.005491
3461.000000	0.005496
3460.000000	0.005499
3459.000000	0.005507
3458.000000	0.005521
3457.000000	0.005542
3456.000000	0.005568
3455.000000	0.005598
3454.000000	0.005627
3453.000000	0.005652
3452.000000	0.005671
3451.000000	0.005688
3450.000000	0.005705
3449.000000	0.005720
3448.000000	0.005732
3447.000000	0.005742
3446.000000	0.005757
3445.000000	0.005779
3444.000000	0.005805
3443.000000	0.005829
3442.000000	0.005849
3441.000000	0.005865
3440.000000	0.005876
3439.000000	0.005882
3438.000000	0.005888
3437.000000	0.005894
3436.000000	0.005903
3435.000000	0.005914
3434.000000	0.005927
3433.000000	0.005942
3432.000000	0.005958
3431.000000	0.005973
3430.000000	0.005985
3429.000000	0.005992
3428.000000	0.005998
3427.000000	0.006009
3426.000000	0.006031
3425.000000	0.006060
3424.000000	0.006087
3423.000000	0.006108
3422.000000	0.006124
3421.000000	0.006144
3420.000000	0.006173
3419.000000	0.006214
3418.000000	0.006261
3417.000000	0.006308
3416.000000	0.006346
3415.000000	0.006373
3414.000000	0.006392
3413.000000	0.006407
3412.000000	0.006422
3411.000000	0.006439
3410.000000	0.006458
3409.000000	0.006475
3408.000000	0.006487
3407.000000	0.006491
3406.000000	0.006488
3405.000000	0.006479
3404.000000	0.006470
3403.000000	0.006465
3402.000000	0.006473
3401.000000	0.006499
3400.000000	0.006543
3399.000000	0.006592
3398.000000	0.006636
3397.000000	0.006670
3396.000000	0.006701
3395.000000	0.006735
3394.000000	0.006774
3393.000000	0.006812
3392.000000	0.006839
3391.000000	0.006854
3390.000000	0.006858
3389.000000	0.006858
3388.000000	0.006859
3387.000000	0.006864
3386.000000	0.006875
3385.000000	0.006893
3384.000000	0.006915
3383.000000	0.006936
3382.000000	0.006951
3381.000000	0.006963
3380.000000	0.006978
3379.000000	0.007001
3378.000000	0.007034
3377.000000	0.007073
3376.000000	0.007106
3375.000000	0.007127
3374.000000	0.007139
3373.000000	0.007154
3372.000000	0.007183
3371.000000	0.007231
3370.000000	0.007293
3369.000000	0.007360
3368.000000	0.007417
3367.000000	0.007452
3366.000000	0.007460
3365.000000	0.007450
3364.000000	0.007440
3363.000000	0.007445
3362.000000	0.007466
3361.000000	0.007497
3360.000000	0.007535
3359.000000	0.007582
3358.000000	0.007635
3357.000000	0.007690
3356.000000	0.007736
3355.000000	0.007771
3354.000000	0.007793
3353.000000	0.007806
3352.000000	0.007813
3351.000000	0.007820
3350.000000	0.007832
3349.000000	0.007855
3348.000000	0.007895
3347.000000	0.007949
3346.000000	0.008011
3345.000000	0.008073
3344.000000	0.008123
3343.000000	0.008161
3342.000000	0.008190
3341.000000	0.008218
3340.000000	0.008252
3339.000000	0.008296
3338.000000	0.008347
3337.000000	0.008398
3336.000000	0.008445
3335.000000	0.008488
3334.000000	0.008529
3333.000000	0.008567
3332.000000	0.008599
3331.000000	0.008621
3330.000000	0.008635
3329.000000	0.008644
3328.000000	0.008653
3327.000000	0.008669
3326.000000	0.008694
3325.000000	0.008727
3324.000000	0.008762
3323.000000	0.008793
3322.000000	0.008816
3321.000000	0.008827
3320.000000	0.008827
3319.000000	0.008824
3318.000000	0.008838
3317.000000	0.008878
3316.000000	0.008939
3315.000000	0.009000
3314.000000	0.009041
3313.000000	0.009058
3312.000000	0.009057
3311.000000	0.009053
3310.000000	0.009059
3309.000000	0.009079
3308.000000	0.009104
3307.000000	0.009123
3306.000000	0.009129
3305.000000	0.009132
3304.000000	0.009144
3303.000000	0.009170
3302.000000	0.009203
3301.000000	0.009231
3300.000000	0.009250
3299.000000	0.009261
3298.000000	0.009266
3297.000000	0.009270
3296.000000	0.009271
3295.000000	0.009274
3294.000000	0.009279
3293.000000	0.009288
3292.000000	0.009299
3291.000000	0.009311
3290.000000	0.009326
3289.000000	0.009342
3288.000000	0.009356
3287.000000	0.009360
3286.000000	0.009355
3285.000000	0.009345
3284.000000	0.009338
3283.000000	0.009337
3282.000000	0.009343
3281.000000	0.009349
3280.000000	0.009344
3279.000000	0.009327
3278.000000	0.009302
3277.000000	0.009282
3276.000000	0.009268
3275.000000	0.009257
3274.000000	0.009241
3273.000000	0.009220
3272.000000	0.009199
3271.000000	0.009186
3270.000000	0.009184
3269.000000	0.009191
3268.000000	0.009197
3267.000000	0.009194
3266.000000	0.009177
3265.000000	0.009151
3264.000000	0.009116
3263.000000	0.009077
3262.000000	0.009041
3261.000000	0.009019
3260.000000	0.009015
3259.000000	0.009020
3258.000000	0.009018
3257.000000	0.009003
3256.000000	0.008978
3255.000000	0.008951
3254.000000	0.008927
3253.000000	0.008908
3252.000000	0.008888
3251.000000	0.008868
3250.000000	0.008849
3249.000000	0.008834
3248.000000	0.008819
3247.000000	0.008800
3246.000000	0.008775
3245.000000	0.008746
3244.000000	0.008719
3243.000000	0.008697
3242.000000	0.008682
3241.000000	0.008674
3240.000000	0.008671
3239.000000	0.008670
3238.000000	0.008663
3237.000000	0.008644
3236.000000	0.008614
3235.000000	0.008582
3234.000000	0.008557
3233.000000	0.008544
3232.000000	0.008545
3231.000000	0.008548
3230.000000	0.008541
3229.000000	0.008517
3228.000000	0.008481
3227.000000	0.008447
3226.000000	0.008426
3225.000000	0.008423
3224.000000	0.008429
3223.000000	0.008433
3222.000000	0.008424
3221.000000	0.008403
3220.000000	0.008379
3219.000000	0.008369
3218.000000	0.008377
3217.000000	0.008393
3216.000000	0.008401
3215.000000	0.008391
3214.000000	0.008363
3213.000000	0.008323
3212.000000	0.008277
3211.000000	0.008235
3210.000000	0.008204
3209.000000	0.008190
3208.000000	0.008186
3207.000000	0.008185
3206.000000	0.008184
3205.000000	0.008185
3204.000000	0.008185
3203.000000	0.008178
3202.000000	0.008160
3201.000000	0.008132
3200.000000	0.008105
3199.000000	0.008085
3198.000000	0.008071
3197.000000	0.008057
3196.000000	0.008040
3195.000000	0.008020
3194.000000	0.008000
3193.000000	0.007979
3192.000000	0.007954
3191.000000	0.007926
3190.000000	0.007899
3189.000000	0.007879
3188.000000	0.007872
3187.000000	0.007870
3186.000000	0.007863
3185.000000	0.007838
3184.000000	0.007799
3183.000000	0.007759
3182.000000	0.007729
3181.000000	0.007706
3180.000000	0.007679
3179.000000	0.007644
3178.000000	0.007606
3177.000000	0.007573
3176.000000	0.007549
3175.000000	0.007533
3174.000000	0.007522
3173.000000	0.007513
3172.000000	0.007499
3171.000000	0.007481
3170.000000	0.007455
3169.000000	0.007419
3168.000000	0.007375
3167.000000	0.007331
3166.000000	0.007297
3165.000000	0.007276
3164.000000	0.007258
3163.000000	0.007235
3162.000000	0.007208
3161.000000	0.007183
3160.000000	0.007158
3159.000000	0.007129
3158.000000	0.007100
3157.000000	0.007078
3156.000000	0.007067
3155.000000	0.007058
3154.000000	0.007043
3153.000000	0.007018
3152.000000	0.006986
3151.000000	0.006953
3150.000000	0.006920
3149.000000	0.006886
3148.000000	0.006851
3147.000000	0.006817
3146.000000	0.006791
3145.000000	0.006773
3144.000000	0.006760
3143.000000	0.006743
3142.000000	0.006721
3141.000000	0.006696
3140.000000	0.006670
3139.000000	0.006648
3138.000000	0.006635
3137.000000	0.006633
3136.000000	0.006634
3135.000000	0.006623
3134.000000	0.006601
3133.000000	0.006575
3132.000000	0.006557
3131.000000	0.006544
3130.000000	0.006531
3129.000000	0.006518
3128.000000	0.006511
3127.000000	0.006506
3126.000000	0.006497
3125.000000	0.006478
3124.000000	0.006454
3123.000000	0.006429
3122.000000	0.006406
3121.000000	0.006390
3120.000000	0.006382
3119.000000	0.006378
3118.000000	0.006373
3117.000000	0.006367
3116.000000	0.006366
3115.000000	0.006379
3114.000000	0.006404
3113.000000	0.006430
3112.000000	0.006446
3111.000000	0.006453
3110.000000	0.006458
3109.000000	0.006465
3108.000000	0.006472
3107.000000	0.006473
3106.000000	0.006470
3105.000000	0.006468
3104.000000	0.006477
3103.000000	0.006496
3102.000000	0.006522
3101.000000	0.006548
3100.000000	0.006572
3099.000000	0.006594
3098.000000	0.006607
3097.000000	0.006606
3096.000000	0.006593
3095.000000	0.006583
3094.000000	0.006584
3093.000000	0.006596
3092.000000	0.006611
3091.000000	0.006628
3090.000000	0.006651
3089.000000	0.006678
3088.000000	0.006704
3087.000000	0.006721
3086.000000	0.006726
3085.000000	0.006722
3084.000000	0.006717
3083.000000	0.006716
3082.000000	0.006720
3081.000000	0.006721
3080.000000	0.006714
3079.000000	0.006704
3078.000000	0.006702
3077.000000	0.006714
3076.000000	0.006738
3075.000000	0.006764
3074.000000	0.006787
3073.000000	0.006805
3072.000000	0.006816
3071.000000	0.006817
3070.000000	0.006810
3069.000000	0.006801
3068.000000	0.006795
3067.000000	0.006794
3066.000000	0.006789
3065.000000	0.006775
3064.000000	0.006754
3063.000000	0.006736
3062.000000	0.006725
3061.000000	0.006717
3060.000000	0.006704
3059.000000	0.006684
3058.000000	0.006666
3057.000000	0.006652
3056.000000	0.006640
3055.000000	0.006625
3054.000000	0.006610
3053.000000	0.006598
3052.000000	0.006587
3051.000000	0.006573
3050.000000	0.006557
3049.000000	0.006538
3048.000000	0.006513
3047.000000	0.006481
3046.000000	0.006442
3045.000000	0.006401
3044.000000	0.006362
3043.000000	0.006333
3042.000000	0.006316
3041.000000	0.006310
3040.000000	0.006305
3039.000000	0.006290
3038.000000	0.006262
3037.000000	0.006224
3036.000000	0.006183
3035.000000	0.006150
3034.000000	0.006132
3033.000000	0.006129
3032.000000	0.006127
3031.000000	0.006112
3030.000000	0.006081
3029.000000	0.006045
3028.000000	0.006017
3027.000000	0.006002
3026.000000	0.005999
3025.000000	0.006000
3024.000000	0.005995
3023.000000	0.005981
3022.000000	0.005959
3021.000000	0.005937
3020.000000	0.005915
3019.000000	0.005890
3018.000000	0.005858
3017.000000	0.005821
3016.000000	0.005791
3015.000000	0.005776
3014.000000	0.005772
3013.000000	0.005766
3012.000000	0.005746
3011.000000	0.005717
3010.000000	0.005699
3009.000000	0.005705
3008.000000	0.005732
3007.000000	0.005763
3006.000000	0.005785
3005.000000	0.005796
3004.000000	0.005799
3003.000000	0.005799
3002.000000	0.005802
3001.000000	0.005816
3000.000000	0.005841
2999.000000	0.005869
2998.000000	0.005892
2997.000000	0.005912
2996.000000	0.005938
2995.000000	0.005977
2994.000000	0.006027
2993.000000	0.006084
2992.000000	0.006139
2991.000000	0.006188
2990.000000	0.006231
2989.000000	0.006272
2988.000000	0.006316
2987.000000	0.006365
2986.000000	0.006418
2985.000000	0.006473
2984.000000	0.006531
2983.000000	0.006598
2982.000000	0.006677
2981.000000	0.006766
2980.000000	0.006859
2979.000000	0.006949
2978.000000	0.007039
2977.000000	0.007134
2976.000000	0.007236
2975.000000	0.007345
2974.000000	0.007459
2973.000000	0.007577
2972.000000	0.007697
2971.000000	0.007824
2970.000000	0.007970
2969.000000	0.008139
2968.000000	0.008318
2967.000000	0.008487
2966.000000	0.008635
2965.000000	0.008766
2964.000000	0.008886
2963.000000	0.008996
2962.000000	0.009087
2961.000000	0.009156
2960.000000	0.009204
2959.000000	0.009235
2958.000000	0.009255
2957.000000	0.009262
2956.000000	0.009249
2955.000000	0.009208
2954.000000	0.009145
2953.000000	0.009077
2952.000000	0.009021
2951.000000	0.008981
2950.000000	0.008952
2949.000000	0.008928
2948.000000	0.008908
2947.000000	0.008896
2946.000000	0.008904
2945.000000	0.008942
2944.000000	0.009014
2943.000000	0.009111
2942.000000	0.009219
2941.000000	0.009335
2940.000000	0.009458
2939.000000	0.009591
2938.000000	0.009731
2937.000000	0.009873
2936.000000	0.010003
2935.000000	0.010108
2934.000000	0.010183
2933.000000	0.010231
2932.000000	0.010264
2931.000000	0.010289
2930.000000	0.010307
2929.000000	0.010318
2928.000000	0.010320
2927.000000	0.010313
2926.000000	0.010290
2925.000000	0.010245
2924.000000	0.010178
2923.000000	0.010093
2922.000000	0.010001
2921.000000	0.009906
2920.000000	0.009802
2919.000000	0.009676
2918.000000	0.009524
2917.000000	0.009368
2916.000000	0.009231
2915.000000	0.009121
2914.000000	0.009025
2913.000000	0.008927
2912.000000	0.008817
2911.000000	0.008700
2910.000000	0.008581
2909.000000	0.008467
2908.000000	0.008360
2907.000000	0.008259
2906.000000	0.008160
2905.000000	0.008062
2904.000000	0.007970
2903.000000	0.007886
2902.000000	0.007806
2901.000000	0.007721
2900.000000	0.007633
2899.000000	0.007548
2898.000000	0.007470
2897.000000	0.007396
2896.000000	0.007318
2895.000000	0.007233
2894.000000	0.007145
2893.000000	0.007067
2892.000000	0.007008
2891.000000	0.006973
2890.000000	0.006953
2889.000000	0.006941
2888.000000	0.006932
2887.000000	0.006928
2886.000000	0.006934
2885.000000	0.006949
2884.000000	0.006975
2883.000000	0.007012
2882.000000	0.007059
2881.000000	0.007111
2880.000000	0.007167
2879.000000	0.007229
2878.000000	0.007308
2877.000000	0.007404
2876.000000	0.007502
2875.000000	0.007580
2874.000000	0.007622
2873.000000	0.007629
2872.000000	0.007615
2871.000000	0.007595
2870.000000	0.007581
2869.000000	0.007574
2868.000000	0.007570
2867.000000	0.007563
2866.000000	0.007554
2865.000000	0.007551
2864.000000	0.007566
2863.000000	0.007603
2862.000000	0.007656
2861.000000	0.007710
2860.000000	0.007750
2859.000000	0.007770
2858.000000	0.007773
2857.000000	0.007764
2856.000000	0.007739
2855.000000	0.007690
2854.000000	0.007614
2853.000000	0.007513
2852.000000	0.007393
2851.000000	0.007257
2850.000000	0.007113
2849.000000	0.006969
2848.000000	0.006832
2847.000000	0.006701
2846.000000	0.006573
2845.000000	0.006446
2844.000000	0.006324
2843.000000	0.006213
2842.000000	0.006113
2841.000000	0.006020
2840.000000	0.005932
2839.000000	0.005850
2838.000000	0.005779
2837.000000	0.005721
2836.000000	0.005675
2835.000000	0.005636
2834.000000	0.005602
2833.000000	0.005567
2832.000000	0.005529
2831.000000	0.005488
2830.000000	0.005447
2829.000000	0.005417
2828.000000	0.005402
2827.000000	0.005396
2826.000000	0.005388
2825.000000	0.005371
2824.000000	0.005343
2823.000000	0.005313
2822.000000	0.005290
2821.000000	0.005278
2820.000000	0.005272
2819.000000	0.005264
2818.000000	0.005252
2817.000000	0.005239
2816.000000	0.005228
2815.000000	0.005216
2814.000000	0.005202
2813.000000	0.005188
2812.000000	0.005173
2811.000000	0.005151
2810.000000	0.005120
2809.000000	0.005088
2808.000000	0.005064
2807.000000	0.005054
2806.000000	0.005055
2805.000000	0.005058
2804.000000	0.005056
2803.000000	0.005048
2802.000000	0.005037
2801.000000	0.005030
2800.000000	0.005033
2799.000000	0.005042
2798.000000	0.005048
2797.000000	0.005040
2796.000000	0.005015
2795.000000	0.004980
2794.000000	0.004949
2793.000000	0.004934
2792.000000	0.004938
2791.000000	0.004952
2790.000000	0.004960
2789.000000	0.004954
2788.000000	0.004935
2787.000000	0.004909
2786.000000	0.004884
2785.000000	0.004864
2784.000000	0.004854
2783.000000	0.004851
2782.000000	0.004850
2781.000000	0.004845
2780.000000	0.004832
2779.000000	0.004815
2778.000000	0.004797
2777.000000	0.004784
2776.000000	0.004776
2775.000000	0.004769
2774.000000	0.004757
2773.000000	0.004742
2772.000000	0.004730
2771.000000	0.004725
2770.000000	0.004724
2769.000000	0.004722
2768.000000	0.004716
2767.000000	0.004708
2766.000000	0.004701
2765.000000	0.004695
2764.000000	0.004694
2763.000000	0.004698
2762.000000	0.004707
2761.000000	0.004718
2760.000000	0.004724
2759.000000	0.004719
2758.000000	0.004702
2757.000000	0.004679
2756.000000	0.004658
2755.000000	0.004643
2754.000000	0.004630
2753.000000	0.004614
2752.000000	0.004596
2751.000000	0.004583
2750.000000	0.004579
2749.000000	0.004581
2748.000000	0.004584
2747.000000	0.004582
2746.000000	0.004576
2745.000000	0.004569
2744.000000	0.004566
2743.000000	0.004569
2742.000000	0.004578
2741.000000	0.004591
2740.000000	0.004600
2739.000000	0.004595
2738.000000	0.004574
2737.000000	0.004544
2736.000000	0.004518
2735.000000	0.004505
2734.000000	0.004504
2733.000000	0.004508
2732.000000	0.004509
2731.000000	0.004506
2730.000000	0.004500
2729.000000	0.004493
2728.000000	0.004487
2727.000000	0.004482
2726.000000	0.004474
2725.000000	0.004461
2724.000000	0.004445
2723.000000	0.004439
2722.000000	0.004445
2721.000000	0.004457
2720.000000	0.004465
2719.000000	0.004463
2718.000000	0.004457
2717.000000	0.004454
2716.000000	0.004451
2715.000000	0.004440
2714.000000	0.004414
2713.000000	0.004384
2712.000000	0.004364
2711.000000	0.004365
2710.000000	0.004377
2709.000000	0.004386
2708.000000	0.004380
2707.000000	0.004363
2706.000000	0.004345
2705.000000	0.004333
2704.000000	0.004328
2703.000000	0.004327
2702.000000	0.004325
2701.000000	0.004321
2700.000000	0.004319
2699.000000	0.004320
2698.000000	0.004324
2697.000000	0.004327
2696.000000	0.004328
2695.000000	0.004326
2694.000000	0.004325
2693.000000	0.004324
2692.000000	0.004323
2691.000000	0.004320
2690.000000	0.004315
2689.000000	0.004310
2688.000000	0.004304
2687.000000	0.004296
2686.000000	0.004284
2685.000000	0.004270
2684.000000	0.004258
2683.000000	0.004251
2682.000000	0.004248
2681.000000	0.004246
2680.000000	0.004245
2679.000000	0.004249
2678.000000	0.004262
2677.000000	0.004277
2676.000000	0.004287
2675.000000	0.004290
2674.000000	0.004289
2673.000000	0.004287
2672.000000	0.004275
2671.000000	0.004250
2670.000000	0.004219
2669.000000	0.004197
2668.000000	0.004195
2667.000000	0.004210
2666.000000	0.004230
2665.000000	0.004244
2664.000000	0.004253
2663.000000	0.004266
2662.000000	0.004287
2661.000000	0.004311
2660.000000	0.004325
2659.000000	0.004321
2658.000000	0.004307
2657.000000	0.004292
2656.000000	0.004282
2655.000000	0.004275
2654.000000	0.004266
2653.000000	0.004252
2652.000000	0.004238
2651.000000	0.004226
2650.000000	0.004220
2649.000000	0.004215
2648.000000	0.004206
2647.000000	0.004192
2646.000000	0.004182
2645.000000	0.004178
2644.000000	0.004171
2643.000000	0.004153
2642.000000	0.004127
2641.000000	0.004107
2640.000000	0.004102
2639.000000	0.004109
2638.000000	0.004121
2637.000000	0.004126
2636.000000	0.004117
2635.000000	0.004092
2634.000000	0.004056
2633.000000	0.004024
2632.000000	0.004004
2631.000000	0.003999
2630.000000	0.004001
2629.000000	0.004001
2628.000000	0.003995
2627.000000	0.003982
2626.000000	0.003965
2625.000000	0.003948
2624.000000	0.003937
2623.000000	0.003932
2622.000000	0.003928
2621.000000	0.003915
2620.000000	0.003891
2619.000000	0.003869
2618.000000	0.003863
2617.000000	0.003875
2616.000000	0.003891
2615.000000	0.003897
2614.000000	0.003895
2613.000000	0.003898
2612.000000	0.003909
2611.000000	0.003917
2610.000000	0.003913
2609.000000	0.003895
2608.000000	0.003869
2607.000000	0.003841
2606.000000	0.003817
2605.000000	0.003800
2604.000000	0.003791
2603.000000	0.003790
2602.000000	0.003797
2601.000000	0.003805
2600.000000	0.003804
2599.000000	0.003783
2598.000000	0.003746
2597.000000	0.003706
2596.000000	0.003679
2595.000000	0.003667
2594.000000	0.003662
2593.000000	0.003654
2592.000000	0.003641
2591.000000	0.003630
2590.000000	0.003632
2589.000000	0.003649
2588.000000	0.003667
2587.000000	0.003663
2586.000000	0.003630
2585.000000	0.003581
2584.000000	0.003542
2583.000000	0.003531
2582.000000	0.003548
2581.000000	0.003571
2580.000000	0.003574
2579.000000	0.003545
2578.000000	0.003501
2577.000000	0.003472
2576.000000	0.003478
2575.000000	0.003513
2574.000000	0.003554
2573.000000	0.003585
2572.000000	0.003603
2571.000000	0.003611
2570.000000	0.003611
2569.000000	0.003599
2568.000000	0.003571
2567.000000	0.003532
2566.000000	0.003493
2565.000000	0.003461
2564.000000	0.003444
2563.000000	0.003441
2562.000000	0.003452
2561.000000	0.003470
2560.000000	0.003487
2559.000000	0.003506
2558.000000	0.003533
2557.000000	0.003564
2556.000000	0.003580
2555.000000	0.003568
2554.000000	0.003537
2553.000000	0.003506
2552.000000	0.003488
2551.000000	0.003481
2550.000000	0.003483
2549.000000	0.003491
2548.000000	0.003496
2547.000000	0.003488
2546.000000	0.003472
2545.000000	0.003468
2544.000000	0.003486
2543.000000	0.003512
2542.000000	0.003521
2541.000000	0.003500
2540.000000	0.003458
2539.000000	0.003419
2538.000000	0.003401
2537.000000	0.003408
2536.000000	0.003428
2535.000000	0.003452
2534.000000	0.003474
2533.000000	0.003489
2532.000000	0.003489
2531.000000	0.003475
2530.000000	0.003463
2529.000000	0.003466
2528.000000	0.003476
2527.000000	0.003477
2526.000000	0.003462
2525.000000	0.003444
2524.000000	0.003438
2523.000000	0.003442
2522.000000	0.003448
2521.000000	0.003455
2520.000000	0.003463
2519.000000	0.003463
2518.000000	0.003446
2517.000000	0.003418
2516.000000	0.003399
2515.000000	0.003408
2514.000000	0.003443
2513.000000	0.003477
2512.000000	0.003479
2511.000000	0.003444
2510.000000	0.003397
2509.000000	0.003369
2508.000000	0.003377
2507.000000	0.003412
2506.000000	0.003455
2505.000000	0.003483
2504.000000	0.003475
2503.000000	0.003431
2502.000000	0.003375
2501.000000	0.003344
2500.000000	0.003350
2499.000000	0.003378
2498.000000	0.003407
2497.000000	0.003430
2496.000000	0.003448
2495.000000	0.003454
2494.000000	0.003438
2493.000000	0.003403
2492.000000	0.003361
2491.000000	0.003330
2490.000000	0.003315
2489.000000	0.003310
2488.000000	0.003301
2487.000000	0.003282
2486.000000	0.003265
2485.000000	0.003265
2484.000000	0.003284
2483.000000	0.003303
2482.000000	0.003305
2481.000000	0.003283
2480.000000	0.003248
2479.000000	0.003217
2478.000000	0.003210
2477.000000	0.003232
2476.000000	0.003263
2475.000000	0.003275
2474.000000	0.003259
2473.000000	0.003237
2472.000000	0.003232
2471.000000	0.003244
2470.000000	0.003252
2469.000000	0.003239
2468.000000	0.003205
2467.000000	0.003170
2466.000000	0.003154
2465.000000	0.003162
2464.000000	0.003174
2463.000000	0.003172
2462.000000	0.003156
2461.000000	0.003150
2460.000000	0.003170
2459.000000	0.003204
2458.000000	0.003228
2457.000000	0.003231
2456.000000	0.003219
2455.000000	0.003208
2454.000000	0.003210
2453.000000	0.003230
2452.000000	0.003271
2451.000000	0.003326
2450.000000	0.003377
2449.000000	0.003397
2448.000000	0.003367
2447.000000	0.003297
2446.000000	0.003225
2445.000000	0.003185
2444.000000	0.003180
2443.000000	0.003192
2442.000000	0.003208
2441.000000	0.003228
2440.000000	0.003248
2439.000000	0.003259
2438.000000	0.003261
2437.000000	0.003259
2436.000000	0.003259
2435.000000	0.003253
2434.000000	0.003235
2433.000000	0.003217
2432.000000	0.003211
2431.000000	0.003216
2430.000000	0.003221
2429.000000	0.003225
2428.000000	0.003236
2427.000000	0.003251
2426.000000	0.003257
2425.000000	0.003240
2424.000000	0.003204
2423.000000	0.003170
2422.000000	0.003149
2421.000000	0.003137
2420.000000	0.003121
2419.000000	0.003097
2418.000000	0.003076
2417.000000	0.003068
2416.000000	0.003071
2415.000000	0.003075
2414.000000	0.003080
2413.000000	0.003085
2412.000000	0.003084
2411.000000	0.003073
2410.000000	0.003059
2409.000000	0.003055
2408.000000	0.003066
2407.000000	0.003080
2406.000000	0.003089
2405.000000	0.003092
2404.000000	0.003092
2403.000000	0.003086
2402.000000	0.003076
2401.000000	0.003069
2400.000000	0.003071
2399.000000	0.003077
2398.000000	0.003084
2397.000000	0.003093
2396.000000	0.003109
2395.000000	0.003125
2394.000000	0.003127
2393.000000	0.003110
2392.000000	0.003086
2391.000000	0.003072
2390.000000	0.003080
2389.000000	0.003104
2388.000000	0.003126
2387.000000	0.003133
2386.000000	0.003128
2385.000000	0.003119
2384.000000	0.003104
2383.000000	0.003077
2382.000000	0.003035
2381.000000	0.002989
2380.000000	0.002954
2379.000000	0.002945
2378.000000	0.002967
2377.000000	0.003016
2376.000000	0.003076
2375.000000	0.003125
2374.000000	0.003150
2373.000000	0.003152
2372.000000	0.003141
2371.000000	0.003128
2370.000000	0.003123
2369.000000	0.003134
2368.000000	0.003155
2367.000000	0.003172
2366.000000	0.003176
2365.000000	0.003175
2364.000000	0.003187
2363.000000	0.003220
2362.000000	0.003260
2361.000000	0.003279
2360.000000	0.003263
2359.000000	0.003223
2358.000000	0.003185
2357.000000	0.003163
2356.000000	0.003171
2355.000000	0.003210
2354.000000	0.003254
2353.000000	0.003270
2352.000000	0.003261
2351.000000	0.003254
2350.000000	0.003262
2349.000000	0.003280
2348.000000	0.003294
2347.000000	0.003298
2346.000000	0.003302
2345.000000	0.003326
2344.000000	0.003368
2343.000000	0.003399
2342.000000	0.003401
2341.000000	0.003380
2340.000000	0.003354
2339.000000	0.003340
2338.000000	0.003339
2337.000000	0.003337
2336.000000	0.003320
2335.000000	0.003290
2334.000000	0.003265
2333.000000	0.003256
2332.000000	0.003263
2331.000000	0.003281
2330.000000	0.003315
2329.000000	0.003370
2328.000000	0.003444
2327.000000	0.003528
2326.000000	0.003610
2325.000000	0.003682
2324.000000	0.003727
2323.000000	0.003725
2322.000000	0.003682
2321.000000	0.003628
2320.000000	0.003586
2319.000000	0.003549
2318.000000	0.003500
2317.000000	0.003451
2316.000000	0.003429
2315.000000	0.003439
2314.000000	0.003455
2313.000000	0.003451
2312.000000	0.003419
2311.000000	0.003371
2310.000000	0.003324
2309.000000	0.003290
2308.000000	0.003268
2307.000000	0.003251
2306.000000	0.003233
2305.000000	0.003219
2304.000000	0.003216
2303.000000	0.003217
2302.000000	0.003211
2301.000000	0.003202
2300.000000	0.003200
2299.000000	0.003208
2298.000000	0.003214
2297.000000	0.003216
2296.000000	0.003219
2295.000000	0.003237
2294.000000	0.003267
2293.000000	0.003297
2292.000000	0.003314
2291.000000	0.003316
2290.000000	0.003317
2289.000000	0.003330
2288.000000	0.003357
2287.000000	0.003389
2286.000000	0.003421
2285.000000	0.003448
2284.000000	0.003460
2283.000000	0.003442
2282.000000	0.003391
2281.000000	0.003317
2280.000000	0.003234
2279.000000	0.003152
2278.000000	0.003090
2277.000000	0.003076
2276.000000	0.003111
2275.000000	0.003159
2274.000000	0.003181
2273.000000	0.003178
2272.000000	0.003178
2271.000000	0.003197
2270.000000	0.003220
2269.000000	0.003241
2268.000000	0.003272
2267.000000	0.003317
2266.000000	0.003356
2265.000000	0.003364
2264.000000	0.003333
2263.000000	0.003279
2262.000000	0.003222
2261.000000	0.003172
2260.000000	0.003133
2259.000000	0.003113
2258.000000	0.003114
2257.000000	0.003121
2256.000000	0.003102
2255.000000	0.003046
2254.000000	0.002980
2253.000000	0.002954
2252.000000	0.002984
2251.000000	0.003038
2250.000000	0.003076
2249.000000	0.003089
2248.000000	0.003096
2247.000000	0.003110
2246.000000	0.003133
2245.000000	0.003157
2244.000000	0.003159
2243.000000	0.003110
2242.000000	0.003007
2241.000000	0.002891
2240.000000	0.002816
2239.000000	0.002800
2238.000000	0.002828
2237.000000	0.002882
2236.000000	0.002958
2235.000000	0.003030
2234.000000	0.003054
2233.000000	0.003008
2232.000000	0.002932
2231.000000	0.002902
2230.000000	0.002953
2229.000000	0.003047
2228.000000	0.003095
2227.000000	0.003039
2226.000000	0.002891
2225.000000	0.002720
2224.000000	0.002600
2223.000000	0.002567
2222.000000	0.002607
2221.000000	0.002682
2220.000000	0.002759
2219.000000	0.002827
2218.000000	0.002891
2217.000000	0.002943
2216.000000	0.002961
2215.000000	0.002941
2214.000000	0.002910
2213.000000	0.002905
2212.000000	0.002937
2211.000000	0.002986
2210.000000	0.003031
2209.000000	0.003057
2208.000000	0.003051
2207.000000	0.003012
2206.000000	0.002968
2205.000000	0.002942
2204.000000	0.002923
2203.000000	0.002891
2202.000000	0.002866
2201.000000	0.002896
2200.000000	0.002985
2199.000000	0.003072
2198.000000	0.003099
2197.000000	0.003070
2196.000000	0.003037
2195.000000	0.003038
2194.000000	0.003100
2193.000000	0.003228
2192.000000	0.003372
2191.000000	0.003410
2190.000000	0.003253
2189.000000	0.002957
2188.000000	0.002698
2187.000000	0.002611
2186.000000	0.002662
2185.000000	0.002708
2184.000000	0.002645
2183.000000	0.002491
2182.000000	0.002337
2181.000000	0.002250
2180.000000	0.002236
2179.000000	0.002276
2178.000000	0.002346
2177.000000	0.002414
2176.000000	0.002453
2175.000000	0.002475
2174.000000	0.002514
2173.000000	0.002559
2172.000000	0.002536
2171.000000	0.002415
2170.000000	0.002287
2169.000000	0.002301
2168.000000	0.002487
2167.000000	0.002705
2166.000000	0.002782
2165.000000	0.002682
2164.000000	0.002526
2163.000000	0.002466
2162.000000	0.002550
2161.000000	0.002665
2160.000000	0.002630
2159.000000	0.002367
2158.000000	0.002003
2157.000000	0.001726
2156.000000	0.001583
2155.000000	0.001507
2154.000000	0.001474
2153.000000	0.001531
2152.000000	0.001697
2151.000000	0.001918
2150.000000	0.002126
2149.000000	0.002292
2148.000000	0.002394
2147.000000	0.002394
2146.000000	0.002287
2145.000000	0.002133
2144.000000	0.002015
2143.000000	0.001954
2142.000000	0.001921
2141.000000	0.001896
2140.000000	0.001905
2139.000000	0.001983
2138.000000	0.002117
2137.000000	0.002246
2136.000000	0.002316
2135.000000	0.002333
2134.000000	0.002339
2133.000000	0.002351
2132.000000	0.002341
2131.000000	0.002293
2130.000000	0.002238
2129.000000	0.002229
2128.000000	0.002291
2127.000000	0.002415
2126.000000	0.002580
2125.000000	0.002750
2124.000000	0.002864
2123.000000	0.002874
2122.000000	0.002794
2121.000000	0.002697
2120.000000	0.002646
2119.000000	0.002654
2118.000000	0.002704
2117.000000	0.002784
2116.000000	0.002890
2115.000000	0.003018
2114.000000	0.003143
2113.000000	0.003227
2112.000000	0.003228
2111.000000	0.003143
2110.000000	0.003025
2109.000000	0.002951
2108.000000	0.002958
2107.000000	0.003011
2106.000000	0.003056
2105.000000	0.003059
2104.000000	0.003030
2103.000000	0.002992
2102.000000	0.002962
2101.000000	0.002924
2100.000000	0.002849
2099.000000	0.002745
2098.000000	0.002670
2097.000000	0.002676
2096.000000	0.002739
2095.000000	0.002774
2094.000000	0.002735
2093.000000	0.002657
2092.000000	0.002610
2091.000000	0.002629
2090.000000	0.002710
2089.000000	0.002820
2088.000000	0.002914
2087.000000	0.002953
2086.000000	0.002934
2085.000000	0.002887
2084.000000	0.002843
2083.000000	0.002816
2082.000000	0.002812
2081.000000	0.002839
2080.000000	0.002878
2079.000000	0.002900
2078.000000	0.002899
2077.000000	0.002906
2076.000000	0.002945
2075.000000	0.002995
2074.000000	0.003020
2073.000000	0.003012
2072.000000	0.002998
2071.000000	0.003012
2070.000000	0.003067
2069.000000	0.003129
2068.000000	0.003138
2067.000000	0.003062
2066.000000	0.002948
2065.000000	0.002869
2064.000000	0.002834
2063.000000	0.002782
2062.000000	0.002687
2061.000000	0.002608
2060.000000	0.002613
2059.000000	0.002691
2058.000000	0.002766
2057.000000	0.002775
2056.000000	0.002714
2055.000000	0.002617
2054.000000	0.002545
2053.000000	0.002548
2052.000000	0.002615
2051.000000	0.002674
2050.000000	0.002655
2049.000000	0.002561
2048.000000	0.002460
2047.000000	0.002421
2046.000000	0.002461
2045.000000	0.002541
2044.000000	0.002596
2043.000000	0.002592
2042.000000	0.002564
2041.000000	0.002593
2040.000000	0.002720
2039.000000	0.002893
2038.000000	0.003016
2037.000000	0.003008
2036.000000	0.002837
2035.000000	0.002545
2034.000000	0.002244
2033.000000	0.002033
2032.000000	0.001912
2031.000000	0.001810
2030.000000	0.001722
2029.000000	0.001722
2028.000000	0.001839
2027.000000	0.001991
2026.000000	0.002088
2025.000000	0.002136
2024.000000	0.002189
2023.000000	0.002250
2022.000000	0.002268
2021.000000	0.002214
2020.000000	0.002110
2019.000000	0.002002
2018.000000	0.001929
2017.000000	0.001900
2016.000000	0.001901
2015.000000	0.001917
2014.000000	0.001943
2013.000000	0.001978
2012.000000	0.002011
2011.000000	0.002052
2010.000000	0.002142
2009.000000	0.002275
2008.000000	0.002347
2007.000000	0.002244
2006.000000	0.001975
2005.000000	0.001662
2004.000000	0.001422
2003.000000	0.001316
2002.000000	0.001381
2001.000000	0.001617
2000.000000	0.001942
1999.000000	0.002247
1998.000000	0.002492
1997.000000	0.002694
1996.000000	0.002831
1995.000000	0.002861
1994.000000	0.002818
1993.000000	0.002803
1992.000000	0.002853
1991.000000	0.002894
1990.000000	0.002849
1989.000000	0.002726
1988.000000	0.002565
1987.000000	0.002380
1986.000000	0.002189
1985.000000	0.002048
1984.000000	0.002000
1983.000000	0.002040
1982.000000	0.002153
1981.000000	0.002318
1980.000000	0.002448
1979.000000	0.002412
1978.000000	0.002201
1977.000000	0.001979
1976.000000	0.001904
1975.000000	0.001949
1974.000000	0.002004
1973.000000	0.002031
1972.000000	0.002046
1971.000000	0.002029
1970.000000	0.001952
1969.000000	0.001846
1968.000000	0.001783
1967.000000	0.001795
1966.000000	0.001858
1965.000000	0.001930
1964.000000	0.001979
1963.000000	0.001997
1962.000000	0.002006
1961.000000	0.002038
1960.000000	0.002074
1959.000000	0.002063
1958.000000	0.001996
1957.000000	0.001919
1956.000000	0.001877
1955.000000	0.001872
1954.000000	0.001899
1953.000000	0.001952
1952.000000	0.002005
1951.000000	0.002019
1950.000000	0.001998
1949.000000	0.002005
1948.000000	0.002068
1947.000000	0.002121
1946.000000	0.002082
1945.000000	0.001957
1944.000000	0.001841
1943.000000	0.001818
1942.000000	0.001891
1941.000000	0.001989
1940.000000	0.002038
1939.000000	0.002013
1938.000000	0.001941
1937.000000	0.001866
1936.000000	0.001826
1935.000000	0.001836
1934.000000	0.001907
1933.000000	0.002020
1932.000000	0.002114
1931.000000	0.002129
1930.000000	0.002069
1929.000000	0.002005
1928.000000	0.001992
1927.000000	0.002017
1926.000000	0.002044
1925.000000	0.002066
1924.000000	0.002097
1923.000000	0.002113
1922.000000	0.002069
1921.000000	0.001972
1920.000000	0.001897
1919.000000	0.001923
1918.000000	0.002058
1917.000000	0.002220
1916.000000	0.002318
1915.000000	0.002328
1914.000000	0.002294
1913.000000	0.002262
1912.000000	0.002240
1911.000000	0.002209
1910.000000	0.002159
1909.000000	0.002114
1908.000000	0.002099
1907.000000	0.002118
1906.000000	0.002162
1905.000000	0.002222
1904.000000	0.002295
1903.000000	0.002362
1902.000000	0.002392
1901.000000	0.002371
1900.000000	0.002297
1899.000000	0.002190
1898.000000	0.002099
1897.000000	0.002072
1896.000000	0.002117
1895.000000	0.002185
1894.000000	0.002206
1893.000000	0.002160
1892.000000	0.002082
1891.000000	0.002028
1890.000000	0.002036
1889.000000	0.002106
1888.000000	0.002197
1887.000000	0.002260
1886.000000	0.002268
1885.000000	0.002227
1884.000000	0.002157
1883.000000	0.002090
1882.000000	0.002047
1881.000000	0.002034
1880.000000	0.002033
1879.000000	0.002037
1878.000000	0.002063
1877.000000	0.002116
1876.000000	0.002168
1875.000000	0.002189
1874.000000	0.002170
1873.000000	0.002125
1872.000000	0.002073
1871.000000	0.002027
1870.000000	0.001999
1869.000000	0.001992
1868.000000	0.001991
1867.000000	0.001985
1866.000000	0.001991
1865.000000	0.002025
1864.000000	0.002070
1863.000000	0.002094
1862.000000	0.002095
1861.000000	0.002099
1860.000000	0.002116
1859.000000	0.002119
1858.000000	0.002098
1857.000000	0.002075
1856.000000	0.002075
1855.000000	0.002098
1854.000000	0.002118
1853.000000	0.002126
1852.000000	0.002116
1851.000000	0.002102
1850.000000	0.002109
1849.000000	0.002123
1848.000000	0.002089
1847.000000	0.001989
1846.000000	0.001886
1845.000000	0.001864
1844.000000	0.001919
1843.000000	0.001953
1842.000000	0.001925
1841.000000	0.001893
1840.000000	0.001902
1839.000000	0.001938
1838.000000	0.001969
1837.000000	0.001996
1836.000000	0.002028
1835.000000	0.002035
1834.000000	0.001976
1833.000000	0.001863
1832.000000	0.001746
1831.000000	0.001680
1830.000000	0.001680
1829.000000	0.001700
1828.000000	0.001695
1827.000000	0.001678
1826.000000	0.001699
1825.000000	0.001771
1824.000000	0.001852
1823.000000	0.001904
1822.000000	0.001935
1821.000000	0.001965
1820.000000	0.001985
1819.000000	0.001978
1818.000000	0.001951
1817.000000	0.001932
1816.000000	0.001934
1815.000000	0.001934
1814.000000	0.001915
1813.000000	0.001882
1812.000000	0.001851
1811.000000	0.001840
1810.000000	0.001848
1809.000000	0.001867
1808.000000	0.001890
1807.000000	0.001909
1806.000000	0.001929
1805.000000	0.001958
1804.000000	0.001982
1803.000000	0.001978
1802.000000	0.001956
1801.000000	0.001958
1800.000000	0.001996
1799.000000	0.002040
1798.000000	0.002052
1797.000000	0.002024
1796.000000	0.001960
1795.000000	0.001873
1794.000000	0.001803
1793.000000	0.001796
1792.000000	0.001847
1791.000000	0.001894
1790.000000	0.001899
1789.000000	0.001884
1788.000000	0.001873
1787.000000	0.001863
1786.000000	0.001849
1785.000000	0.001839
1784.000000	0.001834
1783.000000	0.001812
1782.000000	0.001792
1781.000000	0.001800
1780.000000	0.001822
1779.000000	0.001828
1778.000000	0.001808
1777.000000	0.001786
1776.000000	0.001749
1775.000000	0.001684
1774.000000	0.001635
1773.000000	0.001661
1772.000000	0.001727
1771.000000	0.001756
1770.000000	0.001753
1769.000000	0.001810
1768.000000	0.001964
1767.000000	0.002129
1766.000000	0.002211
1765.000000	0.002221
1764.000000	0.002248
1763.000000	0.002343
1762.000000	0.002503
1761.000000	0.002682
1760.000000	0.002854
1759.000000	0.003043
1758.000000	0.003311
1757.000000	0.003698
1756.000000	0.004125
1755.000000	0.004480
1754.000000	0.004778
1753.000000	0.005130
1752.000000	0.005604
1751.000000	0.006143
1750.000000	0.006645
1749.000000	0.007103
1748.000000	0.007553
1747.000000	0.007955
1746.000000	0.008278
1745.000000	0.008528
1744.000000	0.008717
1743.000000	0.008834
1742.000000	0.008878
1741.000000	0.008892
1740.000000	0.008901
1739.000000	0.008833
1738.000000	0.008623
1737.000000	0.008327
1736.000000	0.008046
1735.000000	0.007788
1734.000000	0.007489
1733.000000	0.007138
1732.000000	0.006790
1731.000000	0.006489
1730.000000	0.006233
1729.000000	0.005997
1728.000000	0.005751
1727.000000	0.005481
1726.000000	0.005210
1725.000000	0.004952
1724.000000	0.004714
1723.000000	0.004483
1722.000000	0.004236
1721.000000	0.003984
1720.000000	0.003767
1719.000000	0.003608
1718.000000	0.003474
1717.000000	0.003337
1716.000000	0.003233
1715.000000	0.003200
1714.000000	0.003236
1713.000000	0.003300
1712.000000	0.003379
1711.000000	0.003418
1710.000000	0.003491
1709.000000	0.003488
1708.000000	0.003749
1707.000000	0.004037
1706.000000	0.004168
1705.000000	0.004390
1704.000000	0.004575
1703.000000	0.004758
1702.000000	0.004930
1701.000000	0.005171
1700.000000	0.005464
1699.000000	0.005700
1698.000000	0.005857
1697.000000	0.006019
1696.000000	0.006249
1695.000000	0.006505
1694.000000	0.006768
1693.000000	0.006994
1692.000000	0.007291
1691.000000	0.007400
1690.000000	0.007525
1689.000000	0.007736
1688.000000	0.007784
1687.000000	0.007813
1686.000000	0.007905
1685.000000	0.008256
1684.000000	0.008811
1683.000000	0.009257
1682.000000	0.009511
1681.000000	0.009776
1680.000000	0.010117
1679.000000	0.010429
1678.000000	0.010660
1677.000000	0.010924
1676.000000	0.011351
1675.000000	0.011858
1674.000000	0.012236
1673.000000	0.012445
1672.000000	0.012634
1671.000000	0.012930
1670.000000	0.013361
1669.000000	0.013889
1668.000000	0.014396
1667.000000	0.014793
1666.000000	0.015062
1665.000000	0.015337
1664.000000	0.015644
1663.000000	0.016203
1662.000000	0.016697
1661.000000	0.017005
1660.000000	0.017341
1659.000000	0.017626
1658.000000	0.017908
1657.000000	0.018169
1656.000000	0.018434
1655.000000	0.018698
1654.000000	0.018974
1653.000000	0.019266
1652.000000	0.019521
1651.000000	0.019701
1650.000000	0.019843
1649.000000	0.019991
1648.000000	0.020169
1647.000000	0.020354
1646.000000	0.020492
1645.000000	0.020611
1644.000000	0.020714
1643.000000	0.020858
1642.000000	0.020874
1641.000000	0.020921
1640.000000	0.021026
1639.000000	0.021027
1638.000000	0.021026
1637.000000	0.021090
1636.000000	0.021281
1635.000000	0.021505
1634.000000	0.021648
1633.000000	0.021708
1632.000000	0.021765
1631.000000	0.021822
1630.000000	0.021848
1629.000000	0.021832
1628.000000	0.021778
1627.000000	0.021670
1626.000000	0.021509
1625.000000	0.021328
1624.000000	0.021152
1623.000000	0.020965
1622.000000	0.020733
1621.000000	0.020449
1620.000000	0.020129
1619.000000	0.019798
1618.000000	0.019461
1617.000000	0.019109
1616.000000	0.018739
1615.000000	0.018363
1614.000000	0.018008
1613.000000	0.017692
1612.000000	0.017391
1611.000000	0.017057
1610.000000	0.016679
1609.000000	0.016287
1608.000000	0.015907
1607.000000	0.015536
1606.000000	0.015176
1605.000000	0.014830
1604.000000	0.014489
1603.000000	0.014164
1602.000000	0.013870
1601.000000	0.013601
1600.000000	0.013338
1599.000000	0.013072
1598.000000	0.012809
1597.000000	0.012557
1596.000000	0.012322
1595.000000	0.012120
1594.000000	0.011956
1593.000000	0.011817
1592.000000	0.011691
1591.000000	0.011579
1590.000000	0.011490
1589.000000	0.011415
1588.000000	0.011335
1587.000000	0.011255
1586.000000	0.011186
1585.000000	0.011143
1584.000000	0.011107
1583.000000	0.011104
1582.000000	0.011116
1581.000000	0.011170
1580.000000	0.011097
1579.000000	0.011250
1578.000000	0.011467
1577.000000	0.011532
1576.000000	0.011709
1575.000000	0.011706
1574.000000	0.011750
1573.000000	0.011853
1572.000000	0.011907
1571.000000	0.012048
1570.000000	0.012275
1569.000000	0.012567
1568.000000	0.012818
1567.000000	0.013038
1566.000000	0.013301
1565.000000	0.013618
1564.000000	0.013882
1563.000000	0.014002
1562.000000	0.014019
1561.000000	0.014072
1560.000000	0.014302
1559.000000	0.014718
1558.000000	0.015131
1557.000000	0.015409
1556.000000	0.015659
1555.000000	0.016002
1554.000000	0.016405
1553.000000	0.016739
1552.000000	0.016955
1551.000000	0.017145
1550.000000	0.017357
1549.000000	0.017554
1548.000000	0.017684
1547.000000	0.017772
1546.000000	0.017874
1545.000000	0.017983
1544.000000	0.018037
1543.000000	0.018028
1542.000000	0.018026
1541.000000	0.018121
1540.000000	0.018338
1539.000000	0.018587
1538.000000	0.018728
1537.000000	0.018747
1536.000000	0.018746
1535.000000	0.018793
1534.000000	0.018895
1533.000000	0.018977
1532.000000	0.018986
1531.000000	0.018951
1530.000000	0.018901
1529.000000	0.018837
1528.000000	0.018753
1527.000000	0.018648
1526.000000	0.018527
1525.000000	0.018374
1524.000000	0.018189
1523.000000	0.018023
1522.000000	0.017922
1521.000000	0.017866
1520.000000	0.017778
1519.000000	0.017651
1518.000000	0.017551
1517.000000	0.017505
1516.000000	0.017464
1515.000000	0.017376
1514.000000	0.017257
1513.000000	0.017133
1512.000000	0.016978
1511.000000	0.016732
1510.000000	0.016374
1509.000000	0.015952
1508.000000	0.015531
1507.000000	0.015178
1506.000000	0.014986
1505.000000	0.014912
1504.000000	0.014816
1503.000000	0.014677
1502.000000	0.014508
1501.000000	0.014298
1500.000000	0.014035
1499.000000	0.013732
1498.000000	0.013432
1497.000000	0.013179
1496.000000	0.012990
1495.000000	0.012809
1494.000000	0.012584
1493.000000	0.012333
1492.000000	0.012088
1491.000000	0.011850
1490.000000	0.011618
1489.000000	0.011432
1488.000000	0.011337
1487.000000	0.011303
1486.000000	0.011278
1485.000000	0.011263
1484.000000	0.011263
1483.000000	0.011280
1482.000000	0.011321
1481.000000	0.011384
1480.000000	0.011455
1479.000000	0.011520
1478.000000	0.011590
1477.000000	0.011674
1476.000000	0.011767
1475.000000	0.011871
1474.000000	0.012058
1473.000000	0.012405
1472.000000	0.012857
1471.000000	0.013268
1470.000000	0.013581
1469.000000	0.013839
1468.000000	0.014080
1467.000000	0.014307
1466.000000	0.014535
1465.000000	0.014793
1464.000000	0.015050
1463.000000	0.015259
1462.000000	0.015407
1461.000000	0.015513
1460.000000	0.015591
1459.000000	0.015678
1458.000000	0.015867
1457.000000	0.016226
1456.000000	0.016633
1455.000000	0.016919
1454.000000	0.017118
1453.000000	0.017317
1452.000000	0.017500
1451.000000	0.017618
1450.000000	0.017671
1449.000000	0.017708
1448.000000	0.017762
1447.000000	0.017806
1446.000000	0.017839
1445.000000	0.017874
1444.000000	0.017898
1443.000000	0.017895
1442.000000	0.017851
1441.000000	0.017760
1440.000000	0.017626
1439.000000	0.017485
1438.000000	0.017373
1437.000000	0.017297
1436.000000	0.017219
1435.000000	0.017108
1434.000000	0.016985
1433.000000	0.016882
1432.000000	0.016799
1431.000000	0.016718
1430.000000	0.016640
1429.000000	0.016588
1428.000000	0.016571
1427.000000	0.016560
1426.000000	0.016548
1425.000000	0.016538
1424.000000	0.016513
1423.000000	0.016457
1422.000000	0.016381
1421.000000	0.016324
1420.000000	0.016305
1419.000000	0.016308
1418.000000	0.016306
1417.000000	0.016298
1416.000000	0.016302
1415.000000	0.016314
1414.000000	0.016317
1413.000000	0.016299
1412.000000	0.016271
1411.000000	0.016253
1410.000000	0.016245
1409.000000	0.016230
1408.000000	0.016202
1407.000000	0.016164
1406.000000	0.016135
1405.000000	0.016132
1404.000000	0.016141
1403.000000	0.016139
1402.000000	0.016114
1401.000000	0.016078
1400.000000	0.016043
1399.000000	0.016001
1398.000000	0.015945
1397.000000	0.015884
1396.000000	0.015841
1395.000000	0.015831
1394.000000	0.015863
1393.000000	0.015919
1392.000000	0.015961
1391.000000	0.015966
1390.000000	0.015931
1389.000000	0.015871
1388.000000	0.015807
1387.000000	0.015750
1386.000000	0.015702
1385.000000	0.015664
1384.000000	0.015632
1383.000000	0.015593
1382.000000	0.015532
1381.000000	0.015450
1380.000000	0.015365
1379.000000	0.015280
1378.000000	0.015172
1377.000000	0.015019
1376.000000	0.014827
1375.000000	0.014627
1374.000000	0.014456
1373.000000	0.014323
1372.000000	0.014204
1371.000000	0.014079
1370.000000	0.013951
1369.000000	0.013827
1368.000000	0.013690
1367.000000	0.013528
1366.000000	0.013344
1365.000000	0.013160
1364.000000	0.012990
1363.000000	0.012844
1362.000000	0.012727
1361.000000	0.012639
1360.000000	0.012570
1359.000000	0.012510
1358.000000	0.012458
1357.000000	0.012417
1356.000000	0.012390
1355.000000	0.012377
1354.000000	0.012375
1353.000000	0.012383
1352.000000	0.012409
1351.000000	0.012458
1350.000000	0.012535
1349.000000	0.012633
1348.000000	0.012736
1347.000000	0.012839
1346.000000	0.012948
1345.000000	0.013068
1344.000000	0.013181
1343.000000	0.013269
1342.000000	0.013331
1341.000000	0.013389
1340.000000	0.013468
1339.000000	0.013571
1338.000000	0.013689
1337.000000	0.013800
1336.000000	0.013882
1335.000000	0.013920
1334.000000	0.013915
1333.000000	0.013883
1332.000000	0.013836
1331.000000	0.013773
1330.000000	0.013683
1329.000000	0.013559
1328.000000	0.013410
1327.000000	0.013255
1326.000000	0.013113
1325.000000	0.012996
1324.000000	0.012899
1323.000000	0.012813
1322.000000	0.012733
1321.000000	0.012659
1320.000000	0.012600
1319.000000	0.012558
1318.000000	0.012532
1317.000000	0.012506
1316.000000	0.012461
1315.000000	0.012390
1314.000000	0.012295
1313.000000	0.012187
1312.000000	0.012073
1311.000000	0.011965
1310.000000	0.011868
1309.000000	0.011776
1308.000000	0.011680
1307.000000	0.011583
1306.000000	0.011493
1305.000000	0.011414
1304.000000	0.011336
1303.000000	0.011250
1302.000000	0.011155
1301.000000	0.011059
1300.000000	0.010965
1299.000000	0.010875
1298.000000	0.010791
1297.000000	0.010720
1296.000000	0.010670
1295.000000	0.010653
1294.000000	0.010669
1293.000000	0.010710
1292.000000	0.010760
1291.000000	0.010810
1290.000000	0.010867
1289.000000	0.010939
1288.000000	0.011017
1287.000000	0.011087
1286.000000	0.011142
1285.000000	0.011183
1284.000000	0.011219
1283.000000	0.011253
1282.000000	0.011287
1281.000000	0.011317
1280.000000	0.011342
1279.000000	0.011362
1278.000000	0.011387
1277.000000	0.011421
1276.000000	0.011461
1275.000000	0.011503
1274.000000	0.011554
1273.000000	0.011623
1272.000000	0.011709
1271.000000	0.011801
1270.000000	0.011891
1269.000000	0.011983
1268.000000	0.012086
1267.000000	0.012204
1266.000000	0.012343
1265.000000	0.012500
1264.000000	0.012664
1263.000000	0.012826
1262.000000	0.012984
1261.000000	0.013140
1260.000000	0.013295
1259.000000	0.013441
1258.000000	0.013581
1257.000000	0.013720
1256.000000	0.013861
1255.000000	0.013999
1254.000000	0.014131
1253.000000	0.014262
1252.000000	0.014400
1251.000000	0.014552
1250.000000	0.014721
1249.000000	0.014909
1248.000000	0.015105
1247.000000	0.015296
1246.000000	0.015474
1245.000000	0.015645
1244.000000	0.015811
1243.000000	0.015970
1242.000000	0.016123
1241.000000	0.016272
1240.000000	0.016412
1239.000000	0.016535
1238.000000	0.016639
1237.000000	0.016731
1236.000000	0.016810
1235.000000	0.016861
1234.000000	0.016869
1233.000000	0.016831
1232.000000	0.016749
1231.000000	0.016634
1230.000000	0.016500
1229.000000	0.016356
1228.000000	0.016193
1227.000000	0.015993
1226.000000	0.015751
1225.000000	0.015481
1224.000000	0.015197
1223.000000	0.014911
1222.000000	0.014632
1221.000000	0.014364
1220.000000	0.014109
1219.000000	0.013861
1218.000000	0.013625
1217.000000	0.013411
1216.000000	0.013231
1215.000000	0.013083
1214.000000	0.012964
1213.000000	0.012864
1212.000000	0.012781
1211.000000	0.012720
1210.000000	0.012696
1209.000000	0.012718
1208.000000	0.012777
1207.000000	0.012852
1206.000000	0.012929
1205.000000	0.013003
1204.000000	0.013071
1203.000000	0.013122
1202.000000	0.013149
1201.000000	0.013148
1200.000000	0.013115
1199.000000	0.013050
1198.000000	0.012958
1197.000000	0.012857
1196.000000	0.012759
1195.000000	0.012667
1194.000000	0.012580
1193.000000	0.012498
1192.000000	0.012424
1191.000000	0.012356
1190.000000	0.012299
1189.000000	0.012253
1188.000000	0.012218
1187.000000	0.012190
1186.000000	0.012173
1185.000000	0.012179
1184.000000	0.012208
1183.000000	0.012253
1182.000000	0.012299
1181.000000	0.012342
1180.000000	0.012389
1179.000000	0.012450
1178.000000	0.012532
1177.000000	0.012634
1176.000000	0.012748
1175.000000	0.012864
1174.000000	0.012980
1173.000000	0.013103
1172.000000	0.013232
1171.000000	0.013352
1170.000000	0.013448
1169.000000	0.013522
1168.000000	0.013589
1167.000000	0.013666
1166.000000	0.013756
1165.000000	0.013852
1164.000000	0.013941
1163.000000	0.014010
1162.000000	0.014045
1161.000000	0.014040
1160.000000	0.014004
1159.000000	0.013949
1158.000000	0.013879
1157.000000	0.013781
1156.000000	0.013645
1155.000000	0.013472
1154.000000	0.013269
1153.000000	0.013035
1152.000000	0.012764
1151.000000	0.012463
1150.000000	0.012155
1149.000000	0.011850
1148.000000	0.011535
1147.000000	0.011203
1146.000000	0.010871
1145.000000	0.010563
1144.000000	0.010278
1143.000000	0.010003
1142.000000	0.009727
1141.000000	0.009452
1140.000000	0.009188
1139.000000	0.008945
1138.000000	0.008731
1137.000000	0.008541
1136.000000	0.008356
1135.000000	0.008168
1134.000000	0.007993
1133.000000	0.007853
1132.000000	0.007749
1131.000000	0.007660
1130.000000	0.007569
1129.000000	0.007481
1128.000000	0.007402
1127.000000	0.007329
1126.000000	0.007262
1125.000000	0.007215
1124.000000	0.007203
1123.000000	0.007225
1122.000000	0.007261
1121.000000	0.007299
1120.000000	0.007339
1119.000000	0.007393
1118.000000	0.007467
1117.000000	0.007563
1116.000000	0.007676
1115.000000	0.007807
1114.000000	0.007956
1113.000000	0.008125
1112.000000	0.008313
1111.000000	0.008510
1110.000000	0.008693
1109.000000	0.008833
1108.000000	0.008912
1107.000000	0.008932
1106.000000	0.008915
1105.000000	0.008899
1104.000000	0.008907
1103.000000	0.008945
1102.000000	0.008998
1101.000000	0.009051
1100.000000	0.009101
1099.000000	0.009160
1098.000000	0.009244
1097.000000	0.009353
1096.000000	0.009467
1095.000000	0.009569
1094.000000	0.009654
1093.000000	0.009730
1092.000000	0.009803
1091.000000	0.009872
1090.000000	0.009928
1089.000000	0.009968
1088.000000	0.009984
1087.000000	0.009976
1086.000000	0.009952
1085.000000	0.009927
1084.000000	0.009901
1083.000000	0.009857
1082.000000	0.009778
1081.000000	0.009658
1080.000000	0.009502
1079.000000	0.009323
1078.000000	0.009135
1077.000000	0.008955
1076.000000	0.008796
1075.000000	0.008659
1074.000000	0.008538
1073.000000	0.008420
1072.000000	0.008305
1071.000000	0.008199
1070.000000	0.008113
1069.000000	0.008051
1068.000000	0.008013
1067.000000	0.007999
1066.000000	0.008014
1065.000000	0.008054
1064.000000	0.008103
1063.000000	0.008142
1062.000000	0.008162
1061.000000	0.008157
1060.000000	0.008125
1059.000000	0.008071
1058.000000	0.008016
1057.000000	0.007973
1056.000000	0.007935
1055.000000	0.007880
1054.000000	0.007794
1053.000000	0.007683
1052.000000	0.007561
1051.000000	0.007443
1050.000000	0.007342
1049.000000	0.007269
1048.000000	0.007226
1047.000000	0.007204
1046.000000	0.007196
1045.000000	0.007196
1044.000000	0.007195
1043.000000	0.007193
1042.000000	0.007210
1041.000000	0.007268
1040.000000	0.007369
1039.000000	0.007492
1038.000000	0.007626
1037.000000	0.007787
1036.000000	0.007985
1035.000000	0.008190
1034.000000	0.008361
1033.000000	0.008480
1032.000000	0.008568
1031.000000	0.008645
1030.000000	0.008707
1029.000000	0.008737
1028.000000	0.008730
1027.000000	0.008698
1026.000000	0.008651
1025.000000	0.008592
1024.000000	0.008518
1023.000000	0.008433
1022.000000	0.008352
1021.000000	0.008282
1020.000000	0.008219
1019.000000	0.008153
1018.000000	0.008086
1017.000000	0.008022
1016.000000	0.007965
1015.000000	0.007906
1014.000000	0.007839
1013.000000	0.007761
1012.000000	0.007671
1011.000000	0.007563
1010.000000	0.007436
1009.000000	0.007300
1008.000000	0.007168
1007.000000	0.007045
1006.000000	0.006919
1005.000000	0.006783
1004.000000	0.006638
1003.000000	0.006499
1002.000000	0.006374
1001.000000	0.006262
1000.000000	0.006156
999.000000	0.006048
998.000000	0.005940
997.000000	0.005835
996.000000	0.005735
995.000000	0.005648
994.000000	0.005580
993.000000	0.005532
992.000000	0.005488
991.000000	0.005430
990.000000	0.005346
989.000000	0.005241
988.000000	0.005134
987.000000	0.005049
986.000000	0.004999
985.000000	0.004979
984.000000	0.004973
983.000000	0.004973
982.000000	0.004975
981.000000	0.004979
980.000000	0.004985
979.000000	0.004998
978.000000	0.005032
977.000000	0.005093
976.000000	0.005163
975.000000	0.005211
974.000000	0.005221
973.000000	0.005205
972.000000	0.005183
971.000000	0.005167
970.000000	0.005150
969.000000	0.005124
968.000000	0.005078
967.000000	0.005012
966.000000	0.004930
965.000000	0.004838
964.000000	0.004749
963.000000	0.004674
962.000000	0.004624
961.000000	0.004596
960.000000	0.004572
959.000000	0.004530
958.000000	0.004464
957.000000	0.004384
956.000000	0.004311
955.000000	0.004255
954.000000	0.004218
953.000000	0.004186
952.000000	0.004141
951.000000	0.004077
950.000000	0.003997
949.000000	0.003915
948.000000	0.003838
947.000000	0.003771
946.000000	0.003720
945.000000	0.003697
944.000000	0.003704
943.000000	0.003729
942.000000	0.003750
941.000000	0.003746
940.000000	0.003705
939.000000	0.003634
938.000000	0.003557
937.000000	0.003499
936.000000	0.003466
935.000000	0.003439
934.000000	0.003399
933.000000	0.003342
932.000000	0.003277
931.000000	0.003213
930.000000	0.003156
929.000000	0.003113
928.000000	0.003088
927.000000	0.003077
926.000000	0.003068
925.000000	0.003049
924.000000	0.003018
923.000000	0.002977
922.000000	0.002930
921.000000	0.002877
920.000000	0.002817
919.000000	0.002757
918.000000	0.002704
917.000000	0.002655
916.000000	0.002599
915.000000	0.002527
914.000000	0.002446
913.000000	0.002371
912.000000	0.002309
911.000000	0.002250
910.000000	0.002188
909.000000	0.002125
908.000000	0.002071
907.000000	0.002032
906.000000	0.002006
905.000000	0.001987
904.000000	0.001967
903.000000	0.001946
902.000000	0.001924
901.000000	0.001896
900.000000	0.001856
899.000000	0.001812
898.000000	0.001782
897.000000	0.001776
896.000000	0.001780
895.000000	0.001771
894.000000	0.001745
893.000000	0.001716
892.000000	0.001690
891.000000	0.001661
890.000000	0.001632
889.000000	0.001637
888.000000	0.001718
887.000000	0.001902
886.000000	0.002186
885.000000	0.002543
884.000000	0.002917
883.000000	0.003259
882.000000	0.003557
881.000000	0.003846
880.000000	0.004164
879.000000	0.004516
878.000000	0.004884
877.000000	0.005251
876.000000	0.005594
875.000000	0.005859
874.000000	0.005988
873.000000	0.005966
872.000000	0.005827
871.000000	0.005620
870.000000	0.005367
869.000000	0.005072
868.000000	0.004742
867.000000	0.004404
866.000000	0.004101
865.000000	0.003863
864.000000	0.003676
863.000000	0.003500
862.000000	0.003313
861.000000	0.003139
860.000000	0.003013
859.000000	0.002928
858.000000	0.002850
857.000000	0.002755
856.000000	0.002657
855.000000	0.002580
854.000000	0.002531
853.000000	0.002504
852.000000	0.002495
851.000000	0.002503
850.000000	0.002523
849.000000	0.002543
848.000000	0.002540
847.000000	0.002496
846.000000	0.002410
845.000000	0.002309
844.000000	0.002224
843.000000	0.002165
842.000000	0.002117
841.000000	0.002071
840.000000	0.002028
839.000000	0.001988
838.000000	0.001940
837.000000	0.001883
836.000000	0.001827
835.000000	0.001786
834.000000	0.001758
833.000000	0.001738
832.000000	0.001727
831.000000	0.001730
830.000000	0.001739
829.000000	0.001743
828.000000	0.001737
827.000000	0.001727
826.000000	0.001724
825.000000	0.001742
824.000000	0.001777
823.000000	0.001812
822.000000	0.001821
821.000000	0.001795
820.000000	0.001750
819.000000	0.001704
818.000000	0.001664
817.000000	0.001640
816.000000	0.001644
815.000000	0.001689
814.000000	0.001766
813.000000	0.001845
812.000000	0.001888
811.000000	0.001873
810.000000	0.001809
809.000000	0.001729
808.000000	0.001671
807.000000	0.001651
806.000000	0.001661
805.000000	0.001686
804.000000	0.001711
803.000000	0.001728
802.000000	0.001737
801.000000	0.001744
800.000000	0.001751
799.000000	0.001749
798.000000	0.001738
797.000000	0.001733
796.000000	0.001748
795.000000	0.001776
794.000000	0.001789
793.000000	0.001776
792.000000	0.001744
791.000000	0.001710
790.000000	0.001686
789.000000	0.001688
788.000000	0.001728
787.000000	0.001792
786.000000	0.001842
785.000000	0.001858
784.000000	0.001857
783.000000	0.001862
782.000000	0.001871
781.000000	0.001859
780.000000	0.001813
779.000000	0.001746
778.000000	0.001685
777.000000	0.001657
776.000000	0.001675
775.000000	0.001730
774.000000	0.001790
773.000000	0.001813
772.000000	0.001784
771.000000	0.001729
770.000000	0.001688
769.000000	0.001680
768.000000	0.001691
767.000000	0.001699
766.000000	0.001711
765.000000	0.001751
764.000000	0.001821
763.000000	0.001889
762.000000	0.001924
761.000000	0.001933
760.000000	0.001945
759.000000	0.001968
758.000000	0.001979
757.000000	0.001971
756.000000	0.001959
755.000000	0.001959
754.000000	0.001968
753.000000	0.001993
752.000000	0.002056
751.000000	0.002161
750.000000	0.002260
749.000000	0.002296
748.000000	0.002266
747.000000	0.002219
746.000000	0.002191
745.000000	0.002169
744.000000	0.002126
743.000000	0.002066
742.000000	0.002016
741.000000	0.001994
740.000000	0.001999
739.000000	0.002028
738.000000	0.002078
737.000000	0.002150
736.000000	0.002238
735.000000	0.002340
734.000000	0.002440
733.000000	0.002509
732.000000	0.002526
731.000000	0.002503
730.000000	0.002481
729.000000	0.002490
728.000000	0.002515
727.000000	0.002521
726.000000	0.002506
725.000000	0.002514
724.000000	0.002580
723.000000	0.002678
722.000000	0.002758
721.000000	0.002803
720.000000	0.002848
719.000000	0.002928
718.000000	0.003047
717.000000	0.003205
716.000000	0.003429
715.000000	0.003739
714.000000	0.004091
713.000000	0.004381
712.000000	0.004521
711.000000	0.004505
710.000000	0.004392
709.000000	0.004250
708.000000	0.004121
707.000000	0.004028
706.000000	0.003982
705.000000	0.003980
704.000000	0.004003
703.000000	0.004031
702.000000	0.004063
701.000000	0.004094
700.000000	0.004102
699.000000	0.004065
698.000000	0.003993
697.000000	0.003941
696.000000	0.003957
695.000000	0.004037
694.000000	0.004125
693.000000	0.004166
692.000000	0.004144
691.000000	0.004082
690.000000	0.004011
689.000000	0.003960
688.000000	0.003953
687.000000	0.004003
686.000000	0.004091
685.000000	0.004172
684.000000	0.004217
683.000000	0.004238
682.000000	0.004265
681.000000	0.004312
680.000000	0.004368
679.000000	0.004407
678.000000	0.004406
677.000000	0.004372
676.000000	0.004338
675.000000	0.004331
674.000000	0.004344
673.000000	0.004341
672.000000	0.004301
671.000000	0.004230
670.000000	0.004153
669.000000	0.004113
668.000000	0.004194
667.000000	0.004316
666.000000	0.004299
665.000000	0.004240
664.000000	0.004229
663.000000	0.004228
662.000000	0.004206
661.000000	0.004194
660.000000	0.004244
659.000000	0.004354
658.000000	0.004478
657.000000	0.004597
656.000000	0.004707
655.000000	0.004777
654.000000	0.004783
653.000000	0.004747
652.000000	0.004705
651.000000	0.004662
650.000000	0.004619
649.000000	0.004606
648.000000	0.004652
647.000000	0.004740
646.000000	0.004840
645.000000	0.004940
644.000000	0.005038
643.000000	0.005130
642.000000	0.005214
641.000000	0.005299
640.000000	0.005370
639.000000	0.005386
638.000000	0.005334
637.000000	0.005261
636.000000	0.005217
635.000000	0.005200
634.000000	0.005175
633.000000	0.005116
632.000000	0.005028
631.000000	0.004949
630.000000	0.004942
629.000000	0.005040
628.000000	0.005199
627.000000	0.005321
626.000000	0.005361
625.000000	0.005350
624.000000	0.005334
623.000000	0.005314
622.000000	0.005295
621.000000	0.005303
620.000000	0.005346
619.000000	0.005394
618.000000	0.005435
617.000000	0.005514
616.000000	0.005659
615.000000	0.005819
614.000000	0.005917
613.000000	0.005941
612.000000	0.005931
611.000000	0.005907
610.000000	0.005869
609.000000	0.005825
608.000000	0.005794
607.000000	0.005782
606.000000	0.005782
605.000000	0.005788
604.000000	0.005764
603.000000	0.005659
602.000000	0.005475
601.000000	0.005302
600.000000	0.005235
599.000000	0.005267
598.000000	0.005318
597.000000	0.005333
596.000000	0.005312
595.000000	0.005262
594.000000	0.005182
593.000000	0.005094
592.000000	0.005048
591.000000	0.005054
590.000000	0.005078
589.000000	0.005083
588.000000	0.005065
587.000000	0.005026
586.000000	0.004966
585.000000	0.004892
584.000000	0.004823
583.000000	0.004765
582.000000	0.004710
581.000000	0.004661
580.000000	0.004646
579.000000	0.004694
578.000000	0.004801
577.000000	0.004919
576.000000	0.004969
575.000000	0.004910
574.000000	0.004799
573.000000	0.004741
572.000000	0.004788
571.000000	0.004897
570.000000	0.005002
569.000000	0.005074
568.000000	0.005112
567.000000	0.005105
566.000000	0.005073
565.000000	0.005066
564.000000	0.005108
563.000000	0.005154
562.000000	0.005181
561.000000	0.005234
560.000000	0.005354
559.000000	0.005471
558.000000	0.005480
557.000000	0.005380
556.000000	0.005272
555.000000	0.005226
554.000000	0.005224
553.000000	0.005240
552.000000	0.005284
551.000000	0.005360
550.000000	0.005444
549.000000	0.005523
548.000000	0.005599
547.000000	0.005645
546.000000	0.005606
545.000000	0.005483
544.000000	0.005356
543.000000	0.005283
542.000000	0.005242
541.000000	0.005184
540.000000	0.005107
539.000000	0.005055
538.000000	0.005055
537.000000	0.005104
536.000000	0.005187
535.000000	0.005290
534.000000	0.005391
533.000000	0.005472
532.000000	0.005535
531.000000	0.005597
530.000000	0.005661
529.000000	0.005701
528.000000	0.005689
527.000000	0.005651
526.000000	0.005672
525.000000	0.005801
524.000000	0.005958
523.000000	0.006006
522.000000	0.005887
521.000000	0.005652
520.000000	0.005371
519.000000	0.005083
518.000000	0.004837
517.000000	0.004702
516.000000	0.004673
515.000000	0.004634
514.000000	0.004503
513.000000	0.004325
512.000000	0.004200
511.000000	0.004167
510.000000	0.004198
509.000000	0.004270
508.000000	0.004367
507.000000	0.004422
506.000000	0.004358
505.000000	0.004200
504.000000	0.004069
503.000000	0.004075
502.000000	0.004216
501.000000	0.004373
500.000000	0.004411
499.000000	0.004288
498.000000	0.004080
497.000000	0.003911
496.000000	0.003822
495.000000	0.003751
494.000000	0.003644
493.000000	0.003544
492.000000	0.003503
491.000000	0.003478
490.000000	0.003396
489.000000	0.003288
488.000000	0.003260
487.000000	0.003336
486.000000	0.003416
485.000000	0.003403
484.000000	0.003312
483.000000	0.003239
482.000000	0.003239
481.000000	0.003271
480.000000	0.003247
479.000000	0.003112
478.000000	0.002899
477.000000	0.002689
476.000000	0.002547
475.000000	0.002494
474.000000	0.002548
473.000000	0.002697
472.000000	0.002836
471.000000	0.002835
470.000000	0.002713
469.000000	0.002626
468.000000	0.002681
467.000000	0.002822
466.000000	0.002923
465.000000	0.002898
464.000000	0.002695
463.000000	0.002306
462.000000	0.001853
461.000000	0.001543
460.000000	0.001456
459.000000	0.001494
458.000000	0.001554
457.000000	0.001670
456.000000	0.001872
455.000000	0.002044
454.000000	0.002083
453.000000	0.002018
452.000000	0.001901
451.000000	0.001681
450.000000	0.001317
