PE UV       SUBTECH     SPECTRUM    ASCII       PEDS        4.00        
   -1
RDgChevreUK 62.Sample.asc
18/03/12
10:07:02.00
18/03/12
10:07:02.00
Administrator

200.000000
1
Lambda 750
750N8071901
PerkinElmer UV WinLab 6.0.4.0738 / 1.61.00 Lambda 900

0
0
3350/servo 860.8/2
0
0
UV/VIS
1
1
1
CommonBeamDepol,150mm sphere / downward view
0
0
0
0
Program
Program
3350/servo 860.8/2
3350/0.2 860.8/0.2
3350/0.2 860.8/0.2
0
1
 
 
 
0
 
860.8
319.2
860.8
Front
100
on
 
 
0
0
0
 
0
 
 
 
0
 
 
0
0
0
0
0
 
 
 
 
0
0


0
0
#HDR
-1
-1
#GR
nm
%R
1.0
0.0
2350.000000
-1.000000
2151
8
59.196350
10.198489
#DATA
2350.000000	27.348234
2349.000000	27.652870
2348.000000	27.291461
2347.000000	28.122679
2346.000000	27.693819
2345.000000	27.654634
2344.000000	27.621209
2343.000000	27.139231
2342.000000	27.987321
2341.000000	27.820993
2340.000000	27.589663
2339.000000	27.771102
2338.000000	27.948338
2337.000000	28.005571
2336.000000	28.087097
2335.000000	28.436047
2334.000000	28.455384
2333.000000	28.702462
2332.000000	28.301376
2331.000000	28.179899
2330.000000	28.110024
2329.000000	28.209010
2328.000000	28.303449
2327.000000	27.941578
2326.000000	27.975016
2325.000000	28.092413
2324.000000	28.262306
2323.000000	28.102366
2322.000000	27.988474
2321.000000	27.910474
2320.000000	27.993982
2319.000000	28.103330
2318.000000	28.087186
2317.000000	27.882495
2316.000000	27.934696
2315.000000	27.734504
2314.000000	27.692314
2313.000000	27.659257
2312.000000	27.735263
2311.000000	27.772513
2310.000000	27.964863
2309.000000	27.794547
2308.000000	27.515304
2307.000000	27.392480
2306.000000	27.362403
2305.000000	27.424552
2304.000000	27.390939
2303.000000	27.618655
2302.000000	27.473608
2301.000000	27.077892
2300.000000	27.234158
2299.000000	27.085696
2298.000000	27.108842
2297.000000	27.077822
2296.000000	26.862998
2295.000000	26.921072
2294.000000	26.868122
2293.000000	26.636811
2292.000000	26.606729
2291.000000	26.620934
2290.000000	26.497932
2289.000000	26.362000
2288.000000	26.414253
2287.000000	26.604420
2286.000000	26.613377
2285.000000	26.502622
2284.000000	26.391999
2283.000000	26.367562
2282.000000	26.306341
2281.000000	26.655557
2280.000000	26.736537
2279.000000	26.528954
2278.000000	26.386186
2277.000000	26.508146
2276.000000	26.441152
2275.000000	26.384275
2274.000000	26.377617
2273.000000	26.490812
2272.000000	26.660267
2271.000000	26.643214
2270.000000	26.600711
2269.000000	26.607960
2268.000000	26.755528
2267.000000	26.804265
2266.000000	26.859961
2265.000000	26.804662
2264.000000	26.930572
2263.000000	27.137200
2262.000000	27.144737
2261.000000	27.298793
2260.000000	27.388824
2259.000000	27.510529
2258.000000	27.692847
2257.000000	27.574040
2256.000000	27.601665
2255.000000	28.021929
2254.000000	28.127574
2253.000000	28.030724
2252.000000	28.166875
2251.000000	28.447396
2250.000000	28.560476
2249.000000	28.727509
2248.000000	28.945996
2247.000000	29.075663
2246.000000	29.138068
2245.000000	29.112898
2244.000000	29.218378
2243.000000	29.440001
2242.000000	29.482266
2241.000000	29.537266
2240.000000	29.604932
2239.000000	29.774250
2238.000000	29.971016
2237.000000	30.088379
2236.000000	30.112853
2235.000000	30.102382
2234.000000	30.172951
2233.000000	30.167858
2232.000000	30.333419
2231.000000	30.412277
2230.000000	30.394972
2229.000000	30.416328
2228.000000	30.528899
2227.000000	30.546983
2226.000000	30.447817
2225.000000	30.347008
2224.000000	30.434550
2223.000000	30.391612
2222.000000	30.203419
2221.000000	30.332183
2220.000000	30.496630
2219.000000	30.412500
2218.000000	30.296023
2217.000000	30.213662
2216.000000	30.179676
2215.000000	30.352609
2214.000000	30.389437
2213.000000	30.187463
2212.000000	30.026736
2211.000000	29.916490
2210.000000	30.023250
2209.000000	29.904222
2208.000000	29.835321
2207.000000	29.859695
2206.000000	29.913445
2205.000000	29.889429
2204.000000	29.806060
2203.000000	29.616595
2202.000000	29.648872
2201.000000	29.697981
2200.000000	29.609572
2199.000000	29.702454
2198.000000	29.585008
2197.000000	29.432870
2196.000000	29.496209
2195.000000	29.342365
2194.000000	29.190867
2193.000000	29.250345
2192.000000	29.151389
2191.000000	29.141536
2190.000000	29.238637
2189.000000	29.199853
2188.000000	29.071186
2187.000000	29.123547
2186.000000	29.011445
2185.000000	28.993766
2184.000000	29.129485
2183.000000	29.170097
2182.000000	28.914033
2181.000000	28.791618
2180.000000	28.808639
2179.000000	28.865401
2178.000000	28.857371
2177.000000	28.934186
2176.000000	28.844712
2175.000000	28.964154
2174.000000	28.989016
2173.000000	29.004226
2172.000000	29.080424
2171.000000	29.202624
2170.000000	29.212739
2169.000000	29.307045
2168.000000	29.292745
2167.000000	29.320928
2166.000000	29.315251
2165.000000	29.564158
2164.000000	29.579548
2163.000000	29.710677
2162.000000	29.697051
2161.000000	29.705085
2160.000000	30.044424
2159.000000	29.963427
2158.000000	29.965971
2157.000000	30.065950
2156.000000	30.258930
2155.000000	30.317036
2154.000000	30.550840
2153.000000	30.550352
2152.000000	30.833621
2151.000000	30.788548
2150.000000	30.815972
2149.000000	30.986589
2148.000000	31.098936
2147.000000	31.196124
2146.000000	31.263785
2145.000000	31.392593
2144.000000	31.567793
2143.000000	31.495532
2142.000000	31.806092
2141.000000	31.773661
2140.000000	31.875323
2139.000000	32.066845
2138.000000	32.225609
2137.000000	32.109248
2136.000000	32.166853
2135.000000	32.188608
2134.000000	32.289555
2133.000000	32.180141
2132.000000	32.457485
2131.000000	32.606474
2130.000000	32.537579
2129.000000	32.581962
2128.000000	32.510333
2127.000000	32.496616
2126.000000	32.546334
2125.000000	32.554059
2124.000000	32.676529
2123.000000	32.775218
2122.000000	32.928871
2121.000000	32.932207
2120.000000	32.751016
2119.000000	32.883468
2118.000000	32.939317
2117.000000	33.063191
2116.000000	33.030380
2115.000000	33.076489
2114.000000	32.971227
2113.000000	32.786768
2112.000000	32.860740
2111.000000	32.955063
2110.000000	32.981410
2109.000000	33.001783
2108.000000	32.895912
2107.000000	32.977428
2106.000000	33.017703
2105.000000	32.938348
2104.000000	32.964080
2103.000000	33.083362
2102.000000	33.080615
2101.000000	33.122157
2100.000000	33.109616
2099.000000	33.179125
2098.000000	33.022714
2097.000000	32.982935
2096.000000	33.025390
2095.000000	32.890050
2094.000000	33.077577
2093.000000	33.000780
2092.000000	32.952500
2091.000000	33.006046
2090.000000	32.997995
2089.000000	33.001755
2088.000000	33.036716
2087.000000	32.957038
2086.000000	32.895412
2085.000000	32.864139
2084.000000	32.794601
2083.000000	32.724489
2082.000000	32.740026
2081.000000	32.694226
2080.000000	32.490146
2079.000000	32.448632
2078.000000	32.448765
2077.000000	32.490779
2076.000000	32.406426
2075.000000	32.294500
2074.000000	32.191280
2073.000000	32.121643
2072.000000	32.069806
2071.000000	31.917613
2070.000000	31.787993
2069.000000	31.756231
2068.000000	31.608066
2067.000000	31.547437
2066.000000	31.417773
2065.000000	31.266299
2064.000000	31.301173
2063.000000	31.160332
2062.000000	31.099948
2061.000000	30.925807
2060.000000	30.862904
2059.000000	30.778734
2058.000000	30.657293
2057.000000	30.594969
2056.000000	30.524900
2055.000000	30.453500
2054.000000	30.386556
2053.000000	30.280695
2052.000000	30.133816
2051.000000	29.979638
2050.000000	29.889541
2049.000000	29.855781
2048.000000	29.799033
2047.000000	29.761931
2046.000000	29.737894
2045.000000	29.668282
2044.000000	29.604103
2043.000000	29.590886
2042.000000	29.572436
2041.000000	29.634133
2040.000000	29.705072
2039.000000	29.635829
2038.000000	29.609131
2037.000000	29.677197
2036.000000	29.741378
2035.000000	29.801717
2034.000000	29.884590
2033.000000	29.922721
2032.000000	29.986964
2031.000000	30.040499
2030.000000	30.088742
2029.000000	30.151451
2028.000000	30.226835
2027.000000	30.244297
2026.000000	30.304688
2025.000000	30.401600
2024.000000	30.405500
2023.000000	30.422715
2022.000000	30.427535
2021.000000	30.411195
2020.000000	30.457509
2019.000000	30.478564
2018.000000	30.472856
2017.000000	30.525108
2016.000000	30.499180
2015.000000	30.441789
2014.000000	30.421356
2013.000000	30.368104
2012.000000	30.352752
2011.000000	30.375053
2010.000000	30.329931
2009.000000	30.233457
2008.000000	30.182359
2007.000000	30.116800
2006.000000	30.040857
2005.000000	29.991891
2004.000000	29.963660
2003.000000	29.924670
2002.000000	29.801790
2001.000000	29.700027
2000.000000	29.637105
1999.000000	29.550893
1998.000000	29.471461
1997.000000	29.433350
1996.000000	29.389679
1995.000000	29.323584
1994.000000	29.175771
1993.000000	29.061580
1992.000000	28.992680
1991.000000	28.955504
1990.000000	28.873676
1989.000000	28.727948
1988.000000	28.654772
1987.000000	28.642350
1986.000000	28.570763
1985.000000	28.516631
1984.000000	28.436620
1983.000000	28.341657
1982.000000	28.287358
1981.000000	28.250918
1980.000000	28.136629
1979.000000	28.030324
1978.000000	27.986351
1977.000000	27.890088
1976.000000	27.805336
1975.000000	27.771046
1974.000000	27.691481
1973.000000	27.605469
1972.000000	27.512269
1971.000000	27.516390
1970.000000	27.424813
1969.000000	27.354530
1968.000000	27.303327
1967.000000	27.228083
1966.000000	27.223511
1965.000000	27.120800
1964.000000	27.090611
1963.000000	27.032675
1962.000000	26.970474
1961.000000	26.897759
1960.000000	26.831650
1959.000000	26.750369
1958.000000	26.754418
1957.000000	26.721896
1956.000000	26.688444
1955.000000	26.704042
1954.000000	26.594052
1953.000000	26.544256
1952.000000	26.557761
1951.000000	26.566325
1950.000000	26.428641
1949.000000	26.448480
1948.000000	26.484828
1947.000000	26.457206
1946.000000	26.407788
1945.000000	26.468785
1944.000000	26.529989
1943.000000	26.554824
1942.000000	26.513539
1941.000000	26.537598
1940.000000	26.618319
1939.000000	26.658019
1938.000000	26.702982
1937.000000	26.789903
1936.000000	26.930979
1935.000000	26.801698
1934.000000	26.986841
1933.000000	27.022838
1932.000000	27.153453
1931.000000	27.249116
1930.000000	27.252349
1929.000000	27.454803
1928.000000	27.571502
1927.000000	27.735038
1926.000000	27.941997
1925.000000	28.113719
1924.000000	28.249907
1923.000000	28.388440
1922.000000	28.550382
1921.000000	28.855521
1920.000000	28.916015
1919.000000	29.187898
1918.000000	29.441433
1917.000000	29.688260
1916.000000	29.672427
1915.000000	30.110906
1914.000000	30.425953
1913.000000	30.681507
1912.000000	30.929474
1911.000000	31.196010
1910.000000	31.468255
1909.000000	31.749267
1908.000000	32.213405
1907.000000	32.385230
1906.000000	32.797735
1905.000000	33.166160
1904.000000	33.535636
1903.000000	33.894733
1902.000000	34.371346
1901.000000	34.689453
1900.000000	35.104509
1899.000000	35.496225
1898.000000	35.893188
1897.000000	36.252109
1896.000000	36.602869
1895.000000	37.126928
1894.000000	37.473500
1893.000000	37.885495
1892.000000	38.329376
1891.000000	38.709211
1890.000000	39.117928
1889.000000	39.532073
1888.000000	39.940684
1887.000000	40.285121
1886.000000	40.603420
1885.000000	40.909600
1884.000000	41.279959
1883.000000	41.593495
1882.000000	41.900406
1881.000000	42.213953
1880.000000	42.486473
1879.000000	42.740208
1878.000000	43.049461
1877.000000	43.392346
1876.000000	43.546089
1875.000000	43.799063
1874.000000	44.123967
1873.000000	44.344731
1872.000000	44.537464
1871.000000	44.678500
1870.000000	44.821408
1869.000000	45.005935
1868.000000	45.180191
1867.000000	45.214595
1866.000000	45.312921
1865.000000	45.472080
1864.000000	45.560495
1863.000000	45.662236
1862.000000	45.762570
1861.000000	45.766410
1860.000000	45.874776
1859.000000	45.925105
1858.000000	45.987993
1857.000000	46.029130
1856.000000	46.052355
1855.000000	46.065737
1854.000000	46.136895
1853.000000	46.197086
1852.000000	46.219735
1851.000000	46.257291
1850.000000	46.256178
1849.000000	46.222323
1848.000000	46.210965
1847.000000	46.227606
1846.000000	46.249470
1845.000000	46.219624
1844.000000	46.166546
1843.000000	46.166291
1842.000000	46.163443
1841.000000	46.121897
1840.000000	46.124524
1839.000000	46.102392
1838.000000	46.089973
1837.000000	46.057218
1836.000000	46.020585
1835.000000	45.950689
1834.000000	45.895577
1833.000000	45.831556
1832.000000	45.807958
1831.000000	45.751808
1830.000000	45.702276
1829.000000	45.687492
1828.000000	45.674735
1827.000000	45.657295
1826.000000	45.611373
1825.000000	45.571696
1824.000000	45.536837
1823.000000	45.511779
1822.000000	45.456256
1821.000000	45.439276
1820.000000	45.437207
1819.000000	45.382879
1818.000000	45.326346
1817.000000	45.310236
1816.000000	45.288394
1815.000000	45.256996
1814.000000	45.237434
1813.000000	45.213831
1812.000000	45.169387
1811.000000	45.143948
1810.000000	45.119352
1809.000000	45.100993
1808.000000	45.081349
1807.000000	45.051132
1806.000000	45.013413
1805.000000	44.971235
1804.000000	44.946249
1803.000000	44.926906
1802.000000	44.902686
1801.000000	44.878514
1800.000000	44.851770
1799.000000	44.824973
1798.000000	44.810093
1797.000000	44.786435
1796.000000	44.758855
1795.000000	44.767499
1794.000000	44.768704
1793.000000	44.746325
1792.000000	44.706643
1791.000000	44.706158
1790.000000	44.706201
1789.000000	44.698672
1788.000000	44.687157
1787.000000	44.665552
1786.000000	44.661446
1785.000000	44.653367
1784.000000	44.645309
1783.000000	44.608408
1782.000000	44.576704
1781.000000	44.559105
1780.000000	44.548362
1779.000000	44.531064
1778.000000	44.476352
1777.000000	44.411045
1776.000000	44.396099
1775.000000	44.354417
1774.000000	44.320868
1773.000000	44.296857
1772.000000	44.241350
1771.000000	44.180988
1770.000000	44.148392
1769.000000	44.139684
1768.000000	44.104920
1767.000000	44.066063
1766.000000	44.026942
1765.000000	44.000941
1764.000000	43.950845
1763.000000	43.882805
1762.000000	43.861116
1761.000000	43.815887
1760.000000	43.728141
1759.000000	43.689655
1758.000000	43.682886
1757.000000	43.654480
1756.000000	43.620043
1755.000000	43.585333
1754.000000	43.543070
1753.000000	43.508711
1752.000000	43.466480
1751.000000	43.446932
1750.000000	43.398651
1749.000000	43.363547
1748.000000	43.315810
1747.000000	43.263789
1746.000000	43.212746
1745.000000	43.140500
1744.000000	43.101000
1743.000000	43.066784
1742.000000	43.018678
1741.000000	42.985213
1740.000000	42.976670
1739.000000	42.920360
1738.000000	42.868175
1737.000000	42.831858
1736.000000	42.804103
1735.000000	42.832673
1734.000000	42.845211
1733.000000	42.789758
1732.000000	42.812316
1731.000000	42.816008
1730.000000	42.825089
1729.000000	42.856810
1728.000000	42.891477
1727.000000	42.954566
1726.000000	42.970306
1725.000000	43.024354
1724.000000	43.102921
1723.000000	43.163744
1722.000000	43.238358
1721.000000	43.325162
1720.000000	43.414355
1719.000000	43.538383
1718.000000	43.561390
1717.000000	43.685940
1716.000000	43.785214
1715.000000	43.817956
1714.000000	43.899965
1713.000000	43.975918
1712.000000	44.042536
1711.000000	44.112411
1710.000000	44.191003
1709.000000	44.248034
1708.000000	44.244700
1707.000000	44.292749
1706.000000	44.338717
1705.000000	44.377434
1704.000000	44.418188
1703.000000	44.411613
1702.000000	44.417266
1701.000000	44.450603
1700.000000	44.505384
1699.000000	44.482104
1698.000000	44.496669
1697.000000	44.564524
1696.000000	44.569551
1695.000000	44.579953
1694.000000	44.622024
1693.000000	44.656861
1692.000000	44.686238
1691.000000	44.725065
1690.000000	44.817804
1689.000000	44.905640
1688.000000	44.981331
1687.000000	45.059219
1686.000000	45.162153
1685.000000	45.297814
1684.000000	45.382679
1683.000000	45.522538
1682.000000	45.676922
1681.000000	45.811881
1680.000000	45.953227
1679.000000	46.063618
1678.000000	46.249187
1677.000000	46.400591
1676.000000	46.538646
1675.000000	46.675629
1674.000000	46.825947
1673.000000	47.003135
1672.000000	47.136510
1671.000000	47.246538
1670.000000	47.358978
1669.000000	47.555543
1668.000000	47.663494
1667.000000	47.792452
1666.000000	47.861321
1665.000000	47.947418
1664.000000	48.047973
1663.000000	48.109646
1662.000000	48.165328
1661.000000	48.248669
1660.000000	48.303934
1659.000000	48.373691
1658.000000	48.411738
1657.000000	48.430671
1656.000000	48.471039
1655.000000	48.498675
1654.000000	48.478285
1653.000000	48.497619
1652.000000	48.544326
1651.000000	48.539312
1650.000000	48.542897
1649.000000	48.544016
1648.000000	48.531679
1647.000000	48.531717
1646.000000	48.510109
1645.000000	48.455886
1644.000000	48.492041
1643.000000	48.462910
1642.000000	48.407707
1641.000000	48.392978
1640.000000	48.360844
1639.000000	48.331016
1638.000000	48.296335
1637.000000	48.274295
1636.000000	48.233811
1635.000000	48.216710
1634.000000	48.170200
1633.000000	48.111929
1632.000000	48.075239
1631.000000	48.043281
1630.000000	48.001960
1629.000000	47.950870
1628.000000	47.921921
1627.000000	47.879293
1626.000000	47.831488
1625.000000	47.793832
1624.000000	47.738105
1623.000000	47.699783
1622.000000	47.661426
1621.000000	47.588348
1620.000000	47.536989
1619.000000	47.490161
1618.000000	47.446698
1617.000000	47.400405
1616.000000	47.348525
1615.000000	47.291437
1614.000000	47.223828
1613.000000	47.160462
1612.000000	47.113768
1611.000000	47.060300
1610.000000	47.001101
1609.000000	46.963476
1608.000000	46.915557
1607.000000	46.849507
1606.000000	46.792609
1605.000000	46.732968
1604.000000	46.668995
1603.000000	46.613573
1602.000000	46.552290
1601.000000	46.501875
1600.000000	46.443145
1599.000000	46.388387
1598.000000	46.342908
1597.000000	46.280231
1596.000000	46.206548
1595.000000	46.168537
1594.000000	46.132062
1593.000000	46.076639
1592.000000	46.022252
1591.000000	45.976545
1590.000000	45.934359
1589.000000	45.888692
1588.000000	45.846066
1587.000000	45.796367
1586.000000	45.752175
1585.000000	45.707222
1584.000000	45.662594
1583.000000	45.626196
1582.000000	45.580828
1581.000000	45.528960
1580.000000	45.479094
1579.000000	45.433024
1578.000000	45.401636
1577.000000	45.373016
1576.000000	45.322381
1575.000000	45.270558
1574.000000	45.217720
1573.000000	45.171039
1572.000000	45.133499
1571.000000	45.087655
1570.000000	45.036366
1569.000000	45.019834
1568.000000	44.986337
1567.000000	44.941950
1566.000000	44.912028
1565.000000	44.875179
1564.000000	44.839283
1563.000000	44.815304
1562.000000	44.771580
1561.000000	44.741901
1560.000000	44.740876
1559.000000	44.717021
1558.000000	44.673652
1557.000000	44.655782
1556.000000	44.633969
1555.000000	44.611463
1554.000000	44.567944
1553.000000	44.517865
1552.000000	44.487509
1551.000000	44.468714
1550.000000	44.452482
1549.000000	44.409910
1548.000000	44.371250
1547.000000	44.314648
1546.000000	44.244237
1545.000000	44.186541
1544.000000	44.120185
1543.000000	44.054315
1542.000000	43.989757
1541.000000	43.924690
1540.000000	43.851048
1539.000000	43.780434
1538.000000	43.692635
1537.000000	43.623264
1536.000000	43.546369
1535.000000	43.473511
1534.000000	43.402388
1533.000000	43.337724
1532.000000	43.245518
1531.000000	43.182188
1530.000000	43.113400
1529.000000	43.039643
1528.000000	42.978588
1527.000000	42.934801
1526.000000	42.896443
1525.000000	42.816975
1524.000000	42.764652
1523.000000	42.712167
1522.000000	42.672566
1521.000000	42.623876
1520.000000	42.609657
1519.000000	42.561323
1518.000000	42.532190
1517.000000	42.496363
1516.000000	42.478093
1515.000000	42.453094
1514.000000	42.405227
1513.000000	42.402658
1512.000000	42.372808
1511.000000	42.365986
1510.000000	42.328403
1509.000000	42.323170
1508.000000	42.303065
1507.000000	42.278975
1506.000000	42.262022
1505.000000	42.262664
1504.000000	42.250622
1503.000000	42.235356
1502.000000	42.224997
1501.000000	42.222724
1500.000000	42.216635
1499.000000	42.204786
1498.000000	42.193520
1497.000000	42.195468
1496.000000	42.190091
1495.000000	42.231736
1494.000000	42.222840
1493.000000	42.228956
1492.000000	42.240272
1491.000000	42.251697
1490.000000	42.262326
1489.000000	42.269532
1488.000000	42.322041
1487.000000	42.326845
1486.000000	42.347543
1485.000000	42.369967
1484.000000	42.391931
1483.000000	42.415907
1482.000000	42.436320
1481.000000	42.473145
1480.000000	42.504431
1479.000000	42.524607
1478.000000	42.556616
1477.000000	42.580568
1476.000000	42.590469
1475.000000	42.619723
1474.000000	42.636870
1473.000000	42.682678
1472.000000	42.710750
1471.000000	42.728858
1470.000000	42.759802
1469.000000	42.794528
1468.000000	42.822047
1467.000000	42.844937
1466.000000	42.870014
1465.000000	42.912767
1464.000000	42.941145
1463.000000	42.974440
1462.000000	43.015303
1461.000000	43.049518
1460.000000	43.071526
1459.000000	43.127508
1458.000000	43.181871
1457.000000	43.224998
1456.000000	43.271226
1455.000000	43.314059
1454.000000	43.367995
1453.000000	43.421332
1452.000000	43.507241
1451.000000	43.566324
1450.000000	43.628616
1449.000000	43.685238
1448.000000	43.758903
1447.000000	43.836479
1446.000000	43.905023
1445.000000	43.990830
1444.000000	44.066383
1443.000000	44.150863
1442.000000	44.232859
1441.000000	44.305590
1440.000000	44.424184
1439.000000	44.514231
1438.000000	44.610614
1437.000000	44.716219
1436.000000	44.825645
1435.000000	44.934992
1434.000000	45.030863
1433.000000	45.155130
1432.000000	45.278758
1431.000000	45.398493
1430.000000	45.525575
1429.000000	45.670729
1428.000000	45.802980
1427.000000	45.945946
1426.000000	46.089479
1425.000000	46.231456
1424.000000	46.380270
1423.000000	46.543544
1422.000000	46.719946
1421.000000	46.890985
1420.000000	47.056092
1419.000000	47.219949
1418.000000	47.395390
1417.000000	47.582194
1416.000000	47.768875
1415.000000	47.955611
1414.000000	48.127698
1413.000000	48.320069
1412.000000	48.514929
1411.000000	48.708419
1410.000000	48.899997
1409.000000	49.086115
1408.000000	49.275551
1407.000000	49.478223
1406.000000	49.666350
1405.000000	49.857548
1404.000000	50.035557
1403.000000	50.226168
1402.000000	50.407328
1401.000000	50.592332
1400.000000	50.768662
1399.000000	50.927855
1398.000000	51.107294
1397.000000	51.279459
1396.000000	51.443038
1395.000000	51.605159
1394.000000	51.759852
1393.000000	51.912124
1392.000000	52.063647
1391.000000	52.201217
1390.000000	52.337155
1389.000000	52.457606
1388.000000	52.587548
1387.000000	52.717565
1386.000000	52.824134
1385.000000	52.944496
1384.000000	53.064559
1383.000000	53.169776
1382.000000	53.242816
1381.000000	53.337003
1380.000000	53.441146
1379.000000	53.521828
1378.000000	53.602407
1377.000000	53.690413
1376.000000	53.768396
1375.000000	53.812737
1374.000000	53.883807
1373.000000	53.954093
1372.000000	53.996135
1371.000000	54.056667
1370.000000	54.124734
1369.000000	54.183158
1368.000000	54.224511
1367.000000	54.263849
1366.000000	54.321096
1365.000000	54.374887
1364.000000	54.424090
1363.000000	54.476360
1362.000000	54.534994
1361.000000	54.596988
1360.000000	54.643374
1359.000000	54.688142
1358.000000	54.749851
1357.000000	54.805654
1356.000000	54.853639
1355.000000	54.918202
1354.000000	54.977396
1353.000000	55.037908
1352.000000	55.092848
1351.000000	55.155016
1350.000000	55.219439
1349.000000	55.284679
1348.000000	55.331371
1347.000000	55.378754
1346.000000	55.458380
1345.000000	55.521055
1344.000000	55.565902
1343.000000	55.623166
1342.000000	55.689191
1341.000000	55.730632
1340.000000	55.789851
1339.000000	55.843978
1338.000000	55.907954
1337.000000	55.947102
1336.000000	55.987950
1335.000000	56.038258
1334.000000	56.069006
1333.000000	56.120255
1332.000000	56.168701
1331.000000	56.227954
1330.000000	56.280588
1329.000000	56.317689
1328.000000	56.359821
1327.000000	56.386238
1326.000000	56.386092
1325.000000	56.410355
1324.000000	56.435699
1323.000000	56.422145
1322.000000	56.461594
1321.000000	56.495764
1320.000000	56.519480
1319.000000	56.544672
1318.000000	56.552302
1317.000000	56.576782
1316.000000	56.587663
1315.000000	56.602570
1314.000000	56.646086
1313.000000	56.667272
1312.000000	56.653784
1311.000000	56.694073
1310.000000	56.706232
1309.000000	56.709429
1308.000000	56.735902
1307.000000	56.736150
1306.000000	56.742653
1305.000000	56.780945
1304.000000	56.793447
1303.000000	56.817019
1302.000000	56.821198
1301.000000	56.838750
1300.000000	56.822617
1299.000000	56.838147
1298.000000	56.845920
1297.000000	56.838844
1296.000000	56.847339
1295.000000	56.854997
1294.000000	56.845704
1293.000000	56.853486
1292.000000	56.869407
1291.000000	56.870939
1290.000000	56.857809
1289.000000	56.873015
1288.000000	56.878632
1287.000000	56.868903
1286.000000	56.865037
1285.000000	56.874608
1284.000000	56.875089
1283.000000	56.854139
1282.000000	56.840485
1281.000000	56.840123
1280.000000	56.836003
1279.000000	56.835760
1278.000000	56.854930
1277.000000	56.848471
1276.000000	56.857746
1275.000000	56.833008
1274.000000	56.853385
1273.000000	56.845974
1272.000000	56.843159
1271.000000	56.843419
1270.000000	56.856405
1269.000000	56.859803
1268.000000	56.846785
1267.000000	56.878499
1266.000000	56.875145
1265.000000	56.910750
1264.000000	56.925305
1263.000000	56.917204
1262.000000	56.918809
1261.000000	56.922706
1260.000000	56.941529
1259.000000	56.927152
1258.000000	56.963808
1257.000000	56.965372
1256.000000	56.964312
1255.000000	56.973038
1254.000000	56.974633
1253.000000	56.962328
1252.000000	56.964106
1251.000000	56.981353
1250.000000	56.972825
1249.000000	56.977631
1248.000000	56.964411
1247.000000	56.965173
1246.000000	56.962292
1245.000000	56.965166
1244.000000	56.973574
1243.000000	56.938241
1242.000000	56.942416
1241.000000	56.922101
1240.000000	56.888728
1239.000000	56.889653
1238.000000	56.890263
1237.000000	56.846382
1236.000000	56.809036
1235.000000	56.794880
1234.000000	56.775698
1233.000000	56.761098
1232.000000	56.723745
1231.000000	56.713934
1230.000000	56.713195
1229.000000	56.692705
1228.000000	56.681670
1227.000000	56.636863
1226.000000	56.612667
1225.000000	56.597658
1224.000000	56.584149
1223.000000	56.570044
1222.000000	56.527972
1221.000000	56.504751
1220.000000	56.495701
1219.000000	56.460617
1218.000000	56.431031
1217.000000	56.402761
1216.000000	56.378983
1215.000000	56.340761
1214.000000	56.337335
1213.000000	56.326301
1212.000000	56.295578
1211.000000	56.272617
1210.000000	56.253599
1209.000000	56.227170
1208.000000	56.183407
1207.000000	56.182598
1206.000000	56.145420
1205.000000	56.115336
1204.000000	56.094999
1203.000000	56.071668
1202.000000	56.040998
1201.000000	56.014592
1200.000000	55.994469
1199.000000	55.958884
1198.000000	55.934405
1197.000000	55.916465
1196.000000	55.899438
1195.000000	55.895687
1194.000000	55.881159
1193.000000	55.850507
1192.000000	55.837105
1191.000000	55.836444
1190.000000	55.822680
1189.000000	55.783063
1188.000000	55.791510
1187.000000	55.786714
1186.000000	55.782646
1185.000000	55.797647
1184.000000	55.812090
1183.000000	55.820579
1182.000000	55.846506
1181.000000	55.881951
1180.000000	55.909484
1179.000000	55.935700
1178.000000	55.967413
1177.000000	56.002995
1176.000000	56.048442
1175.000000	56.101056
1174.000000	56.148141
1173.000000	56.196950
1172.000000	56.242638
1171.000000	56.287237
1170.000000	56.346912
1169.000000	56.401297
1168.000000	56.462988
1167.000000	56.536362
1166.000000	56.597870
1165.000000	56.667338
1164.000000	56.751473
1163.000000	56.810673
1162.000000	56.859931
1161.000000	56.928860
1160.000000	57.000797
1159.000000	57.053275
1158.000000	57.121618
1157.000000	57.178046
1156.000000	57.231678
1155.000000	57.306416
1154.000000	57.344754
1153.000000	57.376283
1152.000000	57.442091
1151.000000	57.503160
1150.000000	57.559214
1149.000000	57.616264
1148.000000	57.662271
1147.000000	57.717382
1146.000000	57.761920
1145.000000	57.803907
1144.000000	57.850760
1143.000000	57.896237
1142.000000	57.936746
1141.000000	57.970670
1140.000000	58.008266
1139.000000	58.044106
1138.000000	58.069670
1137.000000	58.089711
1136.000000	58.139363
1135.000000	58.174621
1134.000000	58.212806
1133.000000	58.247145
1132.000000	58.284150
1131.000000	58.313108
1130.000000	58.337201
1129.000000	58.349041
1128.000000	58.367270
1127.000000	58.383020
1126.000000	58.401625
1125.000000	58.427130
1124.000000	58.456173
1123.000000	58.470923
1122.000000	58.487324
1121.000000	58.505608
1120.000000	58.513881
1119.000000	58.537962
1118.000000	58.545226
1117.000000	58.534640
1116.000000	58.543660
1115.000000	58.548464
1114.000000	58.559642
1113.000000	58.579757
1112.000000	58.586770
1111.000000	58.579944
1110.000000	58.591626
1109.000000	58.603506
1108.000000	58.599164
1107.000000	58.602915
1106.000000	58.614848
1105.000000	58.608777
1104.000000	58.602865
1103.000000	58.618363
1102.000000	58.618315
1101.000000	58.615736
1100.000000	58.626459
1099.000000	58.646836
1098.000000	58.653672
1097.000000	58.648016
1096.000000	58.639923
1095.000000	58.638908
1094.000000	58.637361
1093.000000	58.637971
1092.000000	58.652737
1091.000000	58.652796
1090.000000	58.640388
1089.000000	58.660700
1088.000000	58.660304
1087.000000	58.664800
1086.000000	58.667625
1085.000000	58.655297
1084.000000	58.636139
1083.000000	58.625416
1082.000000	58.638359
1081.000000	58.635912
1080.000000	58.637608
1079.000000	58.637863
1078.000000	58.641316
1077.000000	58.651532
1076.000000	58.632572
1075.000000	58.642154
1074.000000	58.628237
1073.000000	58.632686
1072.000000	58.624271
1071.000000	58.591842
1070.000000	58.616376
1069.000000	58.599621
1068.000000	58.613404
1067.000000	58.625181
1066.000000	58.603745
1065.000000	58.592442
1064.000000	58.594585
1063.000000	58.582243
1062.000000	58.584701
1061.000000	58.576247
1060.000000	58.560987
1059.000000	58.559286
1058.000000	58.564549
1057.000000	58.567805
1056.000000	58.567080
1055.000000	58.539041
1054.000000	58.550984
1053.000000	58.538598
1052.000000	58.541839
1051.000000	58.537306
1050.000000	58.535098
1049.000000	58.532903
1048.000000	58.531967
1047.000000	58.513877
1046.000000	58.511080
1045.000000	58.508156
1044.000000	58.510176
1043.000000	58.506846
1042.000000	58.492484
1041.000000	58.490228
1040.000000	58.492997
1039.000000	58.466182
1038.000000	58.483127
1037.000000	58.456359
1036.000000	58.484744
1035.000000	58.476023
1034.000000	58.475429
1033.000000	58.453514
1032.000000	58.449378
1031.000000	58.452474
1030.000000	58.453467
1029.000000	58.454696
1028.000000	58.458651
1027.000000	58.443236
1026.000000	58.440377
1025.000000	58.424647
1024.000000	58.419864
1023.000000	58.428886
1022.000000	58.414081
1021.000000	58.437272
1020.000000	58.441737
1019.000000	58.447428
1018.000000	58.434020
1017.000000	58.434703
1016.000000	58.425802
1015.000000	58.430431
1014.000000	58.437814
1013.000000	58.429338
1012.000000	58.426705
1011.000000	58.410743
1010.000000	58.413246
1009.000000	58.419410
1008.000000	58.436588
1007.000000	58.440272
1006.000000	58.450698
1005.000000	58.446926
1004.000000	58.437962
1003.000000	58.455401
1002.000000	58.452487
1001.000000	58.463000
1000.000000	58.461002
999.000000	58.468210
998.000000	58.470238
997.000000	58.464143
996.000000	58.461696
995.000000	58.464662
994.000000	58.469780
993.000000	58.461787
992.000000	58.447047
991.000000	58.473943
990.000000	58.478658
989.000000	58.466738
988.000000	58.480644
987.000000	58.501149
986.000000	58.502202
985.000000	58.508427
984.000000	58.515967
983.000000	58.512925
982.000000	58.527463
981.000000	58.528429
980.000000	58.521934
979.000000	58.534633
978.000000	58.545550
977.000000	58.543398
976.000000	58.555358
975.000000	58.568236
974.000000	58.563764
973.000000	58.580114
972.000000	58.598956
971.000000	58.609771
970.000000	58.593328
969.000000	58.604522
968.000000	58.618438
967.000000	58.612215
966.000000	58.623723
965.000000	58.635356
964.000000	58.647125
963.000000	58.646070
962.000000	58.667591
961.000000	58.667518
960.000000	58.651147
959.000000	58.672009
958.000000	58.702015
957.000000	58.703934
956.000000	58.690946
955.000000	58.692759
954.000000	58.697736
953.000000	58.727222
952.000000	58.737139
951.000000	58.731395
950.000000	58.733102
949.000000	58.736404
948.000000	58.739264
947.000000	58.741256
946.000000	58.762623
945.000000	58.776515
944.000000	58.785944
943.000000	58.774254
942.000000	58.756486
941.000000	58.770015
940.000000	58.792666
939.000000	58.784162
938.000000	58.752441
937.000000	58.757275
936.000000	58.775014
935.000000	58.773067
934.000000	58.775489
933.000000	58.783529
932.000000	58.780956
931.000000	58.782661
930.000000	58.772017
929.000000	58.770031
928.000000	58.760378
927.000000	58.781127
926.000000	58.781552
925.000000	58.773315
924.000000	58.763950
923.000000	58.766471
922.000000	58.767373
921.000000	58.755637
920.000000	58.758104
919.000000	58.747392
918.000000	58.770790
917.000000	58.759933
916.000000	58.748306
915.000000	58.752950
914.000000	58.772970
913.000000	58.759618
912.000000	58.734189
911.000000	58.751000
910.000000	58.760323
909.000000	58.745550
908.000000	58.752899
907.000000	58.771066
906.000000	58.765561
905.000000	58.768670
904.000000	58.775023
903.000000	58.765720
902.000000	58.810067
901.000000	58.737526
900.000000	58.729182
899.000000	58.808732
898.000000	58.797310
897.000000	58.817154
896.000000	58.807934
895.000000	58.819968
894.000000	58.815419
893.000000	58.837032
892.000000	58.754830
891.000000	58.797844
890.000000	58.848500
889.000000	58.806404
888.000000	58.870644
887.000000	58.837790
886.000000	58.875280
885.000000	58.893785
884.000000	58.950318
883.000000	58.931916
882.000000	58.856680
881.000000	58.910708
880.000000	58.927889
879.000000	58.884648
878.000000	58.962694
877.000000	58.900081
876.000000	58.846564
875.000000	58.972243
874.000000	58.969060
873.000000	58.850282
872.000000	58.847273
871.000000	58.915292
870.000000	58.891768
869.000000	58.865327
868.000000	58.825748
867.000000	58.883407
866.000000	58.883390
865.000000	59.034717
864.000000	58.937557
863.000000	58.868402
862.000000	58.829929
861.000000	58.842626
860.000000	58.969324
859.000000	58.670932
858.000000	58.623914
857.000000	58.677845
856.000000	58.390718
855.000000	58.823676
854.000000	58.838702
853.000000	59.196350
852.000000	58.767065
851.000000	59.168276
850.000000	59.058649
849.000000	58.862154
848.000000	58.765738
847.000000	58.692979
846.000000	58.530300
845.000000	58.689635
844.000000	58.831894
843.000000	58.823344
842.000000	58.835281
841.000000	58.663686
840.000000	58.857338
839.000000	58.997615
838.000000	58.963815
837.000000	58.610022
836.000000	58.561560
835.000000	58.657299
834.000000	58.873203
833.000000	58.636598
832.000000	58.752457
831.000000	58.693116
830.000000	58.760202
829.000000	58.792747
828.000000	58.747173
827.000000	58.567142
826.000000	58.616602
825.000000	58.765823
824.000000	58.662959
823.000000	58.623298
822.000000	58.662727
821.000000	58.550513
820.000000	58.791837
819.000000	58.827792
818.000000	58.785624
817.000000	58.760793
816.000000	58.646942
815.000000	58.521661
814.000000	58.872258
813.000000	58.642157
812.000000	58.556015
811.000000	58.696093
810.000000	58.640466
809.000000	58.523792
808.000000	58.632724
807.000000	58.592576
806.000000	58.562807
805.000000	58.722100
804.000000	58.867101
803.000000	58.692433
802.000000	58.588016
801.000000	58.719586
800.000000	58.681985
799.000000	58.610161
798.000000	58.646055
797.000000	58.731455
796.000000	58.731638
795.000000	58.697357
794.000000	58.620060
793.000000	58.673055
792.000000	58.626400
791.000000	58.546829
790.000000	58.563306
789.000000	58.585228
788.000000	58.668792
787.000000	58.594948
786.000000	58.628334
785.000000	58.571148
784.000000	58.622657
783.000000	58.639731
782.000000	58.621615
781.000000	58.642518
780.000000	58.609444
779.000000	58.553241
778.000000	58.525044
777.000000	58.503579
776.000000	58.587832
775.000000	58.649981
774.000000	58.618017
773.000000	58.573311
772.000000	58.663513
771.000000	58.600367
770.000000	58.620977
769.000000	58.617695
768.000000	58.480805
767.000000	58.525267
766.000000	58.532991
765.000000	58.514761
764.000000	58.448305
763.000000	58.524007
762.000000	58.492677
761.000000	58.466945
760.000000	58.539349
759.000000	58.504708
758.000000	58.398476
757.000000	58.437173
756.000000	58.478815
755.000000	58.431902
754.000000	58.400477
753.000000	58.483763
752.000000	58.428423
751.000000	58.467877
750.000000	58.375662
749.000000	58.436376
748.000000	58.321426
747.000000	58.295208
746.000000	58.276959
745.000000	58.335747
744.000000	58.454950
743.000000	58.412841
742.000000	58.436565
741.000000	58.397312
740.000000	58.317831
739.000000	58.305659
738.000000	58.284589
737.000000	58.326441
736.000000	58.291561
735.000000	58.283548
734.000000	58.306423
733.000000	58.270957
732.000000	58.284766
731.000000	58.268218
730.000000	58.234987
729.000000	58.296025
728.000000	58.307270
727.000000	58.348692
726.000000	58.235760
725.000000	58.200496
724.000000	58.243524
723.000000	58.246834
722.000000	58.225988
721.000000	58.254755
720.000000	58.276612
719.000000	58.192265
718.000000	58.183641
717.000000	58.170719
716.000000	58.157301
715.000000	58.192086
714.000000	58.128776
713.000000	58.140906
712.000000	58.114533
711.000000	58.082887
710.000000	58.140331
709.000000	58.191309
708.000000	58.147360
707.000000	58.112685
706.000000	58.082715
705.000000	58.100877
704.000000	58.112376
703.000000	58.061361
702.000000	58.085767
701.000000	58.082913
700.000000	58.104822
699.000000	58.091445
698.000000	58.039548
697.000000	58.038974
696.000000	58.086335
695.000000	58.073802
694.000000	58.052854
693.000000	58.018702
692.000000	58.047841
691.000000	58.075281
690.000000	58.054839
689.000000	58.033467
688.000000	57.989596
687.000000	57.962989
686.000000	57.983021
685.000000	58.009867
684.000000	57.989786
683.000000	58.010072
682.000000	58.033408
681.000000	57.975614
680.000000	57.946655
679.000000	58.012731
678.000000	58.012585
677.000000	58.036030
676.000000	57.955574
675.000000	57.942275
674.000000	57.973873
673.000000	57.984022
672.000000	57.971212
671.000000	57.951922
670.000000	57.885850
669.000000	57.934954
668.000000	57.903618
667.000000	57.929334
666.000000	57.919124
665.000000	57.906447
664.000000	57.885308
663.000000	57.870355
662.000000	57.817387
661.000000	57.890256
660.000000	57.928980
659.000000	57.867261
658.000000	57.824059
657.000000	57.887192
656.000000	57.834982
655.000000	57.782738
654.000000	57.814974
653.000000	57.832423
652.000000	57.813499
651.000000	57.783529
650.000000	57.791717
649.000000	57.793866
648.000000	57.739355
647.000000	57.747758
646.000000	57.739752
645.000000	57.704240
644.000000	57.750094
643.000000	57.683899
642.000000	57.719043
641.000000	57.739350
640.000000	57.684951
639.000000	57.661539
638.000000	57.623244
637.000000	57.670205
636.000000	57.673856
635.000000	57.593279
634.000000	57.612033
633.000000	57.599747
632.000000	57.615046
631.000000	57.604330
630.000000	57.636193
629.000000	57.596540
628.000000	57.522571
627.000000	57.543333
626.000000	57.554163
625.000000	57.526882
624.000000	57.589525
623.000000	57.530391
622.000000	57.502550
621.000000	57.482048
620.000000	57.447996
619.000000	57.415442
618.000000	57.400401
617.000000	57.433254
616.000000	57.399066
615.000000	57.431397
614.000000	57.367572
613.000000	57.397323
612.000000	57.389060
611.000000	57.367576
610.000000	57.327871
609.000000	57.358825
608.000000	57.344551
607.000000	57.271330
606.000000	57.243971
605.000000	57.262147
604.000000	57.241233
603.000000	57.260337
602.000000	57.188643
601.000000	57.183450
600.000000	57.245556
599.000000	57.178742
598.000000	57.204592
597.000000	57.168821
596.000000	57.057654
595.000000	57.127683
594.000000	57.128999
593.000000	57.091958
592.000000	57.075541
591.000000	57.079023
590.000000	56.994492
589.000000	56.959506
588.000000	57.021104
587.000000	56.984313
586.000000	56.967732
585.000000	57.027774
584.000000	56.943712
583.000000	56.965946
582.000000	56.948122
581.000000	56.927447
580.000000	56.875641
579.000000	56.880048
578.000000	56.837877
577.000000	56.776302
576.000000	56.847151
575.000000	56.792949
574.000000	56.772527
573.000000	56.829971
572.000000	56.794931
571.000000	56.724293
570.000000	56.742556
569.000000	56.741628
568.000000	56.704891
567.000000	56.684831
566.000000	56.632604
565.000000	56.601004
564.000000	56.587576
563.000000	56.591038
562.000000	56.547647
561.000000	56.428445
560.000000	56.422869
559.000000	56.409995
558.000000	56.357223
557.000000	56.339822
556.000000	56.421333
555.000000	56.394721
554.000000	56.347420
553.000000	56.295615
552.000000	56.268271
551.000000	56.242977
550.000000	56.225473
549.000000	56.209194
548.000000	56.184727
547.000000	56.168397
546.000000	56.085326
545.000000	56.087449
544.000000	56.113375
543.000000	56.025841
542.000000	55.987160
541.000000	56.002888
540.000000	55.969472
539.000000	55.969112
538.000000	55.933716
537.000000	55.892694
536.000000	55.853075
535.000000	55.862711
534.000000	55.788992
533.000000	55.780221
532.000000	55.745584
531.000000	55.691368
530.000000	55.650850
529.000000	55.693065
528.000000	55.672994
527.000000	55.636946
526.000000	55.597670
525.000000	55.550499
524.000000	55.495814
523.000000	55.496457
522.000000	55.462528
521.000000	55.444472
520.000000	55.391288
519.000000	55.353945
518.000000	55.307458
517.000000	55.306126
516.000000	55.269264
515.000000	55.248506
514.000000	55.196559
513.000000	55.189590
512.000000	55.137392
511.000000	55.136771
510.000000	55.054191
509.000000	54.995730
508.000000	55.011799
507.000000	54.963962
506.000000	54.915793
505.000000	54.907321
504.000000	54.880119
503.000000	54.825709
502.000000	54.728181
501.000000	54.745362
500.000000	54.683938
499.000000	54.629033
498.000000	54.573299
497.000000	54.554418
496.000000	54.527021
495.000000	54.503878
494.000000	54.434429
493.000000	54.371982
492.000000	54.247479
491.000000	54.229595
490.000000	54.202727
489.000000	54.151123
488.000000	54.085501
487.000000	54.043465
486.000000	54.008545
485.000000	54.008105
484.000000	53.979137
483.000000	53.880528
482.000000	53.841903
481.000000	53.773951
480.000000	53.702084
479.000000	53.645992
478.000000	53.627640
477.000000	53.567487
476.000000	53.501484
475.000000	53.441316
474.000000	53.334046
473.000000	53.315697
472.000000	53.286672
471.000000	53.210097
470.000000	53.125570
469.000000	53.032066
468.000000	52.949925
467.000000	52.933715
466.000000	52.861479
465.000000	52.786327
464.000000	52.722384
463.000000	52.666718
462.000000	52.577692
461.000000	52.472652
460.000000	52.397443
459.000000	52.342764
458.000000	52.271365
457.000000	52.185106
456.000000	52.094905
455.000000	52.032149
454.000000	51.971202
453.000000	51.857363
452.000000	51.793256
451.000000	51.745192
450.000000	51.639256
449.000000	51.597839
448.000000	51.466216
447.000000	51.318005
446.000000	51.271035
445.000000	51.223101
444.000000	51.155077
443.000000	51.057018
442.000000	50.941439
441.000000	50.846128
440.000000	50.746961
439.000000	50.642720
438.000000	50.538359
437.000000	50.451544
436.000000	50.357566
435.000000	50.298158
434.000000	50.237611
433.000000	50.120466
432.000000	49.974157
431.000000	49.877689
430.000000	49.813352
429.000000	49.690817
428.000000	49.611488
427.000000	49.491321
426.000000	49.403727
425.000000	49.322258
424.000000	49.181668
423.000000	49.102456
422.000000	49.020336
421.000000	48.926341
420.000000	48.858460
419.000000	48.722812
418.000000	48.587098
417.000000	48.516640
416.000000	48.437661
415.000000	48.334891
414.000000	48.279257
413.000000	48.194533
412.000000	48.076999
411.000000	47.928112
410.000000	47.900992
409.000000	47.787112
408.000000	47.755971
407.000000	47.689345
406.000000	47.600772
405.000000	47.495391
404.000000	47.395881
403.000000	47.329947
402.000000	47.322827
401.000000	47.170460
400.000000	47.128007
399.000000	47.024268
398.000000	46.945008
397.000000	46.912351
396.000000	46.810508
395.000000	46.634756
394.000000	46.563834
393.000000	46.477484
392.000000	46.392169
391.000000	46.304822
390.000000	46.188111
389.000000	46.049706
388.000000	46.011297
387.000000	45.919177
386.000000	45.743329
385.000000	45.642058
384.000000	45.516914
383.000000	45.457214
382.000000	45.248160
381.000000	45.202558
380.000000	45.041158
379.000000	44.872530
378.000000	44.552152
377.000000	44.658880
376.000000	44.431846
375.000000	44.224770
374.000000	44.109594
373.000000	43.996232
372.000000	43.998049
371.000000	43.751987
370.000000	43.783576
369.000000	43.559047
368.000000	43.367847
367.000000	43.248446
366.000000	43.204927
365.000000	43.095958
364.000000	42.784087
363.000000	42.739519
362.000000	42.609875
361.000000	42.673486
360.000000	42.426143
359.000000	42.231895
358.000000	42.089499
357.000000	42.038864
356.000000	42.034771
355.000000	41.955716
354.000000	41.592753
353.000000	41.605248
352.000000	41.559539
351.000000	41.288681
350.000000	41.317063
349.000000	41.244618
348.000000	41.056546
347.000000	41.078105
346.000000	40.899204
345.000000	40.795696
344.000000	40.680639
343.000000	40.522561
342.000000	40.361933
341.000000	40.386891
340.000000	40.201778
339.000000	39.896709
338.000000	39.895880
337.000000	39.641822
336.000000	39.438138
335.000000	39.459208
334.000000	39.351169
333.000000	39.273143
332.000000	39.159057
331.000000	38.994593
330.000000	38.688312
329.000000	38.782211
328.000000	38.741620
327.000000	38.504180
326.000000	38.672735
325.000000	38.532193
324.000000	38.435635
323.000000	38.347188
322.000000	38.118706
321.000000	38.202184
320.000000	38.057295
319.000000	37.692715
318.000000	37.785810
317.000000	37.734882
316.000000	37.584074
315.000000	37.664185
314.000000	37.540344
313.000000	37.503454
312.000000	37.064173
311.000000	37.257948
310.000000	37.086018
309.000000	37.026516
308.000000	36.935523
307.000000	36.781522
306.000000	36.658516
305.000000	36.680307
304.000000	36.670680
303.000000	36.570352
302.000000	36.456577
301.000000	36.152686
300.000000	35.855108
299.000000	35.776058
298.000000	35.561601
297.000000	35.274047
296.000000	34.944936
295.000000	34.384370
294.000000	33.849825
293.000000	33.041564
292.000000	32.238443
291.000000	31.308728
290.000000	30.283217
289.000000	29.419138
288.000000	28.560700
287.000000	27.874054
286.000000	27.534496
285.000000	27.378886
284.000000	27.043344
283.000000	27.015751
282.000000	26.962162
281.000000	26.903246
280.000000	26.964437
279.000000	27.020598
278.000000	26.981026
277.000000	27.238197
276.000000	27.401919
275.000000	27.718991
274.000000	28.002073
273.000000	28.176291
272.000000	28.404183
271.000000	28.608369
270.000000	28.702228
269.000000	28.722371
268.000000	29.048190
267.000000	29.298702
266.000000	29.474509
265.000000	29.646706
264.000000	30.064692
263.000000	30.358231
262.000000	30.652611
261.000000	30.759996
260.000000	30.770723
259.000000	31.155242
258.000000	31.440285
257.000000	31.718133
256.000000	31.994818
255.000000	32.177441
254.000000	32.193279
253.000000	32.169111
252.000000	32.073010
251.000000	31.801979
250.000000	31.421596
249.000000	30.938933
248.000000	30.181912
247.000000	29.295163
246.000000	28.239983
245.000000	26.960815
244.000000	25.602268
243.000000	24.124479
242.000000	22.668332
241.000000	21.230295
240.000000	19.856015
239.000000	18.571534
238.000000	17.518324
237.000000	16.633886
236.000000	15.866455
235.000000	15.199746
234.000000	14.622316
233.000000	14.088511
232.000000	13.561413
231.000000	13.071408
230.000000	12.596857
229.000000	12.153980
228.000000	11.724884
227.000000	11.327801
226.000000	11.003249
225.000000	10.808873
224.000000	10.605183
223.000000	10.450309
222.000000	10.384403
221.000000	10.230335
220.000000	10.198489
219.000000	10.268083
218.000000	10.272681
217.000000	10.327713
216.000000	10.354536
215.000000	10.445005
214.000000	10.597627
213.000000	10.675607
212.000000	10.840085
211.000000	11.007592
210.000000	11.151704
209.000000	11.390896
208.000000	11.730459
207.000000	12.022999
206.000000	12.325591
205.000000	12.726916
204.000000	13.092133
203.000000	13.498432
202.000000	13.882436
201.000000	14.326041
200.000000	14.799268
