PE UV       SUBTECH     SPECTRUM    ASCII       PEDS        4.00        
   -1
RDVeauUK 32.Sample.asc
18/03/12
10:42:42.00
18/03/12
10:42:42.00
Administrator

200.000000
1
Lambda 750
750N8071901
PerkinElmer UV WinLab 6.0.4.0738 / 1.61.00 Lambda 900

0
0
3350/servo 860.8/2
0
0
UV/VIS
1
1
1
CommonBeamDepol,150mm sphere / downward view
0
0
0
0
Program
Program
3350/servo 860.8/2
3350/0.2 860.8/0.2
3350/0.2 860.8/0.2
0
1
 
 
 
0
 
860.8
319.2
860.8
Front
100
on
 
 
0
0
0
 
0
 
 
 
0
 
 
0
0
0
0
0
 
 
 
 
0
0


0
0
#HDR
-1
-1
#GR
nm
%R
1.0
0.0
2350.000000
-1.000000
2151
8
56.847963
11.716129
#DATA
2350.000000	23.474752
2349.000000	23.375903
2348.000000	23.322155
2347.000000	23.860626
2346.000000	23.604928
2345.000000	23.332528
2344.000000	23.476822
2343.000000	22.959606
2342.000000	23.399666
2341.000000	23.333067
2340.000000	23.411769
2339.000000	23.726203
2338.000000	23.915029
2337.000000	23.468316
2336.000000	23.620479
2335.000000	23.863102
2334.000000	23.941315
2333.000000	23.978067
2332.000000	24.254695
2331.000000	23.899740
2330.000000	24.000783
2329.000000	23.909372
2328.000000	24.108511
2327.000000	23.913537
2326.000000	24.052230
2325.000000	23.964992
2324.000000	23.862750
2323.000000	23.541270
2322.000000	23.849623
2321.000000	23.667680
2320.000000	23.972036
2319.000000	23.824970
2318.000000	23.971342
2317.000000	23.887113
2316.000000	23.610317
2315.000000	23.580271
2314.000000	23.397531
2313.000000	23.513241
2312.000000	23.618735
2311.000000	23.711818
2310.000000	23.540625
2309.000000	23.461420
2308.000000	23.565029
2307.000000	23.236288
2306.000000	23.155102
2305.000000	23.366545
2304.000000	23.243625
2303.000000	23.219677
2302.000000	23.126309
2301.000000	22.923624
2300.000000	22.568952
2299.000000	22.727548
2298.000000	22.700251
2297.000000	22.549368
2296.000000	22.657438
2295.000000	22.743884
2294.000000	22.720720
2293.000000	22.750351
2292.000000	22.581560
2291.000000	22.521095
2290.000000	22.594548
2289.000000	22.347680
2288.000000	22.465630
2287.000000	22.429183
2286.000000	22.346520
2285.000000	22.388280
2284.000000	22.330697
2283.000000	22.322458
2282.000000	22.173083
2281.000000	22.259985
2280.000000	22.369512
2279.000000	22.473485
2278.000000	22.237290
2277.000000	22.224745
2276.000000	22.331948
2275.000000	22.450044
2274.000000	22.524160
2273.000000	22.446274
2272.000000	22.445523
2271.000000	22.393927
2270.000000	22.447023
2269.000000	22.406480
2268.000000	22.456064
2267.000000	22.539023
2266.000000	22.548996
2265.000000	22.741072
2264.000000	22.743525
2263.000000	22.857195
2262.000000	22.921673
2261.000000	23.033107
2260.000000	23.110106
2259.000000	23.180567
2258.000000	23.372193
2257.000000	23.593134
2256.000000	23.597821
2255.000000	23.601352
2254.000000	23.863893
2253.000000	24.034191
2252.000000	24.053217
2251.000000	24.263177
2250.000000	24.531804
2249.000000	24.658213
2248.000000	24.589385
2247.000000	24.562215
2246.000000	24.658991
2245.000000	24.755304
2244.000000	24.978494
2243.000000	25.112739
2242.000000	25.248373
2241.000000	25.325882
2240.000000	25.382805
2239.000000	25.489621
2238.000000	25.502817
2237.000000	25.623008
2236.000000	25.760606
2235.000000	25.787427
2234.000000	25.805646
2233.000000	25.752764
2232.000000	25.740006
2231.000000	25.900404
2230.000000	26.026672
2229.000000	26.073809
2228.000000	26.111482
2227.000000	26.140470
2226.000000	26.050553
2225.000000	25.907973
2224.000000	25.841593
2223.000000	25.884405
2222.000000	25.935418
2221.000000	26.004570
2220.000000	26.003482
2219.000000	26.038528
2218.000000	25.952146
2217.000000	25.853291
2216.000000	25.909812
2215.000000	25.889945
2214.000000	25.814345
2213.000000	25.843028
2212.000000	25.833885
2211.000000	25.657881
2210.000000	25.619176
2209.000000	25.582763
2208.000000	25.423358
2207.000000	25.416635
2206.000000	25.423275
2205.000000	25.431818
2204.000000	25.335196
2203.000000	25.334841
2202.000000	25.319588
2201.000000	25.264474
2200.000000	25.301044
2199.000000	25.300558
2198.000000	25.236387
2197.000000	25.157615
2196.000000	25.098443
2195.000000	25.006384
2194.000000	24.997656
2193.000000	24.877616
2192.000000	24.810762
2191.000000	24.884969
2190.000000	24.823081
2189.000000	24.911290
2188.000000	24.621624
2187.000000	24.630292
2186.000000	24.614633
2185.000000	24.515507
2184.000000	24.616269
2183.000000	24.670508
2182.000000	24.669957
2181.000000	24.496562
2180.000000	24.655686
2179.000000	24.505938
2178.000000	24.580549
2177.000000	24.528555
2176.000000	24.598136
2175.000000	24.581241
2174.000000	24.735167
2173.000000	24.607474
2172.000000	24.653677
2171.000000	24.816258
2170.000000	24.753660
2169.000000	24.794177
2168.000000	24.934767
2167.000000	24.923523
2166.000000	24.906193
2165.000000	25.030298
2164.000000	25.058140
2163.000000	25.265701
2162.000000	25.350183
2161.000000	25.446192
2160.000000	25.519546
2159.000000	25.576158
2158.000000	25.485697
2157.000000	25.803792
2156.000000	25.865103
2155.000000	25.831298
2154.000000	25.996099
2153.000000	26.061809
2152.000000	26.029350
2151.000000	26.073291
2150.000000	26.321914
2149.000000	26.467414
2148.000000	26.425642
2147.000000	26.458141
2146.000000	26.640331
2145.000000	26.724997
2144.000000	26.720180
2143.000000	26.877470
2142.000000	26.917715
2141.000000	27.055274
2140.000000	27.313384
2139.000000	27.433373
2138.000000	27.489843
2137.000000	27.428827
2136.000000	27.563091
2135.000000	27.370598
2134.000000	27.730924
2133.000000	27.648085
2132.000000	27.606802
2131.000000	27.681282
2130.000000	27.819269
2129.000000	28.057644
2128.000000	27.733333
2127.000000	27.946826
2126.000000	27.739603
2125.000000	27.989955
2124.000000	27.999099
2123.000000	27.861247
2122.000000	27.910933
2121.000000	28.031725
2120.000000	28.134834
2119.000000	27.990416
2118.000000	28.106750
2117.000000	28.199833
2116.000000	28.275391
2115.000000	28.292288
2114.000000	28.267708
2113.000000	28.147995
2112.000000	28.276242
2111.000000	28.202336
2110.000000	28.138406
2109.000000	28.238003
2108.000000	28.247653
2107.000000	28.235397
2106.000000	28.232058
2105.000000	28.182007
2104.000000	28.287464
2103.000000	28.467634
2102.000000	28.480439
2101.000000	28.435629
2100.000000	28.508521
2099.000000	28.367404
2098.000000	28.209967
2097.000000	28.250550
2096.000000	28.289086
2095.000000	28.263278
2094.000000	28.372485
2093.000000	28.303102
2092.000000	28.305442
2091.000000	28.272110
2090.000000	28.203981
2089.000000	28.164653
2088.000000	28.260429
2087.000000	28.234726
2086.000000	28.195434
2085.000000	28.096723
2084.000000	27.984617
2083.000000	28.094021
2082.000000	28.033334
2081.000000	27.951390
2080.000000	27.905294
2079.000000	27.901477
2078.000000	27.781262
2077.000000	27.754687
2076.000000	27.628243
2075.000000	27.577360
2074.000000	27.598805
2073.000000	27.569159
2072.000000	27.457566
2071.000000	27.333334
2070.000000	27.230214
2069.000000	27.177066
2068.000000	27.148183
2067.000000	26.995611
2066.000000	26.859040
2065.000000	26.773142
2064.000000	26.605361
2063.000000	26.526938
2062.000000	26.492709
2061.000000	26.367428
2060.000000	26.307431
2059.000000	26.193980
2058.000000	26.091873
2057.000000	26.044476
2056.000000	25.938332
2055.000000	25.838352
2054.000000	25.684062
2053.000000	25.566851
2052.000000	25.540476
2051.000000	25.433316
2050.000000	25.341525
2049.000000	25.329686
2048.000000	25.347471
2047.000000	25.269486
2046.000000	25.161241
2045.000000	25.099855
2044.000000	25.067958
2043.000000	25.079853
2042.000000	25.061580
2041.000000	25.112424
2040.000000	25.099575
2039.000000	25.054776
2038.000000	25.080589
2037.000000	25.151308
2036.000000	25.224005
2035.000000	25.269438
2034.000000	25.342403
2033.000000	25.369061
2032.000000	25.382695
2031.000000	25.412118
2030.000000	25.457100
2029.000000	25.527894
2028.000000	25.636670
2027.000000	25.675030
2026.000000	25.686438
2025.000000	25.729705
2024.000000	25.773883
2023.000000	25.799821
2022.000000	25.808578
2021.000000	25.837264
2020.000000	25.877162
2019.000000	25.869666
2018.000000	25.857461
2017.000000	25.903139
2016.000000	25.880927
2015.000000	25.815446
2014.000000	25.811720
2013.000000	25.792596
2012.000000	25.764354
2011.000000	25.752479
2010.000000	25.676317
2009.000000	25.630783
2008.000000	25.596260
2007.000000	25.513921
2006.000000	25.414789
2005.000000	25.396903
2004.000000	25.333958
2003.000000	25.243440
2002.000000	25.191630
2001.000000	25.153611
2000.000000	25.073735
1999.000000	25.006680
1998.000000	24.922702
1997.000000	24.862151
1996.000000	24.831304
1995.000000	24.750618
1994.000000	24.656715
1993.000000	24.578740
1992.000000	24.452735
1991.000000	24.412881
1990.000000	24.382481
1989.000000	24.308341
1988.000000	24.203891
1987.000000	24.114016
1986.000000	24.080852
1985.000000	24.008828
1984.000000	23.931097
1983.000000	23.899494
1982.000000	23.806831
1981.000000	23.719908
1980.000000	23.700908
1979.000000	23.641930
1978.000000	23.581604
1977.000000	23.498658
1976.000000	23.407419
1975.000000	23.368516
1974.000000	23.256271
1973.000000	23.211936
1972.000000	23.225810
1971.000000	23.126817
1970.000000	23.082649
1969.000000	22.969197
1968.000000	22.906235
1967.000000	22.899803
1966.000000	22.879851
1965.000000	22.800953
1964.000000	22.731384
1963.000000	22.689663
1962.000000	22.619156
1961.000000	22.543329
1960.000000	22.508773
1959.000000	22.426764
1958.000000	22.372233
1957.000000	22.417156
1956.000000	22.384630
1955.000000	22.341068
1954.000000	22.273602
1953.000000	22.252172
1952.000000	22.276443
1951.000000	22.229309
1950.000000	22.185725
1949.000000	22.239698
1948.000000	22.224381
1947.000000	22.168125
1946.000000	22.161543
1945.000000	22.251477
1944.000000	22.204742
1943.000000	22.223684
1942.000000	22.252791
1941.000000	22.306953
1940.000000	22.368750
1939.000000	22.394968
1938.000000	22.425855
1937.000000	22.529954
1936.000000	22.609897
1935.000000	22.645347
1934.000000	22.618134
1933.000000	22.777896
1932.000000	22.833567
1931.000000	22.992929
1930.000000	23.093350
1929.000000	23.044516
1928.000000	23.229949
1927.000000	23.425896
1926.000000	23.494791
1925.000000	23.589043
1924.000000	23.803450
1923.000000	23.998756
1922.000000	24.147963
1921.000000	24.314197
1920.000000	24.510915
1919.000000	24.653865
1918.000000	24.907313
1917.000000	25.058292
1916.000000	25.283074
1915.000000	25.623355
1914.000000	25.846237
1913.000000	26.082797
1912.000000	26.310032
1911.000000	26.528909
1910.000000	26.854275
1909.000000	27.167546
1908.000000	27.371304
1907.000000	27.796057
1906.000000	28.061115
1905.000000	28.416819
1904.000000	28.726667
1903.000000	29.084745
1902.000000	29.488785
1901.000000	29.908519
1900.000000	30.198082
1899.000000	30.672977
1898.000000	31.101358
1897.000000	31.429296
1896.000000	31.774231
1895.000000	32.205363
1894.000000	32.582052
1893.000000	32.944994
1892.000000	33.347226
1891.000000	33.684450
1890.000000	34.149965
1889.000000	34.485940
1888.000000	34.880700
1887.000000	35.175159
1886.000000	35.586402
1885.000000	35.952165
1884.000000	36.354291
1883.000000	36.657299
1882.000000	36.994530
1881.000000	37.289109
1880.000000	37.559708
1879.000000	37.920607
1878.000000	38.212134
1877.000000	38.477918
1876.000000	38.726592
1875.000000	39.082674
1874.000000	39.276332
1873.000000	39.462317
1872.000000	39.711639
1871.000000	39.878178
1870.000000	40.110974
1869.000000	40.303074
1868.000000	40.381827
1867.000000	40.538225
1866.000000	40.624681
1865.000000	40.744217
1864.000000	40.829200
1863.000000	40.936976
1862.000000	41.049209
1861.000000	41.082513
1860.000000	41.175508
1859.000000	41.258201
1858.000000	41.289114
1857.000000	41.351519
1856.000000	41.390032
1855.000000	41.465069
1854.000000	41.507044
1853.000000	41.575085
1852.000000	41.587807
1851.000000	41.625716
1850.000000	41.623867
1849.000000	41.604068
1848.000000	41.625274
1847.000000	41.651623
1846.000000	41.594851
1845.000000	41.601294
1844.000000	41.636661
1843.000000	41.620478
1842.000000	41.609294
1841.000000	41.606048
1840.000000	41.544155
1839.000000	41.537699
1838.000000	41.493862
1837.000000	41.438780
1836.000000	41.408545
1835.000000	41.351367
1834.000000	41.306645
1833.000000	41.276758
1832.000000	41.227122
1831.000000	41.175394
1830.000000	41.147279
1829.000000	41.096162
1828.000000	41.049932
1827.000000	41.032726
1826.000000	41.008751
1825.000000	40.951535
1824.000000	40.911532
1823.000000	40.897644
1822.000000	40.831234
1821.000000	40.816473
1820.000000	40.839943
1819.000000	40.811112
1818.000000	40.778443
1817.000000	40.734140
1816.000000	40.716485
1815.000000	40.697915
1814.000000	40.651403
1813.000000	40.605414
1812.000000	40.569310
1811.000000	40.531083
1810.000000	40.508343
1809.000000	40.500168
1808.000000	40.450302
1807.000000	40.378408
1806.000000	40.361642
1805.000000	40.348748
1804.000000	40.313116
1803.000000	40.285364
1802.000000	40.256071
1801.000000	40.238442
1800.000000	40.226448
1799.000000	40.190681
1798.000000	40.164420
1797.000000	40.160690
1796.000000	40.136610
1795.000000	40.117783
1794.000000	40.102954
1793.000000	40.085368
1792.000000	40.051221
1791.000000	40.057352
1790.000000	40.040512
1789.000000	40.019179
1788.000000	40.003081
1787.000000	40.006995
1786.000000	40.001642
1785.000000	39.957416
1784.000000	39.932515
1783.000000	39.921604
1782.000000	39.894528
1781.000000	39.858550
1780.000000	39.851802
1779.000000	39.838206
1778.000000	39.793580
1777.000000	39.763498
1776.000000	39.723023
1775.000000	39.687515
1774.000000	39.643615
1773.000000	39.625589
1772.000000	39.578983
1771.000000	39.561720
1770.000000	39.523199
1769.000000	39.480603
1768.000000	39.418819
1767.000000	39.387057
1766.000000	39.350308
1765.000000	39.303843
1764.000000	39.271770
1763.000000	39.220917
1762.000000	39.191721
1761.000000	39.151635
1760.000000	39.100912
1759.000000	39.064282
1758.000000	39.043418
1757.000000	39.000071
1756.000000	38.967947
1755.000000	38.902955
1754.000000	38.839778
1753.000000	38.816514
1752.000000	38.793766
1751.000000	38.763461
1750.000000	38.711129
1749.000000	38.687010
1748.000000	38.649085
1747.000000	38.584261
1746.000000	38.517921
1745.000000	38.477410
1744.000000	38.476334
1743.000000	38.419371
1742.000000	38.370341
1741.000000	38.336760
1740.000000	38.301713
1739.000000	38.258833
1738.000000	38.257768
1737.000000	38.205976
1736.000000	38.218159
1735.000000	38.184897
1734.000000	38.211181
1733.000000	38.179959
1732.000000	38.178805
1731.000000	38.192738
1730.000000	38.166818
1729.000000	38.257530
1728.000000	38.295289
1727.000000	38.285925
1726.000000	38.371454
1725.000000	38.402538
1724.000000	38.491761
1723.000000	38.567366
1722.000000	38.621757
1721.000000	38.719533
1720.000000	38.789896
1719.000000	38.945062
1718.000000	38.989452
1717.000000	39.046013
1716.000000	39.159623
1715.000000	39.218732
1714.000000	39.311401
1713.000000	39.413753
1712.000000	39.457423
1711.000000	39.505125
1710.000000	39.552745
1709.000000	39.609655
1708.000000	39.663638
1707.000000	39.743264
1706.000000	39.762112
1705.000000	39.822628
1704.000000	39.821474
1703.000000	39.824129
1702.000000	39.824392
1701.000000	39.837632
1700.000000	39.863554
1699.000000	39.843656
1698.000000	39.879394
1697.000000	39.879236
1696.000000	39.955614
1695.000000	39.974794
1694.000000	39.976497
1693.000000	39.999392
1692.000000	40.062717
1691.000000	40.161949
1690.000000	40.191122
1689.000000	40.289995
1688.000000	40.376827
1687.000000	40.447229
1686.000000	40.547054
1685.000000	40.668408
1684.000000	40.780907
1683.000000	40.919427
1682.000000	41.034934
1681.000000	41.199874
1680.000000	41.371834
1679.000000	41.517343
1678.000000	41.639433
1677.000000	41.792103
1676.000000	41.954404
1675.000000	42.119910
1674.000000	42.262878
1673.000000	42.438577
1672.000000	42.580494
1671.000000	42.701148
1670.000000	42.847263
1669.000000	43.032730
1668.000000	43.143140
1667.000000	43.282060
1666.000000	43.377622
1665.000000	43.468809
1664.000000	43.540412
1663.000000	43.586322
1662.000000	43.686391
1661.000000	43.802704
1660.000000	43.823416
1659.000000	43.882105
1658.000000	43.941015
1657.000000	43.981700
1656.000000	44.038053
1655.000000	44.070930
1654.000000	44.047347
1653.000000	44.079864
1652.000000	44.109578
1651.000000	44.112387
1650.000000	44.113769
1649.000000	44.091518
1648.000000	44.060654
1647.000000	44.077759
1646.000000	44.096638
1645.000000	44.054082
1644.000000	44.036508
1643.000000	44.024609
1642.000000	43.991790
1641.000000	43.956850
1640.000000	43.905567
1639.000000	43.879178
1638.000000	43.858725
1637.000000	43.822377
1636.000000	43.774227
1635.000000	43.738009
1634.000000	43.696614
1633.000000	43.653973
1632.000000	43.611479
1631.000000	43.573341
1630.000000	43.517393
1629.000000	43.474308
1628.000000	43.421129
1627.000000	43.386085
1626.000000	43.343910
1625.000000	43.278031
1624.000000	43.232537
1623.000000	43.208673
1622.000000	43.149691
1621.000000	43.068153
1620.000000	43.024894
1619.000000	42.960994
1618.000000	42.886351
1617.000000	42.867107
1616.000000	42.815288
1615.000000	42.744096
1614.000000	42.690296
1613.000000	42.642468
1612.000000	42.594810
1611.000000	42.533480
1610.000000	42.448552
1609.000000	42.385915
1608.000000	42.344877
1607.000000	42.275942
1606.000000	42.205331
1605.000000	42.165976
1604.000000	42.097523
1603.000000	42.026977
1602.000000	41.956388
1601.000000	41.881235
1600.000000	41.837066
1599.000000	41.790803
1598.000000	41.736871
1597.000000	41.682019
1596.000000	41.614061
1595.000000	41.551633
1594.000000	41.510941
1593.000000	41.468702
1592.000000	41.416353
1591.000000	41.346576
1590.000000	41.286147
1589.000000	41.236677
1588.000000	41.182729
1587.000000	41.143467
1586.000000	41.105347
1585.000000	41.068975
1584.000000	41.020027
1583.000000	40.967154
1582.000000	40.917588
1581.000000	40.862085
1580.000000	40.822918
1579.000000	40.770857
1578.000000	40.711280
1577.000000	40.669272
1576.000000	40.638790
1575.000000	40.597393
1574.000000	40.547232
1573.000000	40.492627
1572.000000	40.439192
1571.000000	40.384543
1570.000000	40.347753
1569.000000	40.307017
1568.000000	40.269001
1567.000000	40.233172
1566.000000	40.201078
1565.000000	40.179750
1564.000000	40.143049
1563.000000	40.124325
1562.000000	40.089749
1561.000000	40.061335
1560.000000	40.033798
1559.000000	39.994394
1558.000000	39.975535
1557.000000	39.974298
1556.000000	39.925000
1555.000000	39.882276
1554.000000	39.855787
1553.000000	39.837737
1552.000000	39.809560
1551.000000	39.764176
1550.000000	39.748614
1549.000000	39.717354
1548.000000	39.676232
1547.000000	39.617375
1546.000000	39.558423
1545.000000	39.497732
1544.000000	39.429810
1543.000000	39.366360
1542.000000	39.299347
1541.000000	39.238401
1540.000000	39.163756
1539.000000	39.069005
1538.000000	38.998947
1537.000000	38.923930
1536.000000	38.842060
1535.000000	38.779274
1534.000000	38.690371
1533.000000	38.618017
1532.000000	38.547536
1531.000000	38.472201
1530.000000	38.403590
1529.000000	38.322076
1528.000000	38.271171
1527.000000	38.233473
1526.000000	38.157365
1525.000000	38.108695
1524.000000	38.043681
1523.000000	38.005988
1522.000000	37.946817
1521.000000	37.905144
1520.000000	37.900188
1519.000000	37.850478
1518.000000	37.823287
1517.000000	37.785798
1516.000000	37.765603
1515.000000	37.725830
1514.000000	37.706396
1513.000000	37.683842
1512.000000	37.651677
1511.000000	37.656889
1510.000000	37.612105
1509.000000	37.608588
1508.000000	37.590760
1507.000000	37.549094
1506.000000	37.544638
1505.000000	37.542912
1504.000000	37.525210
1503.000000	37.530430
1502.000000	37.516812
1501.000000	37.510498
1500.000000	37.502390
1499.000000	37.496724
1498.000000	37.483609
1497.000000	37.473710
1496.000000	37.469839
1495.000000	37.493461
1494.000000	37.468196
1493.000000	37.484534
1492.000000	37.503604
1491.000000	37.503731
1490.000000	37.528214
1489.000000	37.545547
1488.000000	37.564688
1487.000000	37.579997
1486.000000	37.607359
1485.000000	37.609806
1484.000000	37.642097
1483.000000	37.660710
1482.000000	37.673587
1481.000000	37.711885
1480.000000	37.723581
1479.000000	37.766372
1478.000000	37.784018
1477.000000	37.789287
1476.000000	37.820649
1475.000000	37.842415
1474.000000	37.880397
1473.000000	37.915857
1472.000000	37.930494
1471.000000	37.939632
1470.000000	37.995658
1469.000000	38.015995
1468.000000	38.028789
1467.000000	38.058952
1466.000000	38.100780
1465.000000	38.133987
1464.000000	38.151581
1463.000000	38.182112
1462.000000	38.244040
1461.000000	38.265193
1460.000000	38.293181
1459.000000	38.344596
1458.000000	38.404553
1457.000000	38.448901
1456.000000	38.495663
1455.000000	38.549088
1454.000000	38.596906
1453.000000	38.638620
1452.000000	38.719484
1451.000000	38.798778
1450.000000	38.867795
1449.000000	38.928797
1448.000000	39.000272
1447.000000	39.061477
1446.000000	39.141419
1445.000000	39.222572
1444.000000	39.306957
1443.000000	39.374435
1442.000000	39.461463
1441.000000	39.562219
1440.000000	39.663757
1439.000000	39.754429
1438.000000	39.865286
1437.000000	39.975362
1436.000000	40.079308
1435.000000	40.188910
1434.000000	40.310532
1433.000000	40.425300
1432.000000	40.561911
1431.000000	40.708101
1430.000000	40.836821
1429.000000	40.973701
1428.000000	41.110598
1427.000000	41.273600
1426.000000	41.433162
1425.000000	41.582564
1424.000000	41.738355
1423.000000	41.913564
1422.000000	42.092465
1421.000000	42.273907
1420.000000	42.443369
1419.000000	42.623520
1418.000000	42.834510
1417.000000	43.023826
1416.000000	43.209173
1415.000000	43.421614
1414.000000	43.636492
1413.000000	43.847310
1412.000000	44.061532
1411.000000	44.289721
1410.000000	44.491620
1409.000000	44.711362
1408.000000	44.935708
1407.000000	45.152281
1406.000000	45.368093
1405.000000	45.588736
1404.000000	45.787015
1403.000000	46.000635
1402.000000	46.221943
1401.000000	46.435482
1400.000000	46.649257
1399.000000	46.847992
1398.000000	47.044212
1397.000000	47.234181
1396.000000	47.429006
1395.000000	47.618204
1394.000000	47.801204
1393.000000	47.998905
1392.000000	48.160761
1391.000000	48.329377
1390.000000	48.493547
1389.000000	48.648581
1388.000000	48.814648
1387.000000	48.952700
1386.000000	49.083203
1385.000000	49.228627
1384.000000	49.370847
1383.000000	49.495732
1382.000000	49.587693
1381.000000	49.692300
1380.000000	49.812166
1379.000000	49.902955
1378.000000	49.987373
1377.000000	50.091777
1376.000000	50.181743
1375.000000	50.252372
1374.000000	50.333737
1373.000000	50.410994
1372.000000	50.472953
1371.000000	50.544971
1370.000000	50.618499
1369.000000	50.683845
1368.000000	50.743123
1367.000000	50.811956
1366.000000	50.871561
1365.000000	50.925044
1364.000000	50.998615
1363.000000	51.065584
1362.000000	51.132164
1361.000000	51.190832
1360.000000	51.252854
1359.000000	51.318147
1358.000000	51.402221
1357.000000	51.459596
1356.000000	51.517986
1355.000000	51.610518
1354.000000	51.685474
1353.000000	51.752252
1352.000000	51.811750
1351.000000	51.883528
1350.000000	51.962950
1349.000000	52.041392
1348.000000	52.110559
1347.000000	52.176768
1346.000000	52.277369
1345.000000	52.358022
1344.000000	52.404467
1343.000000	52.475755
1342.000000	52.554283
1341.000000	52.608410
1340.000000	52.664750
1339.000000	52.740823
1338.000000	52.825772
1337.000000	52.891510
1336.000000	52.930945
1335.000000	52.972441
1334.000000	53.028828
1333.000000	53.088048
1332.000000	53.147311
1331.000000	53.203069
1330.000000	53.259618
1329.000000	53.326857
1328.000000	53.380750
1327.000000	53.424192
1326.000000	53.461334
1325.000000	53.474984
1324.000000	53.501653
1323.000000	53.499865
1322.000000	53.520320
1321.000000	53.578376
1320.000000	53.608571
1319.000000	53.637196
1318.000000	53.643385
1317.000000	53.657759
1316.000000	53.688960
1315.000000	53.726153
1314.000000	53.741997
1313.000000	53.773035
1312.000000	53.777080
1311.000000	53.824500
1310.000000	53.831094
1309.000000	53.851767
1308.000000	53.855531
1307.000000	53.860141
1306.000000	53.897837
1305.000000	53.933726
1304.000000	53.945634
1303.000000	53.939391
1302.000000	53.970021
1301.000000	53.981916
1300.000000	53.993550
1299.000000	53.988368
1298.000000	54.012036
1297.000000	54.014239
1296.000000	54.012677
1295.000000	54.011929
1294.000000	54.025588
1293.000000	54.019207
1292.000000	54.039561
1291.000000	54.046374
1290.000000	54.036688
1289.000000	54.029631
1288.000000	54.026825
1287.000000	54.029559
1286.000000	54.020252
1285.000000	53.990564
1284.000000	53.992812
1283.000000	54.000089
1282.000000	54.002213
1281.000000	54.015984
1280.000000	54.011763
1279.000000	54.014484
1278.000000	54.009149
1277.000000	54.004747
1276.000000	54.011773
1275.000000	54.004754
1274.000000	54.039548
1273.000000	54.021135
1272.000000	54.001762
1271.000000	54.016288
1270.000000	54.017833
1269.000000	54.031390
1268.000000	54.039747
1267.000000	54.047157
1266.000000	54.032481
1265.000000	54.050733
1264.000000	54.065395
1263.000000	54.104558
1262.000000	54.103784
1261.000000	54.123151
1260.000000	54.132708
1259.000000	54.122314
1258.000000	54.125528
1257.000000	54.116957
1256.000000	54.150393
1255.000000	54.166453
1254.000000	54.171378
1253.000000	54.152735
1252.000000	54.154549
1251.000000	54.171200
1250.000000	54.159800
1249.000000	54.159560
1248.000000	54.143006
1247.000000	54.141573
1246.000000	54.143167
1245.000000	54.152381
1244.000000	54.132490
1243.000000	54.121668
1242.000000	54.103596
1241.000000	54.076570
1240.000000	54.039296
1239.000000	54.059683
1238.000000	54.034703
1237.000000	53.983539
1236.000000	53.960943
1235.000000	53.958080
1234.000000	53.927387
1233.000000	53.903996
1232.000000	53.892408
1231.000000	53.871968
1230.000000	53.849250
1229.000000	53.827918
1228.000000	53.810207
1227.000000	53.779674
1226.000000	53.787224
1225.000000	53.761635
1224.000000	53.760252
1223.000000	53.730803
1222.000000	53.691279
1221.000000	53.662123
1220.000000	53.640620
1219.000000	53.615954
1218.000000	53.590302
1217.000000	53.551507
1216.000000	53.511792
1215.000000	53.477010
1214.000000	53.460218
1213.000000	53.427255
1212.000000	53.406613
1211.000000	53.392235
1210.000000	53.345252
1209.000000	53.291306
1208.000000	53.278805
1207.000000	53.246229
1206.000000	53.180536
1205.000000	53.162616
1204.000000	53.128678
1203.000000	53.084920
1202.000000	53.040668
1201.000000	53.014102
1200.000000	52.989598
1199.000000	52.936798
1198.000000	52.902160
1197.000000	52.885054
1196.000000	52.866773
1195.000000	52.857817
1194.000000	52.832856
1193.000000	52.789280
1192.000000	52.765335
1191.000000	52.755494
1190.000000	52.735502
1189.000000	52.698147
1188.000000	52.692914
1187.000000	52.688066
1186.000000	52.687153
1185.000000	52.707329
1184.000000	52.728089
1183.000000	52.742693
1182.000000	52.763346
1181.000000	52.792270
1180.000000	52.817296
1179.000000	52.853810
1178.000000	52.888986
1177.000000	52.943892
1176.000000	52.995922
1175.000000	53.043529
1174.000000	53.093635
1173.000000	53.166249
1172.000000	53.235043
1171.000000	53.299085
1170.000000	53.372320
1169.000000	53.442061
1168.000000	53.518319
1167.000000	53.594879
1166.000000	53.680867
1165.000000	53.765876
1164.000000	53.857082
1163.000000	53.932427
1162.000000	54.002307
1161.000000	54.086927
1160.000000	54.178253
1159.000000	54.252323
1158.000000	54.319095
1157.000000	54.398165
1156.000000	54.476477
1155.000000	54.556752
1154.000000	54.620025
1153.000000	54.692187
1152.000000	54.775322
1151.000000	54.839807
1150.000000	54.914072
1149.000000	54.984182
1148.000000	55.040458
1147.000000	55.108736
1146.000000	55.162275
1145.000000	55.213808
1144.000000	55.276581
1143.000000	55.323811
1142.000000	55.358453
1141.000000	55.405593
1140.000000	55.466226
1139.000000	55.519111
1138.000000	55.566026
1137.000000	55.613710
1136.000000	55.661977
1135.000000	55.711238
1134.000000	55.765998
1133.000000	55.807349
1132.000000	55.843462
1131.000000	55.876947
1130.000000	55.883278
1129.000000	55.906738
1128.000000	55.934506
1127.000000	55.974929
1126.000000	56.011964
1125.000000	56.043833
1124.000000	56.070878
1123.000000	56.093348
1122.000000	56.115858
1121.000000	56.150035
1120.000000	56.147194
1119.000000	56.169372
1118.000000	56.186973
1117.000000	56.188438
1116.000000	56.197069
1115.000000	56.204879
1114.000000	56.222427
1113.000000	56.230193
1112.000000	56.244408
1111.000000	56.259546
1110.000000	56.250280
1109.000000	56.245107
1108.000000	56.239007
1107.000000	56.247087
1106.000000	56.269980
1105.000000	56.272283
1104.000000	56.270126
1103.000000	56.285441
1102.000000	56.286814
1101.000000	56.287175
1100.000000	56.304100
1099.000000	56.303998
1098.000000	56.298200
1097.000000	56.315950
1096.000000	56.324965
1095.000000	56.333304
1094.000000	56.323621
1093.000000	56.311620
1092.000000	56.330497
1091.000000	56.315867
1090.000000	56.315343
1089.000000	56.332760
1088.000000	56.333480
1087.000000	56.334455
1086.000000	56.328817
1085.000000	56.311478
1084.000000	56.316773
1083.000000	56.308556
1082.000000	56.319793
1081.000000	56.311101
1080.000000	56.328680
1079.000000	56.288709
1078.000000	56.290427
1077.000000	56.315198
1076.000000	56.316801
1075.000000	56.314790
1074.000000	56.298487
1073.000000	56.302333
1072.000000	56.291227
1071.000000	56.268332
1070.000000	56.288896
1069.000000	56.264370
1068.000000	56.281802
1067.000000	56.263463
1066.000000	56.260437
1065.000000	56.260387
1064.000000	56.251766
1063.000000	56.228700
1062.000000	56.246913
1061.000000	56.225386
1060.000000	56.208180
1059.000000	56.219829
1058.000000	56.226394
1057.000000	56.222266
1056.000000	56.224859
1055.000000	56.199440
1054.000000	56.199199
1053.000000	56.183082
1052.000000	56.186550
1051.000000	56.174277
1050.000000	56.157667
1049.000000	56.175106
1048.000000	56.173183
1047.000000	56.157954
1046.000000	56.134332
1045.000000	56.139150
1044.000000	56.129640
1043.000000	56.118931
1042.000000	56.099544
1041.000000	56.112080
1040.000000	56.116934
1039.000000	56.108163
1038.000000	56.097360
1037.000000	56.083876
1036.000000	56.086787
1035.000000	56.083944
1034.000000	56.085657
1033.000000	56.079978
1032.000000	56.075528
1031.000000	56.073881
1030.000000	56.070001
1029.000000	56.063897
1028.000000	56.057034
1027.000000	56.062232
1026.000000	56.058096
1025.000000	56.051099
1024.000000	56.039997
1023.000000	56.035985
1022.000000	56.020726
1021.000000	56.024054
1020.000000	56.039262
1019.000000	56.031979
1018.000000	56.036198
1017.000000	56.043015
1016.000000	56.049838
1015.000000	56.030836
1014.000000	56.039881
1013.000000	56.040705
1012.000000	56.026564
1011.000000	56.031456
1010.000000	56.033038
1009.000000	56.039074
1008.000000	56.033599
1007.000000	56.039494
1006.000000	56.045965
1005.000000	56.037184
1004.000000	56.042966
1003.000000	56.058429
1002.000000	56.055147
1001.000000	56.074731
1000.000000	56.081781
999.000000	56.069823
998.000000	56.057233
997.000000	56.063332
996.000000	56.058212
995.000000	56.066562
994.000000	56.069339
993.000000	56.064038
992.000000	56.088623
991.000000	56.101396
990.000000	56.102879
989.000000	56.104619
988.000000	56.103981
987.000000	56.117332
986.000000	56.124048
985.000000	56.125263
984.000000	56.111314
983.000000	56.119618
982.000000	56.144740
981.000000	56.157140
980.000000	56.167302
979.000000	56.155685
978.000000	56.168970
977.000000	56.180444
976.000000	56.197356
975.000000	56.219644
974.000000	56.210770
973.000000	56.217794
972.000000	56.239493
971.000000	56.245746
970.000000	56.256443
969.000000	56.270649
968.000000	56.271484
967.000000	56.269326
966.000000	56.271694
965.000000	56.282383
964.000000	56.303480
963.000000	56.321373
962.000000	56.331202
961.000000	56.335168
960.000000	56.354439
959.000000	56.377757
958.000000	56.401386
957.000000	56.387803
956.000000	56.362161
955.000000	56.409189
954.000000	56.425283
953.000000	56.417165
952.000000	56.435419
951.000000	56.442009
950.000000	56.456591
949.000000	56.468621
948.000000	56.461477
947.000000	56.449482
946.000000	56.461222
945.000000	56.495539
944.000000	56.496657
943.000000	56.502872
942.000000	56.508686
941.000000	56.503474
940.000000	56.510953
939.000000	56.489932
938.000000	56.492081
937.000000	56.512415
936.000000	56.507903
935.000000	56.502510
934.000000	56.511052
933.000000	56.537319
932.000000	56.529176
931.000000	56.511621
930.000000	56.522602
929.000000	56.536437
928.000000	56.529492
927.000000	56.520907
926.000000	56.497440
925.000000	56.477023
924.000000	56.472918
923.000000	56.485702
922.000000	56.512217
921.000000	56.505590
920.000000	56.487656
919.000000	56.498370
918.000000	56.512811
917.000000	56.505426
916.000000	56.495030
915.000000	56.501132
914.000000	56.505564
913.000000	56.517451
912.000000	56.512008
911.000000	56.469289
910.000000	56.507203
909.000000	56.463878
908.000000	56.490675
907.000000	56.506916
906.000000	56.534953
905.000000	56.545258
904.000000	56.532977
903.000000	56.527301
902.000000	56.554269
901.000000	56.540500
900.000000	56.531466
899.000000	56.574444
898.000000	56.592263
897.000000	56.567531
896.000000	56.573937
895.000000	56.562053
894.000000	56.572997
893.000000	56.569016
892.000000	56.591339
891.000000	56.586772
890.000000	56.585246
889.000000	56.547944
888.000000	56.647936
887.000000	56.673926
886.000000	56.688564
885.000000	56.712530
884.000000	56.725140
883.000000	56.697881
882.000000	56.568800
881.000000	56.669975
880.000000	56.668657
879.000000	56.564174
878.000000	56.733392
877.000000	56.713415
876.000000	56.796648
875.000000	56.703850
874.000000	56.663485
873.000000	56.771864
872.000000	56.740280
871.000000	56.726927
870.000000	56.738095
869.000000	56.675108
868.000000	56.713456
867.000000	56.797276
866.000000	56.847963
865.000000	56.810933
864.000000	56.639100
863.000000	56.714551
862.000000	56.758761
861.000000	56.684621
860.000000	56.770850
859.000000	56.251431
858.000000	56.362375
857.000000	56.425717
856.000000	56.278860
855.000000	56.350931
854.000000	56.082122
853.000000	56.325262
852.000000	56.175586
851.000000	56.501382
850.000000	56.309451
849.000000	56.502735
848.000000	56.469722
847.000000	56.226864
846.000000	56.301695
845.000000	56.222571
844.000000	56.397446
843.000000	56.094051
842.000000	56.399347
841.000000	56.158022
840.000000	56.453394
839.000000	56.201101
838.000000	56.240769
837.000000	56.147341
836.000000	56.245715
835.000000	56.230790
834.000000	56.613528
833.000000	56.021634
832.000000	56.264848
831.000000	56.288526
830.000000	56.190076
829.000000	56.274365
828.000000	56.167477
827.000000	55.948558
826.000000	56.206445
825.000000	56.167178
824.000000	56.026334
823.000000	56.008914
822.000000	56.337531
821.000000	56.139150
820.000000	56.060742
819.000000	56.193478
818.000000	56.364644
817.000000	56.163107
816.000000	56.144073
815.000000	55.976232
814.000000	56.237058
813.000000	56.194470
812.000000	56.095068
811.000000	56.252336
810.000000	56.083666
809.000000	56.092314
808.000000	56.242962
807.000000	56.100232
806.000000	56.066207
805.000000	56.129216
804.000000	56.140022
803.000000	56.271112
802.000000	56.044920
801.000000	56.131152
800.000000	56.180132
799.000000	56.199732
798.000000	56.139694
797.000000	56.195753
796.000000	56.140105
795.000000	56.108211
794.000000	56.094004
793.000000	56.041354
792.000000	56.139927
791.000000	56.132813
790.000000	56.086305
789.000000	56.127466
788.000000	56.179169
787.000000	56.024377
786.000000	56.050532
785.000000	56.139991
784.000000	56.122324
783.000000	56.189170
782.000000	56.078109
781.000000	56.169568
780.000000	56.155496
779.000000	56.090017
778.000000	56.075769
777.000000	56.129037
776.000000	56.176641
775.000000	56.160872
774.000000	56.155410
773.000000	56.119300
772.000000	56.111056
771.000000	56.105375
770.000000	56.066269
769.000000	56.140767
768.000000	56.100996
767.000000	56.058438
766.000000	55.955067
765.000000	55.995574
764.000000	56.030666
763.000000	55.969346
762.000000	55.964508
761.000000	55.942469
760.000000	55.988291
759.000000	55.969784
758.000000	55.979197
757.000000	55.991335
756.000000	56.059334
755.000000	55.982837
754.000000	55.890876
753.000000	55.997738
752.000000	55.985783
751.000000	55.972445
750.000000	55.914460
749.000000	55.898779
748.000000	55.843486
747.000000	55.920922
746.000000	55.849798
745.000000	55.827898
744.000000	55.820980
743.000000	55.813239
742.000000	55.798847
741.000000	55.778313
740.000000	55.774391
739.000000	55.762143
738.000000	55.830995
737.000000	55.853901
736.000000	55.788367
735.000000	55.746477
734.000000	55.764202
733.000000	55.769543
732.000000	55.830387
731.000000	55.754443
730.000000	55.690322
729.000000	55.698047
728.000000	55.696125
727.000000	55.741126
726.000000	55.699894
725.000000	55.652137
724.000000	55.641019
723.000000	55.659860
722.000000	55.576411
721.000000	55.599237
720.000000	55.659375
719.000000	55.642665
718.000000	55.625155
717.000000	55.622425
716.000000	55.593266
715.000000	55.593711
714.000000	55.581162
713.000000	55.579151
712.000000	55.608752
711.000000	55.569330
710.000000	55.574531
709.000000	55.587259
708.000000	55.500783
707.000000	55.469354
706.000000	55.435649
705.000000	55.479403
704.000000	55.518900
703.000000	55.466373
702.000000	55.429640
701.000000	55.451866
700.000000	55.449635
699.000000	55.371647
698.000000	55.345652
697.000000	55.367917
696.000000	55.408234
695.000000	55.407509
694.000000	55.406672
693.000000	55.361315
692.000000	55.309853
691.000000	55.331142
690.000000	55.317433
689.000000	55.323343
688.000000	55.303950
687.000000	55.239873
686.000000	55.188610
685.000000	55.266722
684.000000	55.297876
683.000000	55.269055
682.000000	55.230726
681.000000	55.180105
680.000000	55.161820
679.000000	55.223051
678.000000	55.234985
677.000000	55.230843
676.000000	55.153008
675.000000	55.132968
674.000000	55.151667
673.000000	55.128469
672.000000	55.167346
671.000000	55.147441
670.000000	55.091890
669.000000	55.067282
668.000000	55.028059
667.000000	55.088083
666.000000	55.095654
665.000000	55.069854
664.000000	54.976088
663.000000	54.940277
662.000000	54.953542
661.000000	54.973379
660.000000	54.969094
659.000000	54.954099
658.000000	54.924047
657.000000	54.894989
656.000000	54.837895
655.000000	54.817859
654.000000	54.866450
653.000000	54.849601
652.000000	54.849634
651.000000	54.828363
650.000000	54.772003
649.000000	54.781907
648.000000	54.679665
647.000000	54.688097
646.000000	54.732701
645.000000	54.676758
644.000000	54.629952
643.000000	54.597376
642.000000	54.611232
641.000000	54.617538
640.000000	54.543715
639.000000	54.555456
638.000000	54.531942
637.000000	54.550662
636.000000	54.454945
635.000000	54.448518
634.000000	54.447678
633.000000	54.439215
632.000000	54.403821
631.000000	54.380197
630.000000	54.383006
629.000000	54.326998
628.000000	54.248361
627.000000	54.320615
626.000000	54.295143
625.000000	54.260706
624.000000	54.281728
623.000000	54.238305
622.000000	54.153973
621.000000	54.132501
620.000000	54.134106
619.000000	54.147144
618.000000	54.092241
617.000000	54.117442
616.000000	54.071090
615.000000	54.047272
614.000000	53.991136
613.000000	54.014443
612.000000	53.956632
611.000000	54.002469
610.000000	53.939416
609.000000	53.899572
608.000000	53.923289
607.000000	53.829549
606.000000	53.790436
605.000000	53.779335
604.000000	53.798734
603.000000	53.804856
602.000000	53.724491
601.000000	53.710651
600.000000	53.748055
599.000000	53.723682
598.000000	53.717015
597.000000	53.668810
596.000000	53.624826
595.000000	53.584827
594.000000	53.603826
593.000000	53.589128
592.000000	53.553592
591.000000	53.546843
590.000000	53.547527
589.000000	53.462641
588.000000	53.494378
587.000000	53.428511
586.000000	53.409440
585.000000	53.426304
584.000000	53.332037
583.000000	53.344356
582.000000	53.294734
581.000000	53.298540
580.000000	53.284613
579.000000	53.296852
578.000000	53.188461
577.000000	53.202804
576.000000	53.175409
575.000000	53.136403
574.000000	53.124143
573.000000	53.201389
572.000000	53.147087
571.000000	53.080658
570.000000	53.063527
569.000000	53.062539
568.000000	52.986050
567.000000	52.978839
566.000000	52.976521
565.000000	52.929915
564.000000	52.946431
563.000000	52.913106
562.000000	52.895696
561.000000	52.754176
560.000000	52.729997
559.000000	52.728753
558.000000	52.679462
557.000000	52.694428
556.000000	52.679162
555.000000	52.650189
554.000000	52.568395
553.000000	52.582284
552.000000	52.551371
551.000000	52.508983
550.000000	52.526285
549.000000	52.511109
548.000000	52.482004
547.000000	52.427326
546.000000	52.391467
545.000000	52.348527
544.000000	52.340752
543.000000	52.284648
542.000000	52.254522
541.000000	52.282064
540.000000	52.212274
539.000000	52.171706
538.000000	52.146411
537.000000	52.099865
536.000000	52.055169
535.000000	52.076079
534.000000	52.013937
533.000000	51.981908
532.000000	51.947928
531.000000	51.899284
530.000000	51.890536
529.000000	51.908353
528.000000	51.838769
527.000000	51.807334
526.000000	51.783731
525.000000	51.718484
524.000000	51.688959
523.000000	51.695658
522.000000	51.667545
521.000000	51.622788
520.000000	51.562205
519.000000	51.544847
518.000000	51.508363
517.000000	51.505078
516.000000	51.445317
515.000000	51.401564
514.000000	51.349913
513.000000	51.340197
512.000000	51.303347
511.000000	51.279590
510.000000	51.227601
509.000000	51.195513
508.000000	51.159821
507.000000	51.106101
506.000000	51.044978
505.000000	51.034397
504.000000	50.978064
503.000000	50.926184
502.000000	50.871621
501.000000	50.822971
500.000000	50.751504
499.000000	50.726383
498.000000	50.661822
497.000000	50.616512
496.000000	50.611190
495.000000	50.524921
494.000000	50.435947
493.000000	50.347688
492.000000	50.276489
491.000000	50.242590
490.000000	50.169344
489.000000	50.081675
488.000000	50.018545
487.000000	49.963787
486.000000	49.887741
485.000000	49.916122
484.000000	49.905144
483.000000	49.746299
482.000000	49.669757
481.000000	49.598935
480.000000	49.503962
479.000000	49.460436
478.000000	49.407662
477.000000	49.321464
476.000000	49.246072
475.000000	49.148722
474.000000	49.038839
473.000000	48.972629
472.000000	48.924071
471.000000	48.862320
470.000000	48.763412
469.000000	48.682562
468.000000	48.589287
467.000000	48.525162
466.000000	48.435864
465.000000	48.330772
464.000000	48.227842
463.000000	48.150489
462.000000	48.058458
461.000000	47.948538
460.000000	47.843441
459.000000	47.721638
458.000000	47.657702
457.000000	47.543030
456.000000	47.428652
455.000000	47.372277
454.000000	47.261629
453.000000	47.122762
452.000000	46.999752
451.000000	46.890524
450.000000	46.812589
449.000000	46.687339
448.000000	46.530207
447.000000	46.438964
446.000000	46.323830
445.000000	46.195963
444.000000	46.093018
443.000000	45.974462
442.000000	45.842552
441.000000	45.692297
440.000000	45.633142
439.000000	45.511123
438.000000	45.319516
437.000000	45.194989
436.000000	45.091356
435.000000	44.938583
434.000000	44.804489
433.000000	44.695793
432.000000	44.508218
431.000000	44.370171
430.000000	44.243029
429.000000	44.119266
428.000000	43.948834
427.000000	43.772116
426.000000	43.694439
425.000000	43.526856
424.000000	43.339796
423.000000	43.233884
422.000000	43.072616
421.000000	42.920047
420.000000	42.820776
419.000000	42.639526
418.000000	42.479422
417.000000	42.314239
416.000000	42.232303
415.000000	42.031408
414.000000	41.931241
413.000000	41.864629
412.000000	41.748808
411.000000	41.663396
410.000000	41.603127
409.000000	41.423196
408.000000	41.392048
407.000000	41.315980
406.000000	41.249659
405.000000	41.206943
404.000000	41.197562
403.000000	41.118425
402.000000	41.062101
401.000000	40.980906
400.000000	41.028183
399.000000	40.930997
398.000000	40.867095
397.000000	40.812954
396.000000	40.821415
395.000000	40.772248
394.000000	40.694238
393.000000	40.718084
392.000000	40.661790
391.000000	40.615632
390.000000	40.586946
389.000000	40.563816
388.000000	40.551725
387.000000	40.478890
386.000000	40.393706
385.000000	40.331849
384.000000	40.308570
383.000000	40.225187
382.000000	40.095433
381.000000	40.073979
380.000000	40.021009
379.000000	39.895228
378.000000	39.776642
377.000000	39.925656
376.000000	39.764173
375.000000	39.607103
374.000000	39.564016
373.000000	39.524924
372.000000	39.425006
371.000000	39.331127
370.000000	39.331986
369.000000	39.102117
368.000000	39.163693
367.000000	39.055740
366.000000	38.899221
365.000000	38.793580
364.000000	38.814421
363.000000	38.721166
362.000000	38.810209
361.000000	38.695213
360.000000	38.437394
359.000000	38.362680
358.000000	38.349296
357.000000	38.290199
356.000000	38.190193
355.000000	38.278864
354.000000	38.162369
353.000000	38.156313
352.000000	37.951918
351.000000	37.878861
350.000000	37.882181
349.000000	37.890967
348.000000	37.742854
347.000000	37.738989
346.000000	37.638819
345.000000	37.467305
344.000000	37.569588
343.000000	37.391129
342.000000	37.383850
341.000000	37.415694
340.000000	37.263091
339.000000	37.145820
338.000000	37.140970
337.000000	37.176058
336.000000	36.977942
335.000000	36.793193
334.000000	36.889319
333.000000	36.747402
332.000000	36.687723
331.000000	36.834920
330.000000	36.672671
329.000000	36.778859
328.000000	36.550141
327.000000	36.376645
326.000000	36.529815
325.000000	36.557754
324.000000	36.597631
323.000000	36.556471
322.000000	36.432862
321.000000	36.484424
320.000000	36.385434
319.000000	36.339190
318.000000	36.197765
317.000000	36.291922
316.000000	36.304612
315.000000	36.242522
314.000000	36.243235
313.000000	36.189012
312.000000	36.060096
311.000000	36.129548
310.000000	36.020843
309.000000	35.753903
308.000000	35.773938
307.000000	35.603076
306.000000	35.508499
305.000000	35.559749
304.000000	35.517449
303.000000	35.395720
302.000000	35.156277
301.000000	35.187681
300.000000	34.968731
299.000000	34.858307
298.000000	34.481520
297.000000	34.356931
296.000000	34.037515
295.000000	33.710633
294.000000	33.098285
293.000000	32.436122
292.000000	31.682426
291.000000	30.814083
290.000000	29.911252
289.000000	29.055508
288.000000	28.267823
287.000000	27.707383
286.000000	27.325705
285.000000	27.118886
284.000000	26.961535
283.000000	26.964404
282.000000	26.946169
281.000000	27.039033
280.000000	27.105548
279.000000	27.000800
278.000000	27.259071
277.000000	27.344721
276.000000	27.494677
275.000000	27.938369
274.000000	28.202447
273.000000	28.411682
272.000000	28.686146
271.000000	28.800336
270.000000	28.971156
269.000000	28.970800
268.000000	29.320684
267.000000	29.613463
266.000000	29.913861
265.000000	30.093286
264.000000	30.427305
263.000000	30.778625
262.000000	31.089675
261.000000	31.283420
260.000000	31.404040
259.000000	31.640917
258.000000	31.886547
257.000000	32.290958
256.000000	32.536610
255.000000	32.629811
254.000000	32.683450
253.000000	32.607117
252.000000	32.543522
251.000000	32.372627
250.000000	32.001203
249.000000	31.472932
248.000000	30.711887
247.000000	29.719738
246.000000	28.657876
245.000000	27.428569
244.000000	26.149374
243.000000	24.793015
242.000000	23.482615
241.000000	22.120154
240.000000	20.892362
239.000000	19.762581
238.000000	18.758666
237.000000	17.888919
236.000000	17.067476
235.000000	16.429507
234.000000	15.906081
233.000000	15.366390
232.000000	14.852847
231.000000	14.378799
230.000000	13.936668
229.000000	13.537212
228.000000	13.128381
227.000000	12.844638
226.000000	12.552479
225.000000	12.324363
224.000000	12.130060
223.000000	11.983617
222.000000	11.890626
221.000000	11.716487
220.000000	11.716129
219.000000	11.818295
218.000000	11.821319
217.000000	11.874489
216.000000	12.017971
215.000000	12.187654
214.000000	12.346931
213.000000	12.530494
212.000000	12.625804
211.000000	12.800470
210.000000	13.007418
209.000000	13.092250
208.000000	13.444583
207.000000	13.928001
206.000000	14.325258
205.000000	14.651744
204.000000	15.105534
203.000000	15.709086
202.000000	16.199786
201.000000	16.444664
200.000000	16.897698
