PE UV       SUBTECH     SPECTRUM    ASCII       PEDS        4.00        
   -1
RDgVeauAl 32.Sample.asc
18/03/12
12:34:45.00
18/03/12
12:34:45.00
Administrator

200.000000
1
Lambda 750
750N8071901
PerkinElmer UV WinLab 6.0.4.0738 / 1.61.00 Lambda 900

0
0
3350/servo 860.8/2
0
0
UV/VIS
1
1
1
CommonBeamDepol,150mm sphere / downward view
0
0
0
0
Program
Program
3350/servo 860.8/2
3350/0.2 860.8/0.2
3350/0.2 860.8/0.2
0
1
 
 
 
0
 
860.8
319.2
860.8
Front
100
on
 
 
0
0
0
 
0
 
 
 
0
 
 
0
0
0
0
0
 
 
 
 
0
0


0
0
#HDR
-1
-1
#GR
nm
%R
1.0
0.0
2350.000000
-1.000000
2151
8
61.235507
9.890086
#DATA
2350.000000	19.547983
2349.000000	19.617099
2348.000000	19.271815
2347.000000	20.034280
2346.000000	20.296424
2345.000000	19.734496
2344.000000	19.939074
2343.000000	19.352569
2342.000000	19.762949
2341.000000	20.011992
2340.000000	19.821406
2339.000000	19.803592
2338.000000	19.933287
2337.000000	20.156126
2336.000000	20.453417
2335.000000	20.264591
2334.000000	20.541539
2333.000000	20.814033
2332.000000	20.612865
2331.000000	20.619443
2330.000000	20.402360
2329.000000	20.447730
2328.000000	20.538524
2327.000000	20.281828
2326.000000	20.401742
2325.000000	20.689770
2324.000000	20.550891
2323.000000	20.412331
2322.000000	20.082648
2321.000000	20.023632
2320.000000	20.461196
2319.000000	20.163860
2318.000000	20.252385
2317.000000	20.333061
2316.000000	19.992221
2315.000000	20.025917
2314.000000	20.026345
2313.000000	19.947275
2312.000000	19.790215
2311.000000	19.702144
2310.000000	19.615501
2309.000000	20.002753
2308.000000	19.647090
2307.000000	19.517876
2306.000000	19.378206
2305.000000	19.430859
2304.000000	19.466233
2303.000000	19.472560
2302.000000	19.418092
2301.000000	19.235711
2300.000000	18.934783
2299.000000	19.005867
2298.000000	18.890284
2297.000000	18.716551
2296.000000	18.986020
2295.000000	18.827599
2294.000000	18.648478
2293.000000	18.617201
2292.000000	18.610760
2291.000000	18.636316
2290.000000	18.699833
2289.000000	18.591445
2288.000000	18.583426
2287.000000	18.523528
2286.000000	18.524794
2285.000000	18.428348
2284.000000	18.335381
2283.000000	18.030578
2282.000000	17.990854
2281.000000	18.133593
2280.000000	18.270339
2279.000000	18.287572
2278.000000	18.294230
2277.000000	18.414889
2276.000000	18.585680
2275.000000	18.525095
2274.000000	18.374779
2273.000000	18.522191
2272.000000	18.722370
2271.000000	18.663996
2270.000000	18.628265
2269.000000	18.820213
2268.000000	18.856510
2267.000000	18.942917
2266.000000	18.949365
2265.000000	18.844479
2264.000000	19.077600
2263.000000	19.140181
2262.000000	19.186456
2261.000000	19.414261
2260.000000	19.726323
2259.000000	19.852203
2258.000000	19.883230
2257.000000	20.136790
2256.000000	20.231035
2255.000000	20.260472
2254.000000	20.506655
2253.000000	20.756219
2252.000000	20.971706
2251.000000	21.130572
2250.000000	21.174021
2249.000000	21.340580
2248.000000	21.488624
2247.000000	21.703788
2246.000000	22.004278
2245.000000	22.136166
2244.000000	22.253914
2243.000000	22.492400
2242.000000	22.666667
2241.000000	22.736405
2240.000000	22.880141
2239.000000	23.065321
2238.000000	23.212124
2237.000000	23.187598
2236.000000	23.339555
2235.000000	23.465126
2234.000000	23.498413
2233.000000	23.423311
2232.000000	23.389936
2231.000000	23.611681
2230.000000	23.747625
2229.000000	23.684312
2228.000000	23.766224
2227.000000	23.846751
2226.000000	23.851568
2225.000000	23.861581
2224.000000	23.761375
2223.000000	23.605402
2222.000000	23.684737
2221.000000	23.739741
2220.000000	23.737051
2219.000000	23.644114
2218.000000	23.466596
2217.000000	23.456394
2216.000000	23.598424
2215.000000	23.544631
2214.000000	23.494989
2213.000000	23.579327
2212.000000	23.360500
2211.000000	23.198526
2210.000000	23.393657
2209.000000	23.281109
2208.000000	23.175580
2207.000000	23.120349
2206.000000	22.920718
2205.000000	22.792008
2204.000000	22.805149
2203.000000	22.577507
2202.000000	22.482687
2201.000000	22.447113
2200.000000	22.484810
2199.000000	22.465550
2198.000000	22.465836
2197.000000	22.388419
2196.000000	22.204634
2195.000000	22.197021
2194.000000	22.143071
2193.000000	21.950292
2192.000000	21.959523
2191.000000	21.918894
2190.000000	21.869921
2189.000000	21.716414
2188.000000	21.760183
2187.000000	21.808411
2186.000000	21.713166
2185.000000	21.464464
2184.000000	21.589632
2183.000000	21.798201
2182.000000	21.598829
2181.000000	21.385390
2180.000000	21.473519
2179.000000	21.405674
2178.000000	21.263120
2177.000000	21.458492
2176.000000	21.385946
2175.000000	21.521594
2174.000000	21.440548
2173.000000	21.352817
2172.000000	21.504979
2171.000000	21.530936
2170.000000	21.615506
2169.000000	21.623796
2168.000000	21.834518
2167.000000	21.936277
2166.000000	21.912508
2165.000000	22.043121
2164.000000	22.263481
2163.000000	22.073068
2162.000000	22.182151
2161.000000	22.108184
2160.000000	22.459144
2159.000000	22.716492
2158.000000	22.580768
2157.000000	22.773279
2156.000000	22.980338
2155.000000	22.968897
2154.000000	23.073607
2153.000000	23.289548
2152.000000	23.433685
2151.000000	23.454942
2150.000000	23.527986
2149.000000	23.574701
2148.000000	23.982288
2147.000000	24.024647
2146.000000	23.994591
2145.000000	24.260313
2144.000000	24.515651
2143.000000	24.429604
2142.000000	24.482767
2141.000000	24.763724
2140.000000	24.765817
2139.000000	24.934867
2138.000000	25.219408
2137.000000	25.197650
2136.000000	25.197308
2135.000000	25.223962
2134.000000	25.523656
2133.000000	25.116472
2132.000000	25.556538
2131.000000	25.692534
2130.000000	25.791548
2129.000000	25.691623
2128.000000	25.763114
2127.000000	25.839757
2126.000000	25.847026
2125.000000	25.762468
2124.000000	26.106943
2123.000000	26.065667
2122.000000	26.230038
2121.000000	26.236821
2120.000000	26.115840
2119.000000	26.173494
2118.000000	26.336391
2117.000000	26.341047
2116.000000	26.270411
2115.000000	26.308131
2114.000000	26.374225
2113.000000	26.352032
2112.000000	26.484308
2111.000000	26.610940
2110.000000	26.410243
2109.000000	26.440036
2108.000000	26.458862
2107.000000	26.663959
2106.000000	26.664215
2105.000000	26.593471
2104.000000	26.668632
2103.000000	26.532311
2102.000000	26.576091
2101.000000	26.644287
2100.000000	26.687901
2099.000000	26.848963
2098.000000	26.590848
2097.000000	26.635778
2096.000000	26.683187
2095.000000	26.638993
2094.000000	26.653142
2093.000000	26.512920
2092.000000	26.568594
2091.000000	26.637152
2090.000000	26.560350
2089.000000	26.632383
2088.000000	26.568430
2087.000000	26.674238
2086.000000	26.636062
2085.000000	26.563029
2084.000000	26.448257
2083.000000	26.364100
2082.000000	26.234051
2081.000000	26.167179
2080.000000	26.183138
2079.000000	26.139537
2078.000000	26.013806
2077.000000	25.962293
2076.000000	25.808463
2075.000000	25.665756
2074.000000	25.575773
2073.000000	25.525546
2072.000000	25.401553
2071.000000	25.325148
2070.000000	25.148395
2069.000000	25.039624
2068.000000	24.857548
2067.000000	24.781657
2066.000000	24.603479
2065.000000	24.487707
2064.000000	24.323053
2063.000000	24.210594
2062.000000	24.056473
2061.000000	23.807526
2060.000000	23.601549
2059.000000	23.550863
2058.000000	23.413714
2057.000000	23.275155
2056.000000	23.080332
2055.000000	22.995395
2054.000000	22.887946
2053.000000	22.747779
2052.000000	22.556644
2051.000000	22.412698
2050.000000	22.427278
2049.000000	22.281545
2048.000000	22.181650
2047.000000	22.192487
2046.000000	22.074588
2045.000000	21.996869
2044.000000	21.911461
2043.000000	21.855147
2042.000000	21.904566
2041.000000	21.947077
2040.000000	21.960841
2039.000000	21.984409
2038.000000	22.052769
2037.000000	22.087974
2036.000000	22.121329
2035.000000	22.198142
2034.000000	22.325498
2033.000000	22.447802
2032.000000	22.542140
2031.000000	22.600434
2030.000000	22.706415
2029.000000	22.851486
2028.000000	22.983673
2027.000000	23.088221
2026.000000	23.171134
2025.000000	23.236585
2024.000000	23.289853
2023.000000	23.310928
2022.000000	23.323352
2021.000000	23.361040
2020.000000	23.443650
2019.000000	23.482710
2018.000000	23.483826
2017.000000	23.466685
2016.000000	23.433060
2015.000000	23.416597
2014.000000	23.439405
2013.000000	23.416730
2012.000000	23.398142
2011.000000	23.389085
2010.000000	23.331502
2009.000000	23.268294
2008.000000	23.167908
2007.000000	23.073895
2006.000000	22.984436
2005.000000	22.948827
2004.000000	22.850825
2003.000000	22.756001
2002.000000	22.684949
2001.000000	22.545997
2000.000000	22.422819
1999.000000	22.309405
1998.000000	22.241031
1997.000000	22.140710
1996.000000	22.065770
1995.000000	22.017370
1994.000000	21.852213
1993.000000	21.676411
1992.000000	21.565041
1991.000000	21.488803
1990.000000	21.410873
1989.000000	21.257567
1988.000000	21.121615
1987.000000	21.057317
1986.000000	21.007032
1985.000000	20.891938
1984.000000	20.775155
1983.000000	20.670526
1982.000000	20.608902
1981.000000	20.473675
1980.000000	20.351956
1979.000000	20.255075
1978.000000	20.131829
1977.000000	20.067366
1976.000000	19.936967
1975.000000	19.852165
1974.000000	19.740029
1973.000000	19.695427
1972.000000	19.612348
1971.000000	19.481585
1970.000000	19.402551
1969.000000	19.342823
1968.000000	19.271138
1967.000000	19.134607
1966.000000	19.066323
1965.000000	19.012172
1964.000000	18.842516
1963.000000	18.797839
1962.000000	18.708388
1961.000000	18.576562
1960.000000	18.568730
1959.000000	18.500744
1958.000000	18.431202
1957.000000	18.388698
1956.000000	18.285765
1955.000000	18.195680
1954.000000	18.216853
1953.000000	18.128723
1952.000000	18.066415
1951.000000	18.025009
1950.000000	17.954346
1949.000000	17.898230
1948.000000	17.903631
1947.000000	17.924575
1946.000000	17.850168
1945.000000	17.847245
1944.000000	17.885970
1943.000000	17.930599
1942.000000	17.878253
1941.000000	17.908398
1940.000000	17.932970
1939.000000	18.021408
1938.000000	18.059373
1937.000000	18.122647
1936.000000	18.242611
1935.000000	18.322059
1934.000000	18.390730
1933.000000	18.456725
1932.000000	18.511358
1931.000000	18.572381
1930.000000	18.840865
1929.000000	18.977688
1928.000000	19.027611
1927.000000	19.291528
1926.000000	19.429080
1925.000000	19.663174
1924.000000	19.829341
1923.000000	20.106540
1922.000000	20.272902
1921.000000	20.583276
1920.000000	20.759173
1919.000000	21.062932
1918.000000	21.358085
1917.000000	21.711763
1916.000000	21.888406
1915.000000	22.322931
1914.000000	22.772684
1913.000000	23.058513
1912.000000	23.443360
1911.000000	23.741662
1910.000000	24.148685
1909.000000	24.505732
1908.000000	25.081717
1907.000000	25.563415
1906.000000	25.957994
1905.000000	26.495822
1904.000000	27.019141
1903.000000	27.462083
1902.000000	28.049795
1901.000000	28.599439
1900.000000	29.091291
1899.000000	29.718400
1898.000000	30.342428
1897.000000	30.820292
1896.000000	31.359259
1895.000000	32.014193
1894.000000	32.527966
1893.000000	33.136534
1892.000000	33.694307
1891.000000	34.196456
1890.000000	34.742464
1889.000000	35.293195
1888.000000	35.860208
1887.000000	36.338438
1886.000000	36.822117
1885.000000	37.275905
1884.000000	37.818015
1883.000000	38.337549
1882.000000	38.809542
1881.000000	39.202840
1880.000000	39.592124
1879.000000	40.030937
1878.000000	40.439215
1877.000000	40.789207
1876.000000	41.136391
1875.000000	41.552111
1874.000000	41.891558
1873.000000	42.161125
1872.000000	42.437963
1871.000000	42.671177
1870.000000	42.905697
1869.000000	43.178974
1868.000000	43.371167
1867.000000	43.536527
1866.000000	43.733654
1865.000000	43.927548
1864.000000	43.994531
1863.000000	44.123660
1862.000000	44.237430
1861.000000	44.326539
1860.000000	44.420257
1859.000000	44.515794
1858.000000	44.584358
1857.000000	44.697647
1856.000000	44.762158
1855.000000	44.813295
1854.000000	44.865967
1853.000000	44.879096
1852.000000	44.903496
1851.000000	44.939263
1850.000000	44.980680
1849.000000	44.984145
1848.000000	45.022594
1847.000000	45.028331
1846.000000	45.010601
1845.000000	44.957346
1844.000000	44.973095
1843.000000	44.924046
1842.000000	44.926596
1841.000000	44.921499
1840.000000	44.842001
1839.000000	44.824258
1838.000000	44.837581
1837.000000	44.744691
1836.000000	44.678960
1835.000000	44.635471
1834.000000	44.591296
1833.000000	44.579720
1832.000000	44.518884
1831.000000	44.426791
1830.000000	44.356840
1829.000000	44.314055
1828.000000	44.278135
1827.000000	44.241101
1826.000000	44.203247
1825.000000	44.165749
1824.000000	44.123319
1823.000000	44.077972
1822.000000	44.019750
1821.000000	43.989375
1820.000000	43.974570
1819.000000	43.921723
1818.000000	43.860766
1817.000000	43.835232
1816.000000	43.809083
1815.000000	43.768699
1814.000000	43.712437
1813.000000	43.641095
1812.000000	43.618336
1811.000000	43.601160
1810.000000	43.539705
1809.000000	43.492016
1808.000000	43.447183
1807.000000	43.384747
1806.000000	43.337305
1805.000000	43.299116
1804.000000	43.244429
1803.000000	43.207085
1802.000000	43.190477
1801.000000	43.164007
1800.000000	43.098442
1799.000000	43.052918
1798.000000	43.026577
1797.000000	43.015479
1796.000000	42.974006
1795.000000	42.955144
1794.000000	42.955817
1793.000000	42.925650
1792.000000	42.881770
1791.000000	42.842459
1790.000000	42.806611
1789.000000	42.772502
1788.000000	42.758080
1787.000000	42.748986
1786.000000	42.710357
1785.000000	42.659603
1784.000000	42.650062
1783.000000	42.623280
1782.000000	42.568725
1781.000000	42.521360
1780.000000	42.474052
1779.000000	42.450812
1778.000000	42.382753
1777.000000	42.305673
1776.000000	42.255121
1775.000000	42.181090
1774.000000	42.130752
1773.000000	42.082465
1772.000000	41.999015
1771.000000	41.957966
1770.000000	41.887743
1769.000000	41.814654
1768.000000	41.741091
1767.000000	41.677206
1766.000000	41.650874
1765.000000	41.586153
1764.000000	41.539088
1763.000000	41.456280
1762.000000	41.406901
1761.000000	41.328050
1760.000000	41.293990
1759.000000	41.266478
1758.000000	41.195129
1757.000000	41.119029
1756.000000	41.085476
1755.000000	41.063273
1754.000000	40.964879
1753.000000	40.912439
1752.000000	40.854754
1751.000000	40.806284
1750.000000	40.762085
1749.000000	40.710628
1748.000000	40.634169
1747.000000	40.576218
1746.000000	40.481058
1745.000000	40.403347
1744.000000	40.332909
1743.000000	40.296497
1742.000000	40.204381
1741.000000	40.157712
1740.000000	40.093965
1739.000000	40.042499
1738.000000	39.989420
1737.000000	39.958766
1736.000000	39.890693
1735.000000	39.908214
1734.000000	39.884423
1733.000000	39.835647
1732.000000	39.822330
1731.000000	39.842879
1730.000000	39.845761
1729.000000	39.908839
1728.000000	39.936220
1727.000000	39.995702
1726.000000	40.068920
1725.000000	40.135098
1724.000000	40.243722
1723.000000	40.293996
1722.000000	40.418695
1721.000000	40.514618
1720.000000	40.671451
1719.000000	40.794757
1718.000000	40.894527
1717.000000	41.047495
1716.000000	41.152918
1715.000000	41.279447
1714.000000	41.382081
1713.000000	41.513762
1712.000000	41.597980
1711.000000	41.719297
1710.000000	41.774933
1709.000000	41.873918
1708.000000	41.934618
1707.000000	42.025353
1706.000000	42.058114
1705.000000	42.127900
1704.000000	42.200643
1703.000000	42.235517
1702.000000	42.190615
1701.000000	42.240632
1700.000000	42.316010
1699.000000	42.326925
1698.000000	42.361505
1697.000000	42.395499
1696.000000	42.460760
1695.000000	42.466216
1694.000000	42.503698
1693.000000	42.576554
1692.000000	42.643937
1691.000000	42.735053
1690.000000	42.836373
1689.000000	42.920878
1688.000000	43.039947
1687.000000	43.159109
1686.000000	43.292653
1685.000000	43.490196
1684.000000	43.630120
1683.000000	43.830089
1682.000000	44.025703
1681.000000	44.251581
1680.000000	44.383106
1679.000000	44.590919
1678.000000	44.813837
1677.000000	44.986817
1676.000000	45.215694
1675.000000	45.400972
1674.000000	45.612255
1673.000000	45.792659
1672.000000	46.009915
1671.000000	46.173204
1670.000000	46.378347
1669.000000	46.601411
1668.000000	46.756447
1667.000000	46.934487
1666.000000	47.031404
1665.000000	47.152429
1664.000000	47.283161
1663.000000	47.350730
1662.000000	47.479548
1661.000000	47.617943
1660.000000	47.656411
1659.000000	47.720899
1658.000000	47.799618
1657.000000	47.875588
1656.000000	47.914270
1655.000000	47.942486
1654.000000	47.959677
1653.000000	47.991561
1652.000000	48.014760
1651.000000	48.043336
1650.000000	48.038733
1649.000000	48.026625
1648.000000	48.013198
1647.000000	48.013195
1646.000000	47.981007
1645.000000	47.971218
1644.000000	47.934643
1643.000000	47.920300
1642.000000	47.908533
1641.000000	47.846523
1640.000000	47.831483
1639.000000	47.780308
1638.000000	47.736445
1637.000000	47.702113
1636.000000	47.621747
1635.000000	47.579673
1634.000000	47.511519
1633.000000	47.459878
1632.000000	47.416461
1631.000000	47.381086
1630.000000	47.324760
1629.000000	47.272922
1628.000000	47.222428
1627.000000	47.156613
1626.000000	47.095118
1625.000000	47.017644
1624.000000	46.964062
1623.000000	46.897159
1622.000000	46.847009
1621.000000	46.772164
1620.000000	46.696887
1619.000000	46.602669
1618.000000	46.536673
1617.000000	46.467364
1616.000000	46.415414
1615.000000	46.354535
1614.000000	46.257353
1613.000000	46.176630
1612.000000	46.108149
1611.000000	46.026278
1610.000000	45.946644
1609.000000	45.872077
1608.000000	45.801056
1607.000000	45.707507
1606.000000	45.620056
1605.000000	45.547036
1604.000000	45.455907
1603.000000	45.381115
1602.000000	45.302064
1601.000000	45.216137
1600.000000	45.146154
1599.000000	45.066302
1598.000000	44.974358
1597.000000	44.891202
1596.000000	44.816474
1595.000000	44.742891
1594.000000	44.671546
1593.000000	44.607492
1592.000000	44.534284
1591.000000	44.454138
1590.000000	44.394637
1589.000000	44.323511
1588.000000	44.261523
1587.000000	44.198704
1586.000000	44.137938
1585.000000	44.081771
1584.000000	44.013537
1583.000000	43.962043
1582.000000	43.889916
1581.000000	43.824628
1580.000000	43.765770
1579.000000	43.710888
1578.000000	43.654808
1577.000000	43.572376
1576.000000	43.523437
1575.000000	43.462893
1574.000000	43.378330
1573.000000	43.309897
1572.000000	43.260674
1571.000000	43.210580
1570.000000	43.143901
1569.000000	43.085345
1568.000000	43.033195
1567.000000	42.976957
1566.000000	42.943137
1565.000000	42.902822
1564.000000	42.854353
1563.000000	42.814223
1562.000000	42.774939
1561.000000	42.747349
1560.000000	42.698042
1559.000000	42.660168
1558.000000	42.622520
1557.000000	42.585567
1556.000000	42.564479
1555.000000	42.534855
1554.000000	42.481948
1553.000000	42.440315
1552.000000	42.397157
1551.000000	42.351358
1550.000000	42.302533
1549.000000	42.263860
1548.000000	42.238264
1547.000000	42.126324
1546.000000	42.046469
1545.000000	41.971234
1544.000000	41.880622
1543.000000	41.791779
1542.000000	41.723112
1541.000000	41.610026
1540.000000	41.485194
1539.000000	41.376966
1538.000000	41.282565
1537.000000	41.174662
1536.000000	41.059982
1535.000000	40.954973
1534.000000	40.851740
1533.000000	40.754914
1532.000000	40.633831
1531.000000	40.540921
1530.000000	40.407728
1529.000000	40.320433
1528.000000	40.248236
1527.000000	40.160998
1526.000000	40.085506
1525.000000	40.009147
1524.000000	39.929236
1523.000000	39.860109
1522.000000	39.791752
1521.000000	39.734266
1520.000000	39.682986
1519.000000	39.623634
1518.000000	39.588228
1517.000000	39.544343
1516.000000	39.506434
1515.000000	39.448800
1514.000000	39.420700
1513.000000	39.396224
1512.000000	39.347913
1511.000000	39.339751
1510.000000	39.291453
1509.000000	39.285385
1508.000000	39.255945
1507.000000	39.217720
1506.000000	39.200153
1505.000000	39.176128
1504.000000	39.182889
1503.000000	39.161471
1502.000000	39.149527
1501.000000	39.115071
1500.000000	39.110027
1499.000000	39.087530
1498.000000	39.100898
1497.000000	39.098885
1496.000000	39.099675
1495.000000	39.103647
1494.000000	39.104065
1493.000000	39.090794
1492.000000	39.099896
1491.000000	39.122002
1490.000000	39.145606
1489.000000	39.164517
1488.000000	39.181122
1487.000000	39.200413
1486.000000	39.224648
1485.000000	39.243722
1484.000000	39.273930
1483.000000	39.324726
1482.000000	39.350797
1481.000000	39.385632
1480.000000	39.423257
1479.000000	39.457782
1478.000000	39.477178
1477.000000	39.522176
1476.000000	39.557841
1475.000000	39.594850
1474.000000	39.620493
1473.000000	39.653806
1472.000000	39.689480
1471.000000	39.721867
1470.000000	39.773694
1469.000000	39.803483
1468.000000	39.853670
1467.000000	39.871341
1466.000000	39.913928
1465.000000	39.977696
1464.000000	40.020285
1463.000000	40.057630
1462.000000	40.124508
1461.000000	40.149780
1460.000000	40.218268
1459.000000	40.276083
1458.000000	40.344368
1457.000000	40.391895
1456.000000	40.468993
1455.000000	40.529700
1454.000000	40.613846
1453.000000	40.702230
1452.000000	40.759219
1451.000000	40.859616
1450.000000	40.929925
1449.000000	41.027450
1448.000000	41.125071
1447.000000	41.198638
1446.000000	41.298385
1445.000000	41.411363
1444.000000	41.517579
1443.000000	41.629097
1442.000000	41.745034
1441.000000	41.852091
1440.000000	41.992573
1439.000000	42.101077
1438.000000	42.238859
1437.000000	42.362414
1436.000000	42.507956
1435.000000	42.672301
1434.000000	42.818293
1433.000000	42.969621
1432.000000	43.130089
1431.000000	43.304891
1430.000000	43.472830
1429.000000	43.640510
1428.000000	43.822944
1427.000000	44.024190
1426.000000	44.224407
1425.000000	44.404503
1424.000000	44.616427
1423.000000	44.842502
1422.000000	45.077343
1421.000000	45.301340
1420.000000	45.527434
1419.000000	45.762830
1418.000000	46.002848
1417.000000	46.246928
1416.000000	46.488599
1415.000000	46.756928
1414.000000	47.022268
1413.000000	47.281184
1412.000000	47.535771
1411.000000	47.810362
1410.000000	48.063239
1409.000000	48.334044
1408.000000	48.628494
1407.000000	48.881389
1406.000000	49.134445
1405.000000	49.409038
1404.000000	49.661652
1403.000000	49.922193
1402.000000	50.178987
1401.000000	50.437714
1400.000000	50.688397
1399.000000	50.937924
1398.000000	51.178680
1397.000000	51.401183
1396.000000	51.616384
1395.000000	51.851859
1394.000000	52.077913
1393.000000	52.285923
1392.000000	52.489016
1391.000000	52.678984
1390.000000	52.874153
1389.000000	53.059042
1388.000000	53.253377
1387.000000	53.419018
1386.000000	53.562561
1385.000000	53.717730
1384.000000	53.870660
1383.000000	54.013661
1382.000000	54.137456
1381.000000	54.261410
1380.000000	54.380167
1379.000000	54.499820
1378.000000	54.614777
1377.000000	54.716366
1376.000000	54.805819
1375.000000	54.889127
1374.000000	54.991367
1373.000000	55.074492
1372.000000	55.141926
1371.000000	55.221464
1370.000000	55.301562
1369.000000	55.373675
1368.000000	55.426183
1367.000000	55.476502
1366.000000	55.554617
1365.000000	55.635200
1364.000000	55.695530
1363.000000	55.747418
1362.000000	55.811093
1361.000000	55.886557
1360.000000	55.967622
1359.000000	56.032758
1358.000000	56.119552
1357.000000	56.188164
1356.000000	56.248219
1355.000000	56.343582
1354.000000	56.421008
1353.000000	56.477713
1352.000000	56.537853
1351.000000	56.613289
1350.000000	56.700651
1349.000000	56.793492
1348.000000	56.865067
1347.000000	56.937385
1346.000000	57.022298
1345.000000	57.093743
1344.000000	57.146013
1343.000000	57.227493
1342.000000	57.300187
1341.000000	57.361008
1340.000000	57.427865
1339.000000	57.507085
1338.000000	57.590319
1337.000000	57.637870
1336.000000	57.681555
1335.000000	57.751411
1334.000000	57.796262
1333.000000	57.846907
1332.000000	57.905055
1331.000000	57.973266
1330.000000	58.020995
1329.000000	58.076599
1328.000000	58.144096
1327.000000	58.196883
1326.000000	58.221961
1325.000000	58.234319
1324.000000	58.268934
1323.000000	58.280851
1322.000000	58.312260
1321.000000	58.359063
1320.000000	58.363466
1319.000000	58.425707
1318.000000	58.426435
1317.000000	58.469152
1316.000000	58.485087
1315.000000	58.510326
1314.000000	58.539618
1313.000000	58.559996
1312.000000	58.592575
1311.000000	58.607963
1310.000000	58.626118
1309.000000	58.636474
1308.000000	58.628499
1307.000000	58.651842
1306.000000	58.671215
1305.000000	58.706447
1304.000000	58.719882
1303.000000	58.730526
1302.000000	58.768843
1301.000000	58.766755
1300.000000	58.767223
1299.000000	58.775541
1298.000000	58.777228
1297.000000	58.795279
1296.000000	58.790127
1295.000000	58.802410
1294.000000	58.797727
1293.000000	58.789486
1292.000000	58.797683
1291.000000	58.810090
1290.000000	58.814703
1289.000000	58.800151
1288.000000	58.808525
1287.000000	58.793443
1286.000000	58.787887
1285.000000	58.789067
1284.000000	58.755317
1283.000000	58.763598
1282.000000	58.752770
1281.000000	58.759864
1280.000000	58.741584
1279.000000	58.747395
1278.000000	58.733600
1277.000000	58.748858
1276.000000	58.739501
1275.000000	58.752681
1274.000000	58.749943
1273.000000	58.752284
1272.000000	58.757413
1271.000000	58.752761
1270.000000	58.757555
1269.000000	58.753003
1268.000000	58.754826
1267.000000	58.776072
1266.000000	58.769583
1265.000000	58.819444
1264.000000	58.829694
1263.000000	58.828775
1262.000000	58.841140
1261.000000	58.846985
1260.000000	58.858352
1259.000000	58.861600
1258.000000	58.842259
1257.000000	58.877984
1256.000000	58.895714
1255.000000	58.873617
1254.000000	58.892443
1253.000000	58.882268
1252.000000	58.881939
1251.000000	58.890588
1250.000000	58.883030
1249.000000	58.876459
1248.000000	58.871136
1247.000000	58.872353
1246.000000	58.863164
1245.000000	58.852681
1244.000000	58.844730
1243.000000	58.824720
1242.000000	58.812430
1241.000000	58.772587
1240.000000	58.748804
1239.000000	58.741954
1238.000000	58.731936
1237.000000	58.673372
1236.000000	58.648230
1235.000000	58.628330
1234.000000	58.597474
1233.000000	58.562199
1232.000000	58.527572
1231.000000	58.514325
1230.000000	58.500972
1229.000000	58.472959
1228.000000	58.416701
1227.000000	58.398638
1226.000000	58.374784
1225.000000	58.353138
1224.000000	58.335873
1223.000000	58.293439
1222.000000	58.272832
1221.000000	58.238433
1220.000000	58.199562
1219.000000	58.159677
1218.000000	58.133359
1217.000000	58.102621
1216.000000	58.058763
1215.000000	58.023807
1214.000000	58.004330
1213.000000	57.961222
1212.000000	57.938147
1211.000000	57.917961
1210.000000	57.885549
1209.000000	57.837710
1208.000000	57.797064
1207.000000	57.760334
1206.000000	57.717026
1205.000000	57.691620
1204.000000	57.654941
1203.000000	57.614279
1202.000000	57.579140
1201.000000	57.544775
1200.000000	57.507556
1199.000000	57.459430
1198.000000	57.436163
1197.000000	57.409569
1196.000000	57.372226
1195.000000	57.361821
1194.000000	57.342857
1193.000000	57.309090
1192.000000	57.286649
1191.000000	57.273188
1190.000000	57.249579
1189.000000	57.209089
1188.000000	57.213534
1187.000000	57.209288
1186.000000	57.203702
1185.000000	57.216816
1184.000000	57.231017
1183.000000	57.240075
1182.000000	57.267139
1181.000000	57.307054
1180.000000	57.345893
1179.000000	57.381879
1178.000000	57.422319
1177.000000	57.464202
1176.000000	57.505058
1175.000000	57.569110
1174.000000	57.631400
1173.000000	57.711949
1172.000000	57.778893
1171.000000	57.840249
1170.000000	57.916061
1169.000000	57.983367
1168.000000	58.051657
1167.000000	58.128738
1166.000000	58.216733
1165.000000	58.304236
1164.000000	58.402947
1163.000000	58.491788
1162.000000	58.560895
1161.000000	58.650014
1160.000000	58.744545
1159.000000	58.820488
1158.000000	58.891153
1157.000000	58.962315
1156.000000	59.046646
1155.000000	59.129877
1154.000000	59.190040
1153.000000	59.255800
1152.000000	59.331641
1151.000000	59.405813
1150.000000	59.486466
1149.000000	59.557974
1148.000000	59.614798
1147.000000	59.675393
1146.000000	59.733013
1145.000000	59.789443
1144.000000	59.847232
1143.000000	59.884834
1142.000000	59.927331
1141.000000	59.978768
1140.000000	60.038180
1139.000000	60.098781
1138.000000	60.143733
1137.000000	60.194172
1136.000000	60.247639
1135.000000	60.284024
1134.000000	60.327819
1133.000000	60.369485
1132.000000	60.403027
1131.000000	60.444461
1130.000000	60.455750
1129.000000	60.466448
1128.000000	60.500739
1127.000000	60.535994
1126.000000	60.573590
1125.000000	60.593954
1124.000000	60.622192
1123.000000	60.639945
1122.000000	60.647264
1121.000000	60.670924
1120.000000	60.690523
1119.000000	60.707117
1118.000000	60.713837
1117.000000	60.727127
1116.000000	60.749900
1115.000000	60.747643
1114.000000	60.766309
1113.000000	60.774152
1112.000000	60.776882
1111.000000	60.781483
1110.000000	60.771297
1109.000000	60.792182
1108.000000	60.784634
1107.000000	60.782474
1106.000000	60.798088
1105.000000	60.793241
1104.000000	60.799731
1103.000000	60.813726
1102.000000	60.825325
1101.000000	60.810992
1100.000000	60.817715
1099.000000	60.833013
1098.000000	60.841358
1097.000000	60.814806
1096.000000	60.826106
1095.000000	60.834253
1094.000000	60.831825
1093.000000	60.828600
1092.000000	60.827633
1091.000000	60.814096
1090.000000	60.806134
1089.000000	60.821294
1088.000000	60.809791
1087.000000	60.828344
1086.000000	60.824494
1085.000000	60.801233
1084.000000	60.801634
1083.000000	60.790226
1082.000000	60.806157
1081.000000	60.800183
1080.000000	60.814163
1079.000000	60.792659
1078.000000	60.779633
1077.000000	60.774517
1076.000000	60.763965
1075.000000	60.781012
1074.000000	60.779317
1073.000000	60.780224
1072.000000	60.756244
1071.000000	60.739011
1070.000000	60.734858
1069.000000	60.734340
1068.000000	60.739849
1067.000000	60.720453
1066.000000	60.706196
1065.000000	60.712835
1064.000000	60.679001
1063.000000	60.683228
1062.000000	60.681133
1061.000000	60.677700
1060.000000	60.667257
1059.000000	60.661125
1058.000000	60.655908
1057.000000	60.667785
1056.000000	60.662342
1055.000000	60.630028
1054.000000	60.632389
1053.000000	60.616879
1052.000000	60.620631
1051.000000	60.620872
1050.000000	60.607900
1049.000000	60.594522
1048.000000	60.592074
1047.000000	60.587381
1046.000000	60.570325
1045.000000	60.558113
1044.000000	60.583098
1043.000000	60.571093
1042.000000	60.546132
1041.000000	60.544692
1040.000000	60.532123
1039.000000	60.540146
1038.000000	60.517758
1037.000000	60.507406
1036.000000	60.510400
1035.000000	60.518089
1034.000000	60.506548
1033.000000	60.493970
1032.000000	60.498773
1031.000000	60.498522
1030.000000	60.474008
1029.000000	60.479375
1028.000000	60.467100
1027.000000	60.470247
1026.000000	60.474557
1025.000000	60.463828
1024.000000	60.461791
1023.000000	60.442967
1022.000000	60.442152
1021.000000	60.453793
1020.000000	60.447822
1019.000000	60.441597
1018.000000	60.435898
1017.000000	60.452996
1016.000000	60.432315
1015.000000	60.429801
1014.000000	60.449320
1013.000000	60.453939
1012.000000	60.440464
1011.000000	60.436328
1010.000000	60.448098
1009.000000	60.454595
1008.000000	60.436613
1007.000000	60.436673
1006.000000	60.445939
1005.000000	60.441922
1004.000000	60.448026
1003.000000	60.440542
1002.000000	60.458943
1001.000000	60.474451
1000.000000	60.472428
999.000000	60.473509
998.000000	60.474516
997.000000	60.477468
996.000000	60.455123
995.000000	60.450766
994.000000	60.457130
993.000000	60.465152
992.000000	60.471221
991.000000	60.505953
990.000000	60.502836
989.000000	60.498311
988.000000	60.487075
987.000000	60.505570
986.000000	60.512994
985.000000	60.518881
984.000000	60.525179
983.000000	60.538039
982.000000	60.554357
981.000000	60.549629
980.000000	60.547435
979.000000	60.558230
978.000000	60.561805
977.000000	60.565148
976.000000	60.575459
975.000000	60.586817
974.000000	60.595289
973.000000	60.613457
972.000000	60.621998
971.000000	60.631161
970.000000	60.632150
969.000000	60.638748
968.000000	60.668937
967.000000	60.681580
966.000000	60.674254
965.000000	60.676931
964.000000	60.700992
963.000000	60.714378
962.000000	60.712217
961.000000	60.713213
960.000000	60.736594
959.000000	60.768435
958.000000	60.786041
957.000000	60.787700
956.000000	60.789629
955.000000	60.778576
954.000000	60.783962
953.000000	60.827404
952.000000	60.841148
951.000000	60.836377
950.000000	60.845610
949.000000	60.852787
948.000000	60.856177
947.000000	60.865533
946.000000	60.874196
945.000000	60.901310
944.000000	60.888071
943.000000	60.874494
942.000000	60.888273
941.000000	60.887162
940.000000	60.916095
939.000000	60.932738
938.000000	60.946478
937.000000	60.966031
936.000000	60.951550
935.000000	60.936580
934.000000	60.943259
933.000000	60.938464
932.000000	60.944351
931.000000	60.942541
930.000000	60.938606
929.000000	60.953021
928.000000	60.924352
927.000000	60.925081
926.000000	60.929772
925.000000	60.932447
924.000000	60.930983
923.000000	60.934206
922.000000	60.954424
921.000000	60.924632
920.000000	60.897776
919.000000	60.870304
918.000000	60.873420
917.000000	60.888752
916.000000	60.941771
915.000000	60.922830
914.000000	60.904134
913.000000	60.867035
912.000000	60.890404
911.000000	60.902636
910.000000	60.902796
909.000000	60.874803
908.000000	60.884182
907.000000	60.878209
906.000000	60.881063
905.000000	60.898703
904.000000	60.906992
903.000000	60.899287
902.000000	60.916979
901.000000	60.927241
900.000000	60.942421
899.000000	60.975412
898.000000	60.939189
897.000000	60.946736
896.000000	60.981681
895.000000	61.004896
894.000000	61.023509
893.000000	61.007334
892.000000	61.007406
891.000000	61.029015
890.000000	61.050762
889.000000	61.055009
888.000000	61.035451
887.000000	61.058041
886.000000	61.054333
885.000000	61.020165
884.000000	61.080960
883.000000	61.070133
882.000000	61.082252
881.000000	61.077142
880.000000	61.179230
879.000000	61.089039
878.000000	61.103533
877.000000	61.179851
876.000000	61.048188
875.000000	61.125571
874.000000	61.135248
873.000000	61.073291
872.000000	61.115351
871.000000	61.114231
870.000000	61.097545
869.000000	61.095004
868.000000	61.038285
867.000000	61.134280
866.000000	61.094553
865.000000	61.211840
864.000000	61.187839
863.000000	61.167112
862.000000	61.235507
861.000000	61.063571
860.000000	61.084923
859.000000	60.595055
858.000000	60.310585
857.000000	60.097352
856.000000	60.230412
855.000000	60.564945
854.000000	60.133045
853.000000	60.401427
852.000000	60.346261
851.000000	60.598923
850.000000	60.605128
849.000000	60.586246
848.000000	60.290957
847.000000	60.231329
846.000000	60.094112
845.000000	60.173630
844.000000	60.476889
843.000000	60.349796
842.000000	60.441784
841.000000	60.407055
840.000000	60.350329
839.000000	60.452746
838.000000	60.547280
837.000000	60.314686
836.000000	60.229888
835.000000	60.332463
834.000000	60.500503
833.000000	60.329666
832.000000	60.432660
831.000000	60.312781
830.000000	60.368137
829.000000	60.390466
828.000000	60.460470
827.000000	60.285515
826.000000	60.190637
825.000000	60.309373
824.000000	60.017308
823.000000	60.016540
822.000000	60.395770
821.000000	60.092868
820.000000	60.363849
819.000000	60.463443
818.000000	60.285170
817.000000	60.534682
816.000000	60.431561
815.000000	60.214862
814.000000	60.444437
813.000000	60.245371
812.000000	60.225922
811.000000	60.173471
810.000000	60.337111
809.000000	60.256820
808.000000	60.441538
807.000000	60.333192
806.000000	60.406115
805.000000	60.424101
804.000000	60.357393
803.000000	60.375017
802.000000	60.379885
801.000000	60.391610
800.000000	60.346320
799.000000	60.348314
798.000000	60.331102
797.000000	60.384457
796.000000	60.390865
795.000000	60.334038
794.000000	60.364126
793.000000	60.329454
792.000000	60.449017
791.000000	60.277401
790.000000	60.331965
789.000000	60.358972
788.000000	60.376128
787.000000	60.322027
786.000000	60.335898
785.000000	60.335611
784.000000	60.359699
783.000000	60.337222
782.000000	60.321433
781.000000	60.407347
780.000000	60.254272
779.000000	60.274538
778.000000	60.326735
777.000000	60.340805
776.000000	60.331981
775.000000	60.350479
774.000000	60.342949
773.000000	60.311708
772.000000	60.409744
771.000000	60.297408
770.000000	60.250015
769.000000	60.325106
768.000000	60.232719
767.000000	60.306526
766.000000	60.287705
765.000000	60.359170
764.000000	60.337261
763.000000	60.400707
762.000000	60.340442
761.000000	60.310727
760.000000	60.359876
759.000000	60.413261
758.000000	60.322303
757.000000	60.333472
756.000000	60.333132
755.000000	60.308178
754.000000	60.302324
753.000000	60.290886
752.000000	60.259419
751.000000	60.282492
750.000000	60.186435
749.000000	60.250814
748.000000	60.240426
747.000000	60.302364
746.000000	60.189398
745.000000	60.237171
744.000000	60.272059
743.000000	60.273677
742.000000	60.334195
741.000000	60.293045
740.000000	60.310361
739.000000	60.268211
738.000000	60.237427
737.000000	60.260357
736.000000	60.321669
735.000000	60.263564
734.000000	60.193069
733.000000	60.205850
732.000000	60.255839
731.000000	60.199451
730.000000	60.230566
729.000000	60.292380
728.000000	60.275470
727.000000	60.335852
726.000000	60.244130
725.000000	60.199353
724.000000	60.264832
723.000000	60.244352
722.000000	60.166698
721.000000	60.178186
720.000000	60.324293
719.000000	60.269971
718.000000	60.240196
717.000000	60.251857
716.000000	60.203909
715.000000	60.270242
714.000000	60.275767
713.000000	60.260528
712.000000	60.227266
711.000000	60.226162
710.000000	60.232284
709.000000	60.209984
708.000000	60.161837
707.000000	60.138688
706.000000	60.182522
705.000000	60.206983
704.000000	60.174081
703.000000	60.191632
702.000000	60.208542
701.000000	60.219155
700.000000	60.257688
699.000000	60.220406
698.000000	60.216109
697.000000	60.195988
696.000000	60.171548
695.000000	60.177413
694.000000	60.201887
693.000000	60.193168
692.000000	60.184872
691.000000	60.235488
690.000000	60.218653
689.000000	60.215048
688.000000	60.189213
687.000000	60.144875
686.000000	60.146709
685.000000	60.160104
684.000000	60.198173
683.000000	60.227660
682.000000	60.190421
681.000000	60.150781
680.000000	60.173682
679.000000	60.223814
678.000000	60.179108
677.000000	60.221066
676.000000	60.198486
675.000000	60.184103
674.000000	60.236250
673.000000	60.220092
672.000000	60.276632
671.000000	60.332384
670.000000	60.279469
669.000000	60.237777
668.000000	60.198843
667.000000	60.240003
666.000000	60.237817
665.000000	60.218240
664.000000	60.183050
663.000000	60.184370
662.000000	60.169625
661.000000	60.221502
660.000000	60.252296
659.000000	60.274982
658.000000	60.208267
657.000000	60.248409
656.000000	60.251771
655.000000	60.157412
654.000000	60.253066
653.000000	60.219452
652.000000	60.163133
651.000000	60.204165
650.000000	60.223476
649.000000	60.220976
648.000000	60.131552
647.000000	60.129393
646.000000	60.142395
645.000000	60.140858
644.000000	60.174379
643.000000	60.156261
642.000000	60.123816
641.000000	60.140644
640.000000	60.164027
639.000000	60.207023
638.000000	60.114397
637.000000	60.170611
636.000000	60.160844
635.000000	60.157427
634.000000	60.149561
633.000000	60.165409
632.000000	60.148156
631.000000	60.167801
630.000000	60.186724
629.000000	60.130380
628.000000	60.063391
627.000000	60.057424
626.000000	60.086988
625.000000	60.064146
624.000000	60.093393
623.000000	60.082095
622.000000	60.075219
621.000000	60.058424
620.000000	60.059399
619.000000	60.049492
618.000000	59.950397
617.000000	60.033841
616.000000	60.001329
615.000000	59.995419
614.000000	59.983309
613.000000	60.018297
612.000000	59.947584
611.000000	59.984091
610.000000	59.955103
609.000000	59.941506
608.000000	59.981376
607.000000	59.903030
606.000000	59.869970
605.000000	59.856454
604.000000	59.882641
603.000000	59.891887
602.000000	59.812727
601.000000	59.819420
600.000000	59.821908
599.000000	59.828259
598.000000	59.838335
597.000000	59.821323
596.000000	59.753926
595.000000	59.746898
594.000000	59.752788
593.000000	59.717276
592.000000	59.722137
591.000000	59.667931
590.000000	59.681827
589.000000	59.639362
588.000000	59.669643
587.000000	59.608749
586.000000	59.598128
585.000000	59.566490
584.000000	59.588181
583.000000	59.554370
582.000000	59.566374
581.000000	59.489867
580.000000	59.464839
579.000000	59.498453
578.000000	59.427310
577.000000	59.386700
576.000000	59.417268
575.000000	59.374589
574.000000	59.347149
573.000000	59.402395
572.000000	59.394921
571.000000	59.293924
570.000000	59.251339
569.000000	59.266685
568.000000	59.232906
567.000000	59.168308
566.000000	59.158045
565.000000	59.131413
564.000000	59.166473
563.000000	59.121893
562.000000	59.056389
561.000000	58.893650
560.000000	58.963049
559.000000	58.941144
558.000000	58.887662
557.000000	58.871847
556.000000	58.857415
555.000000	58.821449
554.000000	58.780992
553.000000	58.785674
552.000000	58.716243
551.000000	58.669213
550.000000	58.677095
549.000000	58.661310
548.000000	58.598193
547.000000	58.570303
546.000000	58.491515
545.000000	58.483470
544.000000	58.487245
543.000000	58.434030
542.000000	58.383802
541.000000	58.373591
540.000000	58.286766
539.000000	58.268822
538.000000	58.246625
537.000000	58.199854
536.000000	58.161718
535.000000	58.165634
534.000000	58.035552
533.000000	58.028406
532.000000	57.950361
531.000000	57.922098
530.000000	57.884538
529.000000	57.880280
528.000000	57.838352
527.000000	57.770915
526.000000	57.767105
525.000000	57.651146
524.000000	57.599341
523.000000	57.554818
522.000000	57.531633
521.000000	57.493035
520.000000	57.369234
519.000000	57.309244
518.000000	57.281738
517.000000	57.273570
516.000000	57.179290
515.000000	57.124088
514.000000	57.050639
513.000000	57.029753
512.000000	56.950273
511.000000	56.908467
510.000000	56.845769
509.000000	56.770710
508.000000	56.742746
507.000000	56.685759
506.000000	56.642493
505.000000	56.615159
504.000000	56.509113
503.000000	56.465754
502.000000	56.389247
501.000000	56.316805
500.000000	56.242221
499.000000	56.192580
498.000000	56.074759
497.000000	55.971366
496.000000	55.934456
495.000000	55.897515
494.000000	55.780770
493.000000	55.654846
492.000000	55.579209
491.000000	55.579098
490.000000	55.503229
489.000000	55.371420
488.000000	55.252734
487.000000	55.216466
486.000000	55.131229
485.000000	55.060785
484.000000	55.000910
483.000000	54.864784
482.000000	54.765858
481.000000	54.690022
480.000000	54.594153
479.000000	54.499616
478.000000	54.428640
477.000000	54.377453
476.000000	54.262990
475.000000	54.118639
474.000000	54.001059
473.000000	53.922625
472.000000	53.827148
471.000000	53.693029
470.000000	53.566298
469.000000	53.446048
468.000000	53.317521
467.000000	53.254787
466.000000	53.152890
465.000000	53.000943
464.000000	52.853796
463.000000	52.703855
462.000000	52.583463
461.000000	52.477119
460.000000	52.337617
459.000000	52.187715
458.000000	52.025517
457.000000	51.872848
456.000000	51.719148
455.000000	51.588959
454.000000	51.454416
453.000000	51.264874
452.000000	51.085715
451.000000	50.947893
450.000000	50.753584
449.000000	50.580164
448.000000	50.415526
447.000000	50.199797
446.000000	50.022590
445.000000	49.838196
444.000000	49.679125
443.000000	49.500681
442.000000	49.280175
441.000000	49.074198
440.000000	48.867489
439.000000	48.687297
438.000000	48.476149
437.000000	48.286181
436.000000	48.102257
435.000000	47.881375
434.000000	47.691811
433.000000	47.530742
432.000000	47.345539
431.000000	47.103265
430.000000	46.885394
429.000000	46.631077
428.000000	46.422209
427.000000	46.179358
426.000000	45.980955
425.000000	45.769129
424.000000	45.527209
423.000000	45.282760
422.000000	45.052388
421.000000	44.810693
420.000000	44.614531
419.000000	44.372122
418.000000	44.055913
417.000000	43.831511
416.000000	43.555864
415.000000	43.242880
414.000000	43.032819
413.000000	42.775376
412.000000	42.535406
411.000000	42.286411
410.000000	42.025957
409.000000	41.715557
408.000000	41.489626
407.000000	41.204811
406.000000	40.868201
405.000000	40.621038
404.000000	40.401906
403.000000	40.115578
402.000000	39.814050
401.000000	39.553101
400.000000	39.313547
399.000000	38.998717
398.000000	38.702490
397.000000	38.397330
396.000000	38.151199
395.000000	37.788334
394.000000	37.497361
393.000000	37.262817
392.000000	36.961345
391.000000	36.681652
390.000000	36.423559
389.000000	36.109447
388.000000	35.822656
387.000000	35.545993
386.000000	35.181367
385.000000	34.930068
384.000000	34.625381
383.000000	34.315840
382.000000	33.987538
381.000000	33.718000
380.000000	33.371744
379.000000	33.119373
378.000000	32.699287
377.000000	32.512257
376.000000	32.168156
375.000000	31.902198
374.000000	31.521111
373.000000	31.237281
372.000000	30.999083
371.000000	30.630391
370.000000	30.364703
369.000000	29.949026
368.000000	29.598117
367.000000	29.338795
366.000000	29.041357
365.000000	28.711671
364.000000	28.330867
363.000000	28.062325
362.000000	27.766178
361.000000	27.557798
360.000000	27.148249
359.000000	26.727265
358.000000	26.443211
357.000000	26.220848
356.000000	25.829217
355.000000	25.616790
354.000000	25.409789
353.000000	25.112884
352.000000	24.759312
351.000000	24.483500
350.000000	24.224096
349.000000	23.907200
348.000000	23.621200
347.000000	23.446636
346.000000	23.074539
345.000000	22.798870
344.000000	22.636973
343.000000	22.218820
342.000000	22.014258
341.000000	21.799268
340.000000	21.580349
339.000000	21.150628
338.000000	20.946332
337.000000	20.633805
336.000000	20.342531
335.000000	20.068409
334.000000	19.956159
333.000000	19.544918
332.000000	19.239018
331.000000	19.041785
330.000000	18.634072
329.000000	18.432582
328.000000	18.046684
327.000000	17.732329
326.000000	17.470970
325.000000	17.295086
324.000000	17.142870
323.000000	16.673302
322.000000	16.291752
321.000000	16.096701
320.000000	15.814986
319.000000	15.464712
318.000000	15.199190
317.000000	15.058686
316.000000	14.798200
315.000000	14.682513
314.000000	14.505817
313.000000	14.211924
312.000000	13.854190
311.000000	13.775313
310.000000	13.588758
309.000000	13.367069
308.000000	13.169570
307.000000	12.998983
306.000000	12.825677
305.000000	12.642452
304.000000	12.570011
303.000000	12.356554
302.000000	12.250217
301.000000	12.039187
300.000000	11.890328
299.000000	11.682673
298.000000	11.491046
297.000000	11.358124
296.000000	11.219433
295.000000	10.993612
294.000000	10.772533
293.000000	10.629581
292.000000	10.460075
291.000000	10.263088
290.000000	10.176422
289.000000	10.018672
288.000000	9.926570
287.000000	9.890086
286.000000	9.945663
285.000000	9.910469
284.000000	9.927309
283.000000	9.978477
282.000000	9.997812
281.000000	10.036600
280.000000	10.044834
279.000000	10.099963
278.000000	10.168178
277.000000	10.225507
276.000000	10.293600
275.000000	10.378887
274.000000	10.398661
273.000000	10.423331
272.000000	10.513554
271.000000	10.596102
270.000000	10.644815
269.000000	10.703915
268.000000	10.808644
267.000000	10.907481
266.000000	11.027212
265.000000	11.047507
264.000000	11.196881
263.000000	11.332733
262.000000	11.440193
261.000000	11.563949
260.000000	11.651343
259.000000	11.783102
258.000000	11.879350
257.000000	12.029909
256.000000	12.210243
255.000000	12.380772
254.000000	12.524183
253.000000	12.662286
252.000000	12.828906
251.000000	13.005230
250.000000	13.078533
249.000000	13.208499
248.000000	13.414127
247.000000	13.598807
246.000000	13.727199
245.000000	13.844463
244.000000	13.997801
243.000000	14.156044
242.000000	14.308735
241.000000	14.407030
240.000000	14.532125
239.000000	14.638435
238.000000	14.853113
237.000000	15.045456
236.000000	15.157712
235.000000	15.345471
234.000000	15.593982
233.000000	15.666608
232.000000	15.845781
231.000000	15.976410
230.000000	16.097817
229.000000	16.290788
228.000000	16.454467
227.000000	16.693517
226.000000	16.875781
225.000000	17.015024
224.000000	17.293141
223.000000	17.566758
222.000000	17.792941
221.000000	18.061349
220.000000	18.422857
219.000000	18.852087
218.000000	19.225804
217.000000	19.531339
216.000000	19.912602
215.000000	20.317941
214.000000	20.760012
213.000000	21.110597
212.000000	21.617391
211.000000	22.222596
210.000000	22.636856
209.000000	23.198587
208.000000	23.964639
207.000000	24.425303
206.000000	24.955108
205.000000	25.797209
204.000000	26.442883
203.000000	27.194191
202.000000	27.786647
201.000000	28.111988
200.000000	28.717916
