PE UV       SUBTECH     SPECTRUM    ASCII       PEDS        4.00        
   -1
RDVeauUK 322.Sample.asc
18/03/12
11:38:01.00
18/03/12
11:38:01.00
Administrator

200.000000
1
Lambda 750
750N8071901
PerkinElmer UV WinLab 6.0.4.0738 / 1.61.00 Lambda 900

0
0
3350/servo 860.8/2
0
0
UV/VIS
1
1
1
CommonBeamDepol,150mm sphere / downward view
0
0
0
0
Program
Program
3350/servo 860.8/2
3350/0.2 860.8/0.2
3350/0.2 860.8/0.2
0
1
 
 
 
0
 
860.8
319.2
860.8
Front
100
on
 
 
0
0
0
 
0
 
 
 
0
 
 
0
0
0
0
0
 
 
 
 
0
0


0
0
#HDR
-1
-1
#GR
nm
%R
1.0
0.0
2350.000000
-1.000000
2151
8
56.637210
11.669201
#DATA
2350.000000	22.937154
2349.000000	23.441580
2348.000000	22.653389
2347.000000	23.602769
2346.000000	23.581533
2345.000000	22.629381
2344.000000	23.143444
2343.000000	22.927801
2342.000000	23.365775
2341.000000	23.001920
2340.000000	23.148869
2339.000000	23.620044
2338.000000	23.661934
2337.000000	23.853089
2336.000000	23.824037
2335.000000	24.124192
2334.000000	24.060437
2333.000000	23.998461
2332.000000	24.084858
2331.000000	24.005020
2330.000000	23.746181
2329.000000	23.823157
2328.000000	24.059096
2327.000000	23.550970
2326.000000	23.709230
2325.000000	23.572437
2324.000000	23.748820
2323.000000	23.805999
2322.000000	23.636561
2321.000000	23.689639
2320.000000	23.544281
2319.000000	23.355876
2318.000000	23.468772
2317.000000	23.682444
2316.000000	23.256721
2315.000000	23.193942
2314.000000	23.566561
2313.000000	23.407429
2312.000000	23.459180
2311.000000	23.245464
2310.000000	23.540625
2309.000000	23.621351
2308.000000	23.541990
2307.000000	23.136985
2306.000000	23.164393
2305.000000	23.088469
2304.000000	23.098504
2303.000000	23.162799
2302.000000	23.070082
2301.000000	22.924432
2300.000000	22.792441
2299.000000	23.009299
2298.000000	22.895046
2297.000000	22.917432
2296.000000	22.619502
2295.000000	22.444698
2294.000000	22.533880
2293.000000	22.525068
2292.000000	22.444173
2291.000000	22.347254
2290.000000	22.512990
2289.000000	22.484586
2288.000000	22.461795
2287.000000	22.411016
2286.000000	22.155907
2285.000000	22.228820
2284.000000	22.412953
2283.000000	22.447915
2282.000000	22.417130
2281.000000	22.363734
2280.000000	22.199134
2279.000000	22.194323
2278.000000	22.062330
2277.000000	22.179136
2276.000000	22.359284
2275.000000	22.232232
2274.000000	22.289517
2273.000000	22.411167
2272.000000	22.312142
2271.000000	22.326760
2270.000000	22.446013
2269.000000	22.308837
2268.000000	22.320441
2267.000000	22.658223
2266.000000	22.800899
2265.000000	22.624790
2264.000000	22.631711
2263.000000	22.696095
2262.000000	22.775217
2261.000000	23.044112
2260.000000	23.068331
2259.000000	23.047647
2258.000000	23.253524
2257.000000	23.437990
2256.000000	23.416526
2255.000000	23.454222
2254.000000	23.739824
2253.000000	23.781015
2252.000000	23.812964
2251.000000	23.996077
2250.000000	24.146343
2249.000000	24.366747
2248.000000	24.497407
2247.000000	24.563123
2246.000000	24.516917
2245.000000	24.627935
2244.000000	24.876619
2243.000000	25.065705
2242.000000	25.198224
2241.000000	25.184266
2240.000000	25.175960
2239.000000	25.345570
2238.000000	25.541522
2237.000000	25.661631
2236.000000	25.698995
2235.000000	25.574232
2234.000000	25.646635
2233.000000	25.700807
2232.000000	25.721814
2231.000000	25.883329
2230.000000	26.042935
2229.000000	26.054612
2228.000000	26.035751
2227.000000	26.112993
2226.000000	25.937725
2225.000000	25.828380
2224.000000	25.890660
2223.000000	25.865419
2222.000000	25.912789
2221.000000	25.782118
2220.000000	25.729615
2219.000000	25.817959
2218.000000	25.825166
2217.000000	25.779186
2216.000000	25.781508
2215.000000	25.765170
2214.000000	25.796572
2213.000000	25.880106
2212.000000	25.737159
2211.000000	25.581743
2210.000000	25.477272
2209.000000	25.480025
2208.000000	25.433150
2207.000000	25.515367
2206.000000	25.533642
2205.000000	25.468191
2204.000000	25.354982
2203.000000	25.230408
2202.000000	25.316057
2201.000000	25.350809
2200.000000	25.218582
2199.000000	25.215801
2198.000000	25.157575
2197.000000	25.135127
2196.000000	25.091885
2195.000000	24.913217
2194.000000	24.817096
2193.000000	24.775735
2192.000000	24.761623
2191.000000	24.619255
2190.000000	24.686190
2189.000000	24.611048
2188.000000	24.549024
2187.000000	24.591783
2186.000000	24.586839
2185.000000	24.432512
2184.000000	24.551307
2183.000000	24.626623
2182.000000	24.556110
2181.000000	24.424610
2180.000000	24.415233
2179.000000	24.427005
2178.000000	24.402432
2177.000000	24.553148
2176.000000	24.529211
2175.000000	24.550920
2174.000000	24.678872
2173.000000	24.632941
2172.000000	24.532438
2171.000000	24.688866
2170.000000	24.775602
2169.000000	24.863464
2168.000000	24.809124
2167.000000	24.957390
2166.000000	24.797032
2165.000000	25.029593
2164.000000	25.094267
2163.000000	25.088332
2162.000000	25.138243
2161.000000	25.180382
2160.000000	25.430336
2159.000000	25.363317
2158.000000	25.422445
2157.000000	25.591523
2156.000000	25.736768
2155.000000	25.756392
2154.000000	25.824039
2153.000000	25.952563
2152.000000	26.129153
2151.000000	26.135570
2150.000000	26.306728
2149.000000	26.273455
2148.000000	26.383723
2147.000000	26.559897
2146.000000	26.497750
2145.000000	26.615238
2144.000000	26.658550
2143.000000	26.917482
2142.000000	26.854134
2141.000000	27.172684
2140.000000	27.216869
2139.000000	27.263500
2138.000000	27.486930
2137.000000	27.372478
2136.000000	27.381030
2135.000000	27.337263
2134.000000	27.536182
2133.000000	27.396209
2132.000000	27.704841
2131.000000	27.685603
2130.000000	27.778839
2129.000000	27.869123
2128.000000	27.630383
2127.000000	27.964212
2126.000000	27.740306
2125.000000	27.762454
2124.000000	27.809893
2123.000000	27.982480
2122.000000	28.000270
2121.000000	28.020955
2120.000000	27.999115
2119.000000	27.991019
2118.000000	28.094383
2117.000000	28.150615
2116.000000	28.103516
2115.000000	28.222093
2114.000000	28.220814
2113.000000	28.186155
2112.000000	28.112826
2111.000000	28.222888
2110.000000	28.229844
2109.000000	28.157399
2108.000000	27.995694
2107.000000	28.168778
2106.000000	28.156794
2105.000000	28.204669
2104.000000	28.237564
2103.000000	28.248829
2102.000000	28.290648
2101.000000	28.367665
2100.000000	28.356366
2099.000000	28.315318
2098.000000	28.314693
2097.000000	28.149400
2096.000000	28.139496
2095.000000	28.230037
2094.000000	28.279174
2093.000000	28.251390
2092.000000	28.257333
2091.000000	28.174488
2090.000000	28.136349
2089.000000	28.177151
2088.000000	28.134820
2087.000000	28.202348
2086.000000	28.173472
2085.000000	28.158216
2084.000000	27.991472
2083.000000	27.894749
2082.000000	27.878040
2081.000000	27.907523
2080.000000	27.895004
2079.000000	27.821196
2078.000000	27.730340
2077.000000	27.750553
2076.000000	27.636516
2075.000000	27.575139
2074.000000	27.537006
2073.000000	27.446367
2072.000000	27.338688
2071.000000	27.259763
2070.000000	27.258245
2069.000000	27.108461
2068.000000	27.002780
2067.000000	26.870685
2066.000000	26.779554
2065.000000	26.711275
2064.000000	26.629582
2063.000000	26.484450
2062.000000	26.332399
2061.000000	26.298435
2060.000000	26.185565
2059.000000	26.132512
2058.000000	26.046780
2057.000000	25.928087
2056.000000	25.870695
2055.000000	25.747607
2054.000000	25.682043
2053.000000	25.589180
2052.000000	25.485620
2051.000000	25.363557
2050.000000	25.294878
2049.000000	25.315341
2048.000000	25.211816
2047.000000	25.159813
2046.000000	25.089735
2045.000000	25.078859
2044.000000	25.086430
2043.000000	25.010477
2042.000000	24.894103
2041.000000	24.943573
2040.000000	25.049687
2039.000000	25.050937
2038.000000	25.064320
2037.000000	25.094422
2036.000000	25.101963
2035.000000	25.131120
2034.000000	25.213619
2033.000000	25.261926
2032.000000	25.279215
2031.000000	25.324670
2030.000000	25.389381
2029.000000	25.472512
2028.000000	25.585431
2027.000000	25.653803
2026.000000	25.709998
2025.000000	25.749933
2024.000000	25.763366
2023.000000	25.775555
2022.000000	25.787045
2021.000000	25.803919
2020.000000	25.820656
2019.000000	25.855814
2018.000000	25.877383
2017.000000	25.839823
2016.000000	25.836837
2015.000000	25.811604
2014.000000	25.827089
2013.000000	25.832049
2012.000000	25.787212
2011.000000	25.735278
2010.000000	25.667617
2009.000000	25.631592
2008.000000	25.605266
2007.000000	25.502689
2006.000000	25.417318
2005.000000	25.346388
2004.000000	25.268751
2003.000000	25.204874
2002.000000	25.161970
2001.000000	25.114025
2000.000000	25.033148
1999.000000	25.002328
1998.000000	24.943659
1997.000000	24.805868
1996.000000	24.730887
1995.000000	24.688140
1994.000000	24.624416
1993.000000	24.561420
1992.000000	24.453039
1991.000000	24.375007
1990.000000	24.338011
1989.000000	24.228316
1988.000000	24.141318
1987.000000	24.128600
1986.000000	24.017354
1985.000000	23.954436
1984.000000	23.934137
1983.000000	23.872431
1982.000000	23.805514
1981.000000	23.774508
1980.000000	23.691689
1979.000000	23.607586
1978.000000	23.543397
1977.000000	23.434939
1976.000000	23.397190
1975.000000	23.319278
1974.000000	23.242487
1973.000000	23.218014
1972.000000	23.180227
1971.000000	23.107573
1970.000000	23.052367
1969.000000	22.987325
1968.000000	22.905019
1967.000000	22.883602
1966.000000	22.853213
1965.000000	22.791127
1964.000000	22.701202
1963.000000	22.641141
1962.000000	22.685391
1961.000000	22.599939
1960.000000	22.540473
1959.000000	22.510514
1958.000000	22.399571
1957.000000	22.405915
1956.000000	22.315471
1955.000000	22.345421
1954.000000	22.317029
1953.000000	22.266242
1952.000000	22.252140
1951.000000	22.291465
1950.000000	22.264757
1949.000000	22.195874
1948.000000	22.150722
1947.000000	22.162965
1946.000000	22.197141
1945.000000	22.213546
1944.000000	22.208789
1943.000000	22.220749
1942.000000	22.208792
1941.000000	22.275799
1940.000000	22.337394
1939.000000	22.358165
1938.000000	22.399372
1937.000000	22.468100
1936.000000	22.552671
1935.000000	22.560666
1934.000000	22.634496
1933.000000	22.778300
1932.000000	22.792860
1931.000000	22.886453
1930.000000	23.006736
1929.000000	23.071706
1928.000000	23.189841
1927.000000	23.298099
1926.000000	23.483182
1925.000000	23.654578
1924.000000	23.801733
1923.000000	23.956258
1922.000000	24.155128
1921.000000	24.250787
1920.000000	24.410452
1919.000000	24.682055
1918.000000	24.884488
1917.000000	25.046281
1916.000000	25.168582
1915.000000	25.485707
1914.000000	25.703169
1913.000000	26.051276
1912.000000	26.244479
1911.000000	26.532142
1910.000000	26.804198
1909.000000	27.078570
1908.000000	27.365950
1907.000000	27.697127
1906.000000	28.011705
1905.000000	28.349013
1904.000000	28.667442
1903.000000	28.979761
1902.000000	29.435025
1901.000000	29.825483
1900.000000	30.239116
1899.000000	30.569217
1898.000000	30.922138
1897.000000	31.347523
1896.000000	31.734806
1895.000000	32.120904
1894.000000	32.528572
1893.000000	32.945399
1892.000000	33.282079
1891.000000	33.632349
1890.000000	34.034055
1889.000000	34.440828
1888.000000	34.832180
1887.000000	35.112811
1886.000000	35.457485
1885.000000	35.829153
1884.000000	36.215139
1883.000000	36.621841
1882.000000	36.879002
1881.000000	37.215796
1880.000000	37.517808
1879.000000	37.840136
1878.000000	38.130734
1877.000000	38.360249
1876.000000	38.626100
1875.000000	38.935460
1874.000000	39.143209
1873.000000	39.379275
1872.000000	39.608833
1871.000000	39.835802
1870.000000	39.963379
1869.000000	40.151264
1868.000000	40.301195
1867.000000	40.418140
1866.000000	40.529094
1865.000000	40.622798
1864.000000	40.754323
1863.000000	40.803924
1862.000000	40.912781
1861.000000	40.995077
1860.000000	41.074744
1859.000000	41.139547
1858.000000	41.225693
1857.000000	41.330009
1856.000000	41.355596
1855.000000	41.372689
1854.000000	41.390954
1853.000000	41.438672
1852.000000	41.473417
1851.000000	41.503848
1850.000000	41.508491
1849.000000	41.551472
1848.000000	41.558339
1847.000000	41.557018
1846.000000	41.536194
1845.000000	41.522786
1844.000000	41.541193
1843.000000	41.517235
1842.000000	41.482521
1841.000000	41.452125
1840.000000	41.418204
1839.000000	41.435521
1838.000000	41.392265
1837.000000	41.370603
1836.000000	41.361265
1835.000000	41.289637
1834.000000	41.251172
1833.000000	41.204197
1832.000000	41.157488
1831.000000	41.126073
1830.000000	41.089872
1829.000000	41.000543
1828.000000	40.973202
1827.000000	40.945376
1826.000000	40.913507
1825.000000	40.877926
1824.000000	40.862389
1823.000000	40.848593
1822.000000	40.802708
1821.000000	40.768207
1820.000000	40.740733
1819.000000	40.722023
1818.000000	40.695824
1817.000000	40.654749
1816.000000	40.614914
1815.000000	40.607472
1814.000000	40.567846
1813.000000	40.515069
1812.000000	40.489291
1811.000000	40.463322
1810.000000	40.458913
1809.000000	40.441311
1808.000000	40.391555
1807.000000	40.345289
1806.000000	40.315953
1805.000000	40.254434
1804.000000	40.205037
1803.000000	40.217381
1802.000000	40.186663
1801.000000	40.146648
1800.000000	40.133235
1799.000000	40.108816
1798.000000	40.088431
1797.000000	40.081855
1796.000000	40.060198
1795.000000	40.031539
1794.000000	40.028561
1793.000000	40.016238
1792.000000	39.981088
1791.000000	39.964502
1790.000000	39.961739
1789.000000	39.943559
1788.000000	39.939526
1787.000000	39.915552
1786.000000	39.903606
1785.000000	39.895972
1784.000000	39.866713
1783.000000	39.836255
1782.000000	39.818105
1781.000000	39.804637
1780.000000	39.799815
1779.000000	39.777896
1778.000000	39.718772
1777.000000	39.688197
1776.000000	39.658968
1775.000000	39.609784
1774.000000	39.570347
1773.000000	39.542159
1772.000000	39.490490
1771.000000	39.454076
1770.000000	39.402884
1769.000000	39.389175
1768.000000	39.342292
1767.000000	39.280343
1766.000000	39.270143
1765.000000	39.247285
1764.000000	39.193318
1763.000000	39.131418
1762.000000	39.092984
1761.000000	39.038805
1760.000000	39.019912
1759.000000	38.958860
1758.000000	38.924206
1757.000000	38.881985
1756.000000	38.870631
1755.000000	38.819741
1754.000000	38.787082
1753.000000	38.742344
1752.000000	38.718578
1751.000000	38.698387
1750.000000	38.622142
1749.000000	38.610894
1748.000000	38.553920
1747.000000	38.490289
1746.000000	38.459839
1745.000000	38.394515
1744.000000	38.361723
1743.000000	38.328058
1742.000000	38.286837
1741.000000	38.268556
1740.000000	38.213139
1739.000000	38.172193
1738.000000	38.173147
1737.000000	38.131816
1736.000000	38.105711
1735.000000	38.082024
1734.000000	38.082548
1733.000000	38.109418
1732.000000	38.097521
1731.000000	38.112901
1730.000000	38.099454
1729.000000	38.159518
1728.000000	38.190779
1727.000000	38.241427
1726.000000	38.285127
1725.000000	38.319432
1724.000000	38.390827
1723.000000	38.442739
1722.000000	38.548408
1721.000000	38.636262
1720.000000	38.711988
1719.000000	38.826060
1718.000000	38.889035
1717.000000	38.982378
1716.000000	39.088195
1715.000000	39.116405
1714.000000	39.220522
1713.000000	39.315538
1712.000000	39.378485
1711.000000	39.426800
1710.000000	39.520921
1709.000000	39.584725
1708.000000	39.591714
1707.000000	39.662901
1706.000000	39.664748
1705.000000	39.712365
1704.000000	39.741827
1703.000000	39.742760
1702.000000	39.724120
1701.000000	39.767208
1700.000000	39.804979
1699.000000	39.775869
1698.000000	39.786301
1697.000000	39.845404
1696.000000	39.889268
1695.000000	39.894962
1694.000000	39.897477
1693.000000	39.931322
1692.000000	39.983384
1691.000000	40.050700
1690.000000	40.095277
1689.000000	40.164276
1688.000000	40.269524
1687.000000	40.368615
1686.000000	40.453660
1685.000000	40.586967
1684.000000	40.675355
1683.000000	40.821176
1682.000000	40.950256
1681.000000	41.119533
1680.000000	41.259683
1679.000000	41.415509
1678.000000	41.568218
1677.000000	41.702261
1676.000000	41.859589
1675.000000	42.054060
1674.000000	42.192992
1673.000000	42.356224
1672.000000	42.505840
1671.000000	42.645450
1670.000000	42.808281
1669.000000	42.960543
1668.000000	43.064280
1667.000000	43.220487
1666.000000	43.280020
1665.000000	43.388206
1664.000000	43.489175
1663.000000	43.569415
1662.000000	43.620486
1661.000000	43.696689
1660.000000	43.793647
1659.000000	43.841508
1658.000000	43.900214
1657.000000	43.929664
1656.000000	43.978215
1655.000000	43.983867
1654.000000	43.978624
1653.000000	44.041598
1652.000000	44.056024
1651.000000	44.035935
1650.000000	44.031953
1649.000000	44.037451
1648.000000	44.020764
1647.000000	44.011944
1646.000000	43.975830
1645.000000	43.963466
1644.000000	43.963099
1643.000000	43.961112
1642.000000	43.916459
1641.000000	43.888215
1640.000000	43.837942
1639.000000	43.814681
1638.000000	43.795751
1637.000000	43.751411
1636.000000	43.724014
1635.000000	43.675034
1634.000000	43.641437
1633.000000	43.592929
1632.000000	43.539811
1631.000000	43.491642
1630.000000	43.441664
1629.000000	43.411140
1628.000000	43.361800
1627.000000	43.319669
1626.000000	43.277593
1625.000000	43.235106
1624.000000	43.185665
1623.000000	43.119088
1622.000000	43.071742
1621.000000	43.006903
1620.000000	42.962233
1619.000000	42.906234
1618.000000	42.842727
1617.000000	42.796954
1616.000000	42.743713
1615.000000	42.675865
1614.000000	42.621558
1613.000000	42.568268
1612.000000	42.505534
1611.000000	42.450475
1610.000000	42.390253
1609.000000	42.331760
1608.000000	42.256195
1607.000000	42.189910
1606.000000	42.127194
1605.000000	42.071737
1604.000000	42.007541
1603.000000	41.933855
1602.000000	41.876117
1601.000000	41.821513
1600.000000	41.772986
1599.000000	41.707382
1598.000000	41.648192
1597.000000	41.600127
1596.000000	41.525701
1595.000000	41.465908
1594.000000	41.421366
1593.000000	41.368607
1592.000000	41.318383
1591.000000	41.262273
1590.000000	41.214288
1589.000000	41.152861
1588.000000	41.106609
1587.000000	41.062592
1586.000000	41.011910
1585.000000	40.974623
1584.000000	40.929931
1583.000000	40.889620
1582.000000	40.846539
1581.000000	40.794073
1580.000000	40.764316
1579.000000	40.726627
1578.000000	40.687801
1577.000000	40.630715
1576.000000	40.566930
1575.000000	40.523402
1574.000000	40.472940
1573.000000	40.421983
1572.000000	40.383025
1571.000000	40.338295
1570.000000	40.280768
1569.000000	40.254700
1568.000000	40.218298
1567.000000	40.168408
1566.000000	40.147652
1565.000000	40.104467
1564.000000	40.069278
1563.000000	40.047520
1562.000000	40.005767
1561.000000	39.982111
1560.000000	39.970048
1559.000000	39.932167
1558.000000	39.902988
1557.000000	39.901038
1556.000000	39.878757
1555.000000	39.845646
1554.000000	39.800749
1553.000000	39.779671
1552.000000	39.747847
1551.000000	39.719966
1550.000000	39.688014
1549.000000	39.633580
1548.000000	39.595482
1547.000000	39.544124
1546.000000	39.496907
1545.000000	39.426505
1544.000000	39.361518
1543.000000	39.303332
1542.000000	39.243804
1541.000000	39.157967
1540.000000	39.096476
1539.000000	39.008504
1538.000000	38.938958
1537.000000	38.863031
1536.000000	38.781165
1535.000000	38.688228
1534.000000	38.623603
1533.000000	38.549633
1532.000000	38.475905
1531.000000	38.419590
1530.000000	38.353205
1529.000000	38.270377
1528.000000	38.207225
1527.000000	38.154846
1526.000000	38.105138
1525.000000	38.044952
1524.000000	37.984289
1523.000000	37.941334
1522.000000	37.874582
1521.000000	37.838275
1520.000000	37.825306
1519.000000	37.787946
1518.000000	37.757117
1517.000000	37.722057
1516.000000	37.705889
1515.000000	37.655511
1514.000000	37.627981
1513.000000	37.616650
1512.000000	37.578931
1511.000000	37.574193
1510.000000	37.555243
1509.000000	37.546053
1508.000000	37.515167
1507.000000	37.493146
1506.000000	37.481917
1505.000000	37.467130
1504.000000	37.471172
1503.000000	37.446652
1502.000000	37.441618
1501.000000	37.434808
1500.000000	37.410924
1499.000000	37.413445
1498.000000	37.412984
1497.000000	37.410990
1496.000000	37.411060
1495.000000	37.421213
1494.000000	37.420951
1493.000000	37.429296
1492.000000	37.448058
1491.000000	37.440999
1490.000000	37.460531
1489.000000	37.481513
1488.000000	37.509660
1487.000000	37.512429
1486.000000	37.572458
1485.000000	37.555194
1484.000000	37.575942
1483.000000	37.605493
1482.000000	37.616955
1481.000000	37.654146
1480.000000	37.690621
1479.000000	37.713790
1478.000000	37.719911
1477.000000	37.742067
1476.000000	37.759881
1475.000000	37.802374
1474.000000	37.809413
1473.000000	37.845785
1472.000000	37.876900
1471.000000	37.890193
1470.000000	37.933576
1469.000000	37.981408
1468.000000	38.005526
1467.000000	38.019214
1466.000000	38.061951
1465.000000	38.089297
1464.000000	38.108100
1463.000000	38.141771
1462.000000	38.179308
1461.000000	38.218475
1460.000000	38.258404
1459.000000	38.303240
1458.000000	38.369556
1457.000000	38.389452
1456.000000	38.454213
1455.000000	38.492277
1454.000000	38.553743
1453.000000	38.620628
1452.000000	38.676922
1451.000000	38.751467
1450.000000	38.819474
1449.000000	38.877645
1448.000000	38.942848
1447.000000	39.024277
1446.000000	39.095724
1445.000000	39.165158
1444.000000	39.247932
1443.000000	39.324814
1442.000000	39.421846
1441.000000	39.516031
1440.000000	39.600887
1439.000000	39.690247
1438.000000	39.823339
1437.000000	39.909171
1436.000000	40.021707
1435.000000	40.143840
1434.000000	40.261923
1433.000000	40.378415
1432.000000	40.495429
1431.000000	40.637661
1430.000000	40.769420
1429.000000	40.913881
1428.000000	41.045439
1427.000000	41.195000
1426.000000	41.357497
1425.000000	41.516306
1424.000000	41.656560
1423.000000	41.836927
1422.000000	42.026926
1421.000000	42.196060
1420.000000	42.374527
1419.000000	42.557108
1418.000000	42.747527
1417.000000	42.940996
1416.000000	43.138556
1415.000000	43.338501
1414.000000	43.547340
1413.000000	43.765837
1412.000000	43.971400
1411.000000	44.183249
1410.000000	44.392834
1409.000000	44.618436
1408.000000	44.837556
1407.000000	45.054958
1406.000000	45.284277
1405.000000	45.501089
1404.000000	45.688200
1403.000000	45.902533
1402.000000	46.127464
1401.000000	46.339891
1400.000000	46.529816
1399.000000	46.727762
1398.000000	46.923389
1397.000000	47.125546
1396.000000	47.317871
1395.000000	47.509801
1394.000000	47.688876
1393.000000	47.877425
1392.000000	48.056808
1391.000000	48.231570
1390.000000	48.394841
1389.000000	48.544753
1388.000000	48.703559
1387.000000	48.842718
1386.000000	48.967610
1385.000000	49.106093
1384.000000	49.246275
1383.000000	49.365602
1382.000000	49.473398
1381.000000	49.618344
1380.000000	49.727633
1379.000000	49.799824
1378.000000	49.892495
1377.000000	49.981584
1376.000000	50.072053
1375.000000	50.148847
1374.000000	50.220345
1373.000000	50.294688
1372.000000	50.369138
1371.000000	50.450998
1370.000000	50.523012
1369.000000	50.574483
1368.000000	50.628448
1367.000000	50.686637
1366.000000	50.745946
1365.000000	50.812902
1364.000000	50.890189
1363.000000	50.954450
1362.000000	51.010056
1361.000000	51.075647
1360.000000	51.138240
1359.000000	51.203814
1358.000000	51.282206
1357.000000	51.347114
1356.000000	51.407117
1355.000000	51.485178
1354.000000	51.570565
1353.000000	51.644189
1352.000000	51.695533
1351.000000	51.770926
1350.000000	51.864121
1349.000000	51.935471
1348.000000	51.995368
1347.000000	52.070559
1346.000000	52.158309
1345.000000	52.228957
1344.000000	52.272817
1343.000000	52.350040
1342.000000	52.438643
1341.000000	52.493893
1340.000000	52.556901
1339.000000	52.622887
1338.000000	52.690956
1337.000000	52.759922
1336.000000	52.819969
1335.000000	52.878813
1334.000000	52.914121
1333.000000	52.969205
1332.000000	53.021390
1331.000000	53.081488
1330.000000	53.134619
1329.000000	53.202979
1328.000000	53.264529
1327.000000	53.312906
1326.000000	53.350861
1325.000000	53.353938
1324.000000	53.405194
1323.000000	53.400600
1322.000000	53.420357
1321.000000	53.490292
1320.000000	53.526244
1319.000000	53.551928
1318.000000	53.550057
1317.000000	53.572297
1316.000000	53.611271
1315.000000	53.637653
1314.000000	53.662764
1313.000000	53.688465
1312.000000	53.711088
1311.000000	53.720578
1310.000000	53.760556
1309.000000	53.786665
1308.000000	53.769348
1307.000000	53.801616
1306.000000	53.827511
1305.000000	53.858019
1304.000000	53.878509
1303.000000	53.874498
1302.000000	53.903616
1301.000000	53.941646
1300.000000	53.925941
1299.000000	53.940534
1298.000000	53.954408
1297.000000	53.950663
1296.000000	53.942643
1295.000000	53.960063
1294.000000	53.963732
1293.000000	53.961191
1292.000000	53.971342
1291.000000	53.970689
1290.000000	53.978165
1289.000000	53.970808
1288.000000	53.980512
1287.000000	53.965296
1286.000000	53.924528
1285.000000	53.924594
1284.000000	53.924724
1283.000000	53.936639
1282.000000	53.942208
1281.000000	53.932473
1280.000000	53.925957
1279.000000	53.952780
1278.000000	53.947646
1277.000000	53.952216
1276.000000	53.948359
1275.000000	53.935103
1274.000000	53.958799
1273.000000	53.956317
1272.000000	53.952376
1271.000000	53.932752
1270.000000	53.954640
1269.000000	53.960544
1268.000000	53.960035
1267.000000	53.982353
1266.000000	53.960951
1265.000000	54.006584
1264.000000	54.013598
1263.000000	54.024254
1262.000000	54.052594
1261.000000	54.059667
1260.000000	54.058837
1259.000000	54.059740
1258.000000	54.043107
1257.000000	54.073431
1256.000000	54.098699
1255.000000	54.094411
1254.000000	54.101445
1253.000000	54.100752
1252.000000	54.084234
1251.000000	54.122739
1250.000000	54.095730
1249.000000	54.093375
1248.000000	54.095761
1247.000000	54.084863
1246.000000	54.085348
1245.000000	54.100395
1244.000000	54.082427
1243.000000	54.058412
1242.000000	54.014442
1241.000000	54.004754
1240.000000	54.006768
1239.000000	53.998245
1238.000000	53.977805
1237.000000	53.935805
1236.000000	53.917752
1235.000000	53.895969
1234.000000	53.862165
1233.000000	53.827000
1232.000000	53.805357
1231.000000	53.791971
1230.000000	53.788675
1229.000000	53.748525
1228.000000	53.720970
1227.000000	53.709758
1226.000000	53.689251
1225.000000	53.654124
1224.000000	53.658274
1223.000000	53.638997
1222.000000	53.602915
1221.000000	53.579194
1220.000000	53.562518
1219.000000	53.524699
1218.000000	53.485998
1217.000000	53.446798
1216.000000	53.422864
1215.000000	53.399850
1214.000000	53.375094
1213.000000	53.346162
1212.000000	53.334673
1211.000000	53.317570
1210.000000	53.273800
1209.000000	53.215556
1208.000000	53.208174
1207.000000	53.173664
1206.000000	53.121864
1205.000000	53.107052
1204.000000	53.062951
1203.000000	53.008654
1202.000000	52.988124
1201.000000	52.964774
1200.000000	52.930413
1199.000000	52.881847
1198.000000	52.843295
1197.000000	52.829304
1196.000000	52.815042
1195.000000	52.797331
1194.000000	52.777086
1193.000000	52.743270
1192.000000	52.709082
1191.000000	52.703755
1190.000000	52.676428
1189.000000	52.627222
1188.000000	52.631738
1187.000000	52.638652
1186.000000	52.631013
1185.000000	52.640443
1184.000000	52.656284
1183.000000	52.667179
1182.000000	52.693158
1181.000000	52.727105
1180.000000	52.764185
1179.000000	52.797292
1178.000000	52.834487
1177.000000	52.883577
1176.000000	52.937717
1175.000000	52.982318
1174.000000	53.030829
1173.000000	53.110565
1172.000000	53.181868
1171.000000	53.240500
1170.000000	53.309627
1169.000000	53.380981
1168.000000	53.455438
1167.000000	53.528496
1166.000000	53.607077
1165.000000	53.693194
1164.000000	53.786299
1163.000000	53.866666
1162.000000	53.932352
1161.000000	54.020285
1160.000000	54.103801
1159.000000	54.161453
1158.000000	54.244960
1157.000000	54.330148
1156.000000	54.410676
1155.000000	54.488456
1154.000000	54.548940
1153.000000	54.615813
1152.000000	54.701353
1151.000000	54.778351
1150.000000	54.848710
1149.000000	54.913023
1148.000000	54.968217
1147.000000	55.027094
1146.000000	55.086845
1145.000000	55.146189
1144.000000	55.187865
1143.000000	55.231006
1142.000000	55.282265
1141.000000	55.331023
1140.000000	55.386468
1139.000000	55.449052
1138.000000	55.498675
1137.000000	55.537284
1136.000000	55.586556
1135.000000	55.631732
1134.000000	55.683998
1133.000000	55.719471
1132.000000	55.741317
1131.000000	55.772416
1130.000000	55.799634
1129.000000	55.829905
1128.000000	55.873251
1127.000000	55.906486
1126.000000	55.937038
1125.000000	55.962930
1124.000000	55.992765
1123.000000	56.011761
1122.000000	56.016328
1121.000000	56.027785
1120.000000	56.055163
1119.000000	56.082020
1118.000000	56.090458
1117.000000	56.078983
1116.000000	56.101276
1115.000000	56.121963
1114.000000	56.128651
1113.000000	56.155249
1112.000000	56.144468
1111.000000	56.158122
1110.000000	56.151263
1109.000000	56.141719
1108.000000	56.145987
1107.000000	56.154372
1106.000000	56.168999
1105.000000	56.177401
1104.000000	56.180639
1103.000000	56.193370
1102.000000	56.202426
1101.000000	56.204207
1100.000000	56.205325
1099.000000	56.202244
1098.000000	56.210478
1097.000000	56.211037
1096.000000	56.223934
1095.000000	56.227518
1094.000000	56.222834
1093.000000	56.213753
1092.000000	56.203918
1091.000000	56.210668
1090.000000	56.196861
1089.000000	56.209709
1088.000000	56.227336
1087.000000	56.226531
1086.000000	56.227673
1085.000000	56.197850
1084.000000	56.189490
1083.000000	56.194890
1082.000000	56.203343
1081.000000	56.209363
1080.000000	56.201364
1079.000000	56.176118
1078.000000	56.163974
1077.000000	56.167151
1076.000000	56.186023
1075.000000	56.182845
1074.000000	56.193998
1073.000000	56.170817
1072.000000	56.170150
1071.000000	56.141172
1070.000000	56.165101
1069.000000	56.139618
1068.000000	56.105431
1067.000000	56.139240
1066.000000	56.120531
1065.000000	56.119311
1064.000000	56.119452
1063.000000	56.115267
1062.000000	56.086272
1061.000000	56.100336
1060.000000	56.073509
1059.000000	56.075599
1058.000000	56.091939
1057.000000	56.072740
1056.000000	56.074986
1055.000000	56.074689
1054.000000	56.067065
1053.000000	56.044859
1052.000000	56.052787
1051.000000	56.036220
1050.000000	56.029391
1049.000000	56.016626
1048.000000	55.997404
1047.000000	56.008426
1046.000000	56.005401
1045.000000	55.985577
1044.000000	56.010412
1043.000000	55.974752
1042.000000	55.966128
1041.000000	55.986557
1040.000000	55.974806
1039.000000	55.968936
1038.000000	55.964370
1037.000000	55.944953
1036.000000	55.960429
1035.000000	55.947217
1034.000000	55.952303
1033.000000	55.944236
1032.000000	55.948060
1031.000000	55.935256
1030.000000	55.931712
1029.000000	55.925561
1028.000000	55.899923
1027.000000	55.916033
1026.000000	55.923692
1025.000000	55.920758
1024.000000	55.897778
1023.000000	55.894099
1022.000000	55.900203
1021.000000	55.917623
1020.000000	55.889382
1019.000000	55.900506
1018.000000	55.896666
1017.000000	55.903028
1016.000000	55.892631
1015.000000	55.903052
1014.000000	55.900736
1013.000000	55.898952
1012.000000	55.883998
1011.000000	55.900632
1010.000000	55.895557
1009.000000	55.895797
1008.000000	55.891623
1007.000000	55.891829
1006.000000	55.897669
1005.000000	55.904508
1004.000000	55.924339
1003.000000	55.917494
1002.000000	55.920872
1001.000000	55.926216
1000.000000	55.930489
999.000000	55.921336
998.000000	55.919666
997.000000	55.936075
996.000000	55.936735
995.000000	55.936234
994.000000	55.926867
993.000000	55.958959
992.000000	55.953897
991.000000	55.964581
990.000000	55.974532
989.000000	55.968421
988.000000	55.985013
987.000000	55.999170
986.000000	55.987313
985.000000	56.000255
984.000000	56.002476
983.000000	55.995698
982.000000	56.014699
981.000000	56.024653
980.000000	56.024583
979.000000	56.017835
978.000000	56.034919
977.000000	56.052709
976.000000	56.066596
975.000000	56.077593
974.000000	56.076481
973.000000	56.088660
972.000000	56.106765
971.000000	56.123993
970.000000	56.129208
969.000000	56.127003
968.000000	56.113157
967.000000	56.122949
966.000000	56.148628
965.000000	56.158991
964.000000	56.179466
963.000000	56.193321
962.000000	56.208084
961.000000	56.214114
960.000000	56.224021
959.000000	56.254735
958.000000	56.265842
957.000000	56.269193
956.000000	56.252105
955.000000	56.262775
954.000000	56.264329
953.000000	56.283642
952.000000	56.296082
951.000000	56.291660
950.000000	56.296286
949.000000	56.294577
948.000000	56.317364
947.000000	56.331856
946.000000	56.349709
945.000000	56.369895
944.000000	56.380072
943.000000	56.382516
942.000000	56.372207
941.000000	56.378116
940.000000	56.389039
939.000000	56.367438
938.000000	56.360092
937.000000	56.380602
936.000000	56.384630
935.000000	56.386734
934.000000	56.394489
933.000000	56.414620
932.000000	56.409956
931.000000	56.392127
930.000000	56.386898
929.000000	56.408570
928.000000	56.423610
927.000000	56.402960
926.000000	56.401122
925.000000	56.390960
924.000000	56.345473
923.000000	56.360007
922.000000	56.378614
921.000000	56.352408
920.000000	56.351773
919.000000	56.351659
918.000000	56.370911
917.000000	56.381962
916.000000	56.338096
915.000000	56.336978
914.000000	56.346954
913.000000	56.386672
912.000000	56.369466
911.000000	56.382449
910.000000	56.393883
909.000000	56.396597
908.000000	56.341620
907.000000	56.381053
906.000000	56.363947
905.000000	56.369689
904.000000	56.362683
903.000000	56.383348
902.000000	56.400075
901.000000	56.384424
900.000000	56.416686
899.000000	56.428642
898.000000	56.457905
897.000000	56.468985
896.000000	56.477099
895.000000	56.471885
894.000000	56.445204
893.000000	56.419406
892.000000	56.408820
891.000000	56.418918
890.000000	56.538099
889.000000	56.527872
888.000000	56.506843
887.000000	56.467501
886.000000	56.504031
885.000000	56.522049
884.000000	56.566231
883.000000	56.558378
882.000000	56.522204
881.000000	56.587061
880.000000	56.603647
879.000000	56.504388
878.000000	56.549487
877.000000	56.568131
876.000000	56.551487
875.000000	56.463016
874.000000	56.533813
873.000000	56.519629
872.000000	56.524937
871.000000	56.506616
870.000000	56.540951
869.000000	56.634942
868.000000	56.637210
867.000000	56.543304
866.000000	56.547257
865.000000	56.608120
864.000000	56.461047
863.000000	56.485050
862.000000	56.470726
861.000000	56.547298
860.000000	56.478324
859.000000	56.374171
858.000000	56.138755
857.000000	56.553204
856.000000	56.327458
855.000000	56.507663
854.000000	56.252135
853.000000	56.241351
852.000000	55.970833
851.000000	56.477802
850.000000	56.546174
849.000000	56.107776
848.000000	56.260097
847.000000	56.212955
846.000000	56.218992
845.000000	56.157080
844.000000	56.104268
843.000000	56.180131
842.000000	56.218806
841.000000	56.199108
840.000000	56.244714
839.000000	56.129888
838.000000	56.356309
837.000000	56.109808
836.000000	56.255247
835.000000	56.145821
834.000000	56.126013
833.000000	56.213335
832.000000	56.028770
831.000000	56.000986
830.000000	55.959073
829.000000	56.168864
828.000000	56.043057
827.000000	56.036713
826.000000	56.089381
825.000000	56.104878
824.000000	56.104335
823.000000	55.990372
822.000000	56.177854
821.000000	56.064653
820.000000	55.996906
819.000000	56.129237
818.000000	56.263708
817.000000	56.095767
816.000000	56.032981
815.000000	56.005279
814.000000	56.316144
813.000000	56.133097
812.000000	56.078933
811.000000	56.020325
810.000000	56.064977
809.000000	55.972617
808.000000	56.130535
807.000000	56.080760
806.000000	56.044797
805.000000	56.062045
804.000000	56.153682
803.000000	56.070379
802.000000	56.101017
801.000000	56.110221
800.000000	56.266076
799.000000	56.102690
798.000000	56.071858
797.000000	56.083792
796.000000	55.939016
795.000000	56.039527
794.000000	56.070472
793.000000	55.950687
792.000000	56.174385
791.000000	56.069827
790.000000	56.097812
789.000000	56.138289
788.000000	56.074166
787.000000	55.918512
786.000000	56.084679
785.000000	56.009453
784.000000	56.075329
783.000000	56.081451
782.000000	56.001602
781.000000	56.078844
780.000000	56.071227
779.000000	56.049545
778.000000	56.035466
777.000000	56.045632
776.000000	56.032490
775.000000	56.085686
774.000000	56.087479
773.000000	55.974175
772.000000	56.005380
771.000000	56.023841
770.000000	55.971528
769.000000	56.092100
768.000000	55.957066
767.000000	56.006651
766.000000	55.923973
765.000000	55.924868
764.000000	55.962168
763.000000	55.954393
762.000000	55.878868
761.000000	55.946478
760.000000	56.095711
759.000000	56.072573
758.000000	56.012114
757.000000	55.905919
756.000000	55.877377
755.000000	55.913081
754.000000	55.843905
753.000000	55.951840
752.000000	55.850160
751.000000	55.833740
750.000000	55.801136
749.000000	55.847381
748.000000	55.699789
747.000000	55.783843
746.000000	55.784908
745.000000	55.753014
744.000000	55.764428
743.000000	55.782876
742.000000	55.761101
741.000000	55.806798
740.000000	55.805127
739.000000	55.732663
738.000000	55.748885
737.000000	55.757696
736.000000	55.727318
735.000000	55.746387
734.000000	55.666920
733.000000	55.670077
732.000000	55.697438
731.000000	55.615365
730.000000	55.624302
729.000000	55.705450
728.000000	55.708856
727.000000	55.648883
726.000000	55.596834
725.000000	55.624590
724.000000	55.599718
723.000000	55.537828
722.000000	55.503211
721.000000	55.559073
720.000000	55.575889
719.000000	55.516634
718.000000	55.497430
717.000000	55.532437
716.000000	55.517160
715.000000	55.519847
714.000000	55.481890
713.000000	55.471611
712.000000	55.478764
711.000000	55.470770
710.000000	55.502079
709.000000	55.487034
708.000000	55.430711
707.000000	55.421490
706.000000	55.443190
705.000000	55.440494
704.000000	55.423512
703.000000	55.375210
702.000000	55.350474
701.000000	55.393279
700.000000	55.413397
699.000000	55.399955
698.000000	55.392161
697.000000	55.323957
696.000000	55.315459
695.000000	55.344655
694.000000	55.343776
693.000000	55.319743
692.000000	55.290438
691.000000	55.295199
690.000000	55.288329
689.000000	55.229034
688.000000	55.243675
687.000000	55.206947
686.000000	55.192807
685.000000	55.223830
684.000000	55.217274
683.000000	55.255992
682.000000	55.243974
681.000000	55.135188
680.000000	55.110296
679.000000	55.171307
678.000000	55.203988
677.000000	55.190946
676.000000	55.125840
675.000000	55.096283
674.000000	55.064815
673.000000	55.055050
672.000000	55.070275
671.000000	55.110442
670.000000	55.023304
669.000000	55.007362
668.000000	55.007631
667.000000	55.052522
666.000000	55.021055
665.000000	54.991139
664.000000	54.919091
663.000000	54.910487
662.000000	54.932458
661.000000	54.951362
660.000000	54.976254
659.000000	54.856829
658.000000	54.810627
657.000000	54.850174
656.000000	54.829630
655.000000	54.772706
654.000000	54.788940
653.000000	54.792933
652.000000	54.773763
651.000000	54.730700
650.000000	54.686461
649.000000	54.725454
648.000000	54.621538
647.000000	54.649041
646.000000	54.650416
645.000000	54.600281
644.000000	54.574401
643.000000	54.567219
642.000000	54.550354
641.000000	54.484511
640.000000	54.472503
639.000000	54.507673
638.000000	54.442946
637.000000	54.430850
636.000000	54.426762
635.000000	54.365836
634.000000	54.384470
633.000000	54.392669
632.000000	54.334148
631.000000	54.373008
630.000000	54.367886
629.000000	54.278966
628.000000	54.273990
627.000000	54.267305
626.000000	54.202270
625.000000	54.169661
624.000000	54.209390
623.000000	54.183489
622.000000	54.107088
621.000000	54.067524
620.000000	54.016378
619.000000	54.026551
618.000000	53.992167
617.000000	54.020977
616.000000	53.992989
615.000000	53.965631
614.000000	53.923928
613.000000	53.974615
612.000000	53.915893
611.000000	53.909807
610.000000	53.834009
609.000000	53.817700
608.000000	53.864570
607.000000	53.761565
606.000000	53.761702
605.000000	53.755875
604.000000	53.725177
603.000000	53.705286
602.000000	53.696950
601.000000	53.639961
600.000000	53.660424
599.000000	53.631044
598.000000	53.595382
597.000000	53.586307
596.000000	53.517873
595.000000	53.521131
594.000000	53.508573
593.000000	53.536498
592.000000	53.515658
591.000000	53.473942
590.000000	53.432440
589.000000	53.423886
588.000000	53.410891
587.000000	53.339241
586.000000	53.310360
585.000000	53.361572
584.000000	53.265576
583.000000	53.238791
582.000000	53.262886
581.000000	53.260685
580.000000	53.184865
579.000000	53.255363
578.000000	53.162364
577.000000	53.129517
576.000000	53.153747
575.000000	53.087620
574.000000	53.095713
573.000000	53.135461
572.000000	53.072108
571.000000	53.009632
570.000000	53.015920
569.000000	53.014617
568.000000	52.923892
567.000000	52.937983
566.000000	52.930750
565.000000	52.842206
564.000000	52.864613
563.000000	52.842856
562.000000	52.790605
561.000000	52.654754
560.000000	52.677615
559.000000	52.621415
558.000000	52.636818
557.000000	52.623380
556.000000	52.624908
555.000000	52.571952
554.000000	52.537478
553.000000	52.514042
552.000000	52.486573
551.000000	52.457613
550.000000	52.463333
549.000000	52.417017
548.000000	52.398832
547.000000	52.361298
546.000000	52.292124
545.000000	52.283904
544.000000	52.272014
543.000000	52.231584
542.000000	52.167184
541.000000	52.208947
540.000000	52.128369
539.000000	52.094089
538.000000	52.104254
537.000000	52.056043
536.000000	51.977547
535.000000	51.991998
534.000000	51.951311
533.000000	51.922416
532.000000	51.888082
531.000000	51.836385
530.000000	51.807690
529.000000	51.840933
528.000000	51.761908
527.000000	51.731700
526.000000	51.693168
525.000000	51.655547
524.000000	51.618597
523.000000	51.598480
522.000000	51.573507
521.000000	51.536260
520.000000	51.481374
519.000000	51.434448
518.000000	51.424267
517.000000	51.393684
516.000000	51.376784
515.000000	51.334437
514.000000	51.273996
513.000000	51.242912
512.000000	51.192158
511.000000	51.190824
510.000000	51.132824
509.000000	51.081187
508.000000	51.045309
507.000000	51.030890
506.000000	50.957155
505.000000	50.955267
504.000000	50.905904
503.000000	50.851699
502.000000	50.798998
501.000000	50.775470
500.000000	50.669055
499.000000	50.644828
498.000000	50.571199
497.000000	50.498348
496.000000	50.433928
495.000000	50.353581
494.000000	50.312742
493.000000	50.290822
492.000000	50.209639
491.000000	50.176167
490.000000	50.085692
489.000000	49.976267
488.000000	49.920163
487.000000	49.885519
486.000000	49.857972
485.000000	49.829226
484.000000	49.788454
483.000000	49.652990
482.000000	49.540019
481.000000	49.459087
480.000000	49.418163
479.000000	49.360130
478.000000	49.305608
477.000000	49.238710
476.000000	49.152627
475.000000	49.055680
474.000000	48.971273
473.000000	48.930413
472.000000	48.854302
471.000000	48.792904
470.000000	48.691213
469.000000	48.584509
468.000000	48.479809
467.000000	48.407436
466.000000	48.293742
465.000000	48.222999
464.000000	48.171815
463.000000	48.056482
462.000000	47.955784
461.000000	47.851569
460.000000	47.742119
459.000000	47.643927
458.000000	47.553256
457.000000	47.460847
456.000000	47.359605
455.000000	47.240186
454.000000	47.147150
453.000000	47.025024
452.000000	46.911636
451.000000	46.828964
450.000000	46.710683
449.000000	46.582516
448.000000	46.459044
447.000000	46.364820
446.000000	46.238967
445.000000	46.092721
444.000000	45.988637
443.000000	45.866184
442.000000	45.753645
441.000000	45.624737
440.000000	45.483750
439.000000	45.331044
438.000000	45.226334
437.000000	45.125743
436.000000	44.999436
435.000000	44.855313
434.000000	44.690742
433.000000	44.576773
432.000000	44.446829
431.000000	44.277995
430.000000	44.111196
429.000000	44.003952
428.000000	43.899191
427.000000	43.773796
426.000000	43.634228
425.000000	43.455431
424.000000	43.266089
423.000000	43.142412
422.000000	42.981964
421.000000	42.820142
420.000000	42.679006
419.000000	42.522929
418.000000	42.371452
417.000000	42.219509
416.000000	42.077414
415.000000	41.905359
414.000000	41.826436
413.000000	41.757911
412.000000	41.638186
411.000000	41.521191
410.000000	41.440126
409.000000	41.346298
408.000000	41.288861
407.000000	41.232019
406.000000	41.143101
405.000000	41.147951
404.000000	41.036990
403.000000	40.961193
402.000000	40.941324
401.000000	40.904470
400.000000	40.958775
399.000000	40.871972
398.000000	40.803326
397.000000	40.752290
396.000000	40.726678
395.000000	40.626837
394.000000	40.595048
393.000000	40.618636
392.000000	40.563800
391.000000	40.549901
390.000000	40.505522
389.000000	40.469591
388.000000	40.423384
387.000000	40.367551
386.000000	40.284083
385.000000	40.202619
384.000000	40.251656
383.000000	40.183673
382.000000	40.031294
381.000000	40.015260
380.000000	39.910451
379.000000	39.837479
378.000000	39.760158
377.000000	39.761266
376.000000	39.646503
375.000000	39.524150
374.000000	39.472961
373.000000	39.406584
372.000000	39.284106
371.000000	39.352666
370.000000	39.298626
369.000000	39.046451
368.000000	39.039524
367.000000	38.838830
366.000000	38.720225
365.000000	38.732951
364.000000	38.647646
363.000000	38.652506
362.000000	38.563127
361.000000	38.469658
360.000000	38.387403
359.000000	38.357200
358.000000	38.249486
357.000000	38.235978
356.000000	38.089947
355.000000	38.202583
354.000000	37.907023
353.000000	38.063975
352.000000	37.773310
351.000000	37.799507
350.000000	37.857608
349.000000	37.703480
348.000000	37.553310
347.000000	37.596045
346.000000	37.467708
345.000000	37.497070
344.000000	37.367336
343.000000	37.234493
342.000000	37.173875
341.000000	37.180168
340.000000	37.106699
339.000000	37.006318
338.000000	37.062783
337.000000	36.889541
336.000000	36.786050
335.000000	36.879444
334.000000	36.858123
333.000000	36.786933
332.000000	36.858975
331.000000	36.531864
330.000000	36.618579
329.000000	36.531349
328.000000	36.548569
327.000000	36.433679
326.000000	36.305801
325.000000	36.459722
324.000000	36.389136
323.000000	36.318974
322.000000	36.234103
321.000000	36.152489
320.000000	36.248301
319.000000	35.998963
318.000000	36.245790
317.000000	36.185864
316.000000	36.231610
315.000000	36.052948
314.000000	36.116771
313.000000	36.081433
312.000000	35.778969
311.000000	35.950695
310.000000	35.714654
309.000000	35.820443
308.000000	35.672755
307.000000	35.511367
306.000000	35.433026
305.000000	35.414202
304.000000	35.318048
303.000000	35.321707
302.000000	35.165398
301.000000	35.122776
300.000000	34.916440
299.000000	34.719967
298.000000	34.551714
297.000000	34.177104
296.000000	34.009176
295.000000	33.517465
294.000000	32.930139
293.000000	32.220083
292.000000	31.489438
291.000000	30.672979
290.000000	29.819133
289.000000	29.020182
288.000000	28.224542
287.000000	27.588897
286.000000	27.318159
285.000000	27.043916
284.000000	26.933040
283.000000	26.916738
282.000000	26.865375
281.000000	26.865200
280.000000	26.875839
279.000000	27.037621
278.000000	27.044798
277.000000	27.156334
276.000000	27.475066
275.000000	27.820328
274.000000	28.102634
273.000000	28.271063
272.000000	28.550980
271.000000	28.748920
270.000000	28.910537
269.000000	28.966557
268.000000	29.211081
267.000000	29.490291
266.000000	29.734485
265.000000	29.949535
264.000000	30.257601
263.000000	30.577767
262.000000	30.863538
261.000000	31.111744
260.000000	31.244576
259.000000	31.462749
258.000000	31.761656
257.000000	32.126486
256.000000	32.469486
255.000000	32.575621
254.000000	32.462892
253.000000	32.390044
252.000000	32.334924
251.000000	32.175773
250.000000	31.880885
249.000000	31.278578
248.000000	30.385624
247.000000	29.494536
246.000000	28.464769
245.000000	27.245578
244.000000	25.962131
243.000000	24.557827
242.000000	23.227757
241.000000	21.863470
240.000000	20.707935
239.000000	19.623442
238.000000	18.723219
237.000000	17.762204
236.000000	16.945765
235.000000	16.341811
234.000000	15.784095
233.000000	15.227897
232.000000	14.698740
231.000000	14.232488
230.000000	13.853005
229.000000	13.446102
228.000000	13.096506
227.000000	12.771093
226.000000	12.432899
225.000000	12.228204
224.000000	12.050167
223.000000	11.875813
222.000000	11.797353
221.000000	11.682104
220.000000	11.669201
219.000000	11.743493
218.000000	11.759951
217.000000	11.851246
216.000000	11.955116
215.000000	12.092050
214.000000	12.259611
213.000000	12.221381
212.000000	12.364648
211.000000	12.696237
210.000000	12.835203
209.000000	13.138950
208.000000	13.462627
207.000000	13.754867
206.000000	14.157143
205.000000	14.564597
204.000000	14.958191
203.000000	15.467712
202.000000	16.141350
201.000000	16.409448
200.000000	16.715264
