PE IR       SUBTECH     SPECTRUM    ASCII       PEDS        4.00        
   -1
3G-H10-C039_1.ASC
22/02/23
15:07:58.00
22/02/23
15:10:46.00
uco
Sample 039 By uco Date Wednesday, February 23 2022
450.000000
#HDR
-1
-1
#GR
cm-1
A
1.0
0.0
4000.000000
-1.000000
3551
8
0.043905
0.004598
#DATA
4000.000000	0.004764
3999.000000	0.004745
3998.000000	0.004737
3997.000000	0.004795
3996.000000	0.004828
3995.000000	0.004861
3994.000000	0.004887
3993.000000	0.004904
3992.000000	0.004913
3991.000000	0.004914
3990.000000	0.004909
3989.000000	0.004902
3988.000000	0.004901
3987.000000	0.004914
3986.000000	0.004937
3985.000000	0.004962
3984.000000	0.004981
3983.000000	0.004992
3982.000000	0.004995
3981.000000	0.004993
3980.000000	0.004986
3979.000000	0.004971
3978.000000	0.004951
3977.000000	0.004930
3976.000000	0.004918
3975.000000	0.004919
3974.000000	0.004934
3973.000000	0.004956
3972.000000	0.004976
3971.000000	0.004990
3970.000000	0.005001
3969.000000	0.005012
3968.000000	0.005023
3967.000000	0.005029
3966.000000	0.005024
3965.000000	0.005009
3964.000000	0.004991
3963.000000	0.004979
3962.000000	0.004978
3961.000000	0.004987
3960.000000	0.005001
3959.000000	0.005016
3958.000000	0.005027
3957.000000	0.005034
3956.000000	0.005038
3955.000000	0.005040
3954.000000	0.005040
3953.000000	0.005037
3952.000000	0.005031
3951.000000	0.005024
3950.000000	0.005016
3949.000000	0.005006
3948.000000	0.004997
3947.000000	0.004992
3946.000000	0.004993
3945.000000	0.005001
3944.000000	0.005012
3943.000000	0.005023
3942.000000	0.005030
3941.000000	0.005032
3940.000000	0.005032
3939.000000	0.005029
3938.000000	0.005022
3937.000000	0.005010
3936.000000	0.004998
3935.000000	0.004997
3934.000000	0.005018
3933.000000	0.005063
3932.000000	0.005116
3931.000000	0.005154
3930.000000	0.005163
3929.000000	0.005147
3928.000000	0.005123
3927.000000	0.005105
3926.000000	0.005093
3925.000000	0.005080
3924.000000	0.005062
3923.000000	0.005043
3922.000000	0.005031
3921.000000	0.005021
3920.000000	0.005007
3919.000000	0.004984
3918.000000	0.004958
3917.000000	0.004942
3916.000000	0.004946
3915.000000	0.004964
3914.000000	0.004986
3913.000000	0.005004
3912.000000	0.005015
3911.000000	0.005020
3910.000000	0.005026
3909.000000	0.005039
3908.000000	0.005058
3907.000000	0.005072
3906.000000	0.005070
3905.000000	0.005042
3904.000000	0.004998
3903.000000	0.004960
3902.000000	0.004954
3901.000000	0.004982
3900.000000	0.005027
3899.000000	0.005067
3898.000000	0.005088
3897.000000	0.005089
3896.000000	0.005075
3895.000000	0.005051
3894.000000	0.005027
3893.000000	0.005013
3892.000000	0.005017
3891.000000	0.005034
3890.000000	0.005049
3889.000000	0.005047
3888.000000	0.005026
3887.000000	0.005005
3886.000000	0.005003
3885.000000	0.005021
3884.000000	0.005040
3883.000000	0.005052
3882.000000	0.005057
3881.000000	0.005057
3880.000000	0.005047
3879.000000	0.005032
3878.000000	0.005020
3877.000000	0.005015
3876.000000	0.005025
3875.000000	0.005049
3874.000000	0.005075
3873.000000	0.005086
3872.000000	0.005079
3871.000000	0.005065
3870.000000	0.005058
3869.000000	0.005057
3868.000000	0.005053
3867.000000	0.005042
3866.000000	0.005037
3865.000000	0.005048
3864.000000	0.005065
3863.000000	0.005074
3862.000000	0.005076
3861.000000	0.005077
3860.000000	0.005087
3859.000000	0.005105
3858.000000	0.005133
3857.000000	0.005161
3856.000000	0.005172
3855.000000	0.005154
3854.000000	0.005104
3853.000000	0.005041
3852.000000	0.005001
3851.000000	0.004991
3850.000000	0.004997
3849.000000	0.005011
3848.000000	0.005029
3847.000000	0.005045
3846.000000	0.005056
3845.000000	0.005054
3844.000000	0.005036
3843.000000	0.005005
3842.000000	0.004969
3841.000000	0.004940
3840.000000	0.004929
3839.000000	0.004943
3838.000000	0.004983
3837.000000	0.005042
3836.000000	0.005100
3835.000000	0.005133
3834.000000	0.005128
3833.000000	0.005095
3832.000000	0.005059
3831.000000	0.005038
3830.000000	0.005031
3829.000000	0.005028
3828.000000	0.005027
3827.000000	0.005030
3826.000000	0.005039
3825.000000	0.005042
3824.000000	0.005029
3823.000000	0.005008
3822.000000	0.004999
3821.000000	0.005004
3820.000000	0.005011
3819.000000	0.005010
3818.000000	0.005007
3817.000000	0.005015
3816.000000	0.005045
3815.000000	0.005083
3814.000000	0.005107
3813.000000	0.005106
3812.000000	0.005087
3811.000000	0.005064
3810.000000	0.005040
3809.000000	0.005011
3808.000000	0.004977
3807.000000	0.004945
3806.000000	0.004923
3805.000000	0.004918
3804.000000	0.004929
3803.000000	0.004957
3802.000000	0.004990
3801.000000	0.005009
3800.000000	0.005000
3799.000000	0.004976
3798.000000	0.004956
3797.000000	0.004957
3796.000000	0.004981
3795.000000	0.005016
3794.000000	0.005043
3793.000000	0.005051
3792.000000	0.005044
3791.000000	0.005035
3790.000000	0.005037
3789.000000	0.005055
3788.000000	0.005086
3787.000000	0.005119
3786.000000	0.005144
3785.000000	0.005153
3784.000000	0.005143
3783.000000	0.005117
3782.000000	0.005084
3781.000000	0.005058
3780.000000	0.005044
3779.000000	0.005043
3778.000000	0.005050
3777.000000	0.005062
3776.000000	0.005076
3775.000000	0.005092
3774.000000	0.005104
3773.000000	0.005105
3772.000000	0.005086
3771.000000	0.005051
3770.000000	0.005014
3769.000000	0.004986
3768.000000	0.004971
3767.000000	0.004968
3766.000000	0.004977
3765.000000	0.004999
3764.000000	0.005024
3763.000000	0.005035
3762.000000	0.005021
3761.000000	0.004993
3760.000000	0.004964
3759.000000	0.004943
3758.000000	0.004940
3757.000000	0.004955
3756.000000	0.004976
3755.000000	0.004979
3754.000000	0.004953
3753.000000	0.004906
3752.000000	0.004862
3751.000000	0.004833
3750.000000	0.004820
3749.000000	0.004819
3748.000000	0.004817
3747.000000	0.004807
3746.000000	0.004799
3745.000000	0.004814
3744.000000	0.004853
3743.000000	0.004886
3742.000000	0.004888
3741.000000	0.004864
3740.000000	0.004831
3739.000000	0.004799
3738.000000	0.004779
3737.000000	0.004774
3736.000000	0.004776
3735.000000	0.004761
3734.000000	0.004728
3733.000000	0.004710
3732.000000	0.004731
3731.000000	0.004777
3730.000000	0.004821
3729.000000	0.004847
3728.000000	0.004858
3727.000000	0.004866
3726.000000	0.004873
3725.000000	0.004876
3724.000000	0.004873
3723.000000	0.004868
3722.000000	0.004860
3721.000000	0.004846
3720.000000	0.004828
3719.000000	0.004807
3718.000000	0.004793
3717.000000	0.004790
3716.000000	0.004793
3715.000000	0.004792
3714.000000	0.004790
3713.000000	0.004799
3712.000000	0.004821
3711.000000	0.004836
3710.000000	0.004833
3709.000000	0.004822
3708.000000	0.004812
3707.000000	0.004806
3706.000000	0.004801
3705.000000	0.004797
3704.000000	0.004803
3703.000000	0.004821
3702.000000	0.004846
3701.000000	0.004866
3700.000000	0.004876
3699.000000	0.004873
3698.000000	0.004860
3697.000000	0.004847
3696.000000	0.004835
3695.000000	0.004823
3694.000000	0.004810
3693.000000	0.004799
3692.000000	0.004793
3691.000000	0.004779
3690.000000	0.004749
3689.000000	0.004717
3688.000000	0.004717
3687.000000	0.004751
3686.000000	0.004791
3685.000000	0.004817
3684.000000	0.004828
3683.000000	0.004829
3682.000000	0.004829
3681.000000	0.004838
3680.000000	0.004864
3679.000000	0.004898
3678.000000	0.004922
3677.000000	0.004932
3676.000000	0.004937
3675.000000	0.004939
3674.000000	0.004936
3673.000000	0.004922
3672.000000	0.004899
3671.000000	0.004885
3670.000000	0.004896
3669.000000	0.004928
3668.000000	0.004968
3667.000000	0.005005
3666.000000	0.005026
3665.000000	0.005031
3664.000000	0.005029
3663.000000	0.005031
3662.000000	0.005042
3661.000000	0.005053
3660.000000	0.005055
3659.000000	0.005043
3658.000000	0.005028
3657.000000	0.005024
3656.000000	0.005032
3655.000000	0.005035
3654.000000	0.005016
3653.000000	0.004978
3652.000000	0.004943
3651.000000	0.004942
3650.000000	0.004985
3649.000000	0.005052
3648.000000	0.005120
3647.000000	0.005179
3646.000000	0.005220
3645.000000	0.005248
3644.000000	0.005277
3643.000000	0.005310
3642.000000	0.005340
3641.000000	0.005355
3640.000000	0.005356
3639.000000	0.005359
3638.000000	0.005378
3637.000000	0.005413
3636.000000	0.005458
3635.000000	0.005504
3634.000000	0.005544
3633.000000	0.005569
3632.000000	0.005574
3631.000000	0.005561
3630.000000	0.005541
3629.000000	0.005519
3628.000000	0.005504
3627.000000	0.005511
3626.000000	0.005546
3625.000000	0.005591
3624.000000	0.005628
3623.000000	0.005644
3622.000000	0.005645
3621.000000	0.005650
3620.000000	0.005679
3619.000000	0.005728
3618.000000	0.005777
3617.000000	0.005810
3616.000000	0.005821
3615.000000	0.005820
3614.000000	0.005824
3613.000000	0.005844
3612.000000	0.005874
3611.000000	0.005905
3610.000000	0.005938
3609.000000	0.005980
3608.000000	0.006036
3607.000000	0.006096
3606.000000	0.006150
3605.000000	0.006193
3604.000000	0.006226
3603.000000	0.006256
3602.000000	0.006287
3601.000000	0.006319
3600.000000	0.006344
3599.000000	0.006358
3598.000000	0.006369
3597.000000	0.006397
3596.000000	0.006453
3595.000000	0.006522
3594.000000	0.006576
3593.000000	0.006597
3592.000000	0.006586
3591.000000	0.006562
3590.000000	0.006546
3589.000000	0.006561
3588.000000	0.006608
3587.000000	0.006669
3586.000000	0.006723
3585.000000	0.006767
3584.000000	0.006807
3583.000000	0.006849
3582.000000	0.006896
3581.000000	0.006948
3580.000000	0.007000
3579.000000	0.007046
3578.000000	0.007084
3577.000000	0.007118
3576.000000	0.007152
3575.000000	0.007188
3574.000000	0.007224
3573.000000	0.007258
3572.000000	0.007293
3571.000000	0.007331
3570.000000	0.007375
3569.000000	0.007426
3568.000000	0.007479
3567.000000	0.007528
3566.000000	0.007574
3565.000000	0.007629
3564.000000	0.007698
3563.000000	0.007772
3562.000000	0.007838
3561.000000	0.007885
3560.000000	0.007916
3559.000000	0.007940
3558.000000	0.007971
3557.000000	0.008015
3556.000000	0.008066
3555.000000	0.008115
3554.000000	0.008156
3553.000000	0.008192
3552.000000	0.008226
3551.000000	0.008258
3550.000000	0.008282
3549.000000	0.008304
3548.000000	0.008334
3547.000000	0.008378
3546.000000	0.008433
3545.000000	0.008490
3544.000000	0.008549
3543.000000	0.008616
3542.000000	0.008692
3541.000000	0.008765
3540.000000	0.008823
3539.000000	0.008864
3538.000000	0.008896
3537.000000	0.008929
3536.000000	0.008964
3535.000000	0.008994
3534.000000	0.009014
3533.000000	0.009027
3532.000000	0.009047
3531.000000	0.009080
3530.000000	0.009125
3529.000000	0.009173
3528.000000	0.009216
3527.000000	0.009257
3526.000000	0.009305
3525.000000	0.009366
3524.000000	0.009432
3523.000000	0.009494
3522.000000	0.009547
3521.000000	0.009591
3520.000000	0.009630
3519.000000	0.009665
3518.000000	0.009696
3517.000000	0.009723
3516.000000	0.009745
3515.000000	0.009763
3514.000000	0.009781
3513.000000	0.009807
3512.000000	0.009845
3511.000000	0.009891
3510.000000	0.009933
3509.000000	0.009969
3508.000000	0.010003
3507.000000	0.010045
3506.000000	0.010098
3505.000000	0.010156
3504.000000	0.010211
3503.000000	0.010256
3502.000000	0.010293
3501.000000	0.010327
3500.000000	0.010362
3499.000000	0.010401
3498.000000	0.010443
3497.000000	0.010486
3496.000000	0.010531
3495.000000	0.010578
3494.000000	0.010623
3493.000000	0.010660
3492.000000	0.010688
3491.000000	0.010711
3490.000000	0.010733
3489.000000	0.010755
3488.000000	0.010778
3487.000000	0.010808
3486.000000	0.010853
3485.000000	0.010910
3484.000000	0.010967
3483.000000	0.011013
3482.000000	0.011042
3481.000000	0.011063
3480.000000	0.011086
3479.000000	0.011115
3478.000000	0.011144
3477.000000	0.011169
3476.000000	0.011190
3475.000000	0.011214
3474.000000	0.011246
3473.000000	0.011287
3472.000000	0.011332
3471.000000	0.011375
3470.000000	0.011410
3469.000000	0.011438
3468.000000	0.011462
3467.000000	0.011484
3466.000000	0.011508
3465.000000	0.011533
3464.000000	0.011561
3463.000000	0.011593
3462.000000	0.011633
3461.000000	0.011684
3460.000000	0.011743
3459.000000	0.011800
3458.000000	0.011845
3457.000000	0.011870
3456.000000	0.011878
3455.000000	0.011877
3454.000000	0.011873
3453.000000	0.011876
3452.000000	0.011897
3451.000000	0.011941
3450.000000	0.012004
3449.000000	0.012073
3448.000000	0.012130
3447.000000	0.012169
3446.000000	0.012194
3445.000000	0.012216
3444.000000	0.012244
3443.000000	0.012283
3442.000000	0.012330
3441.000000	0.012374
3440.000000	0.012411
3439.000000	0.012442
3438.000000	0.012473
3437.000000	0.012504
3436.000000	0.012532
3435.000000	0.012560
3434.000000	0.012591
3433.000000	0.012628
3432.000000	0.012661
3431.000000	0.012680
3430.000000	0.012683
3429.000000	0.012685
3428.000000	0.012710
3427.000000	0.012777
3426.000000	0.012875
3425.000000	0.012973
3424.000000	0.013037
3423.000000	0.013057
3422.000000	0.013051
3421.000000	0.013050
3420.000000	0.013071
3419.000000	0.013111
3418.000000	0.013155
3417.000000	0.013192
3416.000000	0.013222
3415.000000	0.013254
3414.000000	0.013292
3413.000000	0.013330
3412.000000	0.013358
3411.000000	0.013376
3410.000000	0.013397
3409.000000	0.013430
3408.000000	0.013474
3407.000000	0.013521
3406.000000	0.013565
3405.000000	0.013611
3404.000000	0.013660
3403.000000	0.013710
3402.000000	0.013751
3401.000000	0.013777
3400.000000	0.013788
3399.000000	0.013794
3398.000000	0.013808
3397.000000	0.013836
3396.000000	0.013879
3395.000000	0.013931
3394.000000	0.013986
3393.000000	0.014036
3392.000000	0.014078
3391.000000	0.014114
3390.000000	0.014143
3389.000000	0.014164
3388.000000	0.014180
3387.000000	0.014199
3386.000000	0.014224
3385.000000	0.014254
3384.000000	0.014282
3383.000000	0.014309
3382.000000	0.014347
3381.000000	0.014400
3380.000000	0.014459
3379.000000	0.014508
3378.000000	0.014534
3377.000000	0.014540
3376.000000	0.014539
3375.000000	0.014551
3374.000000	0.014586
3373.000000	0.014645
3372.000000	0.014716
3371.000000	0.014789
3370.000000	0.014859
3369.000000	0.014927
3368.000000	0.014997
3367.000000	0.015065
3366.000000	0.015130
3365.000000	0.015192
3364.000000	0.015256
3363.000000	0.015323
3362.000000	0.015389
3361.000000	0.015450
3360.000000	0.015506
3359.000000	0.015559
3358.000000	0.015615
3357.000000	0.015680
3356.000000	0.015757
3355.000000	0.015841
3354.000000	0.015927
3353.000000	0.016004
3352.000000	0.016070
3351.000000	0.016130
3350.000000	0.016197
3349.000000	0.016278
3348.000000	0.016366
3347.000000	0.016456
3346.000000	0.016540
3345.000000	0.016619
3344.000000	0.016694
3343.000000	0.016768
3342.000000	0.016838
3341.000000	0.016904
3340.000000	0.016966
3339.000000	0.017031
3338.000000	0.017105
3337.000000	0.017187
3336.000000	0.017263
3335.000000	0.017320
3334.000000	0.017361
3333.000000	0.017401
3332.000000	0.017456
3331.000000	0.017525
3330.000000	0.017592
3329.000000	0.017641
3328.000000	0.017668
3327.000000	0.017686
3326.000000	0.017713
3325.000000	0.017759
3324.000000	0.017818
3323.000000	0.017881
3322.000000	0.017942
3321.000000	0.018001
3320.000000	0.018058
3319.000000	0.018109
3318.000000	0.018154
3317.000000	0.018193
3316.000000	0.018232
3315.000000	0.018272
3314.000000	0.018309
3313.000000	0.018338
3312.000000	0.018360
3311.000000	0.018380
3310.000000	0.018403
3309.000000	0.018426
3308.000000	0.018442
3307.000000	0.018447
3306.000000	0.018445
3305.000000	0.018452
3304.000000	0.018483
3303.000000	0.018540
3302.000000	0.018614
3301.000000	0.018683
3300.000000	0.018733
3299.000000	0.018756
3298.000000	0.018757
3297.000000	0.018745
3296.000000	0.018736
3295.000000	0.018744
3294.000000	0.018771
3293.000000	0.018804
3292.000000	0.018826
3291.000000	0.018827
3290.000000	0.018818
3289.000000	0.018807
3288.000000	0.018799
3287.000000	0.018793
3286.000000	0.018790
3285.000000	0.018796
3284.000000	0.018810
3283.000000	0.018827
3282.000000	0.018842
3281.000000	0.018850
3280.000000	0.018850
3279.000000	0.018845
3278.000000	0.018837
3277.000000	0.018825
3276.000000	0.018802
3275.000000	0.018759
3274.000000	0.018695
3273.000000	0.018621
3272.000000	0.018554
3271.000000	0.018509
3270.000000	0.018491
3269.000000	0.018496
3268.000000	0.018507
3267.000000	0.018509
3266.000000	0.018492
3265.000000	0.018461
3264.000000	0.018427
3263.000000	0.018398
3262.000000	0.018373
3261.000000	0.018342
3260.000000	0.018297
3259.000000	0.018236
3258.000000	0.018167
3257.000000	0.018106
3256.000000	0.018063
3255.000000	0.018036
3254.000000	0.018010
3253.000000	0.017974
3252.000000	0.017930
3251.000000	0.017890
3250.000000	0.017858
3249.000000	0.017828
3248.000000	0.017797
3247.000000	0.017766
3246.000000	0.017741
3245.000000	0.017720
3244.000000	0.017697
3243.000000	0.017671
3242.000000	0.017644
3241.000000	0.017615
3240.000000	0.017577
3239.000000	0.017528
3238.000000	0.017474
3237.000000	0.017430
3236.000000	0.017400
3235.000000	0.017382
3234.000000	0.017369
3233.000000	0.017355
3232.000000	0.017336
3231.000000	0.017316
3230.000000	0.017297
3229.000000	0.017275
3228.000000	0.017242
3227.000000	0.017196
3226.000000	0.017145
3225.000000	0.017108
3224.000000	0.017094
3223.000000	0.017097
3222.000000	0.017098
3221.000000	0.017081
3220.000000	0.017046
3219.000000	0.017007
3218.000000	0.016972
3217.000000	0.016939
3216.000000	0.016902
3215.000000	0.016862
3214.000000	0.016827
3213.000000	0.016796
3212.000000	0.016764
3211.000000	0.016728
3210.000000	0.016693
3209.000000	0.016670
3208.000000	0.016657
3207.000000	0.016643
3206.000000	0.016621
3205.000000	0.016588
3204.000000	0.016547
3203.000000	0.016500
3202.000000	0.016450
3201.000000	0.016402
3200.000000	0.016362
3199.000000	0.016333
3198.000000	0.016313
3197.000000	0.016295
3196.000000	0.016269
3195.000000	0.016234
3194.000000	0.016193
3193.000000	0.016148
3192.000000	0.016101
3191.000000	0.016050
3190.000000	0.015999
3189.000000	0.015952
3188.000000	0.015909
3187.000000	0.015867
3186.000000	0.015826
3185.000000	0.015792
3184.000000	0.015767
3183.000000	0.015744
3182.000000	0.015713
3181.000000	0.015667
3180.000000	0.015608
3179.000000	0.015544
3178.000000	0.015481
3177.000000	0.015429
3176.000000	0.015392
3175.000000	0.015368
3174.000000	0.015348
3173.000000	0.015319
3172.000000	0.015275
3171.000000	0.015217
3170.000000	0.015154
3169.000000	0.015095
3168.000000	0.015046
3167.000000	0.015002
3166.000000	0.014956
3165.000000	0.014907
3164.000000	0.014858
3163.000000	0.014817
3162.000000	0.014789
3161.000000	0.014767
3160.000000	0.014736
3159.000000	0.014687
3158.000000	0.014621
3157.000000	0.014555
3156.000000	0.014500
3155.000000	0.014457
3154.000000	0.014420
3153.000000	0.014386
3152.000000	0.014353
3151.000000	0.014323
3150.000000	0.014297
3149.000000	0.014277
3148.000000	0.014259
3147.000000	0.014237
3146.000000	0.014206
3145.000000	0.014164
3144.000000	0.014111
3143.000000	0.014051
3142.000000	0.013992
3141.000000	0.013944
3140.000000	0.013916
3139.000000	0.013906
3138.000000	0.013903
3137.000000	0.013897
3136.000000	0.013882
3135.000000	0.013860
3134.000000	0.013830
3133.000000	0.013795
3132.000000	0.013757
3131.000000	0.013718
3130.000000	0.013683
3129.000000	0.013652
3128.000000	0.013624
3127.000000	0.013599
3126.000000	0.013581
3125.000000	0.013575
3124.000000	0.013576
3123.000000	0.013580
3122.000000	0.013576
3121.000000	0.013559
3120.000000	0.013527
3119.000000	0.013486
3118.000000	0.013450
3117.000000	0.013426
3116.000000	0.013416
3115.000000	0.013420
3114.000000	0.013438
3113.000000	0.013467
3112.000000	0.013502
3111.000000	0.013535
3110.000000	0.013567
3109.000000	0.013601
3108.000000	0.013631
3107.000000	0.013644
3106.000000	0.013640
3105.000000	0.013633
3104.000000	0.013634
3103.000000	0.013637
3102.000000	0.013632
3101.000000	0.013623
3100.000000	0.013626
3099.000000	0.013647
3098.000000	0.013684
3097.000000	0.013723
3096.000000	0.013757
3095.000000	0.013784
3094.000000	0.013803
3093.000000	0.013818
3092.000000	0.013834
3091.000000	0.013851
3090.000000	0.013864
3089.000000	0.013865
3088.000000	0.013855
3087.000000	0.013846
3086.000000	0.013851
3085.000000	0.013877
3084.000000	0.013918
3083.000000	0.013954
3082.000000	0.013972
3081.000000	0.013965
3080.000000	0.013941
3079.000000	0.013908
3078.000000	0.013878
3077.000000	0.013860
3076.000000	0.013863
3075.000000	0.013886
3074.000000	0.013919
3073.000000	0.013950
3072.000000	0.013971
3071.000000	0.013979
3070.000000	0.013971
3069.000000	0.013945
3068.000000	0.013905
3067.000000	0.013865
3066.000000	0.013844
3065.000000	0.013848
3064.000000	0.013871
3063.000000	0.013893
3062.000000	0.013895
3061.000000	0.013873
3060.000000	0.013836
3059.000000	0.013798
3058.000000	0.013769
3057.000000	0.013743
3056.000000	0.013714
3055.000000	0.013671
3054.000000	0.013612
3053.000000	0.013541
3052.000000	0.013470
3051.000000	0.013412
3050.000000	0.013374
3049.000000	0.013348
3048.000000	0.013320
3047.000000	0.013285
3046.000000	0.013244
3045.000000	0.013202
3044.000000	0.013158
3043.000000	0.013113
3042.000000	0.013072
3041.000000	0.013043
3040.000000	0.013023
3039.000000	0.012995
3038.000000	0.012947
3037.000000	0.012880
3036.000000	0.012809
3035.000000	0.012749
3034.000000	0.012705
3033.000000	0.012678
3032.000000	0.012665
3031.000000	0.012662
3030.000000	0.012658
3029.000000	0.012642
3028.000000	0.012603
3027.000000	0.012547
3026.000000	0.012488
3025.000000	0.012441
3024.000000	0.012410
3023.000000	0.012382
3022.000000	0.012347
3021.000000	0.012304
3020.000000	0.012258
3019.000000	0.012218
3018.000000	0.012182
3017.000000	0.012148
3016.000000	0.012117
3015.000000	0.012092
3014.000000	0.012069
3013.000000	0.012046
3012.000000	0.012020
3011.000000	0.011995
3010.000000	0.011976
3009.000000	0.011961
3008.000000	0.011949
3007.000000	0.011943
3006.000000	0.011943
3005.000000	0.011947
3004.000000	0.011946
3003.000000	0.011931
3002.000000	0.011906
3001.000000	0.011879
3000.000000	0.011861
2999.000000	0.011856
2998.000000	0.011863
2997.000000	0.011879
2996.000000	0.011904
2995.000000	0.011941
2994.000000	0.011991
2993.000000	0.012050
2992.000000	0.012105
2991.000000	0.012144
2990.000000	0.012165
2989.000000	0.012180
2988.000000	0.012204
2987.000000	0.012244
2986.000000	0.012298
2985.000000	0.012355
2984.000000	0.012406
2983.000000	0.012446
2982.000000	0.012476
2981.000000	0.012502
2980.000000	0.012532
2979.000000	0.012574
2978.000000	0.012627
2977.000000	0.012679
2976.000000	0.012717
2975.000000	0.012738
2974.000000	0.012749
2973.000000	0.012761
2972.000000	0.012784
2971.000000	0.012824
2970.000000	0.012883
2969.000000	0.012954
2968.000000	0.013028
2967.000000	0.013094
2966.000000	0.013149
2965.000000	0.013194
2964.000000	0.013235
2963.000000	0.013280
2962.000000	0.013334
2961.000000	0.013395
2960.000000	0.013452
2959.000000	0.013495
2958.000000	0.013524
2957.000000	0.013548
2956.000000	0.013569
2955.000000	0.013587
2954.000000	0.013599
2953.000000	0.013605
2952.000000	0.013608
2951.000000	0.013610
2950.000000	0.013613
2949.000000	0.013619
2948.000000	0.013635
2947.000000	0.013658
2946.000000	0.013684
2945.000000	0.013708
2944.000000	0.013736
2943.000000	0.013781
2942.000000	0.013855
2941.000000	0.013949
2940.000000	0.014044
2939.000000	0.014127
2938.000000	0.014199
2937.000000	0.014270
2936.000000	0.014351
2935.000000	0.014443
2934.000000	0.014546
2933.000000	0.014657
2932.000000	0.014772
2931.000000	0.014887
2930.000000	0.015001
2929.000000	0.015115
2928.000000	0.015224
2927.000000	0.015329
2926.000000	0.015433
2925.000000	0.015537
2924.000000	0.015633
2923.000000	0.015715
2922.000000	0.015786
2921.000000	0.015853
2920.000000	0.015916
2919.000000	0.015955
2918.000000	0.015945
2917.000000	0.015870
2916.000000	0.015728
2915.000000	0.015533
2914.000000	0.015304
2913.000000	0.015059
2912.000000	0.014815
2911.000000	0.014584
2910.000000	0.014373
2909.000000	0.014180
2908.000000	0.014001
2907.000000	0.013837
2906.000000	0.013694
2905.000000	0.013578
2904.000000	0.013484
2903.000000	0.013406
2902.000000	0.013343
2901.000000	0.013293
2900.000000	0.013246
2899.000000	0.013188
2898.000000	0.013115
2897.000000	0.013038
2896.000000	0.012975
2895.000000	0.012935
2894.000000	0.012912
2893.000000	0.012899
2892.000000	0.012886
2891.000000	0.012871
2890.000000	0.012855
2889.000000	0.012837
2888.000000	0.012816
2887.000000	0.012784
2886.000000	0.012745
2885.000000	0.012709
2884.000000	0.012683
2883.000000	0.012669
2882.000000	0.012665
2881.000000	0.012670
2880.000000	0.012682
2879.000000	0.012697
2878.000000	0.012706
2877.000000	0.012708
2876.000000	0.012702
2875.000000	0.012689
2874.000000	0.012674
2873.000000	0.012660
2872.000000	0.012648
2871.000000	0.012633
2870.000000	0.012605
2869.000000	0.012559
2868.000000	0.012501
2867.000000	0.012447
2866.000000	0.012407
2865.000000	0.012388
2864.000000	0.012386
2863.000000	0.012394
2862.000000	0.012409
2861.000000	0.012431
2860.000000	0.012458
2859.000000	0.012489
2858.000000	0.012525
2857.000000	0.012577
2856.000000	0.012661
2855.000000	0.012784
2854.000000	0.012941
2853.000000	0.013108
2852.000000	0.013254
2851.000000	0.013348
2850.000000	0.013366
2849.000000	0.013301
2848.000000	0.013158
2847.000000	0.012956
2846.000000	0.012718
2845.000000	0.012473
2844.000000	0.012246
2843.000000	0.012057
2842.000000	0.011910
2841.000000	0.011796
2840.000000	0.011697
2839.000000	0.011602
2838.000000	0.011514
2837.000000	0.011443
2836.000000	0.011393
2835.000000	0.011360
2834.000000	0.011335
2833.000000	0.011311
2832.000000	0.011280
2831.000000	0.011241
2830.000000	0.011196
2829.000000	0.011154
2828.000000	0.011120
2827.000000	0.011094
2826.000000	0.011072
2825.000000	0.011047
2824.000000	0.011021
2823.000000	0.010999
2822.000000	0.010985
2821.000000	0.010979
2820.000000	0.010976
2819.000000	0.010965
2818.000000	0.010947
2817.000000	0.010923
2816.000000	0.010899
2815.000000	0.010877
2814.000000	0.010859
2813.000000	0.010847
2812.000000	0.010836
2811.000000	0.010821
2810.000000	0.010795
2809.000000	0.010760
2808.000000	0.010727
2807.000000	0.010705
2806.000000	0.010702
2805.000000	0.010710
2804.000000	0.010717
2803.000000	0.010714
2802.000000	0.010701
2801.000000	0.010686
2800.000000	0.010670
2799.000000	0.010649
2798.000000	0.010619
2797.000000	0.010585
2796.000000	0.010555
2795.000000	0.010528
2794.000000	0.010502
2793.000000	0.010476
2792.000000	0.010457
2791.000000	0.010449
2790.000000	0.010454
2789.000000	0.010461
2788.000000	0.010461
2787.000000	0.010452
2786.000000	0.010440
2785.000000	0.010431
2784.000000	0.010421
2783.000000	0.010403
2782.000000	0.010373
2781.000000	0.010340
2780.000000	0.010313
2779.000000	0.010293
2778.000000	0.010277
2777.000000	0.010258
2776.000000	0.010235
2775.000000	0.010209
2774.000000	0.010182
2773.000000	0.010162
2772.000000	0.010150
2771.000000	0.010144
2770.000000	0.010139
2769.000000	0.010133
2768.000000	0.010129
2767.000000	0.010127
2766.000000	0.010122
2765.000000	0.010109
2764.000000	0.010090
2763.000000	0.010075
2762.000000	0.010072
2761.000000	0.010078
2760.000000	0.010080
2759.000000	0.010067
2758.000000	0.010039
2757.000000	0.010008
2756.000000	0.009985
2755.000000	0.009975
2754.000000	0.009969
2753.000000	0.009954
2752.000000	0.009927
2751.000000	0.009901
2750.000000	0.009889
2749.000000	0.009891
2748.000000	0.009894
2747.000000	0.009886
2746.000000	0.009870
2745.000000	0.009854
2744.000000	0.009842
2743.000000	0.009835
2742.000000	0.009827
2741.000000	0.009817
2740.000000	0.009801
2739.000000	0.009781
2738.000000	0.009761
2737.000000	0.009744
2736.000000	0.009729
2735.000000	0.009719
2734.000000	0.009717
2733.000000	0.009723
2732.000000	0.009726
2731.000000	0.009715
2730.000000	0.009692
2729.000000	0.009665
2728.000000	0.009644
2727.000000	0.009626
2726.000000	0.009610
2725.000000	0.009593
2724.000000	0.009577
2723.000000	0.009562
2722.000000	0.009554
2721.000000	0.009551
2720.000000	0.009549
2719.000000	0.009542
2718.000000	0.009532
2717.000000	0.009527
2716.000000	0.009530
2715.000000	0.009533
2714.000000	0.009527
2713.000000	0.009510
2712.000000	0.009486
2711.000000	0.009461
2710.000000	0.009444
2709.000000	0.009436
2708.000000	0.009431
2707.000000	0.009422
2706.000000	0.009410
2705.000000	0.009403
2704.000000	0.009404
2703.000000	0.009408
2702.000000	0.009413
2701.000000	0.009419
2700.000000	0.009421
2699.000000	0.009411
2698.000000	0.009385
2697.000000	0.009354
2696.000000	0.009331
2695.000000	0.009322
2694.000000	0.009322
2693.000000	0.009327
2692.000000	0.009333
2691.000000	0.009338
2690.000000	0.009340
2689.000000	0.009336
2688.000000	0.009326
2687.000000	0.009312
2686.000000	0.009300
2685.000000	0.009294
2684.000000	0.009294
2683.000000	0.009292
2682.000000	0.009284
2681.000000	0.009275
2680.000000	0.009272
2679.000000	0.009272
2678.000000	0.009265
2677.000000	0.009246
2676.000000	0.009221
2675.000000	0.009202
2674.000000	0.009195
2673.000000	0.009202
2672.000000	0.009215
2671.000000	0.009226
2670.000000	0.009229
2669.000000	0.009226
2668.000000	0.009224
2667.000000	0.009227
2666.000000	0.009234
2665.000000	0.009239
2664.000000	0.009241
2663.000000	0.009236
2662.000000	0.009222
2661.000000	0.009201
2660.000000	0.009178
2659.000000	0.009159
2658.000000	0.009147
2657.000000	0.009142
2656.000000	0.009139
2655.000000	0.009133
2654.000000	0.009124
2653.000000	0.009115
2652.000000	0.009106
2651.000000	0.009094
2650.000000	0.009076
2649.000000	0.009052
2648.000000	0.009022
2647.000000	0.008984
2646.000000	0.008938
2645.000000	0.008893
2644.000000	0.008860
2643.000000	0.008845
2642.000000	0.008841
2641.000000	0.008839
2640.000000	0.008829
2639.000000	0.008809
2638.000000	0.008781
2637.000000	0.008751
2636.000000	0.008729
2635.000000	0.008721
2634.000000	0.008725
2633.000000	0.008733
2632.000000	0.008732
2631.000000	0.008719
2630.000000	0.008700
2629.000000	0.008680
2628.000000	0.008657
2627.000000	0.008623
2626.000000	0.008581
2625.000000	0.008544
2624.000000	0.008522
2623.000000	0.008517
2622.000000	0.008524
2621.000000	0.008532
2620.000000	0.008525
2619.000000	0.008496
2618.000000	0.008453
2617.000000	0.008414
2616.000000	0.008388
2615.000000	0.008373
2614.000000	0.008361
2613.000000	0.008351
2612.000000	0.008339
2611.000000	0.008321
2610.000000	0.008302
2609.000000	0.008289
2608.000000	0.008285
2607.000000	0.008276
2606.000000	0.008251
2605.000000	0.008220
2604.000000	0.008205
2603.000000	0.008218
2602.000000	0.008248
2601.000000	0.008277
2600.000000	0.008285
2599.000000	0.008269
2598.000000	0.008243
2597.000000	0.008221
2596.000000	0.008206
2595.000000	0.008182
2594.000000	0.008147
2593.000000	0.008119
2592.000000	0.008116
2591.000000	0.008133
2590.000000	0.008146
2589.000000	0.008137
2588.000000	0.008108
2587.000000	0.008069
2586.000000	0.008024
2585.000000	0.007979
2584.000000	0.007938
2583.000000	0.007911
2582.000000	0.007903
2581.000000	0.007916
2580.000000	0.007941
2579.000000	0.007963
2578.000000	0.007962
2577.000000	0.007937
2576.000000	0.007909
2575.000000	0.007903
2574.000000	0.007925
2573.000000	0.007958
2572.000000	0.007978
2571.000000	0.007977
2570.000000	0.007962
2569.000000	0.007947
2568.000000	0.007933
2567.000000	0.007923
2566.000000	0.007916
2565.000000	0.007911
2564.000000	0.007900
2563.000000	0.007879
2562.000000	0.007863
2561.000000	0.007870
2560.000000	0.007899
2559.000000	0.007923
2558.000000	0.007914
2557.000000	0.007868
2556.000000	0.007805
2555.000000	0.007749
2554.000000	0.007716
2553.000000	0.007718
2552.000000	0.007753
2551.000000	0.007802
2550.000000	0.007838
2549.000000	0.007844
2548.000000	0.007830
2547.000000	0.007816
2546.000000	0.007816
2545.000000	0.007822
2544.000000	0.007818
2543.000000	0.007795
2542.000000	0.007762
2541.000000	0.007739
2540.000000	0.007732
2539.000000	0.007734
2538.000000	0.007735
2537.000000	0.007738
2536.000000	0.007745
2535.000000	0.007751
2534.000000	0.007748
2533.000000	0.007729
2532.000000	0.007702
2531.000000	0.007677
2530.000000	0.007667
2529.000000	0.007674
2528.000000	0.007687
2527.000000	0.007690
2526.000000	0.007680
2525.000000	0.007671
2524.000000	0.007673
2523.000000	0.007679
2522.000000	0.007676
2521.000000	0.007662
2520.000000	0.007652
2519.000000	0.007658
2518.000000	0.007674
2517.000000	0.007686
2516.000000	0.007686
2515.000000	0.007684
2514.000000	0.007688
2513.000000	0.007697
2512.000000	0.007693
2511.000000	0.007671
2510.000000	0.007641
2509.000000	0.007619
2508.000000	0.007605
2507.000000	0.007586
2506.000000	0.007557
2505.000000	0.007530
2504.000000	0.007522
2503.000000	0.007534
2502.000000	0.007556
2501.000000	0.007567
2500.000000	0.007558
2499.000000	0.007536
2498.000000	0.007522
2497.000000	0.007529
2496.000000	0.007550
2495.000000	0.007567
2494.000000	0.007573
2493.000000	0.007578
2492.000000	0.007589
2491.000000	0.007602
2490.000000	0.007608
2489.000000	0.007602
2488.000000	0.007582
2487.000000	0.007553
2486.000000	0.007527
2485.000000	0.007513
2484.000000	0.007506
2483.000000	0.007486
2482.000000	0.007443
2481.000000	0.007389
2480.000000	0.007346
2479.000000	0.007327
2478.000000	0.007336
2477.000000	0.007370
2476.000000	0.007413
2475.000000	0.007447
2474.000000	0.007458
2473.000000	0.007451
2472.000000	0.007435
2471.000000	0.007425
2470.000000	0.007428
2469.000000	0.007450
2468.000000	0.007481
2467.000000	0.007500
2466.000000	0.007496
2465.000000	0.007483
2464.000000	0.007483
2463.000000	0.007503
2462.000000	0.007525
2461.000000	0.007529
2460.000000	0.007506
2459.000000	0.007459
2458.000000	0.007402
2457.000000	0.007351
2456.000000	0.007321
2455.000000	0.007318
2454.000000	0.007337
2453.000000	0.007366
2452.000000	0.007397
2451.000000	0.007425
2450.000000	0.007453
2449.000000	0.007483
2448.000000	0.007506
2447.000000	0.007505
2446.000000	0.007466
2445.000000	0.007392
2444.000000	0.007310
2443.000000	0.007251
2442.000000	0.007234
2441.000000	0.007249
2440.000000	0.007273
2439.000000	0.007295
2438.000000	0.007322
2437.000000	0.007358
2436.000000	0.007388
2435.000000	0.007390
2434.000000	0.007362
2433.000000	0.007325
2432.000000	0.007296
2431.000000	0.007277
2430.000000	0.007264
2429.000000	0.007255
2428.000000	0.007251
2427.000000	0.007257
2426.000000	0.007270
2425.000000	0.007283
2424.000000	0.007279
2423.000000	0.007251
2422.000000	0.007216
2421.000000	0.007197
2420.000000	0.007200
2419.000000	0.007217
2418.000000	0.007232
2417.000000	0.007240
2416.000000	0.007235
2415.000000	0.007220
2414.000000	0.007204
2413.000000	0.007198
2412.000000	0.007199
2411.000000	0.007197
2410.000000	0.007196
2409.000000	0.007205
2408.000000	0.007222
2407.000000	0.007232
2406.000000	0.007229
2405.000000	0.007226
2404.000000	0.007237
2403.000000	0.007264
2402.000000	0.007300
2401.000000	0.007331
2400.000000	0.007340
2399.000000	0.007313
2398.000000	0.007261
2397.000000	0.007212
2396.000000	0.007189
2395.000000	0.007186
2394.000000	0.007189
2393.000000	0.007200
2392.000000	0.007226
2391.000000	0.007258
2390.000000	0.007274
2389.000000	0.007260
2388.000000	0.007228
2387.000000	0.007200
2386.000000	0.007191
2385.000000	0.007196
2384.000000	0.007196
2383.000000	0.007183
2382.000000	0.007163
2381.000000	0.007145
2380.000000	0.007133
2379.000000	0.007132
2378.000000	0.007151
2377.000000	0.007193
2376.000000	0.007238
2375.000000	0.007256
2374.000000	0.007229
2373.000000	0.007168
2372.000000	0.007093
2371.000000	0.007034
2370.000000	0.007013
2369.000000	0.007030
2368.000000	0.007059
2367.000000	0.007075
2366.000000	0.007084
2365.000000	0.007109
2364.000000	0.007157
2363.000000	0.007228
2362.000000	0.007304
2361.000000	0.007347
2360.000000	0.007332
2359.000000	0.007264
2358.000000	0.007178
2357.000000	0.007119
2356.000000	0.007106
2355.000000	0.007154
2354.000000	0.007218
2353.000000	0.007240
2352.000000	0.007206
2351.000000	0.007169
2350.000000	0.007178
2349.000000	0.007236
2348.000000	0.007310
2347.000000	0.007347
2346.000000	0.007318
2345.000000	0.007263
2344.000000	0.007235
2343.000000	0.007253
2342.000000	0.007274
2341.000000	0.007276
2340.000000	0.007283
2339.000000	0.007318
2338.000000	0.007357
2337.000000	0.007359
2336.000000	0.007320
2335.000000	0.007265
2334.000000	0.007212
2333.000000	0.007161
2332.000000	0.007131
2331.000000	0.007130
2330.000000	0.007170
2329.000000	0.007229
2328.000000	0.007312
2327.000000	0.007409
2326.000000	0.007498
2325.000000	0.007532
2324.000000	0.007490
2323.000000	0.007400
2322.000000	0.007324
2321.000000	0.007305
2320.000000	0.007336
2319.000000	0.007363
2318.000000	0.007355
2317.000000	0.007312
2316.000000	0.007273
2315.000000	0.007251
2314.000000	0.007254
2313.000000	0.007262
2312.000000	0.007265
2311.000000	0.007242
2310.000000	0.007199
2309.000000	0.007152
2308.000000	0.007126
2307.000000	0.007119
2306.000000	0.007120
2305.000000	0.007115
2304.000000	0.007106
2303.000000	0.007102
2302.000000	0.007117
2301.000000	0.007154
2300.000000	0.007202
2299.000000	0.007234
2298.000000	0.007241
2297.000000	0.007231
2296.000000	0.007220
2295.000000	0.007212
2294.000000	0.007206
2293.000000	0.007209
2292.000000	0.007228
2291.000000	0.007246
2290.000000	0.007242
2289.000000	0.007213
2288.000000	0.007188
2287.000000	0.007197
2286.000000	0.007235
2285.000000	0.007259
2284.000000	0.007228
2283.000000	0.007147
2282.000000	0.007067
2281.000000	0.007040
2280.000000	0.007069
2279.000000	0.007108
2278.000000	0.007113
2277.000000	0.007071
2276.000000	0.007003
2275.000000	0.006941
2274.000000	0.006915
2273.000000	0.006937
2272.000000	0.006993
2271.000000	0.007051
2270.000000	0.007097
2269.000000	0.007134
2268.000000	0.007170
2267.000000	0.007193
2266.000000	0.007178
2265.000000	0.007109
2264.000000	0.006997
2263.000000	0.006892
2262.000000	0.006864
2261.000000	0.006944
2260.000000	0.007081
2259.000000	0.007172
2258.000000	0.007158
2257.000000	0.007067
2256.000000	0.006960
2255.000000	0.006859
2254.000000	0.006761
2253.000000	0.006685
2252.000000	0.006673
2251.000000	0.006745
2250.000000	0.006862
2249.000000	0.006954
2248.000000	0.006970
2247.000000	0.006915
2246.000000	0.006845
2245.000000	0.006816
2244.000000	0.006830
2243.000000	0.006844
2242.000000	0.006830
2241.000000	0.006798
2240.000000	0.006771
2239.000000	0.006758
2238.000000	0.006762
2237.000000	0.006793
2236.000000	0.006844
2235.000000	0.006885
2234.000000	0.006887
2233.000000	0.006852
2232.000000	0.006796
2231.000000	0.006733
2230.000000	0.006682
2229.000000	0.006671
2228.000000	0.006712
2227.000000	0.006777
2226.000000	0.006828
2225.000000	0.006848
2224.000000	0.006846
2223.000000	0.006828
2222.000000	0.006799
2221.000000	0.006766
2220.000000	0.006738
2219.000000	0.006707
2218.000000	0.006663
2217.000000	0.006610
2216.000000	0.006561
2215.000000	0.006515
2214.000000	0.006460
2213.000000	0.006403
2212.000000	0.006373
2211.000000	0.006403
2210.000000	0.006497
2209.000000	0.006623
2208.000000	0.006732
2207.000000	0.006787
2206.000000	0.006771
2205.000000	0.006693
2204.000000	0.006581
2203.000000	0.006487
2202.000000	0.006459
2201.000000	0.006492
2200.000000	0.006530
2199.000000	0.006528
2198.000000	0.006500
2197.000000	0.006486
2196.000000	0.006491
2195.000000	0.006496
2194.000000	0.006497
2193.000000	0.006508
2192.000000	0.006527
2191.000000	0.006528
2190.000000	0.006501
2189.000000	0.006451
2188.000000	0.006388
2187.000000	0.006321
2186.000000	0.006274
2185.000000	0.006256
2184.000000	0.006247
2183.000000	0.006230
2182.000000	0.006229
2181.000000	0.006268
2180.000000	0.006324
2179.000000	0.006361
2178.000000	0.006388
2177.000000	0.006431
2176.000000	0.006475
2175.000000	0.006473
2174.000000	0.006415
2173.000000	0.006334
2172.000000	0.006270
2171.000000	0.006267
2170.000000	0.006370
2169.000000	0.006565
2168.000000	0.006732
2167.000000	0.006736
2166.000000	0.006571
2165.000000	0.006356
2164.000000	0.006191
2163.000000	0.006083
2162.000000	0.005982
2161.000000	0.005828
2160.000000	0.005579
2159.000000	0.005292
2158.000000	0.005136
2157.000000	0.005208
2156.000000	0.005399
2155.000000	0.005556
2154.000000	0.005656
2153.000000	0.005752
2152.000000	0.005830
2151.000000	0.005847
2150.000000	0.005841
2149.000000	0.005877
2148.000000	0.005908
2147.000000	0.005837
2146.000000	0.005693
2145.000000	0.005637
2144.000000	0.005748
2143.000000	0.005931
2142.000000	0.006053
2141.000000	0.006086
2140.000000	0.006070
2139.000000	0.006040
2138.000000	0.006029
2137.000000	0.006072
2136.000000	0.006152
2135.000000	0.006188
2134.000000	0.006139
2133.000000	0.006068
2132.000000	0.006062
2131.000000	0.006133
2130.000000	0.006219
2129.000000	0.006264
2128.000000	0.006267
2127.000000	0.006268
2126.000000	0.006314
2125.000000	0.006406
2124.000000	0.006486
2123.000000	0.006494
2122.000000	0.006445
2121.000000	0.006419
2120.000000	0.006460
2119.000000	0.006532
2118.000000	0.006571
2117.000000	0.006562
2116.000000	0.006532
2115.000000	0.006511
2114.000000	0.006512
2113.000000	0.006536
2112.000000	0.006571
2111.000000	0.006599
2110.000000	0.006617
2109.000000	0.006631
2108.000000	0.006624
2107.000000	0.006577
2106.000000	0.006502
2105.000000	0.006454
2104.000000	0.006466
2103.000000	0.006516
2102.000000	0.006569
2101.000000	0.006609
2100.000000	0.006632
2099.000000	0.006630
2098.000000	0.006605
2097.000000	0.006583
2096.000000	0.006582
2095.000000	0.006593
2094.000000	0.006601
2093.000000	0.006603
2092.000000	0.006596
2091.000000	0.006575
2090.000000	0.006558
2089.000000	0.006574
2088.000000	0.006611
2087.000000	0.006617
2086.000000	0.006561
2085.000000	0.006476
2084.000000	0.006411
2083.000000	0.006379
2082.000000	0.006366
2081.000000	0.006374
2080.000000	0.006409
2079.000000	0.006460
2078.000000	0.006499
2077.000000	0.006507
2076.000000	0.006471
2075.000000	0.006389
2074.000000	0.006290
2073.000000	0.006223
2072.000000	0.006212
2071.000000	0.006235
2070.000000	0.006259
2069.000000	0.006272
2068.000000	0.006263
2067.000000	0.006220
2066.000000	0.006165
2065.000000	0.006153
2064.000000	0.006199
2063.000000	0.006243
2062.000000	0.006222
2061.000000	0.006154
2060.000000	0.006109
2059.000000	0.006128
2058.000000	0.006181
2057.000000	0.006217
2056.000000	0.006215
2055.000000	0.006199
2054.000000	0.006228
2053.000000	0.006342
2052.000000	0.006505
2051.000000	0.006611
2050.000000	0.006551
2049.000000	0.006293
2048.000000	0.005923
2047.000000	0.005606
2046.000000	0.005503
2045.000000	0.005646
2044.000000	0.005903
2043.000000	0.006076
2042.000000	0.006080
2041.000000	0.005970
2040.000000	0.005832
2039.000000	0.005681
2038.000000	0.005505
2037.000000	0.005329
2036.000000	0.005198
2035.000000	0.005144
2034.000000	0.005192
2033.000000	0.005340
2032.000000	0.005540
2031.000000	0.005739
2030.000000	0.005926
2029.000000	0.006076
2028.000000	0.006105
2027.000000	0.005958
2026.000000	0.005744
2025.000000	0.005657
2024.000000	0.005728
2023.000000	0.005776
2022.000000	0.005644
2021.000000	0.005396
2020.000000	0.005227
2019.000000	0.005243
2018.000000	0.005394
2017.000000	0.005539
2016.000000	0.005570
2015.000000	0.005482
2014.000000	0.005373
2013.000000	0.005330
2012.000000	0.005343
2011.000000	0.005356
2010.000000	0.005364
2009.000000	0.005395
2008.000000	0.005408
2007.000000	0.005343
2006.000000	0.005248
2005.000000	0.005254
2004.000000	0.005384
2003.000000	0.005521
2002.000000	0.005560
2001.000000	0.005504
2000.000000	0.005402
1999.000000	0.005288
1998.000000	0.005209
1997.000000	0.005221
1996.000000	0.005301
1995.000000	0.005341
1994.000000	0.005266
1993.000000	0.005123
1992.000000	0.005019
1991.000000	0.004998
1990.000000	0.005049
1989.000000	0.005168
1988.000000	0.005358
1987.000000	0.005582
1986.000000	0.005767
1985.000000	0.005849
1984.000000	0.005828
1983.000000	0.005786
1982.000000	0.005825
1981.000000	0.005960
1980.000000	0.006086
1979.000000	0.006095
1978.000000	0.005997
1977.000000	0.005872
1976.000000	0.005723
1975.000000	0.005498
1974.000000	0.005232
1973.000000	0.005027
1972.000000	0.004905
1971.000000	0.004806
1970.000000	0.004728
1969.000000	0.004749
1968.000000	0.004897
1967.000000	0.005073
1966.000000	0.005175
1965.000000	0.005184
1964.000000	0.005136
1963.000000	0.005062
1962.000000	0.005003
1961.000000	0.005003
1960.000000	0.005059
1959.000000	0.005123
1958.000000	0.005171
1957.000000	0.005219
1956.000000	0.005280
1955.000000	0.005359
1954.000000	0.005464
1953.000000	0.005575
1952.000000	0.005607
1951.000000	0.005499
1950.000000	0.005311
1949.000000	0.005184
1948.000000	0.005170
1947.000000	0.005201
1946.000000	0.005228
1945.000000	0.005291
1944.000000	0.005424
1943.000000	0.005568
1942.000000	0.005629
1941.000000	0.005584
1940.000000	0.005473
1939.000000	0.005343
1938.000000	0.005242
1937.000000	0.005225
1936.000000	0.005311
1935.000000	0.005440
1934.000000	0.005524
1933.000000	0.005529
1932.000000	0.005501
1931.000000	0.005509
1930.000000	0.005583
1929.000000	0.005686
1928.000000	0.005739
1927.000000	0.005703
1926.000000	0.005626
1925.000000	0.005600
1924.000000	0.005653
1923.000000	0.005715
1922.000000	0.005701
1921.000000	0.005599
1920.000000	0.005459
1919.000000	0.005351
1918.000000	0.005323
1917.000000	0.005374
1916.000000	0.005454
1915.000000	0.005526
1914.000000	0.005598
1913.000000	0.005679
1912.000000	0.005740
1911.000000	0.005752
1910.000000	0.005730
1909.000000	0.005710
1908.000000	0.005689
1907.000000	0.005645
1906.000000	0.005594
1905.000000	0.005575
1904.000000	0.005582
1903.000000	0.005573
1902.000000	0.005554
1901.000000	0.005569
1900.000000	0.005621
1899.000000	0.005660
1898.000000	0.005659
1897.000000	0.005647
1896.000000	0.005654
1895.000000	0.005668
1894.000000	0.005672
1893.000000	0.005678
1892.000000	0.005694
1891.000000	0.005701
1890.000000	0.005690
1889.000000	0.005673
1888.000000	0.005660
1887.000000	0.005637
1886.000000	0.005595
1885.000000	0.005539
1884.000000	0.005479
1883.000000	0.005430
1882.000000	0.005416
1881.000000	0.005448
1880.000000	0.005498
1879.000000	0.005525
1878.000000	0.005522
1877.000000	0.005519
1876.000000	0.005529
1875.000000	0.005541
1874.000000	0.005546
1873.000000	0.005540
1872.000000	0.005509
1871.000000	0.005441
1870.000000	0.005360
1869.000000	0.005321
1868.000000	0.005327
1867.000000	0.005340
1866.000000	0.005363
1865.000000	0.005410
1864.000000	0.005458
1863.000000	0.005467
1862.000000	0.005449
1861.000000	0.005452
1860.000000	0.005484
1859.000000	0.005501
1858.000000	0.005480
1857.000000	0.005444
1856.000000	0.005420
1855.000000	0.005410
1854.000000	0.005418
1853.000000	0.005445
1852.000000	0.005469
1851.000000	0.005464
1850.000000	0.005439
1849.000000	0.005424
1848.000000	0.005428
1847.000000	0.005429
1846.000000	0.005425
1845.000000	0.005436
1844.000000	0.005470
1843.000000	0.005494
1842.000000	0.005505
1841.000000	0.005523
1840.000000	0.005533
1839.000000	0.005499
1838.000000	0.005423
1837.000000	0.005356
1836.000000	0.005325
1835.000000	0.005311
1834.000000	0.005287
1833.000000	0.005260
1832.000000	0.005252
1831.000000	0.005275
1830.000000	0.005314
1829.000000	0.005335
1828.000000	0.005321
1827.000000	0.005293
1826.000000	0.005289
1825.000000	0.005334
1824.000000	0.005399
1823.000000	0.005429
1822.000000	0.005422
1821.000000	0.005412
1820.000000	0.005420
1819.000000	0.005421
1818.000000	0.005405
1817.000000	0.005398
1816.000000	0.005420
1815.000000	0.005445
1814.000000	0.005451
1813.000000	0.005448
1812.000000	0.005453
1811.000000	0.005451
1810.000000	0.005428
1809.000000	0.005401
1808.000000	0.005382
1807.000000	0.005359
1806.000000	0.005332
1805.000000	0.005328
1804.000000	0.005351
1803.000000	0.005370
1802.000000	0.005367
1801.000000	0.005360
1800.000000	0.005362
1799.000000	0.005359
1798.000000	0.005351
1797.000000	0.005359
1796.000000	0.005379
1795.000000	0.005380
1794.000000	0.005344
1793.000000	0.005301
1792.000000	0.005283
1791.000000	0.005264
1790.000000	0.005229
1789.000000	0.005212
1788.000000	0.005221
1787.000000	0.005230
1786.000000	0.005220
1785.000000	0.005206
1784.000000	0.005192
1783.000000	0.005172
1782.000000	0.005153
1781.000000	0.005150
1780.000000	0.005159
1779.000000	0.005154
1778.000000	0.005137
1777.000000	0.005129
1776.000000	0.005129
1775.000000	0.005112
1774.000000	0.005046
1773.000000	0.004942
1772.000000	0.004855
1771.000000	0.004809
1770.000000	0.004801
1769.000000	0.004838
1768.000000	0.004896
1767.000000	0.004926
1766.000000	0.004912
1765.000000	0.004885
1764.000000	0.004871
1763.000000	0.004860
1762.000000	0.004840
1761.000000	0.004816
1760.000000	0.004806
1759.000000	0.004811
1758.000000	0.004827
1757.000000	0.004844
1756.000000	0.004847
1755.000000	0.004831
1754.000000	0.004806
1753.000000	0.004780
1752.000000	0.004751
1751.000000	0.004723
1750.000000	0.004706
1749.000000	0.004717
1748.000000	0.004761
1747.000000	0.004818
1746.000000	0.004857
1745.000000	0.004868
1744.000000	0.004862
1743.000000	0.004833
1742.000000	0.004781
1741.000000	0.004731
1740.000000	0.004716
1739.000000	0.004728
1738.000000	0.004743
1737.000000	0.004773
1736.000000	0.004802
1735.000000	0.004791
1734.000000	0.004780
1733.000000	0.004781
1732.000000	0.004766
1731.000000	0.004751
1730.000000	0.004757
1729.000000	0.004787
1728.000000	0.004824
1727.000000	0.004845
1726.000000	0.004843
1725.000000	0.004833
1724.000000	0.004826
1723.000000	0.004799
1722.000000	0.004746
1721.000000	0.004702
1720.000000	0.004688
1719.000000	0.004680
1718.000000	0.004676
1717.000000	0.004732
1716.000000	0.004840
1715.000000	0.004956
1714.000000	0.005100
1713.000000	0.005311
1712.000000	0.005561
1711.000000	0.005797
1710.000000	0.006016
1709.000000	0.006257
1708.000000	0.006547
1707.000000	0.006886
1706.000000	0.007289
1705.000000	0.007756
1704.000000	0.008218
1703.000000	0.008628
1702.000000	0.009007
1701.000000	0.009467
1700.000000	0.010083
1699.000000	0.010642
1698.000000	0.011109
1697.000000	0.011670
1696.000000	0.012349
1695.000000	0.012937
1694.000000	0.013340
1693.000000	0.013712
1692.000000	0.014169
1691.000000	0.014694
1690.000000	0.015239
1689.000000	0.015793
1688.000000	0.016344
1687.000000	0.016869
1686.000000	0.017370
1685.000000	0.017974
1684.000000	0.018771
1683.000000	0.019522
1682.000000	0.020144
1681.000000	0.020777
1680.000000	0.021464
1679.000000	0.022141
1678.000000	0.022784
1677.000000	0.023465
1676.000000	0.024255
1675.000000	0.025111
1674.000000	0.025905
1673.000000	0.026614
1672.000000	0.027327
1671.000000	0.028112
1670.000000	0.029011
1669.000000	0.029990
1668.000000	0.030919
1667.000000	0.031717
1666.000000	0.032420
1665.000000	0.033123
1664.000000	0.033891
1663.000000	0.034705
1662.000000	0.035488
1661.000000	0.036196
1660.000000	0.036852
1659.000000	0.037472
1658.000000	0.038049
1657.000000	0.038603
1656.000000	0.039158
1655.000000	0.039684
1654.000000	0.040192
1653.000000	0.040770
1652.000000	0.041176
1651.000000	0.041323
1650.000000	0.041403
1649.000000	0.041564
1648.000000	0.041837
1647.000000	0.042177
1646.000000	0.042488
1645.000000	0.042726
1644.000000	0.042912
1643.000000	0.043066
1642.000000	0.043206
1641.000000	0.043343
1640.000000	0.043470
1639.000000	0.043575
1638.000000	0.043652
1637.000000	0.043719
1636.000000	0.043806
1635.000000	0.043884
1634.000000	0.043905
1633.000000	0.043898
1632.000000	0.043880
1631.000000	0.043807
1630.000000	0.043635
1629.000000	0.043357
1628.000000	0.042994
1627.000000	0.042571
1626.000000	0.042097
1625.000000	0.041549
1624.000000	0.040900
1623.000000	0.040179
1622.000000	0.039467
1621.000000	0.038817
1620.000000	0.038218
1619.000000	0.037594
1618.000000	0.036832
1617.000000	0.035896
1616.000000	0.034901
1615.000000	0.034005
1614.000000	0.033250
1613.000000	0.032560
1612.000000	0.031853
1611.000000	0.031122
1610.000000	0.030417
1609.000000	0.029747
1608.000000	0.029090
1607.000000	0.028462
1606.000000	0.027892
1605.000000	0.027357
1604.000000	0.026826
1603.000000	0.026325
1602.000000	0.025892
1601.000000	0.025515
1600.000000	0.025164
1599.000000	0.024845
1598.000000	0.024573
1597.000000	0.024329
1596.000000	0.024096
1595.000000	0.023900
1594.000000	0.023765
1593.000000	0.023665
1592.000000	0.023567
1591.000000	0.023495
1590.000000	0.023488
1589.000000	0.023529
1588.000000	0.023578
1587.000000	0.023641
1586.000000	0.023749
1585.000000	0.023892
1584.000000	0.024046
1583.000000	0.024239
1582.000000	0.024502
1581.000000	0.024795
1580.000000	0.025068
1579.000000	0.025344
1578.000000	0.025665
1577.000000	0.026024
1576.000000	0.026368
1575.000000	0.026661
1574.000000	0.026938
1573.000000	0.027236
1572.000000	0.027563
1571.000000	0.027926
1570.000000	0.028358
1569.000000	0.028819
1568.000000	0.029232
1567.000000	0.029637
1566.000000	0.030107
1565.000000	0.030645
1564.000000	0.031195
1563.000000	0.031734
1562.000000	0.032257
1561.000000	0.032689
1560.000000	0.033021
1559.000000	0.033566
1558.000000	0.034258
1557.000000	0.034810
1556.000000	0.035285
1555.000000	0.035767
1554.000000	0.036237
1553.000000	0.036638
1552.000000	0.036984
1551.000000	0.037321
1550.000000	0.037654
1549.000000	0.037942
1548.000000	0.038165
1547.000000	0.038356
1546.000000	0.038549
1545.000000	0.038755
1544.000000	0.038947
1543.000000	0.039081
1542.000000	0.039137
1541.000000	0.039157
1540.000000	0.039179
1539.000000	0.039149
1538.000000	0.039048
1537.000000	0.038920
1536.000000	0.038774
1535.000000	0.038560
1534.000000	0.038270
1533.000000	0.037984
1532.000000	0.037750
1531.000000	0.037529
1530.000000	0.037285
1529.000000	0.037029
1528.000000	0.036774
1527.000000	0.036499
1526.000000	0.036186
1525.000000	0.035878
1524.000000	0.035619
1523.000000	0.035378
1522.000000	0.035094
1521.000000	0.034771
1520.000000	0.034434
1519.000000	0.034098
1518.000000	0.033774
1517.000000	0.033469
1516.000000	0.033172
1515.000000	0.032852
1514.000000	0.032488
1513.000000	0.032086
1512.000000	0.031675
1511.000000	0.031289
1510.000000	0.030934
1509.000000	0.030568
1508.000000	0.030097
1507.000000	0.029444
1506.000000	0.028684
1505.000000	0.028052
1504.000000	0.027617
1503.000000	0.027276
1502.000000	0.026926
1501.000000	0.026519
1500.000000	0.026081
1499.000000	0.025652
1498.000000	0.025216
1497.000000	0.024756
1496.000000	0.024291
1495.000000	0.023827
1494.000000	0.023384
1493.000000	0.022991
1492.000000	0.022635
1491.000000	0.022271
1490.000000	0.021898
1489.000000	0.021577
1488.000000	0.021338
1487.000000	0.021138
1486.000000	0.020956
1485.000000	0.020821
1484.000000	0.020742
1483.000000	0.020707
1482.000000	0.020706
1481.000000	0.020752
1480.000000	0.020845
1479.000000	0.020960
1478.000000	0.021092
1477.000000	0.021273
1476.000000	0.021511
1475.000000	0.021763
1474.000000	0.022014
1473.000000	0.022313
1472.000000	0.022659
1471.000000	0.022965
1470.000000	0.023220
1469.000000	0.023482
1468.000000	0.023775
1467.000000	0.024065
1466.000000	0.024339
1465.000000	0.024628
1464.000000	0.024935
1463.000000	0.025216
1462.000000	0.025461
1461.000000	0.025717
1460.000000	0.026031
1459.000000	0.026423
1458.000000	0.026902
1457.000000	0.027436
1456.000000	0.027873
1455.000000	0.028135
1454.000000	0.028316
1453.000000	0.028503
1452.000000	0.028691
1451.000000	0.028825
1450.000000	0.028887
1449.000000	0.028907
1448.000000	0.028909
1447.000000	0.028886
1446.000000	0.028828
1445.000000	0.028742
1444.000000	0.028647
1443.000000	0.028551
1442.000000	0.028449
1441.000000	0.028343
1440.000000	0.028238
1439.000000	0.028111
1438.000000	0.027898
1437.000000	0.027583
1436.000000	0.027242
1435.000000	0.026948
1434.000000	0.026709
1433.000000	0.026505
1432.000000	0.026309
1431.000000	0.026111
1430.000000	0.025919
1429.000000	0.025752
1428.000000	0.025626
1427.000000	0.025532
1426.000000	0.025445
1425.000000	0.025346
1424.000000	0.025262
1423.000000	0.025232
1422.000000	0.025244
1421.000000	0.025246
1420.000000	0.025213
1419.000000	0.025182
1418.000000	0.025153
1417.000000	0.025108
1416.000000	0.025074
1415.000000	0.025058
1414.000000	0.025045
1413.000000	0.025033
1412.000000	0.025048
1411.000000	0.025101
1410.000000	0.025168
1409.000000	0.025232
1408.000000	0.025304
1407.000000	0.025393
1406.000000	0.025493
1405.000000	0.025586
1404.000000	0.025662
1403.000000	0.025722
1402.000000	0.025760
1401.000000	0.025771
1400.000000	0.025763
1399.000000	0.025748
1398.000000	0.025729
1397.000000	0.025701
1396.000000	0.025655
1395.000000	0.025576
1394.000000	0.025446
1393.000000	0.025264
1392.000000	0.025070
1391.000000	0.024897
1390.000000	0.024748
1389.000000	0.024602
1388.000000	0.024443
1387.000000	0.024261
1386.000000	0.024057
1385.000000	0.023840
1384.000000	0.023622
1383.000000	0.023410
1382.000000	0.023206
1381.000000	0.023011
1380.000000	0.022814
1379.000000	0.022594
1378.000000	0.022349
1377.000000	0.022095
1376.000000	0.021852
1375.000000	0.021631
1374.000000	0.021420
1373.000000	0.021194
1372.000000	0.020943
1371.000000	0.020675
1370.000000	0.020401
1369.000000	0.020113
1368.000000	0.019808
1367.000000	0.019502
1366.000000	0.019215
1365.000000	0.018953
1364.000000	0.018705
1363.000000	0.018460
1362.000000	0.018224
1361.000000	0.018009
1360.000000	0.017833
1359.000000	0.017708
1358.000000	0.017639
1357.000000	0.017619
1356.000000	0.017630
1355.000000	0.017661
1354.000000	0.017713
1353.000000	0.017799
1352.000000	0.017923
1351.000000	0.018084
1350.000000	0.018277
1349.000000	0.018486
1348.000000	0.018691
1347.000000	0.018886
1346.000000	0.019080
1345.000000	0.019285
1344.000000	0.019502
1343.000000	0.019727
1342.000000	0.019961
1341.000000	0.020202
1340.000000	0.020435
1339.000000	0.020624
1338.000000	0.020745
1337.000000	0.020796
1336.000000	0.020794
1335.000000	0.020754
1334.000000	0.020688
1333.000000	0.020596
1332.000000	0.020479
1331.000000	0.020334
1330.000000	0.020168
1329.000000	0.019992
1328.000000	0.019818
1327.000000	0.019656
1326.000000	0.019511
1325.000000	0.019384
1324.000000	0.019276
1323.000000	0.019202
1322.000000	0.019171
1321.000000	0.019170
1320.000000	0.019175
1319.000000	0.019161
1318.000000	0.019122
1317.000000	0.019063
1316.000000	0.018994
1315.000000	0.018925
1314.000000	0.018855
1313.000000	0.018777
1312.000000	0.018684
1311.000000	0.018574
1310.000000	0.018450
1309.000000	0.018315
1308.000000	0.018178
1307.000000	0.018050
1306.000000	0.017939
1305.000000	0.017838
1304.000000	0.017737
1303.000000	0.017634
1302.000000	0.017533
1301.000000	0.017436
1300.000000	0.017346
1299.000000	0.017268
1298.000000	0.017210
1297.000000	0.017175
1296.000000	0.017161
1295.000000	0.017165
1294.000000	0.017186
1293.000000	0.017223
1292.000000	0.017278
1291.000000	0.017351
1290.000000	0.017445
1289.000000	0.017565
1288.000000	0.017712
1287.000000	0.017873
1286.000000	0.018030
1285.000000	0.018165
1284.000000	0.018277
1283.000000	0.018378
1282.000000	0.018477
1281.000000	0.018563
1280.000000	0.018619
1279.000000	0.018631
1278.000000	0.018605
1277.000000	0.018562
1276.000000	0.018521
1275.000000	0.018490
1274.000000	0.018468
1273.000000	0.018454
1272.000000	0.018452
1271.000000	0.018464
1270.000000	0.018495
1269.000000	0.018543
1268.000000	0.018600
1267.000000	0.018653
1266.000000	0.018696
1265.000000	0.018738
1264.000000	0.018802
1263.000000	0.018902
1262.000000	0.019030
1261.000000	0.019166
1260.000000	0.019296
1259.000000	0.019429
1258.000000	0.019578
1257.000000	0.019745
1256.000000	0.019921
1255.000000	0.020092
1254.000000	0.020257
1253.000000	0.020428
1252.000000	0.020621
1251.000000	0.020841
1250.000000	0.021081
1249.000000	0.021328
1248.000000	0.021574
1247.000000	0.021817
1246.000000	0.022064
1245.000000	0.022316
1244.000000	0.022563
1243.000000	0.022789
1242.000000	0.022991
1241.000000	0.023172
1240.000000	0.023323
1239.000000	0.023426
1238.000000	0.023480
1237.000000	0.023507
1236.000000	0.023521
1235.000000	0.023509
1234.000000	0.023454
1233.000000	0.023354
1232.000000	0.023223
1231.000000	0.023060
1230.000000	0.022852
1229.000000	0.022585
1228.000000	0.022260
1227.000000	0.021887
1226.000000	0.021481
1225.000000	0.021057
1224.000000	0.020628
1223.000000	0.020193
1222.000000	0.019740
1221.000000	0.019269
1220.000000	0.018800
1219.000000	0.018378
1218.000000	0.018043
1217.000000	0.017811
1216.000000	0.017670
1215.000000	0.017596
1214.000000	0.017562
1213.000000	0.017557
1212.000000	0.017573
1211.000000	0.017609
1210.000000	0.017661
1209.000000	0.017732
1208.000000	0.017826
1207.000000	0.017934
1206.000000	0.018037
1205.000000	0.018118
1204.000000	0.018165
1203.000000	0.018174
1202.000000	0.018140
1201.000000	0.018059
1200.000000	0.017934
1199.000000	0.017769
1198.000000	0.017568
1197.000000	0.017340
1196.000000	0.017095
1195.000000	0.016847
1194.000000	0.016604
1193.000000	0.016361
1192.000000	0.016111
1191.000000	0.015845
1190.000000	0.015566
1189.000000	0.015288
1188.000000	0.015033
1187.000000	0.014808
1186.000000	0.014610
1185.000000	0.014431
1184.000000	0.014270
1183.000000	0.014133
1182.000000	0.014024
1181.000000	0.013939
1180.000000	0.013874
1179.000000	0.013826
1178.000000	0.013789
1177.000000	0.013752
1176.000000	0.013707
1175.000000	0.013655
1174.000000	0.013610
1173.000000	0.013589
1172.000000	0.013595
1171.000000	0.013618
1170.000000	0.013645
1169.000000	0.013682
1168.000000	0.013739
1167.000000	0.013816
1166.000000	0.013887
1165.000000	0.013929
1164.000000	0.013940
1163.000000	0.013938
1162.000000	0.013942
1161.000000	0.013954
1160.000000	0.013958
1159.000000	0.013934
1158.000000	0.013870
1157.000000	0.013772
1156.000000	0.013656
1155.000000	0.013531
1154.000000	0.013393
1153.000000	0.013241
1152.000000	0.013084
1151.000000	0.012931
1150.000000	0.012776
1149.000000	0.012612
1148.000000	0.012447
1147.000000	0.012296
1146.000000	0.012162
1145.000000	0.012041
1144.000000	0.011923
1143.000000	0.011808
1142.000000	0.011694
1141.000000	0.011575
1140.000000	0.011451
1139.000000	0.011339
1138.000000	0.011259
1137.000000	0.011218
1136.000000	0.011200
1135.000000	0.011173
1134.000000	0.011127
1133.000000	0.011078
1132.000000	0.011051
1131.000000	0.011047
1130.000000	0.011042
1129.000000	0.011018
1128.000000	0.010984
1127.000000	0.010963
1126.000000	0.010969
1125.000000	0.011004
1124.000000	0.011065
1123.000000	0.011138
1122.000000	0.011194
1121.000000	0.011214
1120.000000	0.011200
1119.000000	0.011182
1118.000000	0.011190
1117.000000	0.011236
1116.000000	0.011307
1115.000000	0.011376
1114.000000	0.011425
1113.000000	0.011456
1112.000000	0.011486
1111.000000	0.011528
1110.000000	0.011581
1109.000000	0.011631
1108.000000	0.011670
1107.000000	0.011703
1106.000000	0.011736
1105.000000	0.011775
1104.000000	0.011822
1103.000000	0.011880
1102.000000	0.011950
1101.000000	0.012022
1100.000000	0.012082
1099.000000	0.012114
1098.000000	0.012135
1097.000000	0.012177
1096.000000	0.012262
1095.000000	0.012373
1094.000000	0.012489
1093.000000	0.012613
1092.000000	0.012770
1091.000000	0.012974
1090.000000	0.013210
1089.000000	0.013459
1088.000000	0.013715
1087.000000	0.013981
1086.000000	0.014256
1085.000000	0.014533
1084.000000	0.014793
1083.000000	0.015001
1082.000000	0.015128
1081.000000	0.015178
1080.000000	0.015177
1079.000000	0.015137
1078.000000	0.015045
1077.000000	0.014894
1076.000000	0.014705
1075.000000	0.014510
1074.000000	0.014328
1073.000000	0.014167
1072.000000	0.014026
1071.000000	0.013907
1070.000000	0.013805
1069.000000	0.013724
1068.000000	0.013670
1067.000000	0.013647
1066.000000	0.013649
1065.000000	0.013679
1064.000000	0.013747
1063.000000	0.013845
1062.000000	0.013932
1061.000000	0.013963
1060.000000	0.013934
1059.000000	0.013886
1058.000000	0.013855
1057.000000	0.013838
1056.000000	0.013813
1055.000000	0.013770
1054.000000	0.013722
1053.000000	0.013687
1052.000000	0.013666
1051.000000	0.013651
1050.000000	0.013632
1049.000000	0.013610
1048.000000	0.013586
1047.000000	0.013562
1046.000000	0.013536
1045.000000	0.013514
1044.000000	0.013501
1043.000000	0.013504
1042.000000	0.013527
1041.000000	0.013579
1040.000000	0.013678
1039.000000	0.013830
1038.000000	0.014022
1037.000000	0.014235
1036.000000	0.014451
1035.000000	0.014657
1034.000000	0.014845
1033.000000	0.015013
1032.000000	0.015159
1031.000000	0.015275
1030.000000	0.015351
1029.000000	0.015378
1028.000000	0.015362
1027.000000	0.015319
1026.000000	0.015264
1025.000000	0.015208
1024.000000	0.015157
1023.000000	0.015120
1022.000000	0.015108
1021.000000	0.015123
1020.000000	0.015144
1019.000000	0.015142
1018.000000	0.015105
1017.000000	0.015038
1016.000000	0.014943
1015.000000	0.014812
1014.000000	0.014639
1013.000000	0.014440
1012.000000	0.014228
1011.000000	0.013992
1010.000000	0.013709
1009.000000	0.013387
1008.000000	0.013063
1007.000000	0.012775
1006.000000	0.012526
1005.000000	0.012301
1004.000000	0.012092
1003.000000	0.011897
1002.000000	0.011708
1001.000000	0.011517
1000.000000	0.011332
999.000000	0.011163
998.000000	0.011005
997.000000	0.010836
996.000000	0.010644
995.000000	0.010437
994.000000	0.010236
993.000000	0.010055
992.000000	0.009889
991.000000	0.009733
990.000000	0.009586
989.000000	0.009460
988.000000	0.009358
987.000000	0.009265
986.000000	0.009159
985.000000	0.009043
984.000000	0.008946
983.000000	0.008890
982.000000	0.008870
981.000000	0.008864
980.000000	0.008861
979.000000	0.008861
978.000000	0.008855
977.000000	0.008828
976.000000	0.008778
975.000000	0.008726
974.000000	0.008685
973.000000	0.008651
972.000000	0.008606
971.000000	0.008538
970.000000	0.008449
969.000000	0.008350
968.000000	0.008245
967.000000	0.008132
966.000000	0.008011
965.000000	0.007891
964.000000	0.007782
963.000000	0.007689
962.000000	0.007605
961.000000	0.007525
960.000000	0.007447
959.000000	0.007362
958.000000	0.007260
957.000000	0.007148
956.000000	0.007047
955.000000	0.006973
954.000000	0.006914
953.000000	0.006854
952.000000	0.006799
951.000000	0.006757
950.000000	0.006719
949.000000	0.006667
948.000000	0.006609
947.000000	0.006576
946.000000	0.006582
945.000000	0.006608
944.000000	0.006625
943.000000	0.006622
942.000000	0.006612
941.000000	0.006607
940.000000	0.006611
939.000000	0.006616
938.000000	0.006609
937.000000	0.006587
936.000000	0.006557
935.000000	0.006533
934.000000	0.006512
933.000000	0.006485
932.000000	0.006445
931.000000	0.006393
930.000000	0.006331
929.000000	0.006264
928.000000	0.006213
927.000000	0.006193
926.000000	0.006197
925.000000	0.006193
924.000000	0.006166
923.000000	0.006129
922.000000	0.006097
921.000000	0.006061
920.000000	0.005998
919.000000	0.005907
918.000000	0.005811
917.000000	0.005737
916.000000	0.005684
915.000000	0.005632
914.000000	0.005564
913.000000	0.005489
912.000000	0.005420
911.000000	0.005351
910.000000	0.005264
909.000000	0.005162
908.000000	0.005078
907.000000	0.005040
906.000000	0.005039
905.000000	0.005033
904.000000	0.004997
903.000000	0.004943
902.000000	0.004897
901.000000	0.004877
900.000000	0.004880
899.000000	0.004886
898.000000	0.004874
897.000000	0.004844
896.000000	0.004822
895.000000	0.004831
894.000000	0.004854
893.000000	0.004849
892.000000	0.004793
891.000000	0.004707
890.000000	0.004632
889.000000	0.004598
888.000000	0.004617
887.000000	0.004698
886.000000	0.004841
885.000000	0.005025
884.000000	0.005221
883.000000	0.005413
882.000000	0.005611
881.000000	0.005851
880.000000	0.006167
879.000000	0.006568
878.000000	0.007004
877.000000	0.007370
876.000000	0.007570
875.000000	0.007570
874.000000	0.007409
873.000000	0.007152
872.000000	0.006846
871.000000	0.006529
870.000000	0.006232
869.000000	0.005986
868.000000	0.005803
867.000000	0.005681
866.000000	0.005604
865.000000	0.005548
864.000000	0.005497
863.000000	0.005443
862.000000	0.005391
861.000000	0.005343
860.000000	0.005297
859.000000	0.005263
858.000000	0.005261
857.000000	0.005297
856.000000	0.005345
855.000000	0.005370
854.000000	0.005362
853.000000	0.005339
852.000000	0.005326
851.000000	0.005329
850.000000	0.005348
849.000000	0.005374
848.000000	0.005381
847.000000	0.005334
846.000000	0.005220
845.000000	0.005071
844.000000	0.004935
843.000000	0.004842
842.000000	0.004797
841.000000	0.004795
840.000000	0.004825
839.000000	0.004858
838.000000	0.004870
837.000000	0.004860
836.000000	0.004852
835.000000	0.004854
834.000000	0.004843
833.000000	0.004797
832.000000	0.004724
831.000000	0.004661
830.000000	0.004640
829.000000	0.004661
828.000000	0.004700
827.000000	0.004731
826.000000	0.004746
825.000000	0.004751
824.000000	0.004764
823.000000	0.004790
822.000000	0.004816
821.000000	0.004828
820.000000	0.004822
819.000000	0.004811
818.000000	0.004815
817.000000	0.004846
816.000000	0.004889
815.000000	0.004915
814.000000	0.004908
813.000000	0.004881
812.000000	0.004857
811.000000	0.004840
810.000000	0.004814
809.000000	0.004775
808.000000	0.004735
807.000000	0.004712
806.000000	0.004715
805.000000	0.004742
804.000000	0.004777
803.000000	0.004791
802.000000	0.004768
801.000000	0.004728
800.000000	0.004715
799.000000	0.004756
798.000000	0.004834
797.000000	0.004904
796.000000	0.004935
795.000000	0.004923
794.000000	0.004894
793.000000	0.004887
792.000000	0.004923
791.000000	0.004985
790.000000	0.005033
789.000000	0.005051
788.000000	0.005051
787.000000	0.005058
786.000000	0.005084
785.000000	0.005128
784.000000	0.005185
783.000000	0.005233
782.000000	0.005255
781.000000	0.005252
780.000000	0.005252
779.000000	0.005273
778.000000	0.005311
777.000000	0.005348
776.000000	0.005378
775.000000	0.005391
774.000000	0.005380
773.000000	0.005353
772.000000	0.005342
771.000000	0.005367
770.000000	0.005411
769.000000	0.005444
768.000000	0.005459
767.000000	0.005470
766.000000	0.005485
765.000000	0.005506
764.000000	0.005538
763.000000	0.005591
762.000000	0.005650
761.000000	0.005684
760.000000	0.005681
759.000000	0.005659
758.000000	0.005640
757.000000	0.005633
756.000000	0.005646
755.000000	0.005687
754.000000	0.005753
753.000000	0.005818
752.000000	0.005861
751.000000	0.005878
750.000000	0.005878
749.000000	0.005870
748.000000	0.005871
747.000000	0.005900
746.000000	0.005965
745.000000	0.006055
744.000000	0.006153
743.000000	0.006251
742.000000	0.006342
741.000000	0.006411
740.000000	0.006447
739.000000	0.006459
738.000000	0.006469
737.000000	0.006502
736.000000	0.006571
735.000000	0.006667
734.000000	0.006768
733.000000	0.006860
732.000000	0.006956
731.000000	0.007080
730.000000	0.007225
729.000000	0.007352
728.000000	0.007435
727.000000	0.007484
726.000000	0.007530
725.000000	0.007594
724.000000	0.007685
723.000000	0.007819
722.000000	0.008003
721.000000	0.008203
720.000000	0.008362
719.000000	0.008456
718.000000	0.008519
717.000000	0.008581
716.000000	0.008644
715.000000	0.008710
714.000000	0.008806
713.000000	0.008959
712.000000	0.009139
711.000000	0.009282
710.000000	0.009352
709.000000	0.009372
708.000000	0.009396
707.000000	0.009451
706.000000	0.009526
705.000000	0.009594
704.000000	0.009627
703.000000	0.009623
702.000000	0.009610
701.000000	0.009617
700.000000	0.009649
699.000000	0.009684
698.000000	0.009710
697.000000	0.009738
696.000000	0.009778
695.000000	0.009830
694.000000	0.009895
693.000000	0.009969
692.000000	0.010038
691.000000	0.010069
690.000000	0.010060
689.000000	0.010054
688.000000	0.010094
687.000000	0.010176
686.000000	0.010258
685.000000	0.010317
684.000000	0.010381
683.000000	0.010463
682.000000	0.010529
681.000000	0.010550
680.000000	0.010566
679.000000	0.010635
678.000000	0.010751
677.000000	0.010887
676.000000	0.011055
675.000000	0.011268
674.000000	0.011487
673.000000	0.011636
672.000000	0.011663
671.000000	0.011550
670.000000	0.011303
669.000000	0.010982
668.000000	0.010822
667.000000	0.011069
666.000000	0.011418
665.000000	0.011702
664.000000	0.011912
663.000000	0.012036
662.000000	0.012101
661.000000	0.012161
660.000000	0.012232
659.000000	0.012267
658.000000	0.012224
657.000000	0.012137
656.000000	0.012060
655.000000	0.012004
654.000000	0.011974
653.000000	0.011987
652.000000	0.012015
651.000000	0.011995
650.000000	0.011927
649.000000	0.011879
648.000000	0.011884
647.000000	0.011917
646.000000	0.011978
645.000000	0.012100
644.000000	0.012260
643.000000	0.012380
642.000000	0.012429
641.000000	0.012442
640.000000	0.012439
639.000000	0.012390
638.000000	0.012290
637.000000	0.012193
636.000000	0.012125
635.000000	0.012076
634.000000	0.012048
633.000000	0.012069
632.000000	0.012126
631.000000	0.012170
630.000000	0.012197
629.000000	0.012250
628.000000	0.012332
627.000000	0.012392
626.000000	0.012420
625.000000	0.012449
624.000000	0.012465
623.000000	0.012409
622.000000	0.012295
621.000000	0.012229
620.000000	0.012267
619.000000	0.012364
618.000000	0.012459
617.000000	0.012550
616.000000	0.012627
615.000000	0.012636
614.000000	0.012563
613.000000	0.012494
612.000000	0.012496
611.000000	0.012524
610.000000	0.012509
609.000000	0.012463
608.000000	0.012433
607.000000	0.012408
606.000000	0.012353
605.000000	0.012288
604.000000	0.012260
603.000000	0.012272
602.000000	0.012290
601.000000	0.012298
600.000000	0.012303
599.000000	0.012313
598.000000	0.012330
597.000000	0.012358
596.000000	0.012387
595.000000	0.012404
594.000000	0.012413
593.000000	0.012438
592.000000	0.012472
591.000000	0.012482
590.000000	0.012456
589.000000	0.012407
588.000000	0.012327
587.000000	0.012197
586.000000	0.012064
585.000000	0.012034
584.000000	0.012154
583.000000	0.012355
582.000000	0.012528
581.000000	0.012609
580.000000	0.012572
579.000000	0.012431
578.000000	0.012271
577.000000	0.012214
576.000000	0.012299
575.000000	0.012436
574.000000	0.012516
573.000000	0.012532
572.000000	0.012530
571.000000	0.012525
570.000000	0.012521
569.000000	0.012555
568.000000	0.012658
567.000000	0.012796
566.000000	0.012903
565.000000	0.012967
564.000000	0.013010
563.000000	0.013048
562.000000	0.013091
561.000000	0.013175
560.000000	0.013318
559.000000	0.013479
558.000000	0.013589
557.000000	0.013623
556.000000	0.013593
555.000000	0.013525
554.000000	0.013461
553.000000	0.013450
552.000000	0.013475
551.000000	0.013435
550.000000	0.013256
549.000000	0.012994
548.000000	0.012771
547.000000	0.012641
546.000000	0.012568
545.000000	0.012490
544.000000	0.012382
543.000000	0.012286
542.000000	0.012277
541.000000	0.012397
540.000000	0.012589
539.000000	0.012754
538.000000	0.012860
537.000000	0.012950
536.000000	0.013050
535.000000	0.013153
534.000000	0.013278
533.000000	0.013457
532.000000	0.013618
531.000000	0.013606
530.000000	0.013388
529.000000	0.013122
528.000000	0.012952
527.000000	0.012867
526.000000	0.012808
525.000000	0.012782
524.000000	0.012776
523.000000	0.012698
522.000000	0.012502
521.000000	0.012301
520.000000	0.012212
519.000000	0.012186
518.000000	0.012102
517.000000	0.011974
516.000000	0.011895
515.000000	0.011835
514.000000	0.011666
513.000000	0.011374
512.000000	0.011077
511.000000	0.010871
510.000000	0.010733
509.000000	0.010585
508.000000	0.010359
507.000000	0.010043
506.000000	0.009729
505.000000	0.009555
504.000000	0.009543
503.000000	0.009543
502.000000	0.009407
501.000000	0.009178
500.000000	0.008999
499.000000	0.008918
498.000000	0.008875
497.000000	0.008819
496.000000	0.008729
495.000000	0.008567
494.000000	0.008327
493.000000	0.008092
492.000000	0.007946
491.000000	0.007880
490.000000	0.007839
489.000000	0.007835
488.000000	0.007897
487.000000	0.007977
486.000000	0.007999
485.000000	0.007955
484.000000	0.007882
483.000000	0.007793
482.000000	0.007701
481.000000	0.007663
480.000000	0.007704
479.000000	0.007752
478.000000	0.007706
477.000000	0.007565
476.000000	0.007396
475.000000	0.007228
474.000000	0.007077
473.000000	0.007051
472.000000	0.007279
471.000000	0.007709
470.000000	0.008088
469.000000	0.008192
468.000000	0.007985
467.000000	0.007588
466.000000	0.007194
465.000000	0.006967
464.000000	0.006926
463.000000	0.006920
462.000000	0.006790
461.000000	0.006551
460.000000	0.006331
459.000000	0.006165
458.000000	0.005941
457.000000	0.005597
456.000000	0.005219
455.000000	0.004911
454.000000	0.004721
453.000000	0.004684
452.000000	0.004792
451.000000	0.004943
450.000000	0.004875
