PE IR       SUBTECH     SPECTRUM    ASCII       PEDS        4.00        
   -1
3G-H10-C033_1.ASC
22/02/23
15:00:59.00
22/02/23
15:10:46.00
uco
Sample 033 By uco Date Wednesday, February 23 2022
450.000000
#HDR
-1
-1
#GR
cm-1
A
1.0
0.0
4000.000000
-1.000000
3551
8
0.044678
0.004300
#DATA
4000.000000	0.004508
3999.000000	0.004478
3998.000000	0.004450
3997.000000	0.004434
3996.000000	0.004437
3995.000000	0.004525
3994.000000	0.004558
3993.000000	0.004587
3992.000000	0.004604
3991.000000	0.004606
3990.000000	0.004598
3989.000000	0.004586
3988.000000	0.004584
3987.000000	0.004595
3986.000000	0.004616
3985.000000	0.004633
3984.000000	0.004637
3983.000000	0.004630
3982.000000	0.004616
3981.000000	0.004603
3980.000000	0.004595
3979.000000	0.004590
3978.000000	0.004588
3977.000000	0.004585
3976.000000	0.004583
3975.000000	0.004583
3974.000000	0.004586
3973.000000	0.004590
3972.000000	0.004591
3971.000000	0.004591
3970.000000	0.004594
3969.000000	0.004600
3968.000000	0.004604
3967.000000	0.004603
3966.000000	0.004595
3965.000000	0.004583
3964.000000	0.004574
3963.000000	0.004572
3962.000000	0.004581
3961.000000	0.004603
3960.000000	0.004635
3959.000000	0.004667
3958.000000	0.004687
3957.000000	0.004690
3956.000000	0.004681
3955.000000	0.004666
3954.000000	0.004653
3953.000000	0.004646
3952.000000	0.004648
3951.000000	0.004653
3950.000000	0.004655
3949.000000	0.004644
3948.000000	0.004624
3947.000000	0.004606
3946.000000	0.004602
3945.000000	0.004613
3944.000000	0.004633
3943.000000	0.004650
3942.000000	0.004656
3941.000000	0.004653
3940.000000	0.004650
3939.000000	0.004656
3938.000000	0.004673
3937.000000	0.004695
3936.000000	0.004712
3935.000000	0.004718
3934.000000	0.004720
3933.000000	0.004726
3932.000000	0.004736
3931.000000	0.004744
3930.000000	0.004743
3929.000000	0.004736
3928.000000	0.004732
3927.000000	0.004734
3926.000000	0.004737
3925.000000	0.004735
3924.000000	0.004723
3923.000000	0.004707
3922.000000	0.004694
3921.000000	0.004690
3920.000000	0.004687
3919.000000	0.004675
3918.000000	0.004650
3917.000000	0.004621
3916.000000	0.004598
3915.000000	0.004591
3914.000000	0.004601
3913.000000	0.004624
3912.000000	0.004651
3911.000000	0.004673
3910.000000	0.004685
3909.000000	0.004690
3908.000000	0.004696
3907.000000	0.004705
3906.000000	0.004715
3905.000000	0.004718
3904.000000	0.004710
3903.000000	0.004692
3902.000000	0.004677
3901.000000	0.004675
3900.000000	0.004690
3899.000000	0.004717
3898.000000	0.004742
3897.000000	0.004757
3896.000000	0.004758
3895.000000	0.004747
3894.000000	0.004731
3893.000000	0.004716
3892.000000	0.004712
3891.000000	0.004718
3890.000000	0.004725
3889.000000	0.004722
3888.000000	0.004706
3887.000000	0.004688
3886.000000	0.004692
3885.000000	0.004720
3884.000000	0.004754
3883.000000	0.004782
3882.000000	0.004798
3881.000000	0.004797
3880.000000	0.004776
3879.000000	0.004744
3878.000000	0.004714
3877.000000	0.004698
3876.000000	0.004703
3875.000000	0.004730
3874.000000	0.004769
3873.000000	0.004797
3872.000000	0.004799
3871.000000	0.004783
3870.000000	0.004765
3869.000000	0.004752
3868.000000	0.004736
3867.000000	0.004714
3866.000000	0.004698
3865.000000	0.004703
3864.000000	0.004722
3863.000000	0.004737
3862.000000	0.004749
3861.000000	0.004761
3860.000000	0.004781
3859.000000	0.004811
3858.000000	0.004850
3857.000000	0.004887
3856.000000	0.004898
3855.000000	0.004871
3854.000000	0.004818
3853.000000	0.004762
3852.000000	0.004717
3851.000000	0.004683
3850.000000	0.004655
3849.000000	0.004637
3848.000000	0.004631
3847.000000	0.004635
3846.000000	0.004645
3845.000000	0.004661
3844.000000	0.004682
3843.000000	0.004706
3842.000000	0.004727
3841.000000	0.004741
3840.000000	0.004753
3839.000000	0.004769
3838.000000	0.004791
3837.000000	0.004813
3836.000000	0.004823
3835.000000	0.004811
3834.000000	0.004778
3833.000000	0.004736
3832.000000	0.004708
3831.000000	0.004701
3830.000000	0.004707
3829.000000	0.004714
3828.000000	0.004713
3827.000000	0.004708
3826.000000	0.004702
3825.000000	0.004689
3824.000000	0.004665
3823.000000	0.004643
3822.000000	0.004648
3821.000000	0.004676
3820.000000	0.004701
3819.000000	0.004703
3818.000000	0.004692
3817.000000	0.004688
3816.000000	0.004704
3815.000000	0.004729
3814.000000	0.004738
3813.000000	0.004729
3812.000000	0.004716
3811.000000	0.004710
3810.000000	0.004707
3809.000000	0.004701
3808.000000	0.004690
3807.000000	0.004687
3806.000000	0.004694
3805.000000	0.004706
3804.000000	0.004715
3803.000000	0.004721
3802.000000	0.004732
3801.000000	0.004749
3800.000000	0.004762
3799.000000	0.004766
3798.000000	0.004761
3797.000000	0.004749
3796.000000	0.004735
3795.000000	0.004724
3794.000000	0.004717
3793.000000	0.004717
3792.000000	0.004724
3791.000000	0.004735
3790.000000	0.004743
3789.000000	0.004748
3788.000000	0.004750
3787.000000	0.004750
3786.000000	0.004750
3785.000000	0.004750
3784.000000	0.004750
3783.000000	0.004743
3782.000000	0.004726
3781.000000	0.004703
3780.000000	0.004684
3779.000000	0.004680
3778.000000	0.004695
3777.000000	0.004721
3776.000000	0.004748
3775.000000	0.004764
3774.000000	0.004761
3773.000000	0.004735
3772.000000	0.004693
3771.000000	0.004659
3770.000000	0.004652
3769.000000	0.004669
3768.000000	0.004687
3767.000000	0.004688
3766.000000	0.004679
3765.000000	0.004676
3764.000000	0.004680
3763.000000	0.004678
3762.000000	0.004660
3761.000000	0.004632
3760.000000	0.004604
3759.000000	0.004577
3758.000000	0.004555
3757.000000	0.004550
3756.000000	0.004561
3755.000000	0.004578
3754.000000	0.004587
3753.000000	0.004588
3752.000000	0.004592
3751.000000	0.004600
3750.000000	0.004612
3749.000000	0.004634
3748.000000	0.004657
3747.000000	0.004663
3746.000000	0.004650
3745.000000	0.004648
3744.000000	0.004674
3743.000000	0.004702
3742.000000	0.004700
3741.000000	0.004664
3740.000000	0.004611
3739.000000	0.004558
3738.000000	0.004518
3737.000000	0.004507
3736.000000	0.004522
3735.000000	0.004524
3734.000000	0.004487
3733.000000	0.004434
3732.000000	0.004412
3731.000000	0.004439
3730.000000	0.004495
3729.000000	0.004547
3728.000000	0.004576
3727.000000	0.004585
3726.000000	0.004584
3725.000000	0.004580
3724.000000	0.004576
3723.000000	0.004573
3722.000000	0.004566
3721.000000	0.004554
3720.000000	0.004539
3719.000000	0.004527
3718.000000	0.004527
3717.000000	0.004539
3716.000000	0.004553
3715.000000	0.004555
3714.000000	0.004548
3713.000000	0.004546
3712.000000	0.004556
3711.000000	0.004560
3710.000000	0.004543
3709.000000	0.004512
3708.000000	0.004483
3707.000000	0.004464
3706.000000	0.004455
3705.000000	0.004453
3704.000000	0.004459
3703.000000	0.004479
3702.000000	0.004511
3701.000000	0.004544
3700.000000	0.004563
3699.000000	0.004564
3698.000000	0.004553
3697.000000	0.004544
3696.000000	0.004541
3695.000000	0.004536
3694.000000	0.004528
3693.000000	0.004524
3692.000000	0.004536
3691.000000	0.004559
3690.000000	0.004574
3689.000000	0.004569
3688.000000	0.004558
3687.000000	0.004551
3686.000000	0.004548
3685.000000	0.004544
3684.000000	0.004543
3683.000000	0.004539
3682.000000	0.004530
3681.000000	0.004523
3680.000000	0.004534
3679.000000	0.004562
3678.000000	0.004585
3677.000000	0.004594
3676.000000	0.004609
3675.000000	0.004639
3674.000000	0.004670
3673.000000	0.004680
3672.000000	0.004659
3671.000000	0.004627
3670.000000	0.004603
3669.000000	0.004595
3668.000000	0.004603
3667.000000	0.004626
3666.000000	0.004653
3665.000000	0.004675
3664.000000	0.004690
3663.000000	0.004700
3662.000000	0.004712
3661.000000	0.004722
3660.000000	0.004727
3659.000000	0.004728
3658.000000	0.004733
3657.000000	0.004753
3656.000000	0.004786
3655.000000	0.004815
3654.000000	0.004824
3653.000000	0.004806
3652.000000	0.004774
3651.000000	0.004758
3650.000000	0.004780
3649.000000	0.004827
3648.000000	0.004877
3647.000000	0.004920
3646.000000	0.004952
3645.000000	0.004975
3644.000000	0.004996
3643.000000	0.005017
3642.000000	0.005036
3641.000000	0.005048
3640.000000	0.005057
3639.000000	0.005071
3638.000000	0.005097
3637.000000	0.005127
3636.000000	0.005153
3635.000000	0.005172
3634.000000	0.005192
3633.000000	0.005215
3632.000000	0.005238
3631.000000	0.005256
3630.000000	0.005275
3629.000000	0.005288
3628.000000	0.005285
3627.000000	0.005276
3626.000000	0.005282
3625.000000	0.005307
3624.000000	0.005342
3623.000000	0.005375
3622.000000	0.005397
3621.000000	0.005409
3620.000000	0.005423
3619.000000	0.005443
3618.000000	0.005471
3617.000000	0.005507
3616.000000	0.005546
3615.000000	0.005580
3614.000000	0.005604
3613.000000	0.005614
3612.000000	0.005612
3611.000000	0.005612
3610.000000	0.005628
3609.000000	0.005669
3608.000000	0.005723
3607.000000	0.005770
3606.000000	0.005807
3605.000000	0.005843
3604.000000	0.005890
3603.000000	0.005944
3602.000000	0.005991
3601.000000	0.006017
3600.000000	0.006022
3599.000000	0.006017
3598.000000	0.006027
3597.000000	0.006072
3596.000000	0.006146
3595.000000	0.006223
3594.000000	0.006268
3593.000000	0.006275
3592.000000	0.006261
3591.000000	0.006253
3590.000000	0.006264
3589.000000	0.006294
3588.000000	0.006330
3587.000000	0.006358
3586.000000	0.006379
3585.000000	0.006405
3584.000000	0.006440
3583.000000	0.006484
3582.000000	0.006535
3581.000000	0.006587
3580.000000	0.006634
3579.000000	0.006675
3578.000000	0.006716
3577.000000	0.006764
3576.000000	0.006818
3575.000000	0.006864
3574.000000	0.006896
3573.000000	0.006919
3572.000000	0.006943
3571.000000	0.006973
3570.000000	0.007004
3569.000000	0.007031
3568.000000	0.007062
3567.000000	0.007104
3566.000000	0.007163
3565.000000	0.007239
3564.000000	0.007326
3563.000000	0.007413
3562.000000	0.007485
3561.000000	0.007532
3560.000000	0.007556
3559.000000	0.007570
3558.000000	0.007592
3557.000000	0.007630
3556.000000	0.007683
3555.000000	0.007737
3554.000000	0.007785
3553.000000	0.007826
3552.000000	0.007864
3551.000000	0.007900
3550.000000	0.007927
3549.000000	0.007946
3548.000000	0.007963
3547.000000	0.007990
3546.000000	0.008030
3545.000000	0.008079
3544.000000	0.008131
3543.000000	0.008185
3542.000000	0.008240
3541.000000	0.008296
3540.000000	0.008349
3539.000000	0.008399
3538.000000	0.008449
3537.000000	0.008497
3536.000000	0.008537
3535.000000	0.008565
3534.000000	0.008582
3533.000000	0.008602
3532.000000	0.008634
3531.000000	0.008679
3530.000000	0.008723
3529.000000	0.008754
3528.000000	0.008770
3527.000000	0.008789
3526.000000	0.008826
3525.000000	0.008884
3524.000000	0.008953
3523.000000	0.009022
3522.000000	0.009089
3521.000000	0.009159
3520.000000	0.009228
3519.000000	0.009285
3518.000000	0.009323
3517.000000	0.009348
3516.000000	0.009370
3515.000000	0.009391
3514.000000	0.009403
3513.000000	0.009406
3512.000000	0.009410
3511.000000	0.009434
3510.000000	0.009477
3509.000000	0.009528
3508.000000	0.009570
3507.000000	0.009602
3506.000000	0.009632
3505.000000	0.009675
3504.000000	0.009736
3503.000000	0.009808
3502.000000	0.009870
3501.000000	0.009912
3500.000000	0.009935
3499.000000	0.009953
3498.000000	0.009977
3497.000000	0.010006
3496.000000	0.010037
3495.000000	0.010068
3494.000000	0.010105
3493.000000	0.010153
3492.000000	0.010211
3491.000000	0.010272
3490.000000	0.010326
3489.000000	0.010366
3488.000000	0.010390
3487.000000	0.010406
3486.000000	0.010423
3485.000000	0.010447
3484.000000	0.010475
3483.000000	0.010506
3482.000000	0.010537
3481.000000	0.010572
3480.000000	0.010606
3479.000000	0.010636
3478.000000	0.010653
3477.000000	0.010660
3476.000000	0.010666
3475.000000	0.010682
3474.000000	0.010715
3473.000000	0.010757
3472.000000	0.010800
3471.000000	0.010840
3470.000000	0.010881
3469.000000	0.010923
3468.000000	0.010966
3467.000000	0.011006
3466.000000	0.011042
3465.000000	0.011072
3464.000000	0.011095
3463.000000	0.011118
3462.000000	0.011149
3461.000000	0.011192
3460.000000	0.011242
3459.000000	0.011287
3458.000000	0.011321
3457.000000	0.011348
3456.000000	0.011373
3455.000000	0.011395
3454.000000	0.011412
3453.000000	0.011427
3452.000000	0.011449
3451.000000	0.011487
3450.000000	0.011541
3449.000000	0.011599
3448.000000	0.011648
3447.000000	0.011680
3446.000000	0.011703
3445.000000	0.011730
3444.000000	0.011765
3443.000000	0.011801
3442.000000	0.011829
3441.000000	0.011852
3440.000000	0.011878
3439.000000	0.011911
3438.000000	0.011946
3437.000000	0.011977
3436.000000	0.012006
3435.000000	0.012044
3434.000000	0.012096
3433.000000	0.012156
3432.000000	0.012203
3431.000000	0.012224
3430.000000	0.012224
3429.000000	0.012221
3428.000000	0.012235
3427.000000	0.012279
3426.000000	0.012346
3425.000000	0.012422
3424.000000	0.012489
3423.000000	0.012538
3422.000000	0.012571
3421.000000	0.012597
3420.000000	0.012623
3419.000000	0.012650
3418.000000	0.012674
3417.000000	0.012693
3416.000000	0.012710
3415.000000	0.012735
3414.000000	0.012771
3413.000000	0.012811
3412.000000	0.012849
3411.000000	0.012881
3410.000000	0.012913
3409.000000	0.012949
3408.000000	0.012986
3407.000000	0.013021
3406.000000	0.013051
3405.000000	0.013082
3404.000000	0.013120
3403.000000	0.013169
3402.000000	0.013223
3401.000000	0.013271
3400.000000	0.013301
3399.000000	0.013313
3398.000000	0.013319
3397.000000	0.013338
3396.000000	0.013378
3395.000000	0.013432
3394.000000	0.013481
3393.000000	0.013517
3392.000000	0.013544
3391.000000	0.013569
3390.000000	0.013597
3389.000000	0.013630
3388.000000	0.013669
3387.000000	0.013715
3386.000000	0.013760
3385.000000	0.013789
3384.000000	0.013800
3383.000000	0.013805
3382.000000	0.013826
3381.000000	0.013870
3380.000000	0.013925
3379.000000	0.013974
3378.000000	0.014009
3377.000000	0.014036
3376.000000	0.014065
3375.000000	0.014103
3374.000000	0.014151
3373.000000	0.014204
3372.000000	0.014259
3371.000000	0.014315
3370.000000	0.014374
3369.000000	0.014437
3368.000000	0.014503
3367.000000	0.014571
3366.000000	0.014638
3365.000000	0.014702
3364.000000	0.014759
3363.000000	0.014809
3362.000000	0.014854
3361.000000	0.014898
3360.000000	0.014944
3359.000000	0.015000
3358.000000	0.015067
3357.000000	0.015143
3356.000000	0.015223
3355.000000	0.015303
3354.000000	0.015383
3353.000000	0.015457
3352.000000	0.015520
3351.000000	0.015573
3350.000000	0.015627
3349.000000	0.015694
3348.000000	0.015775
3347.000000	0.015862
3346.000000	0.015950
3345.000000	0.016037
3344.000000	0.016120
3343.000000	0.016198
3342.000000	0.016268
3341.000000	0.016324
3340.000000	0.016368
3339.000000	0.016406
3338.000000	0.016453
3337.000000	0.016517
3336.000000	0.016590
3335.000000	0.016660
3334.000000	0.016724
3333.000000	0.016793
3332.000000	0.016871
3331.000000	0.016950
3330.000000	0.017009
3329.000000	0.017040
3328.000000	0.017054
3327.000000	0.017070
3326.000000	0.017105
3325.000000	0.017165
3324.000000	0.017243
3323.000000	0.017329
3322.000000	0.017408
3321.000000	0.017467
3320.000000	0.017502
3319.000000	0.017519
3318.000000	0.017528
3317.000000	0.017540
3316.000000	0.017561
3315.000000	0.017595
3314.000000	0.017637
3313.000000	0.017680
3312.000000	0.017717
3311.000000	0.017742
3310.000000	0.017756
3309.000000	0.017764
3308.000000	0.017769
3307.000000	0.017773
3306.000000	0.017784
3305.000000	0.017811
3304.000000	0.017858
3303.000000	0.017916
3302.000000	0.017970
3301.000000	0.018010
3300.000000	0.018034
3299.000000	0.018051
3298.000000	0.018064
3297.000000	0.018077
3296.000000	0.018093
3295.000000	0.018115
3294.000000	0.018145
3293.000000	0.018174
3292.000000	0.018195
3291.000000	0.018210
3290.000000	0.018226
3289.000000	0.018241
3288.000000	0.018245
3287.000000	0.018230
3286.000000	0.018209
3285.000000	0.018202
3284.000000	0.018215
3283.000000	0.018232
3282.000000	0.018235
3281.000000	0.018217
3280.000000	0.018193
3279.000000	0.018177
3278.000000	0.018171
3277.000000	0.018162
3276.000000	0.018136
3275.000000	0.018088
3274.000000	0.018024
3273.000000	0.017963
3272.000000	0.017919
3271.000000	0.017897
3270.000000	0.017891
3269.000000	0.017891
3268.000000	0.017889
3267.000000	0.017884
3266.000000	0.017880
3265.000000	0.017877
3264.000000	0.017871
3263.000000	0.017857
3262.000000	0.017825
3261.000000	0.017773
3260.000000	0.017704
3259.000000	0.017627
3258.000000	0.017555
3257.000000	0.017497
3256.000000	0.017457
3255.000000	0.017425
3254.000000	0.017391
3253.000000	0.017348
3252.000000	0.017302
3251.000000	0.017257
3250.000000	0.017209
3249.000000	0.017153
3248.000000	0.017095
3247.000000	0.017047
3246.000000	0.017023
3245.000000	0.017018
3244.000000	0.017022
3243.000000	0.017024
3242.000000	0.017021
3241.000000	0.017009
3240.000000	0.016986
3239.000000	0.016946
3238.000000	0.016891
3237.000000	0.016828
3236.000000	0.016767
3235.000000	0.016719
3234.000000	0.016691
3233.000000	0.016681
3232.000000	0.016683
3231.000000	0.016681
3230.000000	0.016667
3229.000000	0.016640
3228.000000	0.016606
3227.000000	0.016572
3226.000000	0.016541
3225.000000	0.016513
3224.000000	0.016489
3223.000000	0.016468
3222.000000	0.016446
3221.000000	0.016423
3220.000000	0.016403
3219.000000	0.016393
3218.000000	0.016387
3217.000000	0.016367
3216.000000	0.016323
3215.000000	0.016262
3214.000000	0.016199
3213.000000	0.016147
3212.000000	0.016103
3211.000000	0.016062
3210.000000	0.016026
3209.000000	0.016000
3208.000000	0.015983
3207.000000	0.015968
3206.000000	0.015950
3205.000000	0.015932
3204.000000	0.015918
3203.000000	0.015905
3202.000000	0.015881
3201.000000	0.015841
3200.000000	0.015790
3199.000000	0.015742
3198.000000	0.015708
3197.000000	0.015688
3196.000000	0.015675
3195.000000	0.015660
3194.000000	0.015635
3193.000000	0.015594
3192.000000	0.015535
3191.000000	0.015462
3190.000000	0.015388
3189.000000	0.015325
3188.000000	0.015278
3187.000000	0.015242
3186.000000	0.015214
3185.000000	0.015187
3184.000000	0.015160
3183.000000	0.015135
3182.000000	0.015109
3181.000000	0.015077
3180.000000	0.015031
3179.000000	0.014971
3178.000000	0.014902
3177.000000	0.014837
3176.000000	0.014788
3175.000000	0.014760
3174.000000	0.014741
3173.000000	0.014716
3172.000000	0.014670
3171.000000	0.014607
3170.000000	0.014543
3169.000000	0.014494
3168.000000	0.014457
3167.000000	0.014418
3166.000000	0.014368
3165.000000	0.014307
3164.000000	0.014247
3163.000000	0.014201
3162.000000	0.014175
3161.000000	0.014162
3160.000000	0.014150
3159.000000	0.014128
3158.000000	0.014093
3157.000000	0.014047
3156.000000	0.013991
3155.000000	0.013923
3154.000000	0.013846
3153.000000	0.013767
3152.000000	0.013698
3151.000000	0.013653
3150.000000	0.013638
3149.000000	0.013647
3148.000000	0.013665
3147.000000	0.013673
3146.000000	0.013660
3145.000000	0.013623
3144.000000	0.013566
3143.000000	0.013497
3142.000000	0.013424
3141.000000	0.013361
3140.000000	0.013318
3139.000000	0.013297
3138.000000	0.013290
3137.000000	0.013282
3136.000000	0.013262
3135.000000	0.013235
3134.000000	0.013211
3133.000000	0.013195
3132.000000	0.013184
3131.000000	0.013171
3130.000000	0.013155
3129.000000	0.013143
3128.000000	0.013135
3127.000000	0.013126
3126.000000	0.013108
3125.000000	0.013079
3124.000000	0.013043
3123.000000	0.013012
3122.000000	0.012986
3121.000000	0.012960
3120.000000	0.012923
3119.000000	0.012876
3118.000000	0.012831
3117.000000	0.012798
3116.000000	0.012787
3115.000000	0.012798
3114.000000	0.012835
3113.000000	0.012890
3112.000000	0.012944
3111.000000	0.012978
3110.000000	0.012989
3109.000000	0.012988
3108.000000	0.012989
3107.000000	0.012998
3106.000000	0.013017
3105.000000	0.013049
3104.000000	0.013086
3103.000000	0.013112
3102.000000	0.013109
3101.000000	0.013084
3100.000000	0.013058
3099.000000	0.013057
3098.000000	0.013082
3097.000000	0.013120
3096.000000	0.013156
3095.000000	0.013186
3094.000000	0.013215
3093.000000	0.013247
3092.000000	0.013278
3091.000000	0.013295
3090.000000	0.013288
3089.000000	0.013259
3088.000000	0.013224
3087.000000	0.013199
3086.000000	0.013199
3085.000000	0.013226
3084.000000	0.013277
3083.000000	0.013337
3082.000000	0.013385
3081.000000	0.013399
3080.000000	0.013377
3079.000000	0.013335
3078.000000	0.013296
3077.000000	0.013281
3076.000000	0.013291
3075.000000	0.013319
3074.000000	0.013348
3073.000000	0.013369
3072.000000	0.013375
3071.000000	0.013367
3070.000000	0.013348
3069.000000	0.013325
3068.000000	0.013302
3067.000000	0.013280
3066.000000	0.013265
3065.000000	0.013262
3064.000000	0.013273
3063.000000	0.013290
3062.000000	0.013299
3061.000000	0.013291
3060.000000	0.013272
3059.000000	0.013249
3058.000000	0.013228
3057.000000	0.013205
3056.000000	0.013175
3055.000000	0.013135
3054.000000	0.013088
3053.000000	0.013034
3052.000000	0.012979
3051.000000	0.012930
3050.000000	0.012896
3049.000000	0.012876
3048.000000	0.012857
3047.000000	0.012826
3046.000000	0.012775
3045.000000	0.012708
3044.000000	0.012639
3043.000000	0.012577
3042.000000	0.012526
3041.000000	0.012486
3040.000000	0.012449
3039.000000	0.012410
3038.000000	0.012364
3037.000000	0.012314
3036.000000	0.012272
3035.000000	0.012245
3034.000000	0.012231
3033.000000	0.012212
3032.000000	0.012175
3031.000000	0.012128
3030.000000	0.012084
3029.000000	0.012054
3028.000000	0.012030
3027.000000	0.012002
3026.000000	0.011967
3025.000000	0.011930
3024.000000	0.011893
3023.000000	0.011856
3022.000000	0.011816
3021.000000	0.011772
3020.000000	0.011728
3019.000000	0.011687
3018.000000	0.011646
3017.000000	0.011608
3016.000000	0.011576
3015.000000	0.011555
3014.000000	0.011544
3013.000000	0.011537
3012.000000	0.011526
3011.000000	0.011512
3010.000000	0.011497
3009.000000	0.011483
3008.000000	0.011465
3007.000000	0.011439
3006.000000	0.011415
3005.000000	0.011406
3004.000000	0.011418
3003.000000	0.011441
3002.000000	0.011453
3001.000000	0.011444
3000.000000	0.011420
2999.000000	0.011397
2998.000000	0.011391
2997.000000	0.011404
2996.000000	0.011433
2995.000000	0.011473
2994.000000	0.011525
2993.000000	0.011585
2992.000000	0.011646
2991.000000	0.011697
2990.000000	0.011730
2989.000000	0.011753
2988.000000	0.011779
2987.000000	0.011817
2986.000000	0.011863
2985.000000	0.011903
2984.000000	0.011931
2983.000000	0.011953
2982.000000	0.011980
2981.000000	0.012016
2980.000000	0.012058
2979.000000	0.012101
2978.000000	0.012142
2977.000000	0.012179
2976.000000	0.012209
2975.000000	0.012232
2974.000000	0.012250
2973.000000	0.012265
2972.000000	0.012280
2971.000000	0.012302
2970.000000	0.012338
2969.000000	0.012392
2968.000000	0.012461
2967.000000	0.012535
2966.000000	0.012602
2965.000000	0.012653
2964.000000	0.012684
2963.000000	0.012705
2962.000000	0.012734
2961.000000	0.012783
2960.000000	0.012848
2959.000000	0.012916
2958.000000	0.012973
2957.000000	0.013010
2956.000000	0.013029
2955.000000	0.013038
2954.000000	0.013045
2953.000000	0.013052
2952.000000	0.013054
2951.000000	0.013045
2950.000000	0.013026
2949.000000	0.013010
2948.000000	0.013012
2947.000000	0.013046
2946.000000	0.013109
2945.000000	0.013178
2944.000000	0.013231
2943.000000	0.013262
2942.000000	0.013291
2941.000000	0.013341
2940.000000	0.013419
2939.000000	0.013516
2938.000000	0.013615
2937.000000	0.013710
2936.000000	0.013802
2935.000000	0.013898
2934.000000	0.013996
2933.000000	0.014093
2932.000000	0.014182
2931.000000	0.014264
2930.000000	0.014343
2929.000000	0.014420
2928.000000	0.014493
2927.000000	0.014566
2926.000000	0.014649
2925.000000	0.014744
2924.000000	0.014842
2923.000000	0.014930
2922.000000	0.015002
2921.000000	0.015055
2920.000000	0.015084
2919.000000	0.015077
2918.000000	0.015023
2917.000000	0.014921
2916.000000	0.014775
2915.000000	0.014596
2914.000000	0.014397
2913.000000	0.014188
2912.000000	0.013982
2911.000000	0.013792
2910.000000	0.013625
2909.000000	0.013477
2908.000000	0.013335
2907.000000	0.013192
2906.000000	0.013060
2905.000000	0.012955
2904.000000	0.012876
2903.000000	0.012808
2902.000000	0.012741
2901.000000	0.012675
2900.000000	0.012615
2899.000000	0.012560
2898.000000	0.012502
2897.000000	0.012443
2896.000000	0.012391
2895.000000	0.012353
2894.000000	0.012328
2893.000000	0.012308
2892.000000	0.012283
2891.000000	0.012253
2890.000000	0.012228
2889.000000	0.012217
2888.000000	0.012214
2887.000000	0.012209
2886.000000	0.012196
2885.000000	0.012182
2884.000000	0.012175
2883.000000	0.012180
2882.000000	0.012189
2881.000000	0.012196
2880.000000	0.012196
2879.000000	0.012191
2878.000000	0.012184
2877.000000	0.012178
2876.000000	0.012169
2875.000000	0.012155
2874.000000	0.012135
2873.000000	0.012112
2872.000000	0.012090
2871.000000	0.012062
2870.000000	0.012028
2869.000000	0.011993
2868.000000	0.011961
2867.000000	0.011932
2866.000000	0.011902
2865.000000	0.011878
2864.000000	0.011867
2863.000000	0.011872
2862.000000	0.011893
2861.000000	0.011927
2860.000000	0.011967
2859.000000	0.012002
2858.000000	0.012024
2857.000000	0.012043
2856.000000	0.012082
2855.000000	0.012163
2854.000000	0.012284
2853.000000	0.012418
2852.000000	0.012531
2851.000000	0.012590
2850.000000	0.012577
2849.000000	0.012494
2848.000000	0.012356
2847.000000	0.012185
2846.000000	0.012002
2845.000000	0.011820
2844.000000	0.011650
2843.000000	0.011498
2842.000000	0.011363
2841.000000	0.011242
2840.000000	0.011133
2839.000000	0.011036
2838.000000	0.010952
2837.000000	0.010887
2836.000000	0.010844
2835.000000	0.010819
2834.000000	0.010797
2833.000000	0.010768
2832.000000	0.010729
2831.000000	0.010685
2830.000000	0.010643
2829.000000	0.010609
2828.000000	0.010584
2827.000000	0.010571
2826.000000	0.010565
2825.000000	0.010554
2824.000000	0.010532
2823.000000	0.010499
2822.000000	0.010463
2821.000000	0.010429
2820.000000	0.010400
2819.000000	0.010374
2818.000000	0.010350
2817.000000	0.010327
2816.000000	0.010305
2815.000000	0.010284
2814.000000	0.010270
2813.000000	0.010266
2812.000000	0.010268
2811.000000	0.010267
2810.000000	0.010258
2809.000000	0.010237
2808.000000	0.010207
2807.000000	0.010173
2806.000000	0.010146
2805.000000	0.010133
2804.000000	0.010129
2803.000000	0.010122
2802.000000	0.010106
2801.000000	0.010089
2800.000000	0.010079
2799.000000	0.010080
2798.000000	0.010084
2797.000000	0.010080
2796.000000	0.010064
2795.000000	0.010035
2794.000000	0.009998
2793.000000	0.009960
2792.000000	0.009930
2791.000000	0.009911
2790.000000	0.009905
2789.000000	0.009906
2788.000000	0.009907
2787.000000	0.009905
2786.000000	0.009899
2785.000000	0.009888
2784.000000	0.009866
2783.000000	0.009832
2782.000000	0.009792
2781.000000	0.009759
2780.000000	0.009739
2779.000000	0.009730
2778.000000	0.009720
2777.000000	0.009705
2776.000000	0.009686
2775.000000	0.009671
2774.000000	0.009663
2773.000000	0.009663
2772.000000	0.009664
2771.000000	0.009659
2770.000000	0.009646
2769.000000	0.009629
2768.000000	0.009616
2767.000000	0.009608
2766.000000	0.009600
2765.000000	0.009582
2764.000000	0.009556
2763.000000	0.009535
2762.000000	0.009529
2761.000000	0.009532
2760.000000	0.009532
2759.000000	0.009519
2758.000000	0.009492
2757.000000	0.009461
2756.000000	0.009436
2755.000000	0.009424
2754.000000	0.009424
2753.000000	0.009426
2752.000000	0.009419
2751.000000	0.009404
2750.000000	0.009389
2749.000000	0.009379
2748.000000	0.009371
2747.000000	0.009361
2746.000000	0.009347
2745.000000	0.009329
2744.000000	0.009310
2743.000000	0.009291
2742.000000	0.009276
2741.000000	0.009267
2740.000000	0.009259
2739.000000	0.009248
2738.000000	0.009233
2737.000000	0.009215
2736.000000	0.009195
2735.000000	0.009178
2734.000000	0.009167
2733.000000	0.009162
2732.000000	0.009154
2731.000000	0.009136
2730.000000	0.009117
2729.000000	0.009104
2728.000000	0.009100
2727.000000	0.009097
2726.000000	0.009090
2725.000000	0.009080
2724.000000	0.009069
2723.000000	0.009059
2722.000000	0.009053
2721.000000	0.009050
2720.000000	0.009049
2719.000000	0.009043
2718.000000	0.009034
2717.000000	0.009027
2716.000000	0.009022
2715.000000	0.009012
2714.000000	0.008991
2713.000000	0.008960
2712.000000	0.008932
2711.000000	0.008919
2710.000000	0.008919
2709.000000	0.008921
2708.000000	0.008911
2707.000000	0.008888
2706.000000	0.008866
2705.000000	0.008858
2704.000000	0.008862
2703.000000	0.008868
2702.000000	0.008869
2701.000000	0.008866
2700.000000	0.008859
2699.000000	0.008846
2698.000000	0.008825
2697.000000	0.008803
2696.000000	0.008790
2695.000000	0.008789
2694.000000	0.008797
2693.000000	0.008805
2692.000000	0.008808
2691.000000	0.008804
2690.000000	0.008797
2689.000000	0.008786
2688.000000	0.008773
2687.000000	0.008756
2686.000000	0.008738
2685.000000	0.008725
2684.000000	0.008722
2683.000000	0.008725
2682.000000	0.008731
2681.000000	0.008740
2680.000000	0.008748
2679.000000	0.008749
2678.000000	0.008739
2677.000000	0.008718
2676.000000	0.008692
2675.000000	0.008670
2674.000000	0.008658
2673.000000	0.008661
2672.000000	0.008675
2671.000000	0.008686
2670.000000	0.008687
2669.000000	0.008680
2668.000000	0.008673
2667.000000	0.008671
2666.000000	0.008670
2665.000000	0.008666
2664.000000	0.008655
2663.000000	0.008640
2662.000000	0.008624
2661.000000	0.008612
2660.000000	0.008604
2659.000000	0.008598
2658.000000	0.008593
2657.000000	0.008587
2656.000000	0.008583
2655.000000	0.008581
2654.000000	0.008581
2653.000000	0.008581
2652.000000	0.008576
2651.000000	0.008563
2650.000000	0.008543
2649.000000	0.008518
2648.000000	0.008490
2647.000000	0.008459
2646.000000	0.008431
2645.000000	0.008408
2644.000000	0.008391
2643.000000	0.008376
2642.000000	0.008355
2641.000000	0.008323
2640.000000	0.008285
2639.000000	0.008252
2638.000000	0.008230
2637.000000	0.008217
2636.000000	0.008207
2635.000000	0.008198
2634.000000	0.008188
2633.000000	0.008174
2632.000000	0.008155
2631.000000	0.008134
2630.000000	0.008121
2629.000000	0.008116
2628.000000	0.008108
2627.000000	0.008090
2626.000000	0.008066
2625.000000	0.008047
2624.000000	0.008034
2623.000000	0.008019
2622.000000	0.008000
2621.000000	0.007978
2620.000000	0.007956
2619.000000	0.007931
2618.000000	0.007901
2617.000000	0.007875
2616.000000	0.007859
2615.000000	0.007851
2614.000000	0.007846
2613.000000	0.007840
2612.000000	0.007831
2611.000000	0.007815
2610.000000	0.007795
2609.000000	0.007778
2608.000000	0.007772
2607.000000	0.007771
2606.000000	0.007768
2605.000000	0.007758
2604.000000	0.007747
2603.000000	0.007740
2602.000000	0.007741
2601.000000	0.007741
2600.000000	0.007730
2599.000000	0.007702
2598.000000	0.007666
2597.000000	0.007632
2596.000000	0.007602
2595.000000	0.007577
2594.000000	0.007565
2593.000000	0.007576
2592.000000	0.007613
2591.000000	0.007657
2590.000000	0.007686
2589.000000	0.007681
2588.000000	0.007639
2587.000000	0.007568
2586.000000	0.007491
2585.000000	0.007436
2584.000000	0.007415
2583.000000	0.007419
2582.000000	0.007425
2581.000000	0.007415
2580.000000	0.007388
2579.000000	0.007355
2578.000000	0.007333
2577.000000	0.007332
2576.000000	0.007349
2575.000000	0.007374
2574.000000	0.007397
2573.000000	0.007411
2572.000000	0.007418
2571.000000	0.007423
2570.000000	0.007428
2569.000000	0.007432
2568.000000	0.007425
2567.000000	0.007407
2566.000000	0.007382
2565.000000	0.007356
2564.000000	0.007333
2563.000000	0.007322
2562.000000	0.007337
2561.000000	0.007383
2560.000000	0.007439
2559.000000	0.007472
2558.000000	0.007468
2557.000000	0.007436
2556.000000	0.007391
2555.000000	0.007341
2554.000000	0.007298
2553.000000	0.007281
2552.000000	0.007299
2551.000000	0.007337
2550.000000	0.007372
2549.000000	0.007390
2548.000000	0.007391
2547.000000	0.007378
2546.000000	0.007357
2545.000000	0.007333
2544.000000	0.007308
2543.000000	0.007282
2542.000000	0.007254
2541.000000	0.007233
2540.000000	0.007222
2539.000000	0.007220
2538.000000	0.007222
2537.000000	0.007226
2536.000000	0.007226
2535.000000	0.007211
2534.000000	0.007182
2533.000000	0.007148
2532.000000	0.007126
2531.000000	0.007125
2530.000000	0.007143
2529.000000	0.007168
2528.000000	0.007181
2527.000000	0.007169
2526.000000	0.007132
2525.000000	0.007094
2524.000000	0.007083
2523.000000	0.007107
2522.000000	0.007150
2521.000000	0.007186
2520.000000	0.007202
2519.000000	0.007202
2518.000000	0.007191
2517.000000	0.007169
2516.000000	0.007142
2515.000000	0.007123
2514.000000	0.007126
2513.000000	0.007143
2512.000000	0.007150
2511.000000	0.007132
2510.000000	0.007091
2509.000000	0.007043
2508.000000	0.006999
2507.000000	0.006968
2506.000000	0.006956
2505.000000	0.006961
2504.000000	0.006976
2503.000000	0.006990
2502.000000	0.007002
2501.000000	0.007011
2500.000000	0.007013
2499.000000	0.007010
2498.000000	0.007014
2497.000000	0.007033
2496.000000	0.007053
2495.000000	0.007053
2494.000000	0.007023
2493.000000	0.006983
2492.000000	0.006961
2491.000000	0.006973
2490.000000	0.007011
2489.000000	0.007048
2488.000000	0.007066
2487.000000	0.007065
2486.000000	0.007058
2485.000000	0.007052
2484.000000	0.007040
2483.000000	0.007020
2482.000000	0.007008
2481.000000	0.007013
2480.000000	0.007023
2479.000000	0.007015
2478.000000	0.006986
2477.000000	0.006956
2476.000000	0.006939
2475.000000	0.006931
2474.000000	0.006921
2473.000000	0.006903
2472.000000	0.006880
2471.000000	0.006861
2470.000000	0.006863
2469.000000	0.006895
2468.000000	0.006945
2467.000000	0.006983
2466.000000	0.006989
2465.000000	0.006972
2464.000000	0.006955
2463.000000	0.006953
2462.000000	0.006966
2461.000000	0.006983
2460.000000	0.006995
2459.000000	0.006993
2458.000000	0.006975
2457.000000	0.006943
2456.000000	0.006906
2455.000000	0.006878
2454.000000	0.006869
2453.000000	0.006885
2452.000000	0.006912
2451.000000	0.006935
2450.000000	0.006944
2449.000000	0.006938
2448.000000	0.006925
2447.000000	0.006906
2446.000000	0.006883
2445.000000	0.006859
2444.000000	0.006833
2443.000000	0.006806
2442.000000	0.006779
2441.000000	0.006754
2440.000000	0.006738
2439.000000	0.006747
2438.000000	0.006790
2437.000000	0.006847
2436.000000	0.006881
2435.000000	0.006874
2434.000000	0.006843
2433.000000	0.006816
2432.000000	0.006799
2431.000000	0.006778
2430.000000	0.006749
2429.000000	0.006724
2428.000000	0.006715
2427.000000	0.006730
2426.000000	0.006766
2425.000000	0.006810
2424.000000	0.006836
2423.000000	0.006825
2422.000000	0.006785
2421.000000	0.006741
2420.000000	0.006714
2419.000000	0.006710
2418.000000	0.006728
2417.000000	0.006756
2416.000000	0.006776
2415.000000	0.006777
2414.000000	0.006771
2413.000000	0.006771
2412.000000	0.006770
2411.000000	0.006759
2410.000000	0.006737
2409.000000	0.006718
2408.000000	0.006701
2407.000000	0.006681
2406.000000	0.006663
2405.000000	0.006663
2404.000000	0.006686
2403.000000	0.006722
2402.000000	0.006760
2401.000000	0.006789
2400.000000	0.006795
2399.000000	0.006771
2398.000000	0.006741
2397.000000	0.006742
2396.000000	0.006779
2395.000000	0.006813
2394.000000	0.006808
2393.000000	0.006772
2392.000000	0.006738
2391.000000	0.006721
2390.000000	0.006710
2389.000000	0.006689
2388.000000	0.006658
2387.000000	0.006632
2386.000000	0.006629
2385.000000	0.006654
2384.000000	0.006692
2383.000000	0.006714
2382.000000	0.006709
2381.000000	0.006684
2380.000000	0.006657
2379.000000	0.006638
2378.000000	0.006629
2377.000000	0.006638
2376.000000	0.006672
2375.000000	0.006726
2374.000000	0.006775
2373.000000	0.006792
2372.000000	0.006757
2371.000000	0.006686
2370.000000	0.006616
2369.000000	0.006576
2368.000000	0.006570
2367.000000	0.006587
2366.000000	0.006624
2365.000000	0.006682
2364.000000	0.006752
2363.000000	0.006818
2362.000000	0.006858
2361.000000	0.006852
2360.000000	0.006811
2359.000000	0.006765
2358.000000	0.006734
2357.000000	0.006723
2356.000000	0.006731
2355.000000	0.006780
2354.000000	0.006832
2353.000000	0.006827
2352.000000	0.006766
2351.000000	0.006720
2350.000000	0.006738
2349.000000	0.006801
2348.000000	0.006860
2347.000000	0.006872
2346.000000	0.006840
2345.000000	0.006817
2344.000000	0.006840
2343.000000	0.006893
2342.000000	0.006918
2341.000000	0.006890
2340.000000	0.006847
2339.000000	0.006835
2338.000000	0.006855
2337.000000	0.006867
2336.000000	0.006851
2335.000000	0.006811
2334.000000	0.006764
2333.000000	0.006720
2332.000000	0.006703
2331.000000	0.006717
2330.000000	0.006761
2329.000000	0.006813
2328.000000	0.006888
2327.000000	0.006987
2326.000000	0.007086
2325.000000	0.007128
2324.000000	0.007086
2323.000000	0.006993
2322.000000	0.006920
2321.000000	0.006908
2320.000000	0.006937
2319.000000	0.006950
2318.000000	0.006927
2317.000000	0.006882
2316.000000	0.006853
2315.000000	0.006845
2314.000000	0.006858
2313.000000	0.006872
2312.000000	0.006875
2311.000000	0.006845
2310.000000	0.006784
2309.000000	0.006710
2308.000000	0.006660
2307.000000	0.006650
2306.000000	0.006677
2305.000000	0.006715
2304.000000	0.006744
2303.000000	0.006756
2302.000000	0.006763
2301.000000	0.006770
2300.000000	0.006773
2299.000000	0.006759
2298.000000	0.006742
2297.000000	0.006744
2296.000000	0.006769
2295.000000	0.006792
2294.000000	0.006794
2293.000000	0.006784
2292.000000	0.006784
2291.000000	0.006798
2290.000000	0.006811
2289.000000	0.006806
2288.000000	0.006780
2287.000000	0.006748
2286.000000	0.006722
2285.000000	0.006703
2284.000000	0.006675
2283.000000	0.006629
2282.000000	0.006583
2281.000000	0.006572
2280.000000	0.006605
2279.000000	0.006659
2278.000000	0.006697
2277.000000	0.006706
2276.000000	0.006694
2275.000000	0.006678
2274.000000	0.006675
2273.000000	0.006689
2272.000000	0.006703
2271.000000	0.006694
2270.000000	0.006661
2269.000000	0.006620
2268.000000	0.006579
2267.000000	0.006531
2266.000000	0.006474
2265.000000	0.006418
2264.000000	0.006378
2263.000000	0.006373
2262.000000	0.006423
2261.000000	0.006523
2260.000000	0.006611
2259.000000	0.006612
2258.000000	0.006524
2257.000000	0.006433
2256.000000	0.006414
2255.000000	0.006449
2254.000000	0.006467
2253.000000	0.006443
2252.000000	0.006415
2251.000000	0.006423
2250.000000	0.006466
2249.000000	0.006519
2248.000000	0.006566
2247.000000	0.006600
2246.000000	0.006622
2245.000000	0.006632
2244.000000	0.006631
2243.000000	0.006620
2242.000000	0.006593
2241.000000	0.006538
2240.000000	0.006448
2239.000000	0.006348
2238.000000	0.006291
2237.000000	0.006309
2236.000000	0.006361
2235.000000	0.006368
2234.000000	0.006302
2233.000000	0.006225
2232.000000	0.006206
2231.000000	0.006251
2230.000000	0.006308
2229.000000	0.006339
2228.000000	0.006348
2227.000000	0.006356
2226.000000	0.006378
2225.000000	0.006407
2224.000000	0.006422
2223.000000	0.006414
2222.000000	0.006406
2221.000000	0.006432
2220.000000	0.006484
2219.000000	0.006502
2218.000000	0.006428
2217.000000	0.006262
2216.000000	0.006066
2215.000000	0.005906
2214.000000	0.005824
2213.000000	0.005818
2212.000000	0.005852
2211.000000	0.005889
2210.000000	0.005935
2209.000000	0.006013
2208.000000	0.006116
2207.000000	0.006186
2206.000000	0.006179
2205.000000	0.006119
2204.000000	0.006066
2203.000000	0.006046
2202.000000	0.006031
2201.000000	0.005979
2200.000000	0.005891
2199.000000	0.005816
2198.000000	0.005816
2197.000000	0.005900
2196.000000	0.006010
2195.000000	0.006067
2194.000000	0.006045
2193.000000	0.005993
2192.000000	0.005975
2191.000000	0.006003
2190.000000	0.006022
2189.000000	0.005977
2188.000000	0.005876
2187.000000	0.005793
2186.000000	0.005787
2185.000000	0.005830
2184.000000	0.005831
2183.000000	0.005757
2182.000000	0.005686
2181.000000	0.005714
2180.000000	0.005847
2179.000000	0.006016
2178.000000	0.006148
2177.000000	0.006207
2176.000000	0.006180
2175.000000	0.006100
2174.000000	0.006043
2173.000000	0.006068
2172.000000	0.006165
2171.000000	0.006290
2170.000000	0.006402
2169.000000	0.006451
2168.000000	0.006363
2167.000000	0.006136
2166.000000	0.005888
2165.000000	0.005756
2164.000000	0.005740
2163.000000	0.005733
2162.000000	0.005678
2161.000000	0.005592
2160.000000	0.005467
2159.000000	0.005257
2158.000000	0.005009
2157.000000	0.004841
2156.000000	0.004797
2155.000000	0.004829
2154.000000	0.004906
2153.000000	0.005029
2152.000000	0.005166
2151.000000	0.005268
2150.000000	0.005344
2149.000000	0.005449
2148.000000	0.005584
2147.000000	0.005690
2146.000000	0.005739
2145.000000	0.005750
2144.000000	0.005731
2143.000000	0.005661
2142.000000	0.005555
2141.000000	0.005481
2140.000000	0.005486
2139.000000	0.005550
2138.000000	0.005622
2137.000000	0.005665
2136.000000	0.005650
2135.000000	0.005569
2134.000000	0.005462
2133.000000	0.005399
2132.000000	0.005415
2131.000000	0.005488
2130.000000	0.005582
2129.000000	0.005674
2128.000000	0.005743
2127.000000	0.005778
2126.000000	0.005800
2125.000000	0.005844
2124.000000	0.005916
2123.000000	0.005978
2122.000000	0.006000
2121.000000	0.005996
2120.000000	0.005996
2119.000000	0.006012
2118.000000	0.006031
2117.000000	0.006042
2116.000000	0.006048
2115.000000	0.006069
2114.000000	0.006125
2113.000000	0.006202
2112.000000	0.006249
2111.000000	0.006227
2110.000000	0.006155
2109.000000	0.006087
2108.000000	0.006048
2107.000000	0.006021
2106.000000	0.005999
2105.000000	0.006001
2104.000000	0.006039
2103.000000	0.006099
2102.000000	0.006167
2101.000000	0.006244
2100.000000	0.006323
2099.000000	0.006374
2098.000000	0.006371
2097.000000	0.006306
2096.000000	0.006196
2095.000000	0.006079
2094.000000	0.006006
2093.000000	0.006006
2092.000000	0.006060
2091.000000	0.006122
2090.000000	0.006174
2089.000000	0.006217
2088.000000	0.006233
2087.000000	0.006202
2086.000000	0.006146
2085.000000	0.006116
2084.000000	0.006125
2083.000000	0.006134
2082.000000	0.006117
2081.000000	0.006096
2080.000000	0.006093
2079.000000	0.006089
2078.000000	0.006057
2077.000000	0.005995
2076.000000	0.005912
2075.000000	0.005817
2074.000000	0.005745
2073.000000	0.005747
2072.000000	0.005827
2071.000000	0.005923
2070.000000	0.005972
2069.000000	0.005973
2068.000000	0.005961
2067.000000	0.005953
2066.000000	0.005958
2065.000000	0.005984
2064.000000	0.006009
2063.000000	0.005972
2062.000000	0.005841
2061.000000	0.005679
2060.000000	0.005594
2059.000000	0.005636
2058.000000	0.005770
2057.000000	0.005924
2056.000000	0.006050
2055.000000	0.006133
2054.000000	0.006170
2053.000000	0.006161
2052.000000	0.006108
2051.000000	0.006024
2050.000000	0.005919
2049.000000	0.005783
2048.000000	0.005598
2047.000000	0.005394
2046.000000	0.005273
2045.000000	0.005312
2044.000000	0.005462
2043.000000	0.005583
2042.000000	0.005586
2041.000000	0.005486
2040.000000	0.005343
2039.000000	0.005202
2038.000000	0.005117
2037.000000	0.005135
2036.000000	0.005232
2035.000000	0.005308
2034.000000	0.005293
2033.000000	0.005208
2032.000000	0.005112
2031.000000	0.005046
2030.000000	0.005033
2029.000000	0.005074
2028.000000	0.005125
2027.000000	0.005129
2026.000000	0.005080
2025.000000	0.005012
2024.000000	0.004938
2023.000000	0.004849
2022.000000	0.004754
2021.000000	0.004667
2020.000000	0.004585
2019.000000	0.004520
2018.000000	0.004526
2017.000000	0.004630
2016.000000	0.004753
2015.000000	0.004800
2014.000000	0.004791
2013.000000	0.004815
2012.000000	0.004891
2011.000000	0.004971
2010.000000	0.005042
2009.000000	0.005137
2008.000000	0.005245
2007.000000	0.005319
2006.000000	0.005363
2005.000000	0.005412
2004.000000	0.005436
2003.000000	0.005363
2002.000000	0.005191
2001.000000	0.005003
2000.000000	0.004875
1999.000000	0.004828
1998.000000	0.004875
1997.000000	0.005006
1996.000000	0.005137
1995.000000	0.005159
1994.000000	0.005057
1993.000000	0.004930
1992.000000	0.004878
1991.000000	0.004915
1990.000000	0.005010
1989.000000	0.005137
1988.000000	0.005268
1987.000000	0.005378
1986.000000	0.005471
1985.000000	0.005549
1984.000000	0.005563
1983.000000	0.005457
1982.000000	0.005248
1981.000000	0.005019
1980.000000	0.004832
1979.000000	0.004720
1978.000000	0.004731
1977.000000	0.004872
1976.000000	0.005020
1975.000000	0.005017
1974.000000	0.004854
1973.000000	0.004654
1972.000000	0.004496
1971.000000	0.004372
1970.000000	0.004300
1969.000000	0.004332
1968.000000	0.004447
1967.000000	0.004540
1966.000000	0.004563
1965.000000	0.004580
1964.000000	0.004653
1963.000000	0.004765
1962.000000	0.004872
1961.000000	0.004954
1960.000000	0.005005
1959.000000	0.005019
1958.000000	0.005013
1957.000000	0.005010
1956.000000	0.004997
1955.000000	0.004955
1954.000000	0.004899
1953.000000	0.004855
1952.000000	0.004812
1951.000000	0.004758
1950.000000	0.004740
1949.000000	0.004811
1948.000000	0.004924
1947.000000	0.004973
1946.000000	0.004935
1945.000000	0.004899
1944.000000	0.004935
1943.000000	0.005005
1942.000000	0.005034
1941.000000	0.005005
1940.000000	0.004945
1939.000000	0.004879
1938.000000	0.004836
1937.000000	0.004852
1936.000000	0.004919
1935.000000	0.004975
1934.000000	0.004975
1933.000000	0.004949
1932.000000	0.004958
1931.000000	0.005028
1930.000000	0.005127
1929.000000	0.005204
1928.000000	0.005229
1927.000000	0.005209
1926.000000	0.005192
1925.000000	0.005228
1924.000000	0.005311
1923.000000	0.005383
1922.000000	0.005382
1921.000000	0.005296
1920.000000	0.005158
1919.000000	0.005026
1918.000000	0.004962
1917.000000	0.004977
1916.000000	0.005023
1915.000000	0.005057
1914.000000	0.005081
1913.000000	0.005100
1912.000000	0.005098
1911.000000	0.005073
1910.000000	0.005069
1909.000000	0.005120
1908.000000	0.005190
1907.000000	0.005219
1906.000000	0.005210
1905.000000	0.005197
1904.000000	0.005178
1903.000000	0.005127
1902.000000	0.005072
1901.000000	0.005075
1900.000000	0.005138
1899.000000	0.005198
1898.000000	0.005208
1897.000000	0.005182
1896.000000	0.005150
1895.000000	0.005123
1894.000000	0.005105
1893.000000	0.005101
1892.000000	0.005098
1891.000000	0.005084
1890.000000	0.005077
1889.000000	0.005099
1888.000000	0.005127
1887.000000	0.005122
1886.000000	0.005090
1885.000000	0.005063
1884.000000	0.005050
1883.000000	0.005043
1882.000000	0.005056
1881.000000	0.005105
1880.000000	0.005158
1879.000000	0.005169
1878.000000	0.005143
1877.000000	0.005132
1876.000000	0.005150
1875.000000	0.005154
1874.000000	0.005116
1873.000000	0.005055
1872.000000	0.004999
1871.000000	0.004945
1870.000000	0.004902
1869.000000	0.004902
1868.000000	0.004940
1867.000000	0.004977
1866.000000	0.005005
1865.000000	0.005038
1864.000000	0.005064
1863.000000	0.005060
1862.000000	0.005042
1861.000000	0.005045
1860.000000	0.005064
1859.000000	0.005052
1858.000000	0.005003
1857.000000	0.004957
1856.000000	0.004941
1855.000000	0.004947
1854.000000	0.004966
1853.000000	0.004998
1852.000000	0.005025
1851.000000	0.005025
1850.000000	0.005012
1849.000000	0.005019
1848.000000	0.005045
1847.000000	0.005055
1846.000000	0.005040
1845.000000	0.005041
1844.000000	0.005091
1843.000000	0.005151
1842.000000	0.005182
1841.000000	0.005184
1840.000000	0.005158
1839.000000	0.005096
1838.000000	0.005014
1837.000000	0.004957
1836.000000	0.004941
1835.000000	0.004942
1834.000000	0.004938
1833.000000	0.004923
1832.000000	0.004900
1831.000000	0.004876
1830.000000	0.004866
1829.000000	0.004876
1828.000000	0.004894
1827.000000	0.004916
1826.000000	0.004951
1825.000000	0.005003
1824.000000	0.005040
1823.000000	0.005025
1822.000000	0.004973
1821.000000	0.004933
1820.000000	0.004924
1819.000000	0.004919
1818.000000	0.004900
1817.000000	0.004896
1816.000000	0.004930
1815.000000	0.004978
1814.000000	0.005014
1813.000000	0.005038
1812.000000	0.005055
1811.000000	0.005054
1810.000000	0.005026
1809.000000	0.004995
1808.000000	0.004971
1807.000000	0.004943
1806.000000	0.004916
1805.000000	0.004915
1804.000000	0.004935
1803.000000	0.004941
1802.000000	0.004919
1801.000000	0.004901
1800.000000	0.004906
1799.000000	0.004918
1798.000000	0.004927
1797.000000	0.004946
1796.000000	0.004961
1795.000000	0.004938
1794.000000	0.004873
1793.000000	0.004821
1792.000000	0.004827
1791.000000	0.004849
1790.000000	0.004845
1789.000000	0.004838
1788.000000	0.004851
1787.000000	0.004870
1786.000000	0.004875
1785.000000	0.004864
1784.000000	0.004833
1783.000000	0.004782
1782.000000	0.004727
1781.000000	0.004689
1780.000000	0.004669
1779.000000	0.004653
1778.000000	0.004644
1777.000000	0.004656
1776.000000	0.004671
1775.000000	0.004655
1774.000000	0.004595
1773.000000	0.004528
1772.000000	0.004501
1771.000000	0.004499
1770.000000	0.004501
1769.000000	0.004520
1768.000000	0.004554
1767.000000	0.004565
1766.000000	0.004538
1765.000000	0.004503
1764.000000	0.004489
1763.000000	0.004488
1762.000000	0.004486
1761.000000	0.004477
1760.000000	0.004473
1759.000000	0.004474
1758.000000	0.004481
1757.000000	0.004495
1756.000000	0.004510
1755.000000	0.004510
1754.000000	0.004493
1753.000000	0.004473
1752.000000	0.004463
1751.000000	0.004476
1750.000000	0.004510
1749.000000	0.004557
1748.000000	0.004613
1747.000000	0.004664
1746.000000	0.004701
1745.000000	0.004726
1744.000000	0.004740
1743.000000	0.004728
1742.000000	0.004680
1741.000000	0.004624
1740.000000	0.004589
1739.000000	0.004565
1738.000000	0.004535
1737.000000	0.004517
1736.000000	0.004513
1735.000000	0.004498
1734.000000	0.004487
1733.000000	0.004471
1732.000000	0.004441
1731.000000	0.004426
1730.000000	0.004449
1729.000000	0.004506
1728.000000	0.004562
1727.000000	0.004581
1726.000000	0.004557
1725.000000	0.004522
1724.000000	0.004501
1723.000000	0.004478
1722.000000	0.004446
1721.000000	0.004428
1720.000000	0.004430
1719.000000	0.004418
1718.000000	0.004402
1717.000000	0.004464
1716.000000	0.004609
1715.000000	0.004767
1714.000000	0.004929
1713.000000	0.005123
1712.000000	0.005342
1711.000000	0.005556
1710.000000	0.005776
1709.000000	0.006049
1708.000000	0.006393
1707.000000	0.006788
1706.000000	0.007223
1705.000000	0.007696
1704.000000	0.008157
1703.000000	0.008569
1702.000000	0.008974
1701.000000	0.009495
1700.000000	0.010148
1699.000000	0.010689
1698.000000	0.011110
1697.000000	0.011630
1696.000000	0.012317
1695.000000	0.012975
1694.000000	0.013474
1693.000000	0.013934
1692.000000	0.014461
1691.000000	0.015042
1690.000000	0.015635
1689.000000	0.016213
1688.000000	0.016760
1687.000000	0.017259
1686.000000	0.017749
1685.000000	0.018375
1684.000000	0.019211
1683.000000	0.020008
1682.000000	0.020661
1681.000000	0.021300
1680.000000	0.021978
1679.000000	0.022652
1678.000000	0.023310
1677.000000	0.024014
1676.000000	0.024820
1675.000000	0.025668
1674.000000	0.026444
1673.000000	0.027151
1672.000000	0.027876
1671.000000	0.028669
1670.000000	0.029553
1669.000000	0.030496
1668.000000	0.031392
1667.000000	0.032175
1666.000000	0.032884
1665.000000	0.033610
1664.000000	0.034401
1663.000000	0.035218
1662.000000	0.035983
1661.000000	0.036673
1660.000000	0.037323
1659.000000	0.037948
1658.000000	0.038537
1657.000000	0.039098
1656.000000	0.039632
1655.000000	0.040107
1654.000000	0.040552
1653.000000	0.041097
1652.000000	0.041575
1651.000000	0.041881
1650.000000	0.042140
1649.000000	0.042421
1648.000000	0.042723
1647.000000	0.043017
1646.000000	0.043270
1645.000000	0.043489
1644.000000	0.043700
1643.000000	0.043892
1642.000000	0.044054
1641.000000	0.044199
1640.000000	0.044348
1639.000000	0.044494
1638.000000	0.044608
1637.000000	0.044665
1636.000000	0.044678
1635.000000	0.044667
1634.000000	0.044643
1633.000000	0.044638
1632.000000	0.044638
1631.000000	0.044579
1630.000000	0.044407
1629.000000	0.044111
1628.000000	0.043725
1627.000000	0.043289
1626.000000	0.042818
1625.000000	0.042266
1624.000000	0.041584
1623.000000	0.040807
1622.000000	0.040060
1621.000000	0.039413
1620.000000	0.038825
1619.000000	0.038180
1618.000000	0.037351
1617.000000	0.036325
1616.000000	0.035270
1615.000000	0.034374
1614.000000	0.033653
1613.000000	0.032992
1612.000000	0.032291
1611.000000	0.031548
1610.000000	0.030819
1609.000000	0.030118
1608.000000	0.029429
1607.000000	0.028774
1606.000000	0.028186
1605.000000	0.027643
1604.000000	0.027109
1603.000000	0.026601
1602.000000	0.026158
1601.000000	0.025766
1600.000000	0.025395
1599.000000	0.025051
1598.000000	0.024753
1597.000000	0.024487
1596.000000	0.024238
1595.000000	0.024028
1594.000000	0.023886
1593.000000	0.023786
1592.000000	0.023688
1591.000000	0.023609
1590.000000	0.023592
1589.000000	0.023633
1588.000000	0.023698
1587.000000	0.023785
1586.000000	0.023913
1585.000000	0.024062
1584.000000	0.024200
1583.000000	0.024358
1582.000000	0.024580
1581.000000	0.024851
1580.000000	0.025124
1579.000000	0.025397
1578.000000	0.025689
1577.000000	0.025994
1576.000000	0.026287
1575.000000	0.026573
1574.000000	0.026889
1573.000000	0.027239
1572.000000	0.027604
1571.000000	0.027989
1570.000000	0.028426
1569.000000	0.028879
1568.000000	0.029286
1567.000000	0.029696
1566.000000	0.030179
1565.000000	0.030728
1564.000000	0.031277
1563.000000	0.031801
1562.000000	0.032305
1561.000000	0.032752
1560.000000	0.033123
1559.000000	0.033648
1558.000000	0.034322
1557.000000	0.034891
1556.000000	0.035381
1555.000000	0.035858
1554.000000	0.036319
1553.000000	0.036731
1552.000000	0.037102
1551.000000	0.037460
1550.000000	0.037805
1549.000000	0.038109
1548.000000	0.038359
1547.000000	0.038578
1546.000000	0.038788
1545.000000	0.038997
1544.000000	0.039186
1543.000000	0.039316
1542.000000	0.039356
1541.000000	0.039329
1540.000000	0.039299
1539.000000	0.039276
1538.000000	0.039247
1537.000000	0.039230
1536.000000	0.039197
1535.000000	0.039077
1534.000000	0.038850
1533.000000	0.038594
1532.000000	0.038376
1531.000000	0.038183
1530.000000	0.037991
1529.000000	0.037798
1528.000000	0.037594
1527.000000	0.037349
1526.000000	0.037059
1525.000000	0.036779
1524.000000	0.036547
1523.000000	0.036315
1522.000000	0.036010
1521.000000	0.035659
1520.000000	0.035331
1519.000000	0.035045
1518.000000	0.034766
1517.000000	0.034471
1516.000000	0.034168
1515.000000	0.033860
1514.000000	0.033532
1513.000000	0.033164
1512.000000	0.032765
1511.000000	0.032362
1510.000000	0.031973
1509.000000	0.031554
1508.000000	0.031003
1507.000000	0.030258
1506.000000	0.029448
1505.000000	0.028797
1504.000000	0.028358
1503.000000	0.028018
1502.000000	0.027665
1501.000000	0.027255
1500.000000	0.026807
1499.000000	0.026331
1498.000000	0.025797
1497.000000	0.025218
1496.000000	0.024668
1495.000000	0.024181
1494.000000	0.023753
1493.000000	0.023373
1492.000000	0.023008
1491.000000	0.022607
1490.000000	0.022176
1489.000000	0.021797
1488.000000	0.021513
1487.000000	0.021274
1486.000000	0.021052
1485.000000	0.020871
1484.000000	0.020748
1483.000000	0.020673
1482.000000	0.020638
1481.000000	0.020664
1480.000000	0.020757
1479.000000	0.020887
1478.000000	0.021031
1477.000000	0.021205
1476.000000	0.021418
1475.000000	0.021640
1474.000000	0.021864
1473.000000	0.022137
1472.000000	0.022470
1471.000000	0.022791
1470.000000	0.023083
1469.000000	0.023388
1468.000000	0.023713
1467.000000	0.024024
1466.000000	0.024310
1465.000000	0.024610
1464.000000	0.024933
1463.000000	0.025238
1462.000000	0.025510
1461.000000	0.025792
1460.000000	0.026122
1459.000000	0.026518
1458.000000	0.026994
1457.000000	0.027528
1456.000000	0.027974
1455.000000	0.028266
1454.000000	0.028493
1453.000000	0.028719
1452.000000	0.028930
1451.000000	0.029084
1450.000000	0.029171
1449.000000	0.029211
1448.000000	0.029216
1447.000000	0.029189
1446.000000	0.029142
1445.000000	0.029093
1444.000000	0.029045
1443.000000	0.028979
1442.000000	0.028878
1441.000000	0.028750
1440.000000	0.028617
1439.000000	0.028475
1438.000000	0.028267
1437.000000	0.027958
1436.000000	0.027599
1435.000000	0.027274
1434.000000	0.027004
1433.000000	0.026767
1432.000000	0.026530
1431.000000	0.026289
1430.000000	0.026062
1429.000000	0.025870
1428.000000	0.025719
1427.000000	0.025602
1426.000000	0.025498
1425.000000	0.025388
1424.000000	0.025292
1423.000000	0.025244
1422.000000	0.025239
1421.000000	0.025230
1420.000000	0.025189
1419.000000	0.025139
1418.000000	0.025092
1417.000000	0.025045
1416.000000	0.025016
1415.000000	0.025009
1414.000000	0.025011
1413.000000	0.025021
1412.000000	0.025053
1411.000000	0.025113
1410.000000	0.025181
1409.000000	0.025246
1408.000000	0.025322
1407.000000	0.025413
1406.000000	0.025507
1405.000000	0.025588
1404.000000	0.025652
1403.000000	0.025706
1402.000000	0.025749
1401.000000	0.025776
1400.000000	0.025777
1399.000000	0.025758
1398.000000	0.025723
1397.000000	0.025679
1396.000000	0.025619
1395.000000	0.025525
1394.000000	0.025378
1393.000000	0.025184
1392.000000	0.024986
1391.000000	0.024817
1390.000000	0.024672
1389.000000	0.024518
1388.000000	0.024326
1387.000000	0.024097
1386.000000	0.023856
1385.000000	0.023625
1384.000000	0.023407
1383.000000	0.023193
1382.000000	0.022980
1381.000000	0.022771
1380.000000	0.022556
1379.000000	0.022326
1378.000000	0.022086
1377.000000	0.021852
1376.000000	0.021625
1375.000000	0.021398
1374.000000	0.021157
1373.000000	0.020899
1372.000000	0.020626
1371.000000	0.020349
1370.000000	0.020071
1369.000000	0.019781
1368.000000	0.019472
1367.000000	0.019159
1366.000000	0.018864
1365.000000	0.018592
1364.000000	0.018335
1363.000000	0.018088
1362.000000	0.017855
1361.000000	0.017646
1360.000000	0.017471
1359.000000	0.017347
1358.000000	0.017283
1357.000000	0.017273
1356.000000	0.017294
1355.000000	0.017330
1354.000000	0.017388
1353.000000	0.017484
1352.000000	0.017623
1351.000000	0.017794
1350.000000	0.017988
1349.000000	0.018191
1348.000000	0.018394
1347.000000	0.018597
1346.000000	0.018807
1345.000000	0.019029
1344.000000	0.019258
1343.000000	0.019488
1342.000000	0.019721
1341.000000	0.019958
1340.000000	0.020184
1339.000000	0.020370
1338.000000	0.020498
1337.000000	0.020572
1336.000000	0.020603
1335.000000	0.020594
1334.000000	0.020542
1333.000000	0.020448
1332.000000	0.020318
1331.000000	0.020161
1330.000000	0.019990
1329.000000	0.019820
1328.000000	0.019660
1327.000000	0.019513
1326.000000	0.019377
1325.000000	0.019252
1324.000000	0.019141
1323.000000	0.019052
1322.000000	0.018992
1321.000000	0.018961
1320.000000	0.018950
1319.000000	0.018943
1318.000000	0.018917
1317.000000	0.018861
1316.000000	0.018786
1315.000000	0.018710
1314.000000	0.018641
1313.000000	0.018568
1312.000000	0.018477
1311.000000	0.018366
1310.000000	0.018240
1309.000000	0.018107
1308.000000	0.017974
1307.000000	0.017850
1306.000000	0.017740
1305.000000	0.017637
1304.000000	0.017529
1303.000000	0.017411
1302.000000	0.017289
1301.000000	0.017175
1300.000000	0.017075
1299.000000	0.016992
1298.000000	0.016925
1297.000000	0.016873
1296.000000	0.016843
1295.000000	0.016839
1294.000000	0.016863
1293.000000	0.016911
1292.000000	0.016983
1291.000000	0.017077
1290.000000	0.017194
1289.000000	0.017327
1288.000000	0.017465
1287.000000	0.017601
1286.000000	0.017728
1285.000000	0.017850
1284.000000	0.017974
1283.000000	0.018104
1282.000000	0.018232
1281.000000	0.018337
1280.000000	0.018402
1279.000000	0.018424
1278.000000	0.018409
1277.000000	0.018377
1276.000000	0.018345
1275.000000	0.018326
1274.000000	0.018315
1273.000000	0.018300
1272.000000	0.018277
1271.000000	0.018263
1270.000000	0.018282
1269.000000	0.018336
1268.000000	0.018406
1267.000000	0.018471
1266.000000	0.018528
1265.000000	0.018596
1264.000000	0.018692
1263.000000	0.018817
1262.000000	0.018954
1261.000000	0.019088
1260.000000	0.019216
1259.000000	0.019353
1258.000000	0.019513
1257.000000	0.019697
1256.000000	0.019893
1255.000000	0.020089
1254.000000	0.020286
1253.000000	0.020491
1252.000000	0.020707
1251.000000	0.020931
1250.000000	0.021159
1249.000000	0.021392
1248.000000	0.021634
1247.000000	0.021886
1246.000000	0.022150
1245.000000	0.022425
1244.000000	0.022700
1243.000000	0.022958
1242.000000	0.023187
1241.000000	0.023379
1240.000000	0.023530
1239.000000	0.023641
1238.000000	0.023729
1237.000000	0.023811
1236.000000	0.023882
1235.000000	0.023919
1234.000000	0.023900
1233.000000	0.023824
1232.000000	0.023700
1231.000000	0.023532
1230.000000	0.023318
1229.000000	0.023050
1228.000000	0.022729
1227.000000	0.022362
1226.000000	0.021961
1225.000000	0.021538
1224.000000	0.021098
1223.000000	0.020643
1222.000000	0.020174
1221.000000	0.019701
1220.000000	0.019238
1219.000000	0.018814
1218.000000	0.018465
1217.000000	0.018208
1216.000000	0.018037
1215.000000	0.017926
1214.000000	0.017854
1213.000000	0.017813
1212.000000	0.017801
1211.000000	0.017819
1210.000000	0.017874
1209.000000	0.017967
1208.000000	0.018084
1207.000000	0.018202
1206.000000	0.018305
1205.000000	0.018392
1204.000000	0.018458
1203.000000	0.018488
1202.000000	0.018460
1201.000000	0.018372
1200.000000	0.018235
1199.000000	0.018061
1198.000000	0.017855
1197.000000	0.017618
1196.000000	0.017358
1195.000000	0.017083
1194.000000	0.016804
1193.000000	0.016533
1192.000000	0.016270
1191.000000	0.016013
1190.000000	0.015755
1189.000000	0.015500
1188.000000	0.015250
1187.000000	0.015005
1186.000000	0.014771
1185.000000	0.014561
1184.000000	0.014382
1183.000000	0.014223
1182.000000	0.014069
1181.000000	0.013928
1180.000000	0.013824
1179.000000	0.013773
1178.000000	0.013757
1177.000000	0.013744
1176.000000	0.013722
1175.000000	0.013695
1174.000000	0.013676
1173.000000	0.013670
1172.000000	0.013679
1171.000000	0.013693
1170.000000	0.013708
1169.000000	0.013732
1168.000000	0.013783
1167.000000	0.013865
1166.000000	0.013958
1165.000000	0.014039
1164.000000	0.014098
1163.000000	0.014137
1162.000000	0.014155
1161.000000	0.014147
1160.000000	0.014110
1159.000000	0.014041
1158.000000	0.013940
1157.000000	0.013815
1156.000000	0.013687
1155.000000	0.013568
1154.000000	0.013448
1153.000000	0.013305
1152.000000	0.013136
1151.000000	0.012955
1150.000000	0.012775
1149.000000	0.012592
1148.000000	0.012401
1147.000000	0.012216
1146.000000	0.012059
1145.000000	0.011932
1144.000000	0.011818
1143.000000	0.011698
1142.000000	0.011567
1141.000000	0.011434
1140.000000	0.011312
1139.000000	0.011211
1138.000000	0.011127
1137.000000	0.011057
1136.000000	0.010994
1135.000000	0.010937
1134.000000	0.010893
1133.000000	0.010872
1132.000000	0.010870
1131.000000	0.010874
1130.000000	0.010865
1129.000000	0.010842
1128.000000	0.010820
1127.000000	0.010812
1126.000000	0.010817
1125.000000	0.010836
1124.000000	0.010871
1123.000000	0.010918
1122.000000	0.010964
1121.000000	0.010993
1120.000000	0.011005
1119.000000	0.011010
1118.000000	0.011023
1117.000000	0.011054
1116.000000	0.011102
1115.000000	0.011160
1114.000000	0.011219
1113.000000	0.011270
1112.000000	0.011317
1111.000000	0.011369
1110.000000	0.011431
1109.000000	0.011503
1108.000000	0.011574
1107.000000	0.011635
1106.000000	0.011681
1105.000000	0.011722
1104.000000	0.011771
1103.000000	0.011831
1102.000000	0.011891
1101.000000	0.011947
1100.000000	0.011998
1099.000000	0.012040
1098.000000	0.012073
1097.000000	0.012109
1096.000000	0.012169
1095.000000	0.012267
1094.000000	0.012396
1093.000000	0.012554
1092.000000	0.012746
1091.000000	0.012974
1090.000000	0.013225
1089.000000	0.013486
1088.000000	0.013755
1087.000000	0.014044
1086.000000	0.014350
1085.000000	0.014646
1084.000000	0.014896
1083.000000	0.015077
1082.000000	0.015187
1081.000000	0.015246
1080.000000	0.015265
1079.000000	0.015233
1078.000000	0.015138
1077.000000	0.014985
1076.000000	0.014796
1075.000000	0.014594
1074.000000	0.014392
1073.000000	0.014204
1072.000000	0.014045
1071.000000	0.013916
1070.000000	0.013803
1069.000000	0.013699
1068.000000	0.013622
1067.000000	0.013592
1066.000000	0.013602
1065.000000	0.013633
1064.000000	0.013676
1063.000000	0.013731
1062.000000	0.013779
1061.000000	0.013789
1060.000000	0.013759
1059.000000	0.013719
1058.000000	0.013701
1057.000000	0.013700
1056.000000	0.013690
1055.000000	0.013657
1054.000000	0.013611
1053.000000	0.013566
1052.000000	0.013523
1051.000000	0.013478
1050.000000	0.013431
1049.000000	0.013390
1048.000000	0.013367
1047.000000	0.013372
1046.000000	0.013398
1045.000000	0.013423
1044.000000	0.013427
1043.000000	0.013414
1042.000000	0.013419
1041.000000	0.013479
1040.000000	0.013608
1039.000000	0.013790
1038.000000	0.013998
1037.000000	0.014208
1036.000000	0.014413
1035.000000	0.014606
1034.000000	0.014783
1033.000000	0.014937
1032.000000	0.015065
1031.000000	0.015163
1030.000000	0.015224
1029.000000	0.015244
1028.000000	0.015220
1027.000000	0.015160
1026.000000	0.015076
1025.000000	0.014979
1024.000000	0.014884
1023.000000	0.014814
1022.000000	0.014788
1021.000000	0.014800
1020.000000	0.014810
1019.000000	0.014779
1018.000000	0.014703
1017.000000	0.014605
1016.000000	0.014495
1015.000000	0.014356
1014.000000	0.014171
1013.000000	0.013949
1012.000000	0.013720
1011.000000	0.013499
1010.000000	0.013278
1009.000000	0.013048
1008.000000	0.012816
1007.000000	0.012590
1006.000000	0.012372
1005.000000	0.012154
1004.000000	0.011936
1003.000000	0.011723
1002.000000	0.011518
1001.000000	0.011318
1000.000000	0.011122
999.000000	0.010931
998.000000	0.010753
997.000000	0.010592
996.000000	0.010443
995.000000	0.010290
994.000000	0.010120
993.000000	0.009934
992.000000	0.009750
991.000000	0.009584
990.000000	0.009442
989.000000	0.009322
988.000000	0.009223
987.000000	0.009139
986.000000	0.009054
985.000000	0.008958
984.000000	0.008858
983.000000	0.008783
982.000000	0.008756
981.000000	0.008771
980.000000	0.008798
979.000000	0.008807
978.000000	0.008782
977.000000	0.008726
976.000000	0.008657
975.000000	0.008591
974.000000	0.008539
973.000000	0.008502
972.000000	0.008471
971.000000	0.008430
970.000000	0.008364
969.000000	0.008264
968.000000	0.008136
967.000000	0.008001
966.000000	0.007875
965.000000	0.007767
964.000000	0.007673
963.000000	0.007586
962.000000	0.007499
961.000000	0.007410
960.000000	0.007317
959.000000	0.007218
958.000000	0.007112
957.000000	0.006998
956.000000	0.006885
955.000000	0.006785
954.000000	0.006702
953.000000	0.006637
952.000000	0.006591
951.000000	0.006566
950.000000	0.006560
949.000000	0.006554
948.000000	0.006532
947.000000	0.006492
946.000000	0.006453
945.000000	0.006429
944.000000	0.006418
943.000000	0.006406
942.000000	0.006390
941.000000	0.006386
940.000000	0.006400
939.000000	0.006418
938.000000	0.006409
937.000000	0.006364
936.000000	0.006302
935.000000	0.006249
934.000000	0.006215
933.000000	0.006188
932.000000	0.006149
931.000000	0.006095
930.000000	0.006033
929.000000	0.005981
928.000000	0.005945
927.000000	0.005920
926.000000	0.005888
925.000000	0.005849
924.000000	0.005822
923.000000	0.005827
922.000000	0.005859
921.000000	0.005882
920.000000	0.005858
919.000000	0.005781
918.000000	0.005677
917.000000	0.005580
916.000000	0.005506
915.000000	0.005442
914.000000	0.005364
913.000000	0.005260
912.000000	0.005138
911.000000	0.005020
910.000000	0.004929
909.000000	0.004880
908.000000	0.004868
907.000000	0.004873
906.000000	0.004870
905.000000	0.004843
904.000000	0.004788
903.000000	0.004712
902.000000	0.004634
901.000000	0.004580
900.000000	0.004567
899.000000	0.004585
898.000000	0.004603
897.000000	0.004603
896.000000	0.004591
895.000000	0.004585
894.000000	0.004583
893.000000	0.004566
892.000000	0.004518
891.000000	0.004447
890.000000	0.004376
889.000000	0.004329
888.000000	0.004325
887.000000	0.004379
886.000000	0.004504
885.000000	0.004696
884.000000	0.004931
883.000000	0.005179
882.000000	0.005434
881.000000	0.005720
880.000000	0.006059
879.000000	0.006429
878.000000	0.006765
877.000000	0.006998
876.000000	0.007092
875.000000	0.007052
874.000000	0.006907
873.000000	0.006692
872.000000	0.006441
871.000000	0.006182
870.000000	0.005937
869.000000	0.005719
868.000000	0.005532
867.000000	0.005369
866.000000	0.005233
865.000000	0.005139
864.000000	0.005098
863.000000	0.005098
862.000000	0.005108
861.000000	0.005102
860.000000	0.005073
859.000000	0.005033
858.000000	0.005003
857.000000	0.004999
856.000000	0.005020
855.000000	0.005048
854.000000	0.005064
853.000000	0.005072
852.000000	0.005086
851.000000	0.005113
850.000000	0.005145
849.000000	0.005172
848.000000	0.005183
847.000000	0.005153
846.000000	0.005060
845.000000	0.004911
844.000000	0.004747
843.000000	0.004613
842.000000	0.004536
841.000000	0.004523
840.000000	0.004561
839.000000	0.004617
838.000000	0.004641
837.000000	0.004602
836.000000	0.004518
835.000000	0.004438
834.000000	0.004401
833.000000	0.004401
832.000000	0.004412
831.000000	0.004416
830.000000	0.004418
829.000000	0.004435
828.000000	0.004467
827.000000	0.004490
826.000000	0.004488
825.000000	0.004470
824.000000	0.004460
823.000000	0.004470
822.000000	0.004492
821.000000	0.004515
820.000000	0.004537
819.000000	0.004562
818.000000	0.004591
817.000000	0.004618
816.000000	0.004627
815.000000	0.004605
814.000000	0.004566
813.000000	0.004537
812.000000	0.004527
811.000000	0.004514
810.000000	0.004475
809.000000	0.004424
808.000000	0.004396
807.000000	0.004404
806.000000	0.004437
805.000000	0.004490
804.000000	0.004568
803.000000	0.004646
802.000000	0.004678
801.000000	0.004643
800.000000	0.004576
799.000000	0.004536
798.000000	0.004551
797.000000	0.004600
796.000000	0.004642
795.000000	0.004651
794.000000	0.004640
793.000000	0.004649
792.000000	0.004700
791.000000	0.004766
790.000000	0.004804
789.000000	0.004809
788.000000	0.004815
787.000000	0.004844
786.000000	0.004883
785.000000	0.004920
784.000000	0.004963
783.000000	0.005013
782.000000	0.005047
781.000000	0.005045
780.000000	0.005028
779.000000	0.005034
778.000000	0.005074
777.000000	0.005127
776.000000	0.005168
775.000000	0.005188
774.000000	0.005199
773.000000	0.005222
772.000000	0.005273
771.000000	0.005338
770.000000	0.005376
769.000000	0.005362
768.000000	0.005320
767.000000	0.005295
766.000000	0.005309
765.000000	0.005350
764.000000	0.005401
763.000000	0.005457
762.000000	0.005506
761.000000	0.005529
760.000000	0.005518
759.000000	0.005491
758.000000	0.005483
757.000000	0.005514
756.000000	0.005588
755.000000	0.005695
754.000000	0.005815
753.000000	0.005919
752.000000	0.005978
751.000000	0.005980
750.000000	0.005940
749.000000	0.005901
748.000000	0.005904
747.000000	0.005963
746.000000	0.006050
745.000000	0.006127
744.000000	0.006181
743.000000	0.006219
742.000000	0.006258
741.000000	0.006310
740.000000	0.006383
739.000000	0.006471
738.000000	0.006550
737.000000	0.006595
736.000000	0.006617
735.000000	0.006651
734.000000	0.006728
733.000000	0.006851
732.000000	0.007013
731.000000	0.007196
730.000000	0.007370
729.000000	0.007494
728.000000	0.007553
727.000000	0.007565
726.000000	0.007567
725.000000	0.007587
724.000000	0.007644
723.000000	0.007754
722.000000	0.007928
721.000000	0.008143
720.000000	0.008349
719.000000	0.008499
718.000000	0.008588
717.000000	0.008634
716.000000	0.008662
715.000000	0.008704
714.000000	0.008790
713.000000	0.008925
712.000000	0.009068
711.000000	0.009163
710.000000	0.009204
709.000000	0.009242
708.000000	0.009334
707.000000	0.009474
706.000000	0.009608
705.000000	0.009691
704.000000	0.009715
703.000000	0.009705
702.000000	0.009696
701.000000	0.009710
700.000000	0.009750
699.000000	0.009784
698.000000	0.009787
697.000000	0.009775
696.000000	0.009791
695.000000	0.009863
694.000000	0.009975
693.000000	0.010085
692.000000	0.010163
691.000000	0.010201
690.000000	0.010209
689.000000	0.010211
688.000000	0.010233
687.000000	0.010287
686.000000	0.010355
685.000000	0.010421
684.000000	0.010493
683.000000	0.010574
682.000000	0.010638
681.000000	0.010665
680.000000	0.010695
679.000000	0.010778
678.000000	0.010908
677.000000	0.011056
676.000000	0.011213
675.000000	0.011376
674.000000	0.011522
673.000000	0.011623
672.000000	0.011651
671.000000	0.011557
670.000000	0.011281
669.000000	0.010862
668.000000	0.010638
667.000000	0.010981
666.000000	0.011479
665.000000	0.011839
664.000000	0.012062
663.000000	0.012178
662.000000	0.012234
661.000000	0.012278
660.000000	0.012307
659.000000	0.012276
658.000000	0.012163
657.000000	0.012037
656.000000	0.011975
655.000000	0.011984
654.000000	0.012040
653.000000	0.012129
652.000000	0.012215
651.000000	0.012247
650.000000	0.012233
649.000000	0.012225
648.000000	0.012222
647.000000	0.012178
646.000000	0.012119
645.000000	0.012131
644.000000	0.012227
643.000000	0.012313
642.000000	0.012310
641.000000	0.012249
640.000000	0.012194
639.000000	0.012159
638.000000	0.012136
637.000000	0.012144
636.000000	0.012184
635.000000	0.012222
634.000000	0.012245
633.000000	0.012287
632.000000	0.012369
631.000000	0.012467
630.000000	0.012556
629.000000	0.012648
628.000000	0.012747
627.000000	0.012827
626.000000	0.012881
625.000000	0.012926
624.000000	0.012943
623.000000	0.012884
622.000000	0.012744
621.000000	0.012596
620.000000	0.012523
619.000000	0.012545
618.000000	0.012636
617.000000	0.012744
616.000000	0.012802
615.000000	0.012773
614.000000	0.012704
613.000000	0.012692
612.000000	0.012761
611.000000	0.012835
610.000000	0.012847
609.000000	0.012824
608.000000	0.012822
607.000000	0.012841
606.000000	0.012851
605.000000	0.012846
604.000000	0.012826
603.000000	0.012778
602.000000	0.012705
601.000000	0.012644
600.000000	0.012624
599.000000	0.012653
598.000000	0.012728
597.000000	0.012826
596.000000	0.012884
595.000000	0.012846
594.000000	0.012744
593.000000	0.012689
592.000000	0.012738
591.000000	0.012846
590.000000	0.012944
589.000000	0.012996
588.000000	0.012956
587.000000	0.012775
586.000000	0.012503
585.000000	0.012309
584.000000	0.012312
583.000000	0.012446
582.000000	0.012545
581.000000	0.012528
580.000000	0.012450
579.000000	0.012402
578.000000	0.012437
577.000000	0.012559
576.000000	0.012725
575.000000	0.012865
574.000000	0.012932
573.000000	0.012952
572.000000	0.012982
571.000000	0.013056
570.000000	0.013191
569.000000	0.013387
568.000000	0.013595
567.000000	0.013721
566.000000	0.013713
565.000000	0.013629
564.000000	0.013571
563.000000	0.013591
562.000000	0.013681
561.000000	0.013812
560.000000	0.013951
559.000000	0.014048
558.000000	0.014064
557.000000	0.014002
556.000000	0.013887
555.000000	0.013759
554.000000	0.013691
553.000000	0.013753
552.000000	0.013909
551.000000	0.014012
550.000000	0.013947
549.000000	0.013755
548.000000	0.013558
547.000000	0.013420
546.000000	0.013315
545.000000	0.013195
544.000000	0.013036
543.000000	0.012851
542.000000	0.012708
541.000000	0.012684
540.000000	0.012790
539.000000	0.012951
538.000000	0.013100
537.000000	0.013230
536.000000	0.013352
535.000000	0.013464
534.000000	0.013580
533.000000	0.013740
532.000000	0.013921
531.000000	0.014025
530.000000	0.014001
529.000000	0.013901
528.000000	0.013754
527.000000	0.013520
526.000000	0.013209
525.000000	0.012951
524.000000	0.012838
523.000000	0.012808
522.000000	0.012748
521.000000	0.012635
520.000000	0.012499
519.000000	0.012333
518.000000	0.012150
517.000000	0.012021
516.000000	0.011955
515.000000	0.011837
514.000000	0.011584
513.000000	0.011302
512.000000	0.011143
511.000000	0.011098
510.000000	0.011047
509.000000	0.010955
508.000000	0.010867
507.000000	0.010772
506.000000	0.010619
505.000000	0.010434
504.000000	0.010297
503.000000	0.010210
502.000000	0.010109
501.000000	0.010004
500.000000	0.009974
499.000000	0.010046
498.000000	0.010174
497.000000	0.010300
496.000000	0.010355
495.000000	0.010222
494.000000	0.009821
493.000000	0.009252
492.000000	0.008739
491.000000	0.008425
490.000000	0.008291
489.000000	0.008257
488.000000	0.008264
487.000000	0.008257
486.000000	0.008193
485.000000	0.008088
484.000000	0.008011
483.000000	0.008029
482.000000	0.008165
481.000000	0.008369
480.000000	0.008505
479.000000	0.008440
478.000000	0.008198
477.000000	0.007988
476.000000	0.007975
475.000000	0.008080
474.000000	0.008083
473.000000	0.007899
472.000000	0.007673
471.000000	0.007592
470.000000	0.007703
469.000000	0.007937
468.000000	0.008175
467.000000	0.008261
466.000000	0.008101
465.000000	0.007825
464.000000	0.007647
463.000000	0.007601
462.000000	0.007508
461.000000	0.007233
460.000000	0.006844
459.000000	0.006470
458.000000	0.006140
457.000000	0.005845
456.000000	0.005613
455.000000	0.005434
454.000000	0.005222
453.000000	0.004604
452.000000	0.004355
451.000000	0.004346
450.000000	0.004538
