PE IR       SUBTECH     SPECTRUM    ASCII       PEDS        4.00        
   -1
3G-H10-C027_1.ASC
22/02/23
14:54:46.00
22/02/23
15:10:46.00
uco
Sample 027 By uco Date Wednesday, February 23 2022
450.000000
#HDR
-1
-1
#GR
cm-1
A
1.0
0.0
4000.000000
-1.000000
3551
8
0.039188
0.003582
#DATA
4000.000000	0.003739
3999.000000	0.003722
3998.000000	0.003706
3997.000000	0.003696
3996.000000	0.003743
3995.000000	0.003759
3994.000000	0.003773
3993.000000	0.003780
3992.000000	0.003781
3991.000000	0.003779
3990.000000	0.003777
3989.000000	0.003781
3988.000000	0.003794
3987.000000	0.003813
3986.000000	0.003832
3985.000000	0.003846
3984.000000	0.003856
3983.000000	0.003867
3982.000000	0.003881
3981.000000	0.003890
3980.000000	0.003884
3979.000000	0.003857
3978.000000	0.003815
3977.000000	0.003775
3976.000000	0.003754
3975.000000	0.003760
3974.000000	0.003784
3973.000000	0.003808
3972.000000	0.003816
3971.000000	0.003809
3970.000000	0.003799
3969.000000	0.003800
3968.000000	0.003818
3967.000000	0.003844
3966.000000	0.003867
3965.000000	0.003876
3964.000000	0.003873
3963.000000	0.003865
3962.000000	0.003863
3961.000000	0.003870
3960.000000	0.003885
3959.000000	0.003899
3958.000000	0.003911
3957.000000	0.003920
3956.000000	0.003929
3955.000000	0.003936
3954.000000	0.003934
3953.000000	0.003921
3952.000000	0.003901
3951.000000	0.003886
3950.000000	0.003881
3949.000000	0.003882
3948.000000	0.003881
3947.000000	0.003876
3946.000000	0.003868
3945.000000	0.003864
3944.000000	0.003865
3943.000000	0.003869
3942.000000	0.003873
3941.000000	0.003875
3940.000000	0.003879
3939.000000	0.003888
3938.000000	0.003903
3937.000000	0.003917
3936.000000	0.003925
3935.000000	0.003928
3934.000000	0.003935
3933.000000	0.003953
3932.000000	0.003980
3931.000000	0.004001
3930.000000	0.004005
3929.000000	0.003995
3928.000000	0.003982
3927.000000	0.003974
3926.000000	0.003970
3925.000000	0.003967
3924.000000	0.003964
3923.000000	0.003961
3922.000000	0.003955
3921.000000	0.003940
3920.000000	0.003909
3919.000000	0.003864
3918.000000	0.003821
3917.000000	0.003801
3916.000000	0.003814
3915.000000	0.003854
3914.000000	0.003900
3913.000000	0.003936
3912.000000	0.003954
3911.000000	0.003955
3910.000000	0.003948
3909.000000	0.003942
3908.000000	0.003942
3907.000000	0.003948
3906.000000	0.003953
3905.000000	0.003950
3904.000000	0.003935
3903.000000	0.003914
3902.000000	0.003901
3901.000000	0.003906
3900.000000	0.003927
3899.000000	0.003952
3898.000000	0.003969
3897.000000	0.003973
3896.000000	0.003968
3895.000000	0.003960
3894.000000	0.003957
3893.000000	0.003963
3892.000000	0.003975
3891.000000	0.003981
3890.000000	0.003974
3889.000000	0.003956
3888.000000	0.003933
3887.000000	0.003920
3886.000000	0.003926
3885.000000	0.003943
3884.000000	0.003954
3883.000000	0.003956
3882.000000	0.003953
3881.000000	0.003947
3880.000000	0.003938
3879.000000	0.003924
3878.000000	0.003914
3877.000000	0.003911
3876.000000	0.003921
3875.000000	0.003945
3874.000000	0.003978
3873.000000	0.003999
3872.000000	0.003993
3871.000000	0.003969
3870.000000	0.003948
3869.000000	0.003939
3868.000000	0.003936
3867.000000	0.003930
3866.000000	0.003927
3865.000000	0.003939
3864.000000	0.003962
3863.000000	0.003978
3862.000000	0.003980
3861.000000	0.003974
3860.000000	0.003973
3859.000000	0.003995
3858.000000	0.004049
3857.000000	0.004121
3856.000000	0.004174
3855.000000	0.004173
3854.000000	0.004117
3853.000000	0.004037
3852.000000	0.003970
3851.000000	0.003933
3850.000000	0.003921
3849.000000	0.003922
3848.000000	0.003926
3847.000000	0.003925
3846.000000	0.003919
3845.000000	0.003914
3844.000000	0.003915
3843.000000	0.003927
3842.000000	0.003946
3841.000000	0.003974
3840.000000	0.004012
3839.000000	0.004057
3838.000000	0.004095
3837.000000	0.004111
3836.000000	0.004099
3835.000000	0.004063
3834.000000	0.004016
3833.000000	0.003976
3832.000000	0.003959
3831.000000	0.003962
3830.000000	0.003970
3829.000000	0.003971
3828.000000	0.003965
3827.000000	0.003962
3826.000000	0.003969
3825.000000	0.003980
3824.000000	0.003981
3823.000000	0.003972
3822.000000	0.003966
3821.000000	0.003963
3820.000000	0.003950
3819.000000	0.003923
3818.000000	0.003898
3817.000000	0.003895
3816.000000	0.003925
3815.000000	0.003968
3814.000000	0.003993
3813.000000	0.003994
3812.000000	0.003982
3811.000000	0.003975
3810.000000	0.003976
3809.000000	0.003981
3808.000000	0.003983
3807.000000	0.003986
3806.000000	0.003991
3805.000000	0.004000
3804.000000	0.004011
3803.000000	0.004021
3802.000000	0.004028
3801.000000	0.004028
3800.000000	0.004017
3799.000000	0.004004
3798.000000	0.004000
3797.000000	0.004005
3796.000000	0.004013
3795.000000	0.004012
3794.000000	0.003997
3793.000000	0.003972
3792.000000	0.003945
3791.000000	0.003927
3790.000000	0.003921
3789.000000	0.003926
3788.000000	0.003937
3787.000000	0.003953
3786.000000	0.003973
3785.000000	0.003995
3784.000000	0.004006
3783.000000	0.003998
3782.000000	0.003968
3781.000000	0.003931
3780.000000	0.003908
3779.000000	0.003907
3778.000000	0.003920
3777.000000	0.003940
3776.000000	0.003959
3775.000000	0.003978
3774.000000	0.003996
3773.000000	0.004007
3772.000000	0.004005
3771.000000	0.003994
3770.000000	0.003976
3769.000000	0.003947
3768.000000	0.003907
3767.000000	0.003862
3766.000000	0.003826
3765.000000	0.003809
3764.000000	0.003807
3763.000000	0.003802
3762.000000	0.003791
3761.000000	0.003783
3760.000000	0.003789
3759.000000	0.003804
3758.000000	0.003818
3757.000000	0.003833
3756.000000	0.003852
3755.000000	0.003870
3754.000000	0.003880
3753.000000	0.003883
3752.000000	0.003888
3751.000000	0.003895
3750.000000	0.003892
3749.000000	0.003883
3748.000000	0.003875
3747.000000	0.003862
3746.000000	0.003843
3745.000000	0.003840
3744.000000	0.003860
3743.000000	0.003878
3742.000000	0.003874
3741.000000	0.003849
3740.000000	0.003818
3739.000000	0.003787
3738.000000	0.003763
3737.000000	0.003751
3736.000000	0.003747
3735.000000	0.003733
3734.000000	0.003702
3733.000000	0.003678
3732.000000	0.003685
3731.000000	0.003717
3730.000000	0.003754
3729.000000	0.003779
3728.000000	0.003790
3727.000000	0.003796
3726.000000	0.003802
3725.000000	0.003804
3724.000000	0.003798
3723.000000	0.003793
3722.000000	0.003792
3721.000000	0.003798
3720.000000	0.003807
3719.000000	0.003812
3718.000000	0.003812
3717.000000	0.003806
3716.000000	0.003793
3715.000000	0.003769
3714.000000	0.003737
3713.000000	0.003715
3712.000000	0.003715
3711.000000	0.003726
3710.000000	0.003730
3709.000000	0.003725
3708.000000	0.003715
3707.000000	0.003710
3706.000000	0.003712
3705.000000	0.003723
3704.000000	0.003740
3703.000000	0.003760
3702.000000	0.003781
3701.000000	0.003799
3700.000000	0.003815
3699.000000	0.003826
3698.000000	0.003828
3697.000000	0.003821
3696.000000	0.003810
3695.000000	0.003795
3694.000000	0.003778
3693.000000	0.003762
3692.000000	0.003748
3691.000000	0.003733
3690.000000	0.003717
3689.000000	0.003707
3688.000000	0.003711
3687.000000	0.003725
3686.000000	0.003741
3685.000000	0.003757
3684.000000	0.003774
3683.000000	0.003790
3682.000000	0.003799
3681.000000	0.003804
3680.000000	0.003815
3679.000000	0.003827
3678.000000	0.003819
3677.000000	0.003786
3676.000000	0.003764
3675.000000	0.003775
3674.000000	0.003800
3673.000000	0.003810
3672.000000	0.003791
3671.000000	0.003760
3670.000000	0.003749
3669.000000	0.003765
3668.000000	0.003799
3667.000000	0.003841
3666.000000	0.003878
3665.000000	0.003900
3664.000000	0.003908
3663.000000	0.003914
3662.000000	0.003927
3661.000000	0.003941
3660.000000	0.003945
3659.000000	0.003931
3658.000000	0.003909
3657.000000	0.003898
3656.000000	0.003907
3655.000000	0.003926
3654.000000	0.003938
3653.000000	0.003940
3652.000000	0.003941
3651.000000	0.003967
3650.000000	0.004034
3649.000000	0.004114
3648.000000	0.004167
3647.000000	0.004182
3646.000000	0.004172
3645.000000	0.004156
3644.000000	0.004147
3643.000000	0.004152
3642.000000	0.004169
3641.000000	0.004189
3640.000000	0.004208
3639.000000	0.004229
3638.000000	0.004251
3637.000000	0.004271
3636.000000	0.004282
3635.000000	0.004289
3634.000000	0.004306
3633.000000	0.004335
3632.000000	0.004366
3631.000000	0.004385
3630.000000	0.004396
3629.000000	0.004407
3628.000000	0.004409
3627.000000	0.004401
3626.000000	0.004397
3625.000000	0.004407
3624.000000	0.004430
3623.000000	0.004457
3622.000000	0.004477
3621.000000	0.004489
3620.000000	0.004508
3619.000000	0.004544
3618.000000	0.004593
3617.000000	0.004643
3616.000000	0.004683
3615.000000	0.004707
3614.000000	0.004718
3613.000000	0.004720
3612.000000	0.004716
3611.000000	0.004714
3610.000000	0.004728
3609.000000	0.004772
3608.000000	0.004838
3607.000000	0.004902
3606.000000	0.004945
3605.000000	0.004969
3604.000000	0.004988
3603.000000	0.005010
3602.000000	0.005034
3601.000000	0.005051
3600.000000	0.005055
3599.000000	0.005048
3598.000000	0.005050
3597.000000	0.005079
3596.000000	0.005139
3595.000000	0.005212
3594.000000	0.005273
3593.000000	0.005308
3592.000000	0.005320
3591.000000	0.005319
3590.000000	0.005320
3589.000000	0.005339
3588.000000	0.005384
3587.000000	0.005440
3586.000000	0.005487
3585.000000	0.005522
3584.000000	0.005556
3583.000000	0.005597
3582.000000	0.005648
3581.000000	0.005702
3580.000000	0.005748
3579.000000	0.005780
3578.000000	0.005801
3577.000000	0.005819
3576.000000	0.005839
3575.000000	0.005862
3574.000000	0.005885
3573.000000	0.005912
3572.000000	0.005945
3571.000000	0.005982
3570.000000	0.006018
3569.000000	0.006054
3568.000000	0.006096
3567.000000	0.006145
3566.000000	0.006198
3565.000000	0.006257
3564.000000	0.006329
3563.000000	0.006408
3562.000000	0.006482
3561.000000	0.006538
3560.000000	0.006575
3559.000000	0.006599
3558.000000	0.006618
3557.000000	0.006636
3556.000000	0.006658
3555.000000	0.006685
3554.000000	0.006721
3553.000000	0.006768
3552.000000	0.006817
3551.000000	0.006858
3550.000000	0.006885
3549.000000	0.006905
3548.000000	0.006930
3547.000000	0.006966
3546.000000	0.007012
3545.000000	0.007062
3544.000000	0.007115
3543.000000	0.007175
3542.000000	0.007242
3541.000000	0.007307
3540.000000	0.007357
3539.000000	0.007391
3538.000000	0.007422
3537.000000	0.007461
3536.000000	0.007509
3535.000000	0.007552
3534.000000	0.007576
3533.000000	0.007583
3532.000000	0.007588
3531.000000	0.007603
3530.000000	0.007631
3529.000000	0.007667
3528.000000	0.007704
3527.000000	0.007742
3526.000000	0.007783
3525.000000	0.007829
3524.000000	0.007881
3523.000000	0.007936
3522.000000	0.007988
3521.000000	0.008031
3520.000000	0.008060
3519.000000	0.008077
3518.000000	0.008093
3517.000000	0.008118
3516.000000	0.008157
3515.000000	0.008205
3514.000000	0.008256
3513.000000	0.008306
3512.000000	0.008357
3511.000000	0.008405
3510.000000	0.008446
3509.000000	0.008475
3508.000000	0.008495
3507.000000	0.008509
3506.000000	0.008523
3505.000000	0.008542
3504.000000	0.008569
3503.000000	0.008605
3502.000000	0.008648
3501.000000	0.008693
3500.000000	0.008741
3499.000000	0.008790
3498.000000	0.008835
3497.000000	0.008873
3496.000000	0.008907
3495.000000	0.008942
3494.000000	0.008982
3493.000000	0.009022
3492.000000	0.009056
3491.000000	0.009082
3490.000000	0.009099
3489.000000	0.009110
3488.000000	0.009123
3487.000000	0.009145
3486.000000	0.009181
3485.000000	0.009222
3484.000000	0.009261
3483.000000	0.009293
3482.000000	0.009325
3481.000000	0.009367
3480.000000	0.009420
3479.000000	0.009474
3478.000000	0.009518
3477.000000	0.009543
3476.000000	0.009554
3475.000000	0.009560
3474.000000	0.009571
3473.000000	0.009592
3472.000000	0.009620
3471.000000	0.009650
3470.000000	0.009679
3469.000000	0.009702
3468.000000	0.009717
3467.000000	0.009724
3466.000000	0.009724
3465.000000	0.009726
3464.000000	0.009740
3463.000000	0.009775
3462.000000	0.009834
3461.000000	0.009911
3460.000000	0.009991
3459.000000	0.010058
3458.000000	0.010103
3457.000000	0.010126
3456.000000	0.010131
3455.000000	0.010128
3454.000000	0.010124
3453.000000	0.010131
3452.000000	0.010152
3451.000000	0.010189
3450.000000	0.010236
3449.000000	0.010288
3448.000000	0.010337
3447.000000	0.010377
3446.000000	0.010403
3445.000000	0.010417
3444.000000	0.010427
3443.000000	0.010439
3442.000000	0.010458
3441.000000	0.010482
3440.000000	0.010512
3439.000000	0.010547
3438.000000	0.010586
3437.000000	0.010627
3436.000000	0.010668
3435.000000	0.010710
3434.000000	0.010755
3433.000000	0.010804
3432.000000	0.010849
3431.000000	0.010877
3430.000000	0.010884
3429.000000	0.010880
3428.000000	0.010886
3427.000000	0.010917
3426.000000	0.010970
3425.000000	0.011027
3424.000000	0.011074
3423.000000	0.011109
3422.000000	0.011136
3421.000000	0.011163
3420.000000	0.011191
3419.000000	0.011219
3418.000000	0.011246
3417.000000	0.011273
3416.000000	0.011304
3415.000000	0.011337
3414.000000	0.011364
3413.000000	0.011374
3412.000000	0.011372
3411.000000	0.011368
3410.000000	0.011377
3409.000000	0.011400
3408.000000	0.011434
3407.000000	0.011474
3406.000000	0.011518
3405.000000	0.011558
3404.000000	0.011590
3403.000000	0.011614
3402.000000	0.011637
3401.000000	0.011665
3400.000000	0.011694
3399.000000	0.011723
3398.000000	0.011749
3397.000000	0.011773
3396.000000	0.011798
3395.000000	0.011827
3394.000000	0.011863
3393.000000	0.011910
3392.000000	0.011968
3391.000000	0.012032
3390.000000	0.012091
3389.000000	0.012134
3388.000000	0.012159
3387.000000	0.012173
3386.000000	0.012188
3385.000000	0.012207
3384.000000	0.012229
3383.000000	0.012252
3382.000000	0.012279
3381.000000	0.012312
3380.000000	0.012348
3379.000000	0.012379
3378.000000	0.012404
3377.000000	0.012425
3376.000000	0.012447
3375.000000	0.012476
3374.000000	0.012516
3373.000000	0.012569
3372.000000	0.012628
3371.000000	0.012683
3370.000000	0.012731
3369.000000	0.012779
3368.000000	0.012839
3367.000000	0.012916
3366.000000	0.013002
3365.000000	0.013083
3364.000000	0.013150
3363.000000	0.013202
3362.000000	0.013246
3361.000000	0.013286
3360.000000	0.013327
3359.000000	0.013379
3358.000000	0.013448
3357.000000	0.013533
3356.000000	0.013619
3355.000000	0.013695
3354.000000	0.013756
3353.000000	0.013803
3352.000000	0.013844
3351.000000	0.013891
3350.000000	0.013954
3349.000000	0.014033
3348.000000	0.014117
3347.000000	0.014198
3346.000000	0.014275
3345.000000	0.014353
3344.000000	0.014432
3343.000000	0.014504
3342.000000	0.014564
3341.000000	0.014614
3340.000000	0.014663
3339.000000	0.014717
3338.000000	0.014781
3337.000000	0.014852
3336.000000	0.014923
3335.000000	0.014985
3334.000000	0.015040
3333.000000	0.015096
3332.000000	0.015157
3331.000000	0.015218
3330.000000	0.015269
3329.000000	0.015305
3328.000000	0.015328
3327.000000	0.015353
3326.000000	0.015390
3325.000000	0.015444
3324.000000	0.015508
3323.000000	0.015575
3322.000000	0.015634
3321.000000	0.015680
3320.000000	0.015714
3319.000000	0.015739
3318.000000	0.015760
3317.000000	0.015782
3316.000000	0.015805
3315.000000	0.015834
3314.000000	0.015867
3313.000000	0.015899
3312.000000	0.015923
3311.000000	0.015936
3310.000000	0.015944
3309.000000	0.015953
3308.000000	0.015967
3307.000000	0.015987
3306.000000	0.016015
3305.000000	0.016055
3304.000000	0.016101
3303.000000	0.016145
3302.000000	0.016174
3301.000000	0.016184
3300.000000	0.016177
3299.000000	0.016165
3298.000000	0.016163
3297.000000	0.016179
3296.000000	0.016211
3295.000000	0.016247
3294.000000	0.016273
3293.000000	0.016284
3292.000000	0.016287
3291.000000	0.016293
3290.000000	0.016310
3289.000000	0.016332
3288.000000	0.016344
3287.000000	0.016340
3286.000000	0.016325
3285.000000	0.016314
3284.000000	0.016315
3283.000000	0.016324
3282.000000	0.016333
3281.000000	0.016334
3280.000000	0.016325
3279.000000	0.016307
3278.000000	0.016287
3277.000000	0.016271
3276.000000	0.016256
3275.000000	0.016236
3274.000000	0.016205
3273.000000	0.016170
3272.000000	0.016140
3271.000000	0.016121
3270.000000	0.016115
3269.000000	0.016112
3268.000000	0.016103
3267.000000	0.016081
3266.000000	0.016050
3265.000000	0.016017
3264.000000	0.015988
3263.000000	0.015961
3262.000000	0.015931
3261.000000	0.015894
3260.000000	0.015847
3259.000000	0.015791
3258.000000	0.015729
3257.000000	0.015668
3256.000000	0.015618
3255.000000	0.015583
3254.000000	0.015560
3253.000000	0.015541
3252.000000	0.015518
3251.000000	0.015489
3250.000000	0.015458
3249.000000	0.015427
3248.000000	0.015398
3247.000000	0.015375
3246.000000	0.015360
3245.000000	0.015353
3244.000000	0.015344
3243.000000	0.015328
3242.000000	0.015300
3241.000000	0.015263
3240.000000	0.015221
3239.000000	0.015179
3238.000000	0.015144
3237.000000	0.015121
3236.000000	0.015109
3235.000000	0.015099
3234.000000	0.015081
3233.000000	0.015055
3232.000000	0.015033
3231.000000	0.015023
3230.000000	0.015021
3229.000000	0.015016
3228.000000	0.014999
3227.000000	0.014969
3226.000000	0.014933
3225.000000	0.014900
3224.000000	0.014878
3223.000000	0.014865
3222.000000	0.014852
3221.000000	0.014832
3220.000000	0.014803
3219.000000	0.014771
3218.000000	0.014739
3217.000000	0.014709
3216.000000	0.014677
3215.000000	0.014643
3214.000000	0.014610
3213.000000	0.014581
3212.000000	0.014551
3211.000000	0.014517
3210.000000	0.014479
3209.000000	0.014443
3208.000000	0.014412
3207.000000	0.014389
3206.000000	0.014371
3205.000000	0.014358
3204.000000	0.014348
3203.000000	0.014337
3202.000000	0.014315
3201.000000	0.014276
3200.000000	0.014226
3199.000000	0.014184
3198.000000	0.014160
3197.000000	0.014150
3196.000000	0.014138
3195.000000	0.014112
3194.000000	0.014074
3193.000000	0.014034
3192.000000	0.013998
3191.000000	0.013964
3190.000000	0.013922
3189.000000	0.013871
3188.000000	0.013813
3187.000000	0.013760
3186.000000	0.013718
3185.000000	0.013692
3184.000000	0.013677
3183.000000	0.013665
3182.000000	0.013643
3181.000000	0.013601
3180.000000	0.013540
3179.000000	0.013469
3178.000000	0.013403
3177.000000	0.013351
3176.000000	0.013316
3175.000000	0.013290
3174.000000	0.013265
3173.000000	0.013232
3172.000000	0.013186
3171.000000	0.013132
3170.000000	0.013080
3169.000000	0.013036
3168.000000	0.013002
3167.000000	0.012973
3166.000000	0.012946
3165.000000	0.012918
3164.000000	0.012889
3163.000000	0.012859
3162.000000	0.012829
3161.000000	0.012800
3160.000000	0.012766
3159.000000	0.012723
3158.000000	0.012671
3157.000000	0.012617
3156.000000	0.012569
3155.000000	0.012525
3154.000000	0.012480
3153.000000	0.012434
3152.000000	0.012395
3151.000000	0.012369
3150.000000	0.012357
3149.000000	0.012351
3148.000000	0.012338
3147.000000	0.012307
3146.000000	0.012258
3145.000000	0.012196
3144.000000	0.012133
3143.000000	0.012082
3142.000000	0.012051
3141.000000	0.012040
3140.000000	0.012042
3139.000000	0.012043
3138.000000	0.012034
3137.000000	0.012011
3136.000000	0.011981
3135.000000	0.011949
3134.000000	0.011919
3133.000000	0.011893
3132.000000	0.011874
3131.000000	0.011864
3130.000000	0.011858
3129.000000	0.011855
3128.000000	0.011853
3127.000000	0.011852
3126.000000	0.011846
3125.000000	0.011829
3124.000000	0.011797
3123.000000	0.011753
3122.000000	0.011706
3121.000000	0.011663
3120.000000	0.011626
3119.000000	0.011598
3118.000000	0.011583
3117.000000	0.011585
3116.000000	0.011602
3115.000000	0.011633
3114.000000	0.011671
3113.000000	0.011710
3112.000000	0.011740
3111.000000	0.011755
3110.000000	0.011760
3109.000000	0.011766
3108.000000	0.011778
3107.000000	0.011795
3106.000000	0.011819
3105.000000	0.011849
3104.000000	0.011879
3103.000000	0.011893
3102.000000	0.011883
3101.000000	0.011858
3100.000000	0.011834
3099.000000	0.011825
3098.000000	0.011834
3097.000000	0.011859
3096.000000	0.011892
3095.000000	0.011927
3094.000000	0.011959
3093.000000	0.011992
3092.000000	0.012026
3091.000000	0.012057
3090.000000	0.012072
3089.000000	0.012067
3088.000000	0.012051
3087.000000	0.012045
3086.000000	0.012062
3085.000000	0.012099
3084.000000	0.012139
3083.000000	0.012167
3082.000000	0.012179
3081.000000	0.012177
3080.000000	0.012163
3079.000000	0.012144
3078.000000	0.012129
3077.000000	0.012126
3076.000000	0.012139
3075.000000	0.012161
3074.000000	0.012186
3073.000000	0.012203
3072.000000	0.012206
3071.000000	0.012194
3070.000000	0.012173
3069.000000	0.012151
3068.000000	0.012131
3067.000000	0.012113
3066.000000	0.012107
3065.000000	0.012119
3064.000000	0.012141
3063.000000	0.012153
3062.000000	0.012137
3061.000000	0.012097
3060.000000	0.012053
3059.000000	0.012024
3058.000000	0.012011
3057.000000	0.012000
3056.000000	0.011974
3055.000000	0.011929
3054.000000	0.011871
3053.000000	0.011810
3052.000000	0.011753
3051.000000	0.011704
3050.000000	0.011667
3049.000000	0.011641
3048.000000	0.011618
3047.000000	0.011586
3046.000000	0.011541
3045.000000	0.011485
3044.000000	0.011428
3043.000000	0.011378
3042.000000	0.011341
3041.000000	0.011315
3040.000000	0.011292
3039.000000	0.011262
3038.000000	0.011224
3037.000000	0.011187
3036.000000	0.011156
3035.000000	0.011125
3034.000000	0.011082
3033.000000	0.011026
3032.000000	0.010965
3031.000000	0.010917
3030.000000	0.010887
3029.000000	0.010872
3028.000000	0.010857
3027.000000	0.010833
3026.000000	0.010801
3025.000000	0.010771
3024.000000	0.010745
3023.000000	0.010716
3022.000000	0.010673
3021.000000	0.010619
3020.000000	0.010566
3019.000000	0.010521
3018.000000	0.010486
3017.000000	0.010457
3016.000000	0.010436
3015.000000	0.010423
3014.000000	0.010413
3013.000000	0.010403
3012.000000	0.010391
3011.000000	0.010385
3010.000000	0.010389
3009.000000	0.010396
3008.000000	0.010395
3007.000000	0.010375
3006.000000	0.010339
3005.000000	0.010304
3004.000000	0.010279
3003.000000	0.010265
3002.000000	0.010254
3001.000000	0.010242
3000.000000	0.010232
2999.000000	0.010227
2998.000000	0.010233
2997.000000	0.010248
2996.000000	0.010272
2995.000000	0.010305
2994.000000	0.010342
2993.000000	0.010381
2992.000000	0.010421
2991.000000	0.010460
2990.000000	0.010494
2989.000000	0.010526
2988.000000	0.010563
2987.000000	0.010607
2986.000000	0.010653
2985.000000	0.010694
2984.000000	0.010726
2983.000000	0.010755
2982.000000	0.010786
2981.000000	0.010816
2980.000000	0.010838
2979.000000	0.010849
2978.000000	0.010864
2977.000000	0.010896
2976.000000	0.010946
2975.000000	0.010996
2974.000000	0.011023
2973.000000	0.011024
2972.000000	0.011013
2971.000000	0.011015
2970.000000	0.011039
2969.000000	0.011083
2968.000000	0.011138
2967.000000	0.011193
2966.000000	0.011239
2965.000000	0.011268
2964.000000	0.011284
2963.000000	0.011302
2962.000000	0.011341
2961.000000	0.011403
2960.000000	0.011471
2959.000000	0.011520
2958.000000	0.011540
2957.000000	0.011540
2956.000000	0.011538
2955.000000	0.011546
2954.000000	0.011557
2953.000000	0.011564
2952.000000	0.011563
2951.000000	0.011560
2950.000000	0.011564
2949.000000	0.011580
2948.000000	0.011605
2947.000000	0.011636
2946.000000	0.011664
2945.000000	0.011690
2944.000000	0.011718
2943.000000	0.011755
2942.000000	0.011801
2941.000000	0.011848
2940.000000	0.011887
2939.000000	0.011915
2938.000000	0.011942
2937.000000	0.011980
2936.000000	0.012035
2935.000000	0.012107
2934.000000	0.012186
2933.000000	0.012262
2932.000000	0.012329
2931.000000	0.012390
2930.000000	0.012451
2929.000000	0.012516
2928.000000	0.012579
2927.000000	0.012637
2926.000000	0.012695
2925.000000	0.012761
2924.000000	0.012830
2923.000000	0.012899
2922.000000	0.012971
2921.000000	0.013046
2920.000000	0.013110
2919.000000	0.013138
2918.000000	0.013111
2917.000000	0.013034
2916.000000	0.012924
2915.000000	0.012789
2914.000000	0.012629
2913.000000	0.012452
2912.000000	0.012274
2911.000000	0.012112
2910.000000	0.011972
2909.000000	0.011844
2908.000000	0.011718
2907.000000	0.011595
2906.000000	0.011484
2905.000000	0.011399
2904.000000	0.011339
2903.000000	0.011293
2902.000000	0.011250
2901.000000	0.011206
2900.000000	0.011162
2899.000000	0.011118
2898.000000	0.011073
2897.000000	0.011033
2896.000000	0.011006
2895.000000	0.010993
2894.000000	0.010989
2893.000000	0.010980
2892.000000	0.010958
2891.000000	0.010926
2890.000000	0.010895
2889.000000	0.010873
2888.000000	0.010859
2887.000000	0.010848
2886.000000	0.010836
2885.000000	0.010828
2884.000000	0.010824
2883.000000	0.010821
2882.000000	0.010814
2881.000000	0.010808
2880.000000	0.010810
2879.000000	0.010820
2878.000000	0.010831
2877.000000	0.010836
2876.000000	0.010830
2875.000000	0.010809
2874.000000	0.010774
2873.000000	0.010737
2872.000000	0.010715
2871.000000	0.010713
2870.000000	0.010718
2869.000000	0.010710
2868.000000	0.010679
2867.000000	0.010631
2866.000000	0.010578
2865.000000	0.010532
2864.000000	0.010499
2863.000000	0.010479
2862.000000	0.010470
2861.000000	0.010472
2860.000000	0.010487
2859.000000	0.010515
2858.000000	0.010549
2857.000000	0.010588
2856.000000	0.010641
2855.000000	0.010718
2854.000000	0.010820
2853.000000	0.010929
2852.000000	0.011025
2851.000000	0.011092
2850.000000	0.011119
2849.000000	0.011090
2848.000000	0.010998
2847.000000	0.010850
2846.000000	0.010669
2845.000000	0.010486
2844.000000	0.010323
2843.000000	0.010193
2842.000000	0.010098
2841.000000	0.010026
2840.000000	0.009960
2839.000000	0.009886
2838.000000	0.009810
2837.000000	0.009753
2836.000000	0.009724
2835.000000	0.009714
2834.000000	0.009704
2833.000000	0.009682
2832.000000	0.009651
2831.000000	0.009617
2830.000000	0.009583
2829.000000	0.009550
2828.000000	0.009522
2827.000000	0.009502
2826.000000	0.009490
2825.000000	0.009479
2824.000000	0.009466
2823.000000	0.009451
2822.000000	0.009435
2821.000000	0.009420
2820.000000	0.009406
2819.000000	0.009392
2818.000000	0.009374
2817.000000	0.009348
2816.000000	0.009315
2815.000000	0.009285
2814.000000	0.009268
2813.000000	0.009266
2812.000000	0.009273
2811.000000	0.009276
2810.000000	0.009267
2809.000000	0.009246
2808.000000	0.009221
2807.000000	0.009203
2806.000000	0.009197
2805.000000	0.009200
2804.000000	0.009204
2803.000000	0.009199
2802.000000	0.009187
2801.000000	0.009172
2800.000000	0.009157
2799.000000	0.009140
2798.000000	0.009122
2797.000000	0.009106
2796.000000	0.009093
2795.000000	0.009075
2794.000000	0.009048
2793.000000	0.009017
2792.000000	0.008996
2791.000000	0.008994
2790.000000	0.009005
2789.000000	0.009011
2788.000000	0.009001
2787.000000	0.008977
2786.000000	0.008953
2785.000000	0.008942
2784.000000	0.008945
2783.000000	0.008946
2782.000000	0.008936
2781.000000	0.008918
2780.000000	0.008899
2779.000000	0.008883
2778.000000	0.008866
2777.000000	0.008841
2776.000000	0.008813
2775.000000	0.008791
2774.000000	0.008781
2773.000000	0.008784
2772.000000	0.008790
2771.000000	0.008791
2770.000000	0.008781
2769.000000	0.008760
2768.000000	0.008735
2767.000000	0.008711
2766.000000	0.008692
2765.000000	0.008678
2764.000000	0.008674
2763.000000	0.008680
2762.000000	0.008691
2761.000000	0.008699
2760.000000	0.008695
2759.000000	0.008674
2758.000000	0.008638
2757.000000	0.008597
2756.000000	0.008566
2755.000000	0.008554
2754.000000	0.008554
2753.000000	0.008550
2752.000000	0.008535
2751.000000	0.008516
2750.000000	0.008505
2749.000000	0.008501
2748.000000	0.008495
2747.000000	0.008482
2746.000000	0.008467
2745.000000	0.008454
2744.000000	0.008440
2743.000000	0.008425
2742.000000	0.008412
2741.000000	0.008404
2740.000000	0.008400
2739.000000	0.008394
2738.000000	0.008384
2737.000000	0.008374
2736.000000	0.008363
2735.000000	0.008353
2734.000000	0.008344
2733.000000	0.008336
2732.000000	0.008324
2731.000000	0.008309
2730.000000	0.008294
2729.000000	0.008286
2728.000000	0.008283
2727.000000	0.008282
2726.000000	0.008277
2725.000000	0.008264
2724.000000	0.008244
2723.000000	0.008224
2722.000000	0.008213
2721.000000	0.008214
2720.000000	0.008220
2719.000000	0.008218
2718.000000	0.008208
2717.000000	0.008202
2716.000000	0.008206
2715.000000	0.008214
2714.000000	0.008209
2713.000000	0.008180
2712.000000	0.008138
2711.000000	0.008102
2710.000000	0.008089
2709.000000	0.008094
2708.000000	0.008099
2707.000000	0.008090
2706.000000	0.008070
2705.000000	0.008055
2704.000000	0.008057
2703.000000	0.008073
2702.000000	0.008091
2701.000000	0.008099
2700.000000	0.008090
2699.000000	0.008064
2698.000000	0.008033
2697.000000	0.008010
2696.000000	0.008002
2695.000000	0.008007
2694.000000	0.008015
2693.000000	0.008021
2692.000000	0.008024
2691.000000	0.008024
2690.000000	0.008019
2689.000000	0.008008
2688.000000	0.007989
2687.000000	0.007965
2686.000000	0.007947
2685.000000	0.007943
2684.000000	0.007951
2683.000000	0.007958
2682.000000	0.007956
2681.000000	0.007950
2680.000000	0.007950
2679.000000	0.007954
2678.000000	0.007952
2677.000000	0.007942
2676.000000	0.007929
2675.000000	0.007923
2674.000000	0.007925
2673.000000	0.007931
2672.000000	0.007933
2671.000000	0.007927
2670.000000	0.007913
2669.000000	0.007895
2668.000000	0.007884
2667.000000	0.007885
2666.000000	0.007897
2665.000000	0.007913
2664.000000	0.007925
2663.000000	0.007928
2662.000000	0.007921
2661.000000	0.007908
2660.000000	0.007896
2659.000000	0.007890
2658.000000	0.007887
2657.000000	0.007880
2656.000000	0.007868
2655.000000	0.007855
2654.000000	0.007846
2653.000000	0.007841
2652.000000	0.007831
2651.000000	0.007813
2650.000000	0.007789
2649.000000	0.007760
2648.000000	0.007727
2647.000000	0.007690
2646.000000	0.007652
2645.000000	0.007622
2644.000000	0.007607
2643.000000	0.007606
2642.000000	0.007604
2641.000000	0.007588
2640.000000	0.007557
2639.000000	0.007520
2638.000000	0.007484
2637.000000	0.007451
2636.000000	0.007425
2635.000000	0.007410
2634.000000	0.007406
2633.000000	0.007403
2632.000000	0.007393
2631.000000	0.007379
2630.000000	0.007372
2629.000000	0.007372
2628.000000	0.007365
2627.000000	0.007344
2626.000000	0.007314
2625.000000	0.007288
2624.000000	0.007269
2623.000000	0.007254
2622.000000	0.007243
2621.000000	0.007234
2620.000000	0.007218
2619.000000	0.007193
2618.000000	0.007160
2617.000000	0.007129
2616.000000	0.007104
2615.000000	0.007089
2614.000000	0.007088
2613.000000	0.007097
2612.000000	0.007101
2611.000000	0.007088
2610.000000	0.007061
2609.000000	0.007038
2608.000000	0.007029
2607.000000	0.007032
2606.000000	0.007041
2605.000000	0.007053
2604.000000	0.007064
2603.000000	0.007066
2602.000000	0.007059
2601.000000	0.007047
2600.000000	0.007040
2599.000000	0.007036
2598.000000	0.007030
2597.000000	0.007013
2596.000000	0.006977
2595.000000	0.006921
2594.000000	0.006860
2593.000000	0.006821
2592.000000	0.006825
2591.000000	0.006864
2590.000000	0.006908
2589.000000	0.006927
2588.000000	0.006909
2587.000000	0.006859
2586.000000	0.006796
2585.000000	0.006742
2584.000000	0.006713
2583.000000	0.006712
2582.000000	0.006731
2581.000000	0.006754
2580.000000	0.006768
2579.000000	0.006769
2578.000000	0.006757
2577.000000	0.006737
2576.000000	0.006714
2575.000000	0.006694
2574.000000	0.006683
2573.000000	0.006682
2572.000000	0.006681
2571.000000	0.006673
2570.000000	0.006659
2569.000000	0.006648
2568.000000	0.006649
2567.000000	0.006656
2566.000000	0.006656
2565.000000	0.006637
2564.000000	0.006596
2563.000000	0.006550
2562.000000	0.006528
2561.000000	0.006543
2560.000000	0.006578
2559.000000	0.006602
2558.000000	0.006600
2557.000000	0.006582
2556.000000	0.006560
2555.000000	0.006537
2554.000000	0.006512
2553.000000	0.006494
2552.000000	0.006502
2551.000000	0.006541
2550.000000	0.006595
2549.000000	0.006635
2548.000000	0.006643
2547.000000	0.006622
2546.000000	0.006590
2545.000000	0.006560
2544.000000	0.006530
2543.000000	0.006498
2542.000000	0.006470
2541.000000	0.006462
2540.000000	0.006478
2539.000000	0.006502
2538.000000	0.006519
2537.000000	0.006527
2536.000000	0.006536
2535.000000	0.006548
2534.000000	0.006554
2533.000000	0.006543
2532.000000	0.006508
2531.000000	0.006457
2530.000000	0.006414
2529.000000	0.006404
2528.000000	0.006428
2527.000000	0.006463
2526.000000	0.006478
2525.000000	0.006463
2524.000000	0.006433
2523.000000	0.006411
2522.000000	0.006408
2521.000000	0.006416
2520.000000	0.006422
2519.000000	0.006418
2518.000000	0.006407
2517.000000	0.006395
2516.000000	0.006387
2515.000000	0.006386
2514.000000	0.006393
2513.000000	0.006407
2512.000000	0.006422
2511.000000	0.006427
2510.000000	0.006419
2509.000000	0.006399
2508.000000	0.006380
2507.000000	0.006367
2506.000000	0.006366
2505.000000	0.006372
2504.000000	0.006386
2503.000000	0.006410
2502.000000	0.006443
2501.000000	0.006466
2500.000000	0.006455
2499.000000	0.006408
2498.000000	0.006355
2497.000000	0.006332
2496.000000	0.006340
2495.000000	0.006354
2494.000000	0.006357
2493.000000	0.006353
2492.000000	0.006355
2491.000000	0.006366
2490.000000	0.006383
2489.000000	0.006401
2488.000000	0.006410
2487.000000	0.006402
2486.000000	0.006376
2485.000000	0.006350
2484.000000	0.006340
2483.000000	0.006347
2482.000000	0.006357
2481.000000	0.006351
2480.000000	0.006320
2479.000000	0.006272
2478.000000	0.006232
2477.000000	0.006223
2476.000000	0.006246
2475.000000	0.006275
2474.000000	0.006290
2473.000000	0.006292
2472.000000	0.006293
2471.000000	0.006300
2470.000000	0.006302
2469.000000	0.006292
2468.000000	0.006278
2467.000000	0.006269
2466.000000	0.006269
2465.000000	0.006272
2464.000000	0.006271
2463.000000	0.006262
2462.000000	0.006250
2461.000000	0.006238
2460.000000	0.006230
2459.000000	0.006225
2458.000000	0.006217
2457.000000	0.006201
2456.000000	0.006180
2455.000000	0.006163
2454.000000	0.006159
2453.000000	0.006173
2452.000000	0.006207
2451.000000	0.006254
2450.000000	0.006298
2449.000000	0.006320
2448.000000	0.006311
2447.000000	0.006283
2446.000000	0.006252
2445.000000	0.006228
2444.000000	0.006209
2443.000000	0.006198
2442.000000	0.006199
2441.000000	0.006204
2440.000000	0.006195
2439.000000	0.006176
2438.000000	0.006167
2437.000000	0.006180
2436.000000	0.006198
2435.000000	0.006195
2434.000000	0.006172
2433.000000	0.006145
2432.000000	0.006130
2431.000000	0.006128
2430.000000	0.006132
2429.000000	0.006138
2428.000000	0.006143
2427.000000	0.006150
2426.000000	0.006165
2425.000000	0.006186
2424.000000	0.006197
2423.000000	0.006182
2422.000000	0.006144
2421.000000	0.006105
2420.000000	0.006090
2419.000000	0.006108
2418.000000	0.006148
2417.000000	0.006187
2416.000000	0.006203
2415.000000	0.006194
2414.000000	0.006178
2413.000000	0.006169
2412.000000	0.006161
2411.000000	0.006138
2410.000000	0.006100
2409.000000	0.006061
2408.000000	0.006036
2407.000000	0.006024
2406.000000	0.006021
2405.000000	0.006025
2404.000000	0.006032
2403.000000	0.006038
2402.000000	0.006049
2401.000000	0.006065
2400.000000	0.006080
2399.000000	0.006083
2398.000000	0.006079
2397.000000	0.006081
2396.000000	0.006088
2395.000000	0.006084
2394.000000	0.006060
2393.000000	0.006030
2392.000000	0.006017
2391.000000	0.006027
2390.000000	0.006041
2389.000000	0.006046
2388.000000	0.006040
2387.000000	0.006036
2386.000000	0.006043
2385.000000	0.006058
2384.000000	0.006067
2383.000000	0.006061
2382.000000	0.006048
2381.000000	0.006040
2380.000000	0.006039
2379.000000	0.006039
2378.000000	0.006039
2377.000000	0.006045
2376.000000	0.006059
2375.000000	0.006078
2374.000000	0.006085
2373.000000	0.006066
2372.000000	0.006019
2371.000000	0.005972
2370.000000	0.005957
2369.000000	0.005977
2368.000000	0.006010
2367.000000	0.006037
2366.000000	0.006062
2365.000000	0.006079
2364.000000	0.006070
2363.000000	0.006041
2362.000000	0.006026
2361.000000	0.006043
2360.000000	0.006082
2359.000000	0.006115
2358.000000	0.006123
2357.000000	0.006109
2356.000000	0.006083
2355.000000	0.006082
2354.000000	0.006088
2353.000000	0.006058
2352.000000	0.005989
2351.000000	0.005941
2350.000000	0.005960
2349.000000	0.006034
2348.000000	0.006118
2347.000000	0.006157
2346.000000	0.006144
2345.000000	0.006127
2344.000000	0.006138
2343.000000	0.006167
2342.000000	0.006173
2341.000000	0.006157
2340.000000	0.006162
2339.000000	0.006207
2338.000000	0.006256
2337.000000	0.006264
2336.000000	0.006228
2335.000000	0.006163
2334.000000	0.006082
2333.000000	0.005994
2332.000000	0.005948
2331.000000	0.005971
2330.000000	0.006057
2329.000000	0.006147
2328.000000	0.006229
2327.000000	0.006303
2326.000000	0.006373
2325.000000	0.006409
2324.000000	0.006384
2323.000000	0.006307
2322.000000	0.006228
2321.000000	0.006203
2320.000000	0.006245
2319.000000	0.006311
2318.000000	0.006353
2317.000000	0.006347
2316.000000	0.006318
2315.000000	0.006290
2314.000000	0.006289
2313.000000	0.006309
2312.000000	0.006337
2311.000000	0.006338
2310.000000	0.006303
2309.000000	0.006244
2308.000000	0.006189
2307.000000	0.006145
2306.000000	0.006110
2305.000000	0.006080
2304.000000	0.006068
2303.000000	0.006078
2302.000000	0.006108
2301.000000	0.006141
2300.000000	0.006169
2299.000000	0.006185
2298.000000	0.006196
2297.000000	0.006214
2296.000000	0.006247
2295.000000	0.006287
2294.000000	0.006315
2293.000000	0.006318
2292.000000	0.006306
2291.000000	0.006298
2290.000000	0.006304
2289.000000	0.006319
2288.000000	0.006327
2287.000000	0.006323
2286.000000	0.006312
2285.000000	0.006294
2284.000000	0.006257
2283.000000	0.006196
2282.000000	0.006132
2281.000000	0.006099
2280.000000	0.006106
2279.000000	0.006128
2278.000000	0.006136
2277.000000	0.006123
2276.000000	0.006095
2275.000000	0.006060
2274.000000	0.006023
2273.000000	0.005993
2272.000000	0.005964
2271.000000	0.005926
2270.000000	0.005880
2269.000000	0.005847
2268.000000	0.005847
2267.000000	0.005871
2266.000000	0.005883
2265.000000	0.005859
2264.000000	0.005809
2263.000000	0.005773
2262.000000	0.005791
2261.000000	0.005865
2260.000000	0.005943
2259.000000	0.005966
2258.000000	0.005930
2257.000000	0.005889
2256.000000	0.005879
2255.000000	0.005867
2254.000000	0.005799
2253.000000	0.005682
2252.000000	0.005593
2251.000000	0.005600
2250.000000	0.005691
2249.000000	0.005801
2248.000000	0.005865
2247.000000	0.005866
2246.000000	0.005823
2245.000000	0.005772
2244.000000	0.005749
2243.000000	0.005771
2242.000000	0.005826
2241.000000	0.005877
2240.000000	0.005895
2239.000000	0.005887
2238.000000	0.005898
2237.000000	0.005952
2236.000000	0.006022
2235.000000	0.006042
2234.000000	0.005967
2233.000000	0.005815
2232.000000	0.005648
2231.000000	0.005538
2230.000000	0.005529
2229.000000	0.005612
2228.000000	0.005727
2227.000000	0.005805
2226.000000	0.005820
2225.000000	0.005785
2224.000000	0.005725
2223.000000	0.005647
2222.000000	0.005566
2221.000000	0.005519
2220.000000	0.005534
2219.000000	0.005607
2218.000000	0.005699
2217.000000	0.005766
2216.000000	0.005784
2215.000000	0.005758
2214.000000	0.005716
2213.000000	0.005684
2212.000000	0.005673
2211.000000	0.005685
2210.000000	0.005723
2209.000000	0.005770
2208.000000	0.005785
2207.000000	0.005735
2206.000000	0.005639
2205.000000	0.005562
2204.000000	0.005540
2203.000000	0.005549
2202.000000	0.005545
2201.000000	0.005516
2200.000000	0.005479
2199.000000	0.005461
2198.000000	0.005477
2197.000000	0.005527
2196.000000	0.005586
2195.000000	0.005629
2194.000000	0.005654
2193.000000	0.005691
2192.000000	0.005769
2191.000000	0.005873
2190.000000	0.005932
2189.000000	0.005862
2188.000000	0.005636
2187.000000	0.005332
2186.000000	0.005089
2185.000000	0.004992
2184.000000	0.005022
2183.000000	0.005110
2182.000000	0.005211
2181.000000	0.005315
2180.000000	0.005409
2179.000000	0.005490
2178.000000	0.005582
2177.000000	0.005695
2176.000000	0.005781
2175.000000	0.005771
2174.000000	0.005652
2173.000000	0.005464
2172.000000	0.005258
2171.000000	0.005099
2170.000000	0.005073
2169.000000	0.005212
2168.000000	0.005410
2167.000000	0.005497
2166.000000	0.005411
2165.000000	0.005253
2164.000000	0.005154
2163.000000	0.005130
2162.000000	0.005112
2161.000000	0.005037
2160.000000	0.004896
2159.000000	0.004720
2158.000000	0.004573
2157.000000	0.004497
2156.000000	0.004466
2155.000000	0.004442
2154.000000	0.004442
2153.000000	0.004519
2152.000000	0.004685
2151.000000	0.004898
2150.000000	0.005108
2149.000000	0.005279
2148.000000	0.005372
2147.000000	0.005365
2146.000000	0.005298
2145.000000	0.005237
2144.000000	0.005204
2143.000000	0.005169
2142.000000	0.005121
2141.000000	0.005095
2140.000000	0.005123
2139.000000	0.005186
2138.000000	0.005244
2137.000000	0.005273
2136.000000	0.005265
2135.000000	0.005208
2134.000000	0.005115
2133.000000	0.005032
2132.000000	0.005011
2131.000000	0.005068
2130.000000	0.005175
2129.000000	0.005290
2128.000000	0.005383
2127.000000	0.005453
2126.000000	0.005506
2125.000000	0.005533
2124.000000	0.005521
2123.000000	0.005488
2122.000000	0.005481
2121.000000	0.005528
2120.000000	0.005595
2119.000000	0.005623
2118.000000	0.005602
2117.000000	0.005582
2116.000000	0.005614
2115.000000	0.005707
2114.000000	0.005816
2113.000000	0.005879
2112.000000	0.005857
2111.000000	0.005773
2110.000000	0.005697
2109.000000	0.005676
2108.000000	0.005686
2107.000000	0.005668
2106.000000	0.005616
2105.000000	0.005581
2104.000000	0.005605
2103.000000	0.005679
2102.000000	0.005767
2101.000000	0.005843
2100.000000	0.005888
2099.000000	0.005885
2098.000000	0.005837
2097.000000	0.005774
2096.000000	0.005725
2095.000000	0.005694
2094.000000	0.005670
2093.000000	0.005642
2092.000000	0.005613
2091.000000	0.005606
2090.000000	0.005649
2089.000000	0.005738
2088.000000	0.005811
2087.000000	0.005805
2086.000000	0.005719
2085.000000	0.005611
2084.000000	0.005520
2083.000000	0.005448
2082.000000	0.005395
2081.000000	0.005384
2080.000000	0.005424
2079.000000	0.005489
2078.000000	0.005540
2077.000000	0.005552
2076.000000	0.005519
2075.000000	0.005443
2074.000000	0.005354
2073.000000	0.005305
2072.000000	0.005329
2071.000000	0.005417
2070.000000	0.005527
2069.000000	0.005604
2068.000000	0.005603
2067.000000	0.005529
2066.000000	0.005451
2065.000000	0.005439
2064.000000	0.005472
2063.000000	0.005458
2062.000000	0.005351
2061.000000	0.005213
2060.000000	0.005142
2059.000000	0.005174
2058.000000	0.005264
2057.000000	0.005338
2056.000000	0.005354
2055.000000	0.005324
2054.000000	0.005317
2053.000000	0.005381
2052.000000	0.005477
2051.000000	0.005502
2050.000000	0.005392
2049.000000	0.005190
2048.000000	0.004990
2047.000000	0.004860
2046.000000	0.004818
2045.000000	0.004864
2044.000000	0.004964
2043.000000	0.005049
2042.000000	0.005064
2041.000000	0.005001
2040.000000	0.004869
2039.000000	0.004672
2038.000000	0.004433
2037.000000	0.004216
2036.000000	0.004075
2035.000000	0.004021
2034.000000	0.004037
2033.000000	0.004118
2032.000000	0.004256
2031.000000	0.004441
2030.000000	0.004669
2029.000000	0.004913
2028.000000	0.005086
2027.000000	0.005096
2026.000000	0.004947
2025.000000	0.004752
2024.000000	0.004603
2023.000000	0.004494
2022.000000	0.004383
2021.000000	0.004299
2020.000000	0.004316
2019.000000	0.004440
2018.000000	0.004565
2017.000000	0.004561
2016.000000	0.004402
2015.000000	0.004200
2014.000000	0.004090
2013.000000	0.004093
2012.000000	0.004136
2011.000000	0.004178
2010.000000	0.004273
2009.000000	0.004461
2008.000000	0.004667
2007.000000	0.004776
2006.000000	0.004779
2005.000000	0.004757
2004.000000	0.004753
2003.000000	0.004736
2002.000000	0.004666
2001.000000	0.004541
2000.000000	0.004389
1999.000000	0.004262
1998.000000	0.004222
1997.000000	0.004278
1996.000000	0.004362
1995.000000	0.004412
1994.000000	0.004459
1993.000000	0.004571
1992.000000	0.004732
1991.000000	0.004834
1990.000000	0.004802
1989.000000	0.004674
1988.000000	0.004549
1987.000000	0.004501
1986.000000	0.004541
1985.000000	0.004615
1984.000000	0.004663
1983.000000	0.004699
1982.000000	0.004796
1981.000000	0.004975
1980.000000	0.005127
1979.000000	0.005131
1978.000000	0.004981
1977.000000	0.004757
1976.000000	0.004506
1975.000000	0.004259
1974.000000	0.004106
1973.000000	0.004106
1972.000000	0.004163
1971.000000	0.004131
1970.000000	0.004012
1969.000000	0.003956
1968.000000	0.004050
1967.000000	0.004218
1966.000000	0.004342
1965.000000	0.004392
1964.000000	0.004398
1963.000000	0.004388
1962.000000	0.004395
1961.000000	0.004453
1960.000000	0.004569
1959.000000	0.004713
1958.000000	0.004843
1957.000000	0.004927
1956.000000	0.004964
1955.000000	0.004991
1954.000000	0.005058
1953.000000	0.005139
1952.000000	0.005132
1951.000000	0.004982
1950.000000	0.004767
1949.000000	0.004610
1948.000000	0.004535
1947.000000	0.004479
1946.000000	0.004425
1945.000000	0.004426
1944.000000	0.004502
1943.000000	0.004600
1942.000000	0.004663
1941.000000	0.004688
1940.000000	0.004686
1939.000000	0.004651
1938.000000	0.004584
1937.000000	0.004519
1936.000000	0.004485
1935.000000	0.004470
1934.000000	0.004445
1933.000000	0.004399
1932.000000	0.004356
1931.000000	0.004356
1930.000000	0.004422
1929.000000	0.004530
1928.000000	0.004618
1927.000000	0.004659
1926.000000	0.004695
1925.000000	0.004782
1924.000000	0.004905
1923.000000	0.004993
1922.000000	0.005002
1921.000000	0.004951
1920.000000	0.004877
1919.000000	0.004805
1918.000000	0.004763
1917.000000	0.004765
1916.000000	0.004778
1915.000000	0.004763
1914.000000	0.004717
1913.000000	0.004668
1912.000000	0.004631
1911.000000	0.004608
1910.000000	0.004597
1909.000000	0.004594
1908.000000	0.004577
1907.000000	0.004549
1906.000000	0.004550
1905.000000	0.004609
1904.000000	0.004681
1903.000000	0.004698
1902.000000	0.004666
1901.000000	0.004648
1900.000000	0.004672
1899.000000	0.004711
1898.000000	0.004740
1897.000000	0.004765
1896.000000	0.004778
1895.000000	0.004748
1894.000000	0.004674
1893.000000	0.004592
1892.000000	0.004531
1891.000000	0.004493
1890.000000	0.004483
1889.000000	0.004513
1888.000000	0.004561
1887.000000	0.004588
1886.000000	0.004585
1885.000000	0.004571
1884.000000	0.004561
1883.000000	0.004560
1882.000000	0.004580
1881.000000	0.004619
1880.000000	0.004646
1879.000000	0.004629
1878.000000	0.004587
1877.000000	0.004579
1876.000000	0.004628
1875.000000	0.004698
1874.000000	0.004745
1873.000000	0.004749
1872.000000	0.004705
1871.000000	0.004624
1870.000000	0.004548
1869.000000	0.004518
1868.000000	0.004525
1867.000000	0.004524
1866.000000	0.004524
1865.000000	0.004555
1864.000000	0.004599
1863.000000	0.004604
1862.000000	0.004562
1861.000000	0.004521
1860.000000	0.004516
1859.000000	0.004535
1858.000000	0.004553
1857.000000	0.004562
1856.000000	0.004556
1855.000000	0.004525
1854.000000	0.004487
1853.000000	0.004465
1852.000000	0.004459
1851.000000	0.004453
1850.000000	0.004446
1849.000000	0.004451
1848.000000	0.004460
1847.000000	0.004452
1846.000000	0.004428
1845.000000	0.004418
1844.000000	0.004432
1843.000000	0.004447
1842.000000	0.004458
1841.000000	0.004484
1840.000000	0.004514
1839.000000	0.004513
1838.000000	0.004483
1837.000000	0.004461
1836.000000	0.004467
1835.000000	0.004480
1834.000000	0.004481
1833.000000	0.004474
1832.000000	0.004464
1831.000000	0.004450
1830.000000	0.004427
1829.000000	0.004398
1828.000000	0.004374
1827.000000	0.004369
1826.000000	0.004397
1825.000000	0.004454
1824.000000	0.004501
1823.000000	0.004503
1822.000000	0.004479
1821.000000	0.004470
1820.000000	0.004483
1819.000000	0.004486
1818.000000	0.004472
1817.000000	0.004475
1816.000000	0.004510
1815.000000	0.004547
1814.000000	0.004554
1813.000000	0.004540
1812.000000	0.004522
1811.000000	0.004498
1810.000000	0.004469
1809.000000	0.004461
1808.000000	0.004479
1807.000000	0.004493
1806.000000	0.004481
1805.000000	0.004455
1804.000000	0.004430
1803.000000	0.004410
1802.000000	0.004402
1801.000000	0.004424
1800.000000	0.004461
1799.000000	0.004474
1798.000000	0.004461
1797.000000	0.004454
1796.000000	0.004465
1795.000000	0.004463
1794.000000	0.004427
1793.000000	0.004382
1792.000000	0.004364
1791.000000	0.004352
1790.000000	0.004323
1789.000000	0.004300
1788.000000	0.004297
1787.000000	0.004300
1786.000000	0.004300
1785.000000	0.004304
1784.000000	0.004310
1783.000000	0.004301
1782.000000	0.004275
1781.000000	0.004249
1780.000000	0.004232
1779.000000	0.004218
1778.000000	0.004207
1777.000000	0.004208
1776.000000	0.004218
1775.000000	0.004216
1774.000000	0.004181
1773.000000	0.004114
1772.000000	0.004054
1771.000000	0.004013
1770.000000	0.003991
1769.000000	0.003998
1768.000000	0.004024
1767.000000	0.004037
1766.000000	0.004020
1765.000000	0.003999
1764.000000	0.003998
1763.000000	0.004010
1762.000000	0.004018
1761.000000	0.004017
1760.000000	0.004011
1759.000000	0.004005
1758.000000	0.003997
1757.000000	0.003981
1756.000000	0.003948
1755.000000	0.003898
1754.000000	0.003847
1753.000000	0.003802
1752.000000	0.003762
1751.000000	0.003726
1750.000000	0.003702
1749.000000	0.003706
1748.000000	0.003740
1747.000000	0.003780
1746.000000	0.003801
1745.000000	0.003800
1744.000000	0.003790
1743.000000	0.003771
1742.000000	0.003739
1741.000000	0.003706
1740.000000	0.003689
1739.000000	0.003687
1738.000000	0.003691
1737.000000	0.003716
1736.000000	0.003753
1735.000000	0.003766
1734.000000	0.003773
1733.000000	0.003779
1732.000000	0.003761
1731.000000	0.003741
1730.000000	0.003743
1729.000000	0.003773
1728.000000	0.003810
1727.000000	0.003829
1726.000000	0.003824
1725.000000	0.003811
1724.000000	0.003802
1723.000000	0.003777
1722.000000	0.003730
1721.000000	0.003686
1720.000000	0.003655
1719.000000	0.003620
1718.000000	0.003600
1717.000000	0.003660
1716.000000	0.003776
1715.000000	0.003886
1714.000000	0.004006
1713.000000	0.004180
1712.000000	0.004391
1711.000000	0.004597
1710.000000	0.004801
1709.000000	0.005041
1708.000000	0.005326
1707.000000	0.005633
1706.000000	0.005966
1705.000000	0.006350
1704.000000	0.006754
1703.000000	0.007145
1702.000000	0.007542
1701.000000	0.008011
1700.000000	0.008547
1699.000000	0.008967
1698.000000	0.009305
1697.000000	0.009768
1696.000000	0.010390
1695.000000	0.010954
1694.000000	0.011333
1693.000000	0.011661
1692.000000	0.012055
1691.000000	0.012511
1690.000000	0.012981
1689.000000	0.013446
1688.000000	0.013897
1687.000000	0.014331
1686.000000	0.014776
1685.000000	0.015342
1684.000000	0.016073
1683.000000	0.016743
1682.000000	0.017272
1681.000000	0.017805
1680.000000	0.018403
1679.000000	0.019017
1678.000000	0.019627
1677.000000	0.020294
1676.000000	0.021071
1675.000000	0.021888
1674.000000	0.022609
1673.000000	0.023237
1672.000000	0.023875
1671.000000	0.024588
1670.000000	0.025394
1669.000000	0.026251
1668.000000	0.027058
1667.000000	0.027761
1666.000000	0.028402
1665.000000	0.029064
1664.000000	0.029791
1663.000000	0.030544
1662.000000	0.031243
1661.000000	0.031857
1660.000000	0.032423
1659.000000	0.032964
1658.000000	0.033477
1657.000000	0.033972
1656.000000	0.034465
1655.000000	0.034946
1654.000000	0.035444
1653.000000	0.036019
1652.000000	0.036425
1651.000000	0.036563
1650.000000	0.036635
1649.000000	0.036770
1648.000000	0.036988
1647.000000	0.037249
1646.000000	0.037493
1645.000000	0.037689
1644.000000	0.037854
1643.000000	0.038004
1642.000000	0.038152
1641.000000	0.038309
1640.000000	0.038470
1639.000000	0.038617
1638.000000	0.038744
1637.000000	0.038873
1636.000000	0.039026
1635.000000	0.039153
1634.000000	0.039188
1633.000000	0.039173
1632.000000	0.039156
1631.000000	0.039114
1630.000000	0.038996
1629.000000	0.038784
1628.000000	0.038491
1627.000000	0.038142
1626.000000	0.037747
1625.000000	0.037286
1624.000000	0.036730
1623.000000	0.036098
1622.000000	0.035461
1621.000000	0.034867
1620.000000	0.034312
1619.000000	0.033740
1618.000000	0.033059
1617.000000	0.032231
1616.000000	0.031350
1615.000000	0.030553
1614.000000	0.029881
1613.000000	0.029270
1612.000000	0.028641
1611.000000	0.027977
1610.000000	0.027321
1609.000000	0.026691
1608.000000	0.026080
1607.000000	0.025502
1606.000000	0.024980
1605.000000	0.024494
1604.000000	0.024016
1603.000000	0.023559
1602.000000	0.023150
1601.000000	0.022786
1600.000000	0.022453
1599.000000	0.022160
1598.000000	0.021911
1597.000000	0.021676
1596.000000	0.021436
1595.000000	0.021223
1594.000000	0.021078
1593.000000	0.020987
1592.000000	0.020910
1591.000000	0.020850
1590.000000	0.020840
1589.000000	0.020877
1588.000000	0.020932
1587.000000	0.020998
1586.000000	0.021086
1585.000000	0.021188
1584.000000	0.021301
1583.000000	0.021464
1582.000000	0.021705
1581.000000	0.021976
1580.000000	0.022220
1579.000000	0.022456
1578.000000	0.022733
1577.000000	0.023056
1576.000000	0.023379
1575.000000	0.023661
1574.000000	0.023923
1573.000000	0.024207
1572.000000	0.024533
1571.000000	0.024907
1570.000000	0.025341
1569.000000	0.025785
1568.000000	0.026172
1567.000000	0.026548
1566.000000	0.026990
1565.000000	0.027497
1564.000000	0.028004
1563.000000	0.028480
1562.000000	0.028938
1561.000000	0.029360
1560.000000	0.029751
1559.000000	0.030322
1558.000000	0.030999
1557.000000	0.031495
1556.000000	0.031883
1555.000000	0.032275
1554.000000	0.032672
1553.000000	0.033023
1552.000000	0.033327
1551.000000	0.033617
1550.000000	0.033903
1549.000000	0.034159
1548.000000	0.034363
1547.000000	0.034527
1546.000000	0.034674
1545.000000	0.034816
1544.000000	0.034950
1543.000000	0.035052
1542.000000	0.035096
1541.000000	0.035096
1540.000000	0.035093
1539.000000	0.035063
1538.000000	0.034969
1537.000000	0.034851
1536.000000	0.034728
1535.000000	0.034561
1534.000000	0.034324
1533.000000	0.034069
1532.000000	0.033830
1531.000000	0.033589
1530.000000	0.033337
1529.000000	0.033090
1528.000000	0.032855
1527.000000	0.032598
1526.000000	0.032298
1525.000000	0.031993
1524.000000	0.031731
1523.000000	0.031492
1522.000000	0.031224
1521.000000	0.030927
1520.000000	0.030623
1519.000000	0.030318
1518.000000	0.030011
1517.000000	0.029713
1516.000000	0.029442
1515.000000	0.029182
1514.000000	0.028898
1513.000000	0.028572
1512.000000	0.028212
1511.000000	0.027848
1510.000000	0.027501
1509.000000	0.027147
1508.000000	0.026710
1507.000000	0.026147
1506.000000	0.025543
1505.000000	0.025026
1504.000000	0.024626
1503.000000	0.024291
1502.000000	0.023955
1501.000000	0.023591
1500.000000	0.023213
1499.000000	0.022831
1498.000000	0.022419
1497.000000	0.021976
1496.000000	0.021542
1495.000000	0.021138
1494.000000	0.020773
1493.000000	0.020456
1492.000000	0.020156
1491.000000	0.019816
1490.000000	0.019443
1489.000000	0.019127
1488.000000	0.018917
1487.000000	0.018763
1486.000000	0.018624
1485.000000	0.018509
1484.000000	0.018422
1483.000000	0.018355
1482.000000	0.018311
1481.000000	0.018320
1480.000000	0.018385
1479.000000	0.018476
1478.000000	0.018580
1477.000000	0.018725
1476.000000	0.018925
1475.000000	0.019143
1474.000000	0.019361
1473.000000	0.019617
1472.000000	0.019925
1471.000000	0.020206
1470.000000	0.020429
1469.000000	0.020645
1468.000000	0.020884
1467.000000	0.021133
1466.000000	0.021379
1465.000000	0.021636
1464.000000	0.021898
1463.000000	0.022129
1462.000000	0.022335
1461.000000	0.022564
1460.000000	0.022855
1459.000000	0.023219
1458.000000	0.023664
1457.000000	0.024164
1456.000000	0.024578
1455.000000	0.024820
1454.000000	0.024976
1453.000000	0.025127
1452.000000	0.025274
1451.000000	0.025383
1450.000000	0.025444
1449.000000	0.025475
1448.000000	0.025481
1447.000000	0.025453
1446.000000	0.025393
1445.000000	0.025314
1444.000000	0.025224
1443.000000	0.025117
1442.000000	0.024985
1441.000000	0.024840
1440.000000	0.024704
1439.000000	0.024575
1438.000000	0.024396
1437.000000	0.024132
1436.000000	0.023830
1435.000000	0.023554
1434.000000	0.023327
1433.000000	0.023136
1432.000000	0.022951
1431.000000	0.022754
1430.000000	0.022551
1429.000000	0.022372
1428.000000	0.022242
1427.000000	0.022154
1426.000000	0.022078
1425.000000	0.021991
1424.000000	0.021911
1423.000000	0.021871
1422.000000	0.021870
1421.000000	0.021870
1420.000000	0.021845
1419.000000	0.021807
1418.000000	0.021760
1417.000000	0.021702
1416.000000	0.021662
1415.000000	0.021651
1414.000000	0.021657
1413.000000	0.021677
1412.000000	0.021726
1411.000000	0.021810
1410.000000	0.021903
1409.000000	0.021989
1408.000000	0.022076
1407.000000	0.022175
1406.000000	0.022286
1405.000000	0.022395
1404.000000	0.022488
1403.000000	0.022557
1402.000000	0.022601
1401.000000	0.022625
1400.000000	0.022632
1399.000000	0.022621
1398.000000	0.022592
1397.000000	0.022552
1396.000000	0.022502
1395.000000	0.022428
1394.000000	0.022319
1393.000000	0.022177
1392.000000	0.022028
1391.000000	0.021890
1390.000000	0.021757
1389.000000	0.021615
1388.000000	0.021462
1387.000000	0.021304
1386.000000	0.021140
1385.000000	0.020972
1384.000000	0.020806
1383.000000	0.020646
1382.000000	0.020491
1381.000000	0.020334
1380.000000	0.020164
1379.000000	0.019971
1378.000000	0.019760
1377.000000	0.019546
1376.000000	0.019334
1375.000000	0.019123
1374.000000	0.018909
1373.000000	0.018688
1372.000000	0.018459
1371.000000	0.018223
1370.000000	0.017981
1369.000000	0.017721
1368.000000	0.017440
1367.000000	0.017149
1366.000000	0.016870
1365.000000	0.016612
1364.000000	0.016375
1363.000000	0.016154
1362.000000	0.015953
1361.000000	0.015774
1360.000000	0.015623
1359.000000	0.015506
1358.000000	0.015427
1357.000000	0.015385
1356.000000	0.015376
1355.000000	0.015404
1354.000000	0.015473
1353.000000	0.015584
1352.000000	0.015733
1351.000000	0.015906
1350.000000	0.016095
1349.000000	0.016288
1348.000000	0.016475
1347.000000	0.016656
1346.000000	0.016836
1345.000000	0.017019
1344.000000	0.017203
1343.000000	0.017391
1342.000000	0.017588
1341.000000	0.017797
1340.000000	0.018005
1339.000000	0.018190
1338.000000	0.018332
1337.000000	0.018422
1336.000000	0.018455
1335.000000	0.018435
1334.000000	0.018371
1333.000000	0.018282
1332.000000	0.018180
1331.000000	0.018062
1330.000000	0.017928
1329.000000	0.017782
1328.000000	0.017634
1327.000000	0.017488
1326.000000	0.017352
1325.000000	0.017229
1324.000000	0.017130
1323.000000	0.017063
1322.000000	0.017026
1321.000000	0.017005
1320.000000	0.016982
1319.000000	0.016950
1318.000000	0.016910
1317.000000	0.016866
1316.000000	0.016821
1315.000000	0.016769
1314.000000	0.016695
1313.000000	0.016591
1312.000000	0.016467
1311.000000	0.016343
1310.000000	0.016232
1309.000000	0.016130
1308.000000	0.016028
1307.000000	0.015926
1306.000000	0.015827
1305.000000	0.015729
1304.000000	0.015629
1303.000000	0.015533
1302.000000	0.015446
1301.000000	0.015365
1300.000000	0.015284
1299.000000	0.015206
1298.000000	0.015143
1297.000000	0.015101
1296.000000	0.015081
1295.000000	0.015085
1294.000000	0.015115
1293.000000	0.015167
1292.000000	0.015232
1291.000000	0.015309
1290.000000	0.015410
1289.000000	0.015542
1288.000000	0.015694
1287.000000	0.015838
1286.000000	0.015959
1285.000000	0.016065
1284.000000	0.016178
1283.000000	0.016305
1282.000000	0.016427
1281.000000	0.016512
1280.000000	0.016542
1279.000000	0.016521
1278.000000	0.016479
1277.000000	0.016441
1276.000000	0.016421
1275.000000	0.016413
1274.000000	0.016401
1273.000000	0.016371
1272.000000	0.016326
1271.000000	0.016283
1270.000000	0.016268
1269.000000	0.016294
1268.000000	0.016354
1267.000000	0.016425
1266.000000	0.016491
1265.000000	0.016554
1264.000000	0.016633
1263.000000	0.016738
1262.000000	0.016865
1261.000000	0.016995
1260.000000	0.017113
1259.000000	0.017226
1258.000000	0.017351
1257.000000	0.017497
1256.000000	0.017660
1255.000000	0.017834
1254.000000	0.018018
1253.000000	0.018216
1252.000000	0.018421
1251.000000	0.018626
1250.000000	0.018831
1249.000000	0.019045
1248.000000	0.019275
1247.000000	0.019521
1246.000000	0.019778
1245.000000	0.020037
1244.000000	0.020282
1243.000000	0.020498
1242.000000	0.020684
1241.000000	0.020848
1240.000000	0.020989
1239.000000	0.021093
1238.000000	0.021163
1237.000000	0.021218
1236.000000	0.021266
1235.000000	0.021287
1234.000000	0.021256
1233.000000	0.021167
1232.000000	0.021029
1231.000000	0.020845
1230.000000	0.020609
1229.000000	0.020321
1228.000000	0.019992
1227.000000	0.019636
1226.000000	0.019265
1225.000000	0.018883
1224.000000	0.018491
1223.000000	0.018086
1222.000000	0.017663
1221.000000	0.017229
1220.000000	0.016805
1219.000000	0.016423
1218.000000	0.016112
1217.000000	0.015887
1216.000000	0.015744
1215.000000	0.015668
1214.000000	0.015644
1213.000000	0.015658
1212.000000	0.015695
1211.000000	0.015741
1210.000000	0.015798
1209.000000	0.015876
1208.000000	0.015980
1207.000000	0.016096
1206.000000	0.016204
1205.000000	0.016290
1204.000000	0.016343
1203.000000	0.016355
1202.000000	0.016324
1201.000000	0.016258
1200.000000	0.016161
1199.000000	0.016026
1198.000000	0.015847
1197.000000	0.015632
1196.000000	0.015398
1195.000000	0.015159
1194.000000	0.014922
1193.000000	0.014691
1192.000000	0.014464
1191.000000	0.014233
1190.000000	0.013993
1189.000000	0.013755
1188.000000	0.013530
1187.000000	0.013320
1186.000000	0.013117
1185.000000	0.012925
1184.000000	0.012755
1183.000000	0.012615
1182.000000	0.012501
1181.000000	0.012402
1180.000000	0.012317
1179.000000	0.012252
1178.000000	0.012206
1177.000000	0.012170
1176.000000	0.012130
1175.000000	0.012079
1174.000000	0.012024
1173.000000	0.011989
1172.000000	0.011989
1171.000000	0.012014
1170.000000	0.012042
1169.000000	0.012066
1168.000000	0.012100
1167.000000	0.012149
1166.000000	0.012199
1165.000000	0.012235
1164.000000	0.012257
1163.000000	0.012272
1162.000000	0.012278
1161.000000	0.012268
1160.000000	0.012244
1159.000000	0.012202
1158.000000	0.012132
1157.000000	0.012025
1156.000000	0.011896
1155.000000	0.011766
1154.000000	0.011641
1153.000000	0.011509
1152.000000	0.011362
1151.000000	0.011200
1150.000000	0.011030
1149.000000	0.010855
1148.000000	0.010683
1147.000000	0.010521
1146.000000	0.010377
1145.000000	0.010257
1144.000000	0.010166
1143.000000	0.010096
1142.000000	0.010026
1141.000000	0.009940
1140.000000	0.009838
1139.000000	0.009737
1138.000000	0.009653
1137.000000	0.009593
1136.000000	0.009559
1135.000000	0.009543
1134.000000	0.009532
1133.000000	0.009519
1132.000000	0.009507
1131.000000	0.009496
1130.000000	0.009476
1129.000000	0.009443
1128.000000	0.009410
1127.000000	0.009395
1126.000000	0.009400
1125.000000	0.009417
1124.000000	0.009443
1123.000000	0.009475
1122.000000	0.009503
1121.000000	0.009511
1120.000000	0.009501
1119.000000	0.009487
1118.000000	0.009483
1117.000000	0.009501
1116.000000	0.009545
1115.000000	0.009604
1114.000000	0.009658
1113.000000	0.009688
1112.000000	0.009703
1111.000000	0.009723
1110.000000	0.009753
1109.000000	0.009783
1108.000000	0.009809
1107.000000	0.009839
1106.000000	0.009876
1105.000000	0.009913
1104.000000	0.009948
1103.000000	0.009993
1102.000000	0.010058
1101.000000	0.010136
1100.000000	0.010201
1099.000000	0.010234
1098.000000	0.010243
1097.000000	0.010259
1096.000000	0.010310
1095.000000	0.010399
1094.000000	0.010509
1093.000000	0.010631
1092.000000	0.010779
1091.000000	0.010972
1090.000000	0.011210
1089.000000	0.011472
1088.000000	0.011740
1087.000000	0.012003
1086.000000	0.012251
1085.000000	0.012475
1084.000000	0.012663
1083.000000	0.012808
1082.000000	0.012903
1081.000000	0.012945
1080.000000	0.012935
1079.000000	0.012880
1078.000000	0.012785
1077.000000	0.012657
1076.000000	0.012511
1075.000000	0.012359
1074.000000	0.012206
1073.000000	0.012051
1072.000000	0.011899
1071.000000	0.011762
1070.000000	0.011651
1069.000000	0.011576
1068.000000	0.011539
1067.000000	0.011544
1066.000000	0.011580
1065.000000	0.011638
1064.000000	0.011708
1063.000000	0.011777
1062.000000	0.011823
1061.000000	0.011827
1060.000000	0.011793
1059.000000	0.011747
1058.000000	0.011710
1057.000000	0.011674
1056.000000	0.011622
1055.000000	0.011554
1054.000000	0.011490
1053.000000	0.011442
1052.000000	0.011405
1051.000000	0.011363
1050.000000	0.011313
1049.000000	0.011270
1048.000000	0.011251
1047.000000	0.011256
1046.000000	0.011264
1045.000000	0.011252
1044.000000	0.011219
1043.000000	0.011188
1042.000000	0.011189
1041.000000	0.011236
1040.000000	0.011332
1039.000000	0.011469
1038.000000	0.011639
1037.000000	0.011823
1036.000000	0.011998
1035.000000	0.012146
1034.000000	0.012264
1033.000000	0.012361
1032.000000	0.012445
1031.000000	0.012517
1030.000000	0.012569
1029.000000	0.012584
1028.000000	0.012552
1027.000000	0.012477
1026.000000	0.012377
1025.000000	0.012273
1024.000000	0.012177
1023.000000	0.012096
1022.000000	0.012037
1021.000000	0.011998
1020.000000	0.011972
1019.000000	0.011948
1018.000000	0.011920
1017.000000	0.011876
1016.000000	0.011797
1015.000000	0.011668
1014.000000	0.011500
1013.000000	0.011322
1012.000000	0.011148
1011.000000	0.010969
1010.000000	0.010765
1009.000000	0.010537
1008.000000	0.010308
1007.000000	0.010097
1006.000000	0.009903
1005.000000	0.009716
1004.000000	0.009532
1003.000000	0.009360
1002.000000	0.009202
1001.000000	0.009047
1000.000000	0.008884
999.000000	0.008714
998.000000	0.008550
997.000000	0.008402
996.000000	0.008259
995.000000	0.008107
994.000000	0.007950
993.000000	0.007803
992.000000	0.007673
991.000000	0.007553
990.000000	0.007430
989.000000	0.007310
988.000000	0.007212
987.000000	0.007143
986.000000	0.007083
985.000000	0.007013
984.000000	0.006938
983.000000	0.006886
982.000000	0.006879
981.000000	0.006907
980.000000	0.006940
979.000000	0.006950
978.000000	0.006931
977.000000	0.006901
976.000000	0.006886
975.000000	0.006897
974.000000	0.006920
973.000000	0.006923
972.000000	0.006885
971.000000	0.006816
970.000000	0.006738
969.000000	0.006664
968.000000	0.006582
967.000000	0.006479
966.000000	0.006362
965.000000	0.006251
964.000000	0.006162
963.000000	0.006099
962.000000	0.006058
961.000000	0.006030
960.000000	0.006002
959.000000	0.005955
958.000000	0.005880
957.000000	0.005783
956.000000	0.005681
955.000000	0.005586
954.000000	0.005505
953.000000	0.005442
952.000000	0.005397
951.000000	0.005364
950.000000	0.005341
949.000000	0.005331
948.000000	0.005335
947.000000	0.005348
946.000000	0.005357
945.000000	0.005357
944.000000	0.005356
943.000000	0.005368
942.000000	0.005400
941.000000	0.005443
940.000000	0.005475
939.000000	0.005476
938.000000	0.005436
937.000000	0.005373
936.000000	0.005314
935.000000	0.005272
934.000000	0.005243
933.000000	0.005215
932.000000	0.005181
931.000000	0.005134
930.000000	0.005069
929.000000	0.004998
928.000000	0.004940
927.000000	0.004909
926.000000	0.004897
925.000000	0.004886
924.000000	0.004870
923.000000	0.004853
922.000000	0.004838
921.000000	0.004823
920.000000	0.004804
919.000000	0.004768
918.000000	0.004710
917.000000	0.004637
916.000000	0.004563
915.000000	0.004491
914.000000	0.004413
913.000000	0.004324
912.000000	0.004237
911.000000	0.004165
910.000000	0.004112
909.000000	0.004075
908.000000	0.004059
907.000000	0.004060
906.000000	0.004060
905.000000	0.004039
904.000000	0.004003
903.000000	0.003977
902.000000	0.003969
901.000000	0.003966
900.000000	0.003952
899.000000	0.003925
898.000000	0.003886
897.000000	0.003838
896.000000	0.003788
895.000000	0.003759
894.000000	0.003756
893.000000	0.003754
892.000000	0.003722
891.000000	0.003663
890.000000	0.003609
889.000000	0.003596
888.000000	0.003634
887.000000	0.003719
886.000000	0.003844
885.000000	0.003990
884.000000	0.004136
883.000000	0.004273
882.000000	0.004426
881.000000	0.004632
880.000000	0.004908
879.000000	0.005234
878.000000	0.005560
877.000000	0.005826
876.000000	0.005980
875.000000	0.006001
874.000000	0.005908
873.000000	0.005741
872.000000	0.005532
871.000000	0.005295
870.000000	0.005049
869.000000	0.004828
868.000000	0.004665
867.000000	0.004560
866.000000	0.004493
865.000000	0.004440
864.000000	0.004391
863.000000	0.004333
862.000000	0.004257
861.000000	0.004168
860.000000	0.004094
859.000000	0.004067
858.000000	0.004087
857.000000	0.004125
856.000000	0.004151
855.000000	0.004166
854.000000	0.004194
853.000000	0.004247
852.000000	0.004306
851.000000	0.004351
850.000000	0.004381
849.000000	0.004400
848.000000	0.004390
847.000000	0.004315
846.000000	0.004171
845.000000	0.004003
844.000000	0.003864
843.000000	0.003779
842.000000	0.003746
841.000000	0.003758
840.000000	0.003806
839.000000	0.003862
838.000000	0.003894
837.000000	0.003888
836.000000	0.003853
835.000000	0.003809
834.000000	0.003766
833.000000	0.003732
832.000000	0.003709
831.000000	0.003691
830.000000	0.003674
829.000000	0.003657
828.000000	0.003642
827.000000	0.003631
826.000000	0.003627
825.000000	0.003647
824.000000	0.003700
823.000000	0.003770
822.000000	0.003829
821.000000	0.003863
820.000000	0.003882
819.000000	0.003899
818.000000	0.003912
817.000000	0.003908
816.000000	0.003888
815.000000	0.003863
814.000000	0.003852
813.000000	0.003855
812.000000	0.003848
811.000000	0.003804
810.000000	0.003729
809.000000	0.003668
808.000000	0.003656
807.000000	0.003686
806.000000	0.003728
805.000000	0.003759
804.000000	0.003774
803.000000	0.003765
802.000000	0.003725
801.000000	0.003676
800.000000	0.003658
799.000000	0.003690
798.000000	0.003746
797.000000	0.003784
796.000000	0.003780
795.000000	0.003745
794.000000	0.003712
793.000000	0.003722
792.000000	0.003785
791.000000	0.003869
790.000000	0.003924
789.000000	0.003931
788.000000	0.003915
787.000000	0.003908
786.000000	0.003928
785.000000	0.003979
784.000000	0.004056
783.000000	0.004132
782.000000	0.004173
781.000000	0.004170
780.000000	0.004157
779.000000	0.004169
778.000000	0.004206
777.000000	0.004238
776.000000	0.004239
775.000000	0.004219
774.000000	0.004204
773.000000	0.004213
772.000000	0.004240
771.000000	0.004262
770.000000	0.004268
769.000000	0.004274
768.000000	0.004305
767.000000	0.004355
766.000000	0.004391
765.000000	0.004397
764.000000	0.004397
763.000000	0.004418
762.000000	0.004454
761.000000	0.004473
760.000000	0.004469
759.000000	0.004466
758.000000	0.004479
757.000000	0.004502
756.000000	0.004525
755.000000	0.004556
754.000000	0.004598
753.000000	0.004633
752.000000	0.004644
751.000000	0.004641
750.000000	0.004656
749.000000	0.004700
748.000000	0.004757
747.000000	0.004802
746.000000	0.004826
745.000000	0.004841
744.000000	0.004857
743.000000	0.004880
742.000000	0.004920
741.000000	0.004978
740.000000	0.005041
739.000000	0.005087
738.000000	0.005112
737.000000	0.005147
736.000000	0.005229
735.000000	0.005359
734.000000	0.005496
733.000000	0.005599
732.000000	0.005666
731.000000	0.005724
730.000000	0.005795
729.000000	0.005879
728.000000	0.005967
727.000000	0.006049
726.000000	0.006121
725.000000	0.006186
724.000000	0.006256
723.000000	0.006352
722.000000	0.006484
721.000000	0.006638
720.000000	0.006778
719.000000	0.006880
718.000000	0.006949
717.000000	0.007005
716.000000	0.007058
715.000000	0.007118
714.000000	0.007198
713.000000	0.007307
712.000000	0.007431
711.000000	0.007547
710.000000	0.007642
709.000000	0.007723
708.000000	0.007793
707.000000	0.007840
706.000000	0.007860
705.000000	0.007871
704.000000	0.007892
703.000000	0.007923
702.000000	0.007970
701.000000	0.008043
700.000000	0.008132
699.000000	0.008183
698.000000	0.008152
697.000000	0.008066
696.000000	0.008011
695.000000	0.008045
694.000000	0.008150
693.000000	0.008248
692.000000	0.008290
691.000000	0.008275
690.000000	0.008249
689.000000	0.008266
688.000000	0.008352
687.000000	0.008476
686.000000	0.008572
685.000000	0.008597
684.000000	0.008584
683.000000	0.008592
682.000000	0.008634
681.000000	0.008683
680.000000	0.008736
679.000000	0.008816
678.000000	0.008918
677.000000	0.009028
676.000000	0.009150
675.000000	0.009294
674.000000	0.009447
673.000000	0.009563
672.000000	0.009578
671.000000	0.009431
670.000000	0.009090
669.000000	0.008624
668.000000	0.008386
667.000000	0.008728
666.000000	0.009217
665.000000	0.009598
664.000000	0.009899
663.000000	0.010113
662.000000	0.010230
661.000000	0.010276
660.000000	0.010274
659.000000	0.010209
658.000000	0.010081
657.000000	0.009968
656.000000	0.009930
655.000000	0.009942
654.000000	0.009969
653.000000	0.010030
652.000000	0.010124
651.000000	0.010199
650.000000	0.010230
649.000000	0.010254
648.000000	0.010287
647.000000	0.010287
646.000000	0.010252
645.000000	0.010248
644.000000	0.010304
643.000000	0.010366
642.000000	0.010381
641.000000	0.010362
640.000000	0.010344
639.000000	0.010317
638.000000	0.010266
637.000000	0.010211
636.000000	0.010171
635.000000	0.010148
634.000000	0.010164
633.000000	0.010249
632.000000	0.010371
631.000000	0.010446
630.000000	0.010434
629.000000	0.010391
628.000000	0.010385
627.000000	0.010426
626.000000	0.010507
625.000000	0.010615
624.000000	0.010692
623.000000	0.010670
622.000000	0.010569
621.000000	0.010503
620.000000	0.010544
619.000000	0.010639
618.000000	0.010692
617.000000	0.010664
616.000000	0.010574
615.000000	0.010451
614.000000	0.010357
613.000000	0.010378
612.000000	0.010521
611.000000	0.010677
610.000000	0.010742
609.000000	0.010740
608.000000	0.010750
607.000000	0.010770
606.000000	0.010743
605.000000	0.010659
604.000000	0.010563
603.000000	0.010472
602.000000	0.010367
601.000000	0.010258
600.000000	0.010205
599.000000	0.010246
598.000000	0.010360
597.000000	0.010476
596.000000	0.010532
595.000000	0.010502
594.000000	0.010427
593.000000	0.010383
592.000000	0.010413
591.000000	0.010493
590.000000	0.010567
589.000000	0.010597
588.000000	0.010559
587.000000	0.010445
586.000000	0.010291
585.000000	0.010182
584.000000	0.010164
583.000000	0.010194
582.000000	0.010191
581.000000	0.010139
580.000000	0.010086
579.000000	0.010092
578.000000	0.010176
577.000000	0.010309
576.000000	0.010430
575.000000	0.010489
574.000000	0.010495
573.000000	0.010503
572.000000	0.010539
571.000000	0.010579
570.000000	0.010610
569.000000	0.010669
568.000000	0.010787
567.000000	0.010933
566.000000	0.011050
565.000000	0.011127
564.000000	0.011198
563.000000	0.011291
562.000000	0.011417
561.000000	0.011571
560.000000	0.011726
559.000000	0.011837
558.000000	0.011886
557.000000	0.011886
556.000000	0.011839
555.000000	0.011729
554.000000	0.011583
553.000000	0.011477
552.000000	0.011440
551.000000	0.011405
550.000000	0.011300
549.000000	0.011138
548.000000	0.010982
547.000000	0.010860
546.000000	0.010763
545.000000	0.010665
544.000000	0.010527
543.000000	0.010329
542.000000	0.010124
541.000000	0.010036
540.000000	0.010139
539.000000	0.010376
538.000000	0.010621
537.000000	0.010785
536.000000	0.010853
535.000000	0.010876
534.000000	0.010937
533.000000	0.011094
532.000000	0.011302
531.000000	0.011451
530.000000	0.011497
529.000000	0.011469
528.000000	0.011360
527.000000	0.011124
526.000000	0.010804
525.000000	0.010536
524.000000	0.010355
523.000000	0.010154
522.000000	0.009897
521.000000	0.009718
520.000000	0.009717
519.000000	0.009793
518.000000	0.009780
517.000000	0.009688
516.000000	0.009618
515.000000	0.009552
514.000000	0.009394
513.000000	0.009176
512.000000	0.009043
511.000000	0.009055
510.000000	0.009113
509.000000	0.009080
508.000000	0.008891
507.000000	0.008586
506.000000	0.008301
505.000000	0.008179
504.000000	0.008211
503.000000	0.008212
502.000000	0.008030
501.000000	0.007747
500.000000	0.007568
499.000000	0.007560
498.000000	0.007638
497.000000	0.007713
496.000000	0.007742
495.000000	0.007678
494.000000	0.007490
493.000000	0.007228
492.000000	0.006976
491.000000	0.006768
490.000000	0.006601
489.000000	0.006501
488.000000	0.006482
487.000000	0.006487
486.000000	0.006443
485.000000	0.006363
484.000000	0.006296
483.000000	0.006239
482.000000	0.006185
481.000000	0.006193
480.000000	0.006319
479.000000	0.006488
478.000000	0.006526
477.000000	0.006337
476.000000	0.005988
475.000000	0.005617
474.000000	0.005348
473.000000	0.005277
472.000000	0.005424
471.000000	0.005694
470.000000	0.005941
469.000000	0.006072
468.000000	0.006035
467.000000	0.005788
466.000000	0.005369
465.000000	0.004952
464.000000	0.004713
463.000000	0.004677
462.000000	0.004744
461.000000	0.004814
460.000000	0.004837
459.000000	0.004772
458.000000	0.004622
457.000000	0.004503
456.000000	0.004506
455.000000	0.004543
454.000000	0.004475
453.000000	0.004284
452.000000	0.004052
451.000000	0.003823
450.000000	0.003582
