PE IR       SUBTECH     SPECTRUM    ASCII       PEDS        4.00        
   -1
3G-H10-F031_1.ASC
22/02/23
15:47:34.00
22/02/23
15:55:22.00
uco
Sample 031 By uco Date Wednesday, February 23 2022
450.000000
#HDR
-1
-1
#GR
cm-1
A
1.0
0.0
4000.000000
-1.000000
3551
8
0.073576
0.006485
#DATA
4000.000000	0.006708
3999.000000	0.006690
3998.000000	0.006684
3997.000000	0.006690
3996.000000	0.006707
3995.000000	0.006734
3994.000000	0.006764
3993.000000	0.006795
3992.000000	0.006822
3991.000000	0.006841
3990.000000	0.006853
3989.000000	0.006859
3988.000000	0.006865
3987.000000	0.006878
3986.000000	0.006898
3985.000000	0.006918
3984.000000	0.006932
3983.000000	0.006936
3982.000000	0.006930
3981.000000	0.006916
3980.000000	0.006894
3979.000000	0.006865
3978.000000	0.006832
3977.000000	0.006805
3976.000000	0.006792
3975.000000	0.006795
3974.000000	0.006810
3973.000000	0.006829
3972.000000	0.006847
3971.000000	0.006863
3970.000000	0.006882
3969.000000	0.006907
3968.000000	0.006936
3967.000000	0.006961
3966.000000	0.006977
3965.000000	0.006978
3964.000000	0.006965
3963.000000	0.006947
3962.000000	0.006936
3961.000000	0.006946
3960.000000	0.006977
3959.000000	0.007017
3958.000000	0.007051
3957.000000	0.007066
3956.000000	0.007064
3955.000000	0.007053
3954.000000	0.007041
3953.000000	0.007030
3952.000000	0.007016
3951.000000	0.006998
3950.000000	0.006975
3949.000000	0.006949
3948.000000	0.006928
3947.000000	0.006918
3946.000000	0.006927
3945.000000	0.006951
3944.000000	0.006981
3943.000000	0.007008
3942.000000	0.007022
3941.000000	0.007028
3940.000000	0.007035
3939.000000	0.007049
3938.000000	0.007063
3937.000000	0.007064
3936.000000	0.007048
3935.000000	0.007025
3934.000000	0.007019
3933.000000	0.007046
3932.000000	0.007096
3931.000000	0.007143
3930.000000	0.007165
3929.000000	0.007166
3928.000000	0.007163
3927.000000	0.007161
3926.000000	0.007157
3925.000000	0.007141
3924.000000	0.007110
3923.000000	0.007070
3922.000000	0.007032
3921.000000	0.006997
3920.000000	0.006963
3919.000000	0.006932
3918.000000	0.006913
3917.000000	0.006918
3916.000000	0.006944
3915.000000	0.006977
3914.000000	0.007003
3913.000000	0.007020
3912.000000	0.007030
3911.000000	0.007040
3910.000000	0.007052
3909.000000	0.007073
3908.000000	0.007106
3907.000000	0.007144
3906.000000	0.007171
3905.000000	0.007163
3904.000000	0.007113
3903.000000	0.007041
3902.000000	0.006984
3901.000000	0.006965
3900.000000	0.006983
3899.000000	0.007016
3898.000000	0.007038
3897.000000	0.007045
3896.000000	0.007045
3895.000000	0.007055
3894.000000	0.007078
3893.000000	0.007106
3892.000000	0.007123
3891.000000	0.007121
3890.000000	0.007104
3889.000000	0.007075
3888.000000	0.007039
3887.000000	0.007015
3886.000000	0.007018
3885.000000	0.007039
3884.000000	0.007056
3883.000000	0.007070
3882.000000	0.007088
3881.000000	0.007107
3880.000000	0.007114
3879.000000	0.007107
3878.000000	0.007097
3877.000000	0.007095
3876.000000	0.007112
3875.000000	0.007145
3874.000000	0.007172
3873.000000	0.007168
3872.000000	0.007130
3871.000000	0.007084
3870.000000	0.007065
3869.000000	0.007076
3868.000000	0.007093
3867.000000	0.007098
3866.000000	0.007107
3865.000000	0.007132
3864.000000	0.007156
3863.000000	0.007157
3862.000000	0.007144
3861.000000	0.007135
3860.000000	0.007144
3859.000000	0.007181
3858.000000	0.007252
3857.000000	0.007348
3856.000000	0.007435
3855.000000	0.007467
3854.000000	0.007398
3853.000000	0.007261
3852.000000	0.007139
3851.000000	0.007069
3850.000000	0.007037
3849.000000	0.007032
3848.000000	0.007039
3847.000000	0.007047
3846.000000	0.007055
3845.000000	0.007067
3844.000000	0.007082
3843.000000	0.007099
3842.000000	0.007111
3841.000000	0.007120
3840.000000	0.007135
3839.000000	0.007156
3838.000000	0.007177
3837.000000	0.007193
3836.000000	0.007203
3835.000000	0.007199
3834.000000	0.007175
3833.000000	0.007141
3832.000000	0.007118
3831.000000	0.007113
3830.000000	0.007118
3829.000000	0.007123
3828.000000	0.007126
3827.000000	0.007130
3826.000000	0.007133
3825.000000	0.007122
3824.000000	0.007092
3823.000000	0.007065
3822.000000	0.007072
3821.000000	0.007105
3820.000000	0.007128
3819.000000	0.007121
3818.000000	0.007097
3817.000000	0.007082
3816.000000	0.007093
3815.000000	0.007118
3814.000000	0.007135
3813.000000	0.007142
3812.000000	0.007147
3811.000000	0.007151
3810.000000	0.007140
3809.000000	0.007103
3808.000000	0.007050
3807.000000	0.007009
3806.000000	0.006996
3805.000000	0.007007
3804.000000	0.007032
3803.000000	0.007072
3802.000000	0.007126
3801.000000	0.007173
3800.000000	0.007187
3799.000000	0.007172
3798.000000	0.007144
3797.000000	0.007125
3796.000000	0.007121
3795.000000	0.007130
3794.000000	0.007144
3793.000000	0.007162
3792.000000	0.007183
3791.000000	0.007203
3790.000000	0.007216
3789.000000	0.007226
3788.000000	0.007243
3787.000000	0.007272
3786.000000	0.007304
3785.000000	0.007325
3784.000000	0.007325
3783.000000	0.007306
3782.000000	0.007279
3781.000000	0.007259
3780.000000	0.007252
3779.000000	0.007254
3778.000000	0.007261
3777.000000	0.007271
3776.000000	0.007286
3775.000000	0.007302
3774.000000	0.007313
3773.000000	0.007307
3772.000000	0.007278
3771.000000	0.007242
3770.000000	0.007212
3769.000000	0.007187
3768.000000	0.007156
3767.000000	0.007118
3766.000000	0.007086
3765.000000	0.007075
3764.000000	0.007081
3763.000000	0.007083
3762.000000	0.007071
3761.000000	0.007058
3760.000000	0.007051
3759.000000	0.007049
3758.000000	0.007054
3757.000000	0.007072
3756.000000	0.007087
3755.000000	0.007076
3754.000000	0.007027
3753.000000	0.006958
3752.000000	0.006900
3751.000000	0.006866
3750.000000	0.006860
3749.000000	0.006881
3748.000000	0.006905
3747.000000	0.006910
3746.000000	0.006906
3745.000000	0.006927
3744.000000	0.006978
3743.000000	0.007011
3742.000000	0.006993
3741.000000	0.006934
3740.000000	0.006864
3739.000000	0.006791
3738.000000	0.006718
3737.000000	0.006665
3736.000000	0.006644
3735.000000	0.006635
3734.000000	0.006615
3733.000000	0.006613
3732.000000	0.006667
3731.000000	0.006765
3730.000000	0.006866
3729.000000	0.006933
3728.000000	0.006964
3727.000000	0.006976
3726.000000	0.006976
3725.000000	0.006961
3724.000000	0.006939
3723.000000	0.006927
3722.000000	0.006928
3721.000000	0.006940
3720.000000	0.006958
3719.000000	0.006974
3718.000000	0.006987
3717.000000	0.006996
3716.000000	0.006990
3715.000000	0.006964
3714.000000	0.006927
3713.000000	0.006903
3712.000000	0.006897
3711.000000	0.006889
3710.000000	0.006873
3709.000000	0.006860
3708.000000	0.006859
3707.000000	0.006874
3706.000000	0.006896
3705.000000	0.006921
3704.000000	0.006946
3703.000000	0.006965
3702.000000	0.006974
3701.000000	0.006976
3700.000000	0.006982
3699.000000	0.006997
3698.000000	0.007014
3697.000000	0.007034
3696.000000	0.007049
3695.000000	0.007051
3694.000000	0.007042
3693.000000	0.007035
3692.000000	0.007027
3691.000000	0.006994
3690.000000	0.006919
3689.000000	0.006835
3688.000000	0.006809
3687.000000	0.006846
3686.000000	0.006899
3685.000000	0.006938
3684.000000	0.006962
3683.000000	0.006981
3682.000000	0.007005
3681.000000	0.007046
3680.000000	0.007106
3679.000000	0.007166
3678.000000	0.007195
3677.000000	0.007198
3676.000000	0.007212
3675.000000	0.007238
3674.000000	0.007235
3673.000000	0.007175
3672.000000	0.007073
3671.000000	0.006994
3670.000000	0.006984
3669.000000	0.007032
3668.000000	0.007105
3667.000000	0.007179
3666.000000	0.007244
3665.000000	0.007299
3664.000000	0.007349
3663.000000	0.007393
3662.000000	0.007424
3661.000000	0.007435
3660.000000	0.007424
3659.000000	0.007409
3658.000000	0.007413
3657.000000	0.007454
3656.000000	0.007514
3655.000000	0.007551
3654.000000	0.007536
3653.000000	0.007473
3652.000000	0.007398
3651.000000	0.007365
3650.000000	0.007394
3649.000000	0.007460
3648.000000	0.007543
3647.000000	0.007638
3646.000000	0.007728
3645.000000	0.007803
3644.000000	0.007866
3643.000000	0.007924
3642.000000	0.007977
3641.000000	0.008012
3640.000000	0.008026
3639.000000	0.008034
3638.000000	0.008050
3637.000000	0.008078
3636.000000	0.008110
3635.000000	0.008143
3634.000000	0.008178
3633.000000	0.008213
3632.000000	0.008242
3631.000000	0.008273
3630.000000	0.008317
3629.000000	0.008358
3628.000000	0.008370
3627.000000	0.008360
3626.000000	0.008363
3625.000000	0.008392
3624.000000	0.008442
3623.000000	0.008497
3622.000000	0.008543
3621.000000	0.008588
3620.000000	0.008640
3619.000000	0.008693
3618.000000	0.008746
3617.000000	0.008804
3616.000000	0.008869
3615.000000	0.008935
3614.000000	0.008986
3613.000000	0.009010
3612.000000	0.009011
3611.000000	0.009012
3610.000000	0.009048
3609.000000	0.009140
3608.000000	0.009269
3607.000000	0.009393
3606.000000	0.009487
3605.000000	0.009555
3604.000000	0.009613
3603.000000	0.009666
3602.000000	0.009710
3601.000000	0.009744
3600.000000	0.009770
3599.000000	0.009793
3598.000000	0.009827
3597.000000	0.009887
3596.000000	0.009973
3595.000000	0.010068
3594.000000	0.010145
3593.000000	0.010191
3592.000000	0.010211
3591.000000	0.010223
3590.000000	0.010243
3589.000000	0.010289
3588.000000	0.010360
3587.000000	0.010438
3586.000000	0.010512
3585.000000	0.010589
3584.000000	0.010677
3583.000000	0.010774
3582.000000	0.010874
3581.000000	0.010974
3580.000000	0.011069
3579.000000	0.011158
3578.000000	0.011238
3577.000000	0.011310
3576.000000	0.011370
3575.000000	0.011414
3574.000000	0.011446
3573.000000	0.011476
3572.000000	0.011515
3571.000000	0.011564
3570.000000	0.011622
3569.000000	0.011693
3568.000000	0.011786
3567.000000	0.011894
3566.000000	0.012004
3565.000000	0.012114
3564.000000	0.012230
3563.000000	0.012352
3562.000000	0.012470
3561.000000	0.012573
3560.000000	0.012656
3559.000000	0.012726
3558.000000	0.012795
3557.000000	0.012871
3556.000000	0.012954
3555.000000	0.013036
3554.000000	0.013110
3553.000000	0.013177
3552.000000	0.013243
3551.000000	0.013308
3550.000000	0.013368
3549.000000	0.013422
3548.000000	0.013478
3547.000000	0.013547
3546.000000	0.013628
3545.000000	0.013714
3544.000000	0.013803
3543.000000	0.013899
3542.000000	0.014005
3541.000000	0.014115
3540.000000	0.014222
3539.000000	0.014317
3538.000000	0.014402
3537.000000	0.014484
3536.000000	0.014562
3535.000000	0.014632
3534.000000	0.014689
3533.000000	0.014738
3532.000000	0.014792
3531.000000	0.014859
3530.000000	0.014935
3529.000000	0.015008
3528.000000	0.015073
3527.000000	0.015137
3526.000000	0.015204
3525.000000	0.015277
3524.000000	0.015354
3523.000000	0.015433
3522.000000	0.015520
3521.000000	0.015614
3520.000000	0.015716
3519.000000	0.015816
3518.000000	0.015908
3517.000000	0.015989
3516.000000	0.016059
3515.000000	0.016122
3514.000000	0.016173
3513.000000	0.016214
3512.000000	0.016254
3511.000000	0.016305
3510.000000	0.016372
3509.000000	0.016446
3508.000000	0.016518
3507.000000	0.016583
3506.000000	0.016646
3505.000000	0.016713
3504.000000	0.016789
3503.000000	0.016871
3502.000000	0.016950
3501.000000	0.017023
3500.000000	0.017088
3499.000000	0.017156
3498.000000	0.017231
3497.000000	0.017315
3496.000000	0.017401
3495.000000	0.017485
3494.000000	0.017562
3493.000000	0.017630
3492.000000	0.017688
3491.000000	0.017743
3490.000000	0.017800
3489.000000	0.017858
3488.000000	0.017914
3487.000000	0.017967
3486.000000	0.018019
3485.000000	0.018074
3484.000000	0.018133
3483.000000	0.018191
3482.000000	0.018244
3481.000000	0.018297
3480.000000	0.018356
3479.000000	0.018426
3478.000000	0.018502
3477.000000	0.018575
3476.000000	0.018643
3475.000000	0.018708
3474.000000	0.018778
3473.000000	0.018851
3472.000000	0.018919
3471.000000	0.018976
3470.000000	0.019022
3469.000000	0.019062
3468.000000	0.019101
3467.000000	0.019138
3466.000000	0.019169
3465.000000	0.019197
3464.000000	0.019230
3463.000000	0.019281
3462.000000	0.019357
3461.000000	0.019449
3460.000000	0.019542
3459.000000	0.019622
3458.000000	0.019686
3457.000000	0.019739
3456.000000	0.019784
3455.000000	0.019823
3454.000000	0.019861
3453.000000	0.019908
3452.000000	0.019973
3451.000000	0.020061
3450.000000	0.020160
3449.000000	0.020256
3448.000000	0.020338
3447.000000	0.020409
3446.000000	0.020480
3445.000000	0.020553
3444.000000	0.020622
3443.000000	0.020681
3442.000000	0.020729
3441.000000	0.020775
3440.000000	0.020826
3439.000000	0.020886
3438.000000	0.020953
3437.000000	0.021027
3436.000000	0.021107
3435.000000	0.021190
3434.000000	0.021276
3433.000000	0.021358
3432.000000	0.021429
3431.000000	0.021487
3430.000000	0.021538
3429.000000	0.021594
3428.000000	0.021664
3427.000000	0.021751
3426.000000	0.021847
3425.000000	0.021934
3424.000000	0.022003
3423.000000	0.022060
3422.000000	0.022124
3421.000000	0.022203
3420.000000	0.022295
3419.000000	0.022385
3418.000000	0.022459
3417.000000	0.022512
3416.000000	0.022550
3415.000000	0.022587
3414.000000	0.022641
3413.000000	0.022716
3412.000000	0.022806
3411.000000	0.022902
3410.000000	0.022994
3409.000000	0.023073
3408.000000	0.023137
3407.000000	0.023197
3406.000000	0.023269
3405.000000	0.023354
3404.000000	0.023442
3403.000000	0.023519
3402.000000	0.023585
3401.000000	0.023643
3400.000000	0.023692
3399.000000	0.023734
3398.000000	0.023779
3397.000000	0.023838
3396.000000	0.023913
3395.000000	0.023994
3394.000000	0.024069
3393.000000	0.024139
3392.000000	0.024213
3391.000000	0.024295
3390.000000	0.024383
3389.000000	0.024467
3388.000000	0.024546
3387.000000	0.024626
3386.000000	0.024709
3385.000000	0.024788
3384.000000	0.024852
3383.000000	0.024903
3382.000000	0.024958
3381.000000	0.025031
3380.000000	0.025119
3379.000000	0.025207
3378.000000	0.025284
3377.000000	0.025348
3376.000000	0.025408
3375.000000	0.025475
3374.000000	0.025558
3373.000000	0.025656
3372.000000	0.025758
3371.000000	0.025851
3370.000000	0.025934
3369.000000	0.026012
3368.000000	0.026094
3367.000000	0.026189
3366.000000	0.026294
3365.000000	0.026404
3364.000000	0.026514
3363.000000	0.026628
3362.000000	0.026750
3361.000000	0.026877
3360.000000	0.026995
3359.000000	0.027095
3358.000000	0.027178
3357.000000	0.027262
3356.000000	0.027361
3355.000000	0.027475
3354.000000	0.027594
3353.000000	0.027707
3352.000000	0.027809
3351.000000	0.027907
3350.000000	0.028011
3349.000000	0.028128
3348.000000	0.028253
3347.000000	0.028379
3346.000000	0.028499
3345.000000	0.028608
3344.000000	0.028705
3343.000000	0.028791
3342.000000	0.028865
3341.000000	0.028931
3340.000000	0.028997
3339.000000	0.029076
3338.000000	0.029186
3337.000000	0.029327
3336.000000	0.029483
3335.000000	0.029628
3334.000000	0.029748
3333.000000	0.029843
3332.000000	0.029918
3331.000000	0.029982
3330.000000	0.030041
3329.000000	0.030097
3328.000000	0.030151
3327.000000	0.030206
3326.000000	0.030272
3325.000000	0.030360
3324.000000	0.030472
3323.000000	0.030597
3322.000000	0.030722
3321.000000	0.030837
3320.000000	0.030933
3319.000000	0.031004
3318.000000	0.031051
3317.000000	0.031084
3316.000000	0.031123
3315.000000	0.031177
3314.000000	0.031246
3313.000000	0.031319
3312.000000	0.031392
3311.000000	0.031461
3310.000000	0.031519
3309.000000	0.031560
3308.000000	0.031586
3307.000000	0.031612
3306.000000	0.031653
3305.000000	0.031719
3304.000000	0.031802
3303.000000	0.031887
3302.000000	0.031955
3301.000000	0.031998
3300.000000	0.032020
3299.000000	0.032035
3298.000000	0.032052
3297.000000	0.032067
3296.000000	0.032076
3295.000000	0.032082
3294.000000	0.032101
3293.000000	0.032137
3292.000000	0.032184
3291.000000	0.032230
3290.000000	0.032269
3289.000000	0.032300
3288.000000	0.032323
3287.000000	0.032337
3286.000000	0.032345
3285.000000	0.032351
3284.000000	0.032358
3283.000000	0.032363
3282.000000	0.032361
3281.000000	0.032349
3280.000000	0.032329
3279.000000	0.032304
3278.000000	0.032269
3277.000000	0.032222
3276.000000	0.032161
3275.000000	0.032088
3274.000000	0.032007
3273.000000	0.031927
3272.000000	0.031862
3271.000000	0.031827
3270.000000	0.031823
3269.000000	0.031835
3268.000000	0.031840
3267.000000	0.031822
3266.000000	0.031780
3265.000000	0.031721
3264.000000	0.031658
3263.000000	0.031591
3262.000000	0.031515
3261.000000	0.031419
3260.000000	0.031300
3259.000000	0.031172
3258.000000	0.031052
3257.000000	0.030951
3256.000000	0.030867
3255.000000	0.030797
3254.000000	0.030741
3253.000000	0.030695
3252.000000	0.030657
3251.000000	0.030620
3250.000000	0.030573
3249.000000	0.030507
3248.000000	0.030416
3247.000000	0.030310
3246.000000	0.030208
3245.000000	0.030127
3244.000000	0.030072
3243.000000	0.030039
3242.000000	0.030019
3241.000000	0.029998
3240.000000	0.029961
3239.000000	0.029898
3238.000000	0.029810
3237.000000	0.029708
3236.000000	0.029606
3235.000000	0.029517
3234.000000	0.029451
3233.000000	0.029411
3232.000000	0.029384
3231.000000	0.029355
3230.000000	0.029316
3229.000000	0.029269
3228.000000	0.029219
3227.000000	0.029163
3226.000000	0.029100
3225.000000	0.029039
3224.000000	0.028992
3223.000000	0.028962
3222.000000	0.028936
3221.000000	0.028897
3220.000000	0.028841
3219.000000	0.028782
3218.000000	0.028730
3217.000000	0.028680
3216.000000	0.028621
3215.000000	0.028549
3214.000000	0.028473
3213.000000	0.028400
3212.000000	0.028332
3211.000000	0.028268
3210.000000	0.028208
3209.000000	0.028153
3208.000000	0.028098
3207.000000	0.028035
3206.000000	0.027967
3205.000000	0.027901
3204.000000	0.027840
3203.000000	0.027775
3202.000000	0.027693
3201.000000	0.027590
3200.000000	0.027480
3199.000000	0.027385
3198.000000	0.027317
3197.000000	0.027269
3196.000000	0.027223
3195.000000	0.027166
3194.000000	0.027094
3193.000000	0.027008
3192.000000	0.026913
3191.000000	0.026815
3190.000000	0.026724
3189.000000	0.026642
3188.000000	0.026564
3187.000000	0.026488
3186.000000	0.026418
3185.000000	0.026357
3184.000000	0.026298
3183.000000	0.026230
3182.000000	0.026143
3181.000000	0.026038
3180.000000	0.025921
3179.000000	0.025805
3178.000000	0.025702
3177.000000	0.025618
3176.000000	0.025547
3175.000000	0.025477
3174.000000	0.025402
3173.000000	0.025320
3172.000000	0.025234
3171.000000	0.025145
3170.000000	0.025051
3169.000000	0.024955
3168.000000	0.024862
3167.000000	0.024772
3166.000000	0.024680
3165.000000	0.024584
3164.000000	0.024490
3163.000000	0.024411
3162.000000	0.024355
3161.000000	0.024315
3160.000000	0.024272
3159.000000	0.024207
3158.000000	0.024114
3157.000000	0.024001
3156.000000	0.023881
3155.000000	0.023770
3154.000000	0.023677
3153.000000	0.023599
3152.000000	0.023525
3151.000000	0.023449
3150.000000	0.023382
3149.000000	0.023335
3148.000000	0.023304
3147.000000	0.023272
3146.000000	0.023220
3145.000000	0.023143
3144.000000	0.023041
3143.000000	0.022929
3142.000000	0.022828
3141.000000	0.022759
3140.000000	0.022727
3139.000000	0.022717
3138.000000	0.022704
3137.000000	0.022671
3136.000000	0.022616
3135.000000	0.022547
3134.000000	0.022479
3133.000000	0.022420
3132.000000	0.022369
3131.000000	0.022319
3130.000000	0.022268
3129.000000	0.022223
3128.000000	0.022187
3127.000000	0.022159
3126.000000	0.022132
3125.000000	0.022103
3124.000000	0.022069
3123.000000	0.022033
3122.000000	0.021995
3121.000000	0.021956
3120.000000	0.021913
3119.000000	0.021869
3118.000000	0.021832
3117.000000	0.021820
3116.000000	0.021837
3115.000000	0.021878
3114.000000	0.021927
3113.000000	0.021970
3112.000000	0.021998
3111.000000	0.022009
3110.000000	0.022012
3109.000000	0.022020
3108.000000	0.022037
3107.000000	0.022059
3106.000000	0.022079
3105.000000	0.022099
3104.000000	0.022118
3103.000000	0.022126
3102.000000	0.022117
3101.000000	0.022101
3100.000000	0.022095
3099.000000	0.022110
3098.000000	0.022143
3097.000000	0.022186
3096.000000	0.022232
3095.000000	0.022273
3094.000000	0.022305
3093.000000	0.022327
3092.000000	0.022348
3091.000000	0.022370
3090.000000	0.022389
3089.000000	0.022404
3088.000000	0.022415
3087.000000	0.022430
3086.000000	0.022455
3085.000000	0.022490
3084.000000	0.022524
3083.000000	0.022546
3082.000000	0.022551
3081.000000	0.022540
3080.000000	0.022525
3079.000000	0.022521
3078.000000	0.022538
3077.000000	0.022579
3076.000000	0.022631
3075.000000	0.022678
3074.000000	0.022705
3073.000000	0.022712
3072.000000	0.022700
3071.000000	0.022674
3070.000000	0.022637
3069.000000	0.022594
3068.000000	0.022552
3067.000000	0.022518
3066.000000	0.022500
3065.000000	0.022499
3064.000000	0.022506
3063.000000	0.022502
3062.000000	0.022476
3061.000000	0.022430
3060.000000	0.022377
3059.000000	0.022325
3058.000000	0.022278
3057.000000	0.022230
3056.000000	0.022172
3055.000000	0.022099
3054.000000	0.022010
3053.000000	0.021912
3052.000000	0.021814
3051.000000	0.021731
3050.000000	0.021670
3049.000000	0.021629
3048.000000	0.021588
3047.000000	0.021533
3046.000000	0.021457
3045.000000	0.021370
3044.000000	0.021283
3043.000000	0.021201
3042.000000	0.021126
3041.000000	0.021056
3040.000000	0.020990
3039.000000	0.020922
3038.000000	0.020847
3037.000000	0.020765
3036.000000	0.020686
3035.000000	0.020617
3034.000000	0.020559
3033.000000	0.020498
3032.000000	0.020427
3031.000000	0.020347
3030.000000	0.020272
3029.000000	0.020210
3028.000000	0.020157
3027.000000	0.020101
3026.000000	0.020036
3025.000000	0.019971
3024.000000	0.019912
3023.000000	0.019857
3022.000000	0.019798
3021.000000	0.019731
3020.000000	0.019660
3019.000000	0.019590
3018.000000	0.019521
3017.000000	0.019453
3016.000000	0.019393
3015.000000	0.019347
3014.000000	0.019320
3013.000000	0.019308
3012.000000	0.019304
3011.000000	0.019310
3010.000000	0.019324
3009.000000	0.019342
3008.000000	0.019350
3007.000000	0.019343
3006.000000	0.019329
3005.000000	0.019326
3004.000000	0.019342
3003.000000	0.019375
3002.000000	0.019413
3001.000000	0.019449
3000.000000	0.019481
2999.000000	0.019515
2998.000000	0.019556
2997.000000	0.019609
2996.000000	0.019673
2995.000000	0.019750
2994.000000	0.019844
2993.000000	0.019962
2992.000000	0.020102
2991.000000	0.020251
2990.000000	0.020392
2989.000000	0.020522
2988.000000	0.020655
2987.000000	0.020807
2986.000000	0.020982
2985.000000	0.021171
2984.000000	0.021360
2983.000000	0.021542
2982.000000	0.021715
2981.000000	0.021883
2980.000000	0.022056
2979.000000	0.022245
2978.000000	0.022457
2977.000000	0.022690
2976.000000	0.022927
2975.000000	0.023154
2974.000000	0.023368
2973.000000	0.023578
2972.000000	0.023797
2971.000000	0.024036
2970.000000	0.024296
2969.000000	0.024569
2968.000000	0.024843
2967.000000	0.025107
2966.000000	0.025358
2965.000000	0.025592
2964.000000	0.025808
2963.000000	0.026004
2962.000000	0.026183
2961.000000	0.026351
2960.000000	0.026510
2959.000000	0.026657
2958.000000	0.026786
2957.000000	0.026895
2956.000000	0.026988
2955.000000	0.027070
2954.000000	0.027139
2953.000000	0.027193
2952.000000	0.027229
2951.000000	0.027254
2950.000000	0.027278
2949.000000	0.027312
2948.000000	0.027366
2947.000000	0.027449
2946.000000	0.027570
2945.000000	0.027727
2944.000000	0.027915
2943.000000	0.028130
2942.000000	0.028378
2941.000000	0.028661
2940.000000	0.028978
2939.000000	0.029320
2938.000000	0.029683
2937.000000	0.030067
2936.000000	0.030469
2935.000000	0.030886
2934.000000	0.031316
2933.000000	0.031758
2932.000000	0.032208
2931.000000	0.032661
2930.000000	0.033112
2929.000000	0.033559
2928.000000	0.033997
2927.000000	0.034416
2926.000000	0.034803
2925.000000	0.035144
2924.000000	0.035425
2923.000000	0.035643
2922.000000	0.035799
2921.000000	0.035890
2920.000000	0.035895
2919.000000	0.035780
2918.000000	0.035511
2917.000000	0.035066
2916.000000	0.034446
2915.000000	0.033681
2914.000000	0.032829
2913.000000	0.031962
2912.000000	0.031142
2911.000000	0.030406
2910.000000	0.029762
2909.000000	0.029202
2908.000000	0.028707
2907.000000	0.028266
2906.000000	0.027876
2905.000000	0.027540
2904.000000	0.027251
2903.000000	0.026996
2902.000000	0.026762
2901.000000	0.026538
2900.000000	0.026309
2899.000000	0.026062
2898.000000	0.025804
2897.000000	0.025556
2896.000000	0.025341
2895.000000	0.025166
2894.000000	0.025028
2893.000000	0.024911
2892.000000	0.024795
2891.000000	0.024669
2890.000000	0.024540
2889.000000	0.024420
2888.000000	0.024314
2887.000000	0.024212
2886.000000	0.024106
2885.000000	0.024002
2884.000000	0.023916
2883.000000	0.023862
2882.000000	0.023845
2881.000000	0.023858
2880.000000	0.023886
2879.000000	0.023912
2878.000000	0.023928
2877.000000	0.023934
2876.000000	0.023936
2875.000000	0.023935
2874.000000	0.023931
2873.000000	0.023926
2872.000000	0.023920
2871.000000	0.023908
2870.000000	0.023878
2869.000000	0.023820
2868.000000	0.023734
2867.000000	0.023634
2866.000000	0.023547
2865.000000	0.023499
2864.000000	0.023505
2863.000000	0.023567
2862.000000	0.023686
2861.000000	0.023868
2860.000000	0.024116
2859.000000	0.024424
2858.000000	0.024781
2857.000000	0.025181
2856.000000	0.025618
2855.000000	0.026081
2854.000000	0.026541
2853.000000	0.026949
2852.000000	0.027244
2851.000000	0.027356
2850.000000	0.027223
2849.000000	0.026815
2848.000000	0.026157
2847.000000	0.025324
2846.000000	0.024427
2845.000000	0.023569
2844.000000	0.022812
2843.000000	0.022175
2842.000000	0.021642
2841.000000	0.021190
2840.000000	0.020798
2839.000000	0.020454
2838.000000	0.020159
2837.000000	0.019915
2836.000000	0.019719
2835.000000	0.019554
2834.000000	0.019404
2833.000000	0.019259
2832.000000	0.019119
2831.000000	0.018987
2830.000000	0.018866
2829.000000	0.018756
2828.000000	0.018655
2827.000000	0.018559
2826.000000	0.018464
2825.000000	0.018366
2824.000000	0.018266
2823.000000	0.018162
2822.000000	0.018059
2821.000000	0.017966
2820.000000	0.017888
2819.000000	0.017820
2818.000000	0.017752
2817.000000	0.017675
2816.000000	0.017590
2815.000000	0.017508
2814.000000	0.017440
2813.000000	0.017391
2812.000000	0.017352
2811.000000	0.017309
2810.000000	0.017260
2809.000000	0.017210
2808.000000	0.017168
2807.000000	0.017132
2806.000000	0.017099
2805.000000	0.017064
2804.000000	0.017025
2803.000000	0.016983
2802.000000	0.016941
2801.000000	0.016902
2800.000000	0.016866
2799.000000	0.016831
2798.000000	0.016795
2797.000000	0.016761
2796.000000	0.016726
2795.000000	0.016687
2794.000000	0.016638
2793.000000	0.016579
2792.000000	0.016516
2791.000000	0.016457
2790.000000	0.016410
2789.000000	0.016376
2788.000000	0.016349
2787.000000	0.016325
2786.000000	0.016300
2785.000000	0.016278
2784.000000	0.016252
2783.000000	0.016215
2782.000000	0.016167
2781.000000	0.016118
2780.000000	0.016077
2779.000000	0.016046
2778.000000	0.016022
2777.000000	0.016000
2776.000000	0.015977
2775.000000	0.015948
2774.000000	0.015913
2773.000000	0.015872
2772.000000	0.015831
2771.000000	0.015792
2770.000000	0.015756
2769.000000	0.015727
2768.000000	0.015701
2767.000000	0.015674
2766.000000	0.015643
2765.000000	0.015608
2764.000000	0.015577
2763.000000	0.015552
2762.000000	0.015532
2761.000000	0.015513
2760.000000	0.015492
2759.000000	0.015468
2758.000000	0.015440
2757.000000	0.015410
2756.000000	0.015383
2755.000000	0.015362
2754.000000	0.015343
2753.000000	0.015316
2752.000000	0.015278
2751.000000	0.015239
2750.000000	0.015211
2749.000000	0.015197
2748.000000	0.015189
2747.000000	0.015175
2746.000000	0.015149
2745.000000	0.015114
2744.000000	0.015076
2743.000000	0.015038
2742.000000	0.015006
2741.000000	0.014981
2740.000000	0.014958
2739.000000	0.014933
2738.000000	0.014905
2737.000000	0.014875
2736.000000	0.014849
2735.000000	0.014828
2734.000000	0.014813
2733.000000	0.014794
2732.000000	0.014763
2731.000000	0.014719
2730.000000	0.014673
2729.000000	0.014640
2728.000000	0.014625
2727.000000	0.014619
2726.000000	0.014611
2725.000000	0.014592
2724.000000	0.014561
2723.000000	0.014530
2722.000000	0.014513
2721.000000	0.014512
2720.000000	0.014515
2719.000000	0.014502
2718.000000	0.014470
2717.000000	0.014431
2716.000000	0.014399
2715.000000	0.014370
2714.000000	0.014336
2713.000000	0.014294
2712.000000	0.014249
2711.000000	0.014214
2710.000000	0.014197
2709.000000	0.014195
2708.000000	0.014191
2707.000000	0.014172
2706.000000	0.014140
2705.000000	0.014110
2704.000000	0.014095
2703.000000	0.014095
2702.000000	0.014105
2701.000000	0.014111
2700.000000	0.014103
2699.000000	0.014074
2698.000000	0.014037
2697.000000	0.014009
2696.000000	0.014000
2695.000000	0.014002
2694.000000	0.014002
2693.000000	0.013994
2692.000000	0.013983
2691.000000	0.013977
2690.000000	0.013975
2689.000000	0.013973
2688.000000	0.013965
2687.000000	0.013951
2686.000000	0.013935
2685.000000	0.013923
2684.000000	0.013914
2683.000000	0.013904
2682.000000	0.013891
2681.000000	0.013884
2680.000000	0.013883
2679.000000	0.013879
2678.000000	0.013863
2677.000000	0.013834
2676.000000	0.013802
2675.000000	0.013780
2674.000000	0.013775
2673.000000	0.013785
2672.000000	0.013800
2671.000000	0.013808
2670.000000	0.013804
2669.000000	0.013790
2668.000000	0.013774
2667.000000	0.013761
2666.000000	0.013753
2665.000000	0.013753
2664.000000	0.013755
2663.000000	0.013753
2662.000000	0.013747
2661.000000	0.013737
2660.000000	0.013725
2659.000000	0.013709
2658.000000	0.013688
2657.000000	0.013663
2656.000000	0.013636
2655.000000	0.013609
2654.000000	0.013587
2653.000000	0.013575
2652.000000	0.013573
2651.000000	0.013566
2650.000000	0.013543
2649.000000	0.013503
2648.000000	0.013453
2647.000000	0.013398
2646.000000	0.013344
2645.000000	0.013302
2644.000000	0.013280
2643.000000	0.013271
2642.000000	0.013256
2641.000000	0.013219
2640.000000	0.013163
2639.000000	0.013105
2638.000000	0.013059
2637.000000	0.013031
2636.000000	0.013021
2635.000000	0.013023
2634.000000	0.013024
2633.000000	0.013010
2632.000000	0.012976
2631.000000	0.012929
2630.000000	0.012886
2629.000000	0.012854
2628.000000	0.012826
2627.000000	0.012793
2626.000000	0.012755
2625.000000	0.012720
2624.000000	0.012687
2623.000000	0.012652
2622.000000	0.012615
2621.000000	0.012580
2620.000000	0.012547
2619.000000	0.012515
2618.000000	0.012486
2617.000000	0.012463
2616.000000	0.012441
2615.000000	0.012411
2614.000000	0.012375
2613.000000	0.012336
2612.000000	0.012296
2611.000000	0.012254
2610.000000	0.012224
2609.000000	0.012222
2608.000000	0.012243
2607.000000	0.012261
2606.000000	0.012257
2605.000000	0.012233
2604.000000	0.012206
2603.000000	0.012183
2602.000000	0.012163
2601.000000	0.012145
2600.000000	0.012124
2599.000000	0.012100
2598.000000	0.012075
2597.000000	0.012055
2596.000000	0.012037
2595.000000	0.012007
2594.000000	0.011962
2593.000000	0.011926
2592.000000	0.011923
2591.000000	0.011951
2590.000000	0.011985
2589.000000	0.011997
2588.000000	0.011971
2587.000000	0.011907
2586.000000	0.011824
2585.000000	0.011751
2584.000000	0.011711
2583.000000	0.011704
2582.000000	0.011715
2581.000000	0.011724
2580.000000	0.011717
2579.000000	0.011689
2578.000000	0.011644
2577.000000	0.011598
2576.000000	0.011567
2575.000000	0.011559
2574.000000	0.011570
2573.000000	0.011586
2572.000000	0.011593
2571.000000	0.011581
2570.000000	0.011548
2569.000000	0.011503
2568.000000	0.011456
2567.000000	0.011415
2566.000000	0.011388
2565.000000	0.011374
2564.000000	0.011371
2563.000000	0.011375
2562.000000	0.011393
2561.000000	0.011429
2560.000000	0.011468
2559.000000	0.011483
2558.000000	0.011463
2557.000000	0.011424
2556.000000	0.011385
2555.000000	0.011354
2554.000000	0.011329
2553.000000	0.011313
2552.000000	0.011309
2551.000000	0.011316
2550.000000	0.011328
2549.000000	0.011337
2548.000000	0.011337
2547.000000	0.011329
2546.000000	0.011320
2545.000000	0.011312
2544.000000	0.011303
2543.000000	0.011286
2542.000000	0.011262
2541.000000	0.011242
2540.000000	0.011230
2539.000000	0.011225
2538.000000	0.011226
2537.000000	0.011234
2536.000000	0.011241
2535.000000	0.011232
2534.000000	0.011204
2533.000000	0.011174
2532.000000	0.011164
2531.000000	0.011179
2530.000000	0.011213
2529.000000	0.011251
2528.000000	0.011277
2527.000000	0.011275
2526.000000	0.011245
2525.000000	0.011205
2524.000000	0.011180
2523.000000	0.011176
2522.000000	0.011182
2521.000000	0.011185
2520.000000	0.011180
2519.000000	0.011173
2518.000000	0.011172
2517.000000	0.011170
2516.000000	0.011157
2515.000000	0.011127
2514.000000	0.011095
2513.000000	0.011078
2512.000000	0.011078
2511.000000	0.011080
2510.000000	0.011072
2509.000000	0.011052
2508.000000	0.011021
2507.000000	0.010983
2506.000000	0.010947
2505.000000	0.010928
2504.000000	0.010935
2503.000000	0.010960
2502.000000	0.010987
2501.000000	0.010999
2500.000000	0.010985
2499.000000	0.010948
2498.000000	0.010913
2497.000000	0.010901
2496.000000	0.010911
2495.000000	0.010920
2494.000000	0.010911
2493.000000	0.010894
2492.000000	0.010887
2491.000000	0.010898
2490.000000	0.010922
2489.000000	0.010939
2488.000000	0.010928
2487.000000	0.010887
2486.000000	0.010836
2485.000000	0.010802
2484.000000	0.010786
2483.000000	0.010772
2482.000000	0.010753
2481.000000	0.010742
2480.000000	0.010747
2479.000000	0.010756
2478.000000	0.010753
2477.000000	0.010736
2476.000000	0.010713
2475.000000	0.010688
2474.000000	0.010663
2473.000000	0.010643
2472.000000	0.010635
2471.000000	0.010634
2470.000000	0.010635
2469.000000	0.010639
2468.000000	0.010649
2467.000000	0.010661
2466.000000	0.010661
2465.000000	0.010642
2464.000000	0.010615
2463.000000	0.010600
2462.000000	0.010604
2461.000000	0.010611
2460.000000	0.010598
2459.000000	0.010565
2458.000000	0.010525
2457.000000	0.010495
2456.000000	0.010474
2455.000000	0.010464
2454.000000	0.010470
2453.000000	0.010497
2452.000000	0.010533
2451.000000	0.010561
2450.000000	0.010574
2449.000000	0.010574
2448.000000	0.010567
2447.000000	0.010556
2446.000000	0.010545
2445.000000	0.010528
2444.000000	0.010496
2443.000000	0.010449
2442.000000	0.010409
2441.000000	0.010394
2440.000000	0.010398
2439.000000	0.010409
2438.000000	0.010426
2437.000000	0.010448
2436.000000	0.010462
2435.000000	0.010452
2434.000000	0.010419
2433.000000	0.010387
2432.000000	0.010369
2431.000000	0.010360
2430.000000	0.010344
2429.000000	0.010318
2428.000000	0.010288
2427.000000	0.010273
2426.000000	0.010287
2425.000000	0.010329
2424.000000	0.010370
2423.000000	0.010383
2422.000000	0.010365
2421.000000	0.010333
2420.000000	0.010310
2419.000000	0.010308
2418.000000	0.010326
2417.000000	0.010352
2416.000000	0.010357
2415.000000	0.010330
2414.000000	0.010288
2413.000000	0.010260
2412.000000	0.010247
2411.000000	0.010236
2410.000000	0.010224
2409.000000	0.010218
2408.000000	0.010214
2407.000000	0.010201
2406.000000	0.010182
2405.000000	0.010172
2404.000000	0.010177
2403.000000	0.010186
2402.000000	0.010193
2401.000000	0.010197
2400.000000	0.010195
2399.000000	0.010180
2398.000000	0.010161
2397.000000	0.010155
2396.000000	0.010160
2395.000000	0.010160
2394.000000	0.010150
2393.000000	0.010142
2392.000000	0.010153
2391.000000	0.010179
2390.000000	0.010208
2389.000000	0.010227
2388.000000	0.010224
2387.000000	0.010205
2386.000000	0.010180
2385.000000	0.010155
2384.000000	0.010122
2383.000000	0.010067
2382.000000	0.009999
2381.000000	0.009940
2380.000000	0.009903
2379.000000	0.009896
2378.000000	0.009934
2377.000000	0.010026
2376.000000	0.010146
2375.000000	0.010242
2374.000000	0.010274
2373.000000	0.010236
2372.000000	0.010153
2371.000000	0.010064
2370.000000	0.010008
2369.000000	0.009993
2368.000000	0.009998
2367.000000	0.010008
2366.000000	0.010037
2365.000000	0.010093
2364.000000	0.010160
2363.000000	0.010231
2362.000000	0.010305
2361.000000	0.010357
2360.000000	0.010356
2359.000000	0.010313
2358.000000	0.010275
2357.000000	0.010268
2356.000000	0.010282
2355.000000	0.010304
2354.000000	0.010279
2353.000000	0.010176
2352.000000	0.010060
2351.000000	0.010042
2350.000000	0.010153
2349.000000	0.010335
2348.000000	0.010492
2347.000000	0.010529
2346.000000	0.010439
2345.000000	0.010344
2344.000000	0.010344
2343.000000	0.010414
2342.000000	0.010458
2341.000000	0.010438
2340.000000	0.010400
2339.000000	0.010390
2338.000000	0.010398
2337.000000	0.010391
2336.000000	0.010368
2335.000000	0.010343
2334.000000	0.010304
2333.000000	0.010233
2332.000000	0.010160
2331.000000	0.010126
2330.000000	0.010156
2329.000000	0.010235
2328.000000	0.010368
2327.000000	0.010535
2326.000000	0.010686
2325.000000	0.010752
2324.000000	0.010709
2323.000000	0.010594
2322.000000	0.010480
2321.000000	0.010420
2320.000000	0.010420
2319.000000	0.010435
2318.000000	0.010437
2317.000000	0.010415
2316.000000	0.010383
2315.000000	0.010345
2314.000000	0.010319
2313.000000	0.010307
2312.000000	0.010301
2311.000000	0.010265
2310.000000	0.010193
2309.000000	0.010108
2308.000000	0.010050
2307.000000	0.010021
2306.000000	0.010009
2305.000000	0.009997
2304.000000	0.009983
2303.000000	0.009971
2302.000000	0.009971
2301.000000	0.009996
2300.000000	0.010050
2299.000000	0.010115
2298.000000	0.010172
2297.000000	0.010204
2296.000000	0.010205
2295.000000	0.010175
2294.000000	0.010134
2293.000000	0.010104
2292.000000	0.010092
2291.000000	0.010092
2290.000000	0.010103
2289.000000	0.010126
2288.000000	0.010154
2287.000000	0.010173
2286.000000	0.010178
2285.000000	0.010179
2284.000000	0.010172
2283.000000	0.010148
2282.000000	0.010115
2281.000000	0.010096
2280.000000	0.010088
2279.000000	0.010059
2278.000000	0.009989
2277.000000	0.009897
2276.000000	0.009817
2275.000000	0.009771
2274.000000	0.009766
2273.000000	0.009790
2272.000000	0.009805
2271.000000	0.009780
2270.000000	0.009733
2269.000000	0.009713
2268.000000	0.009735
2267.000000	0.009751
2266.000000	0.009713
2265.000000	0.009627
2264.000000	0.009549
2263.000000	0.009537
2262.000000	0.009619
2261.000000	0.009759
2260.000000	0.009862
2259.000000	0.009846
2258.000000	0.009734
2257.000000	0.009630
2256.000000	0.009601
2255.000000	0.009611
2254.000000	0.009596
2253.000000	0.009547
2252.000000	0.009510
2251.000000	0.009524
2250.000000	0.009589
2249.000000	0.009675
2248.000000	0.009730
2247.000000	0.009726
2246.000000	0.009684
2245.000000	0.009652
2244.000000	0.009641
2243.000000	0.009615
2242.000000	0.009560
2241.000000	0.009508
2240.000000	0.009498
2239.000000	0.009532
2238.000000	0.009591
2237.000000	0.009661
2236.000000	0.009723
2235.000000	0.009751
2234.000000	0.009734
2233.000000	0.009681
2232.000000	0.009589
2231.000000	0.009466
2230.000000	0.009359
2229.000000	0.009323
2228.000000	0.009353
2227.000000	0.009387
2226.000000	0.009398
2225.000000	0.009418
2224.000000	0.009458
2223.000000	0.009474
2222.000000	0.009439
2221.000000	0.009387
2220.000000	0.009366
2219.000000	0.009372
2218.000000	0.009379
2217.000000	0.009385
2216.000000	0.009398
2215.000000	0.009398
2214.000000	0.009357
2213.000000	0.009270
2212.000000	0.009168
2211.000000	0.009102
2210.000000	0.009124
2209.000000	0.009227
2208.000000	0.009316
2207.000000	0.009288
2206.000000	0.009152
2205.000000	0.009026
2204.000000	0.009006
2203.000000	0.009077
2202.000000	0.009161
2201.000000	0.009185
2200.000000	0.009114
2199.000000	0.008974
2198.000000	0.008853
2197.000000	0.008833
2196.000000	0.008906
2195.000000	0.008986
2194.000000	0.009032
2193.000000	0.009076
2192.000000	0.009147
2191.000000	0.009218
2190.000000	0.009244
2189.000000	0.009209
2188.000000	0.009109
2187.000000	0.008953
2186.000000	0.008785
2185.000000	0.008657
2184.000000	0.008570
2183.000000	0.008491
2182.000000	0.008429
2181.000000	0.008435
2180.000000	0.008529
2179.000000	0.008678
2178.000000	0.008845
2177.000000	0.008978
2176.000000	0.008984
2175.000000	0.008813
2174.000000	0.008545
2173.000000	0.008337
2172.000000	0.008268
2171.000000	0.008319
2170.000000	0.008466
2169.000000	0.008685
2168.000000	0.008877
2167.000000	0.008923
2166.000000	0.008828
2165.000000	0.008723
2164.000000	0.008698
2163.000000	0.008720
2162.000000	0.008719
2161.000000	0.008641
2160.000000	0.008417
2159.000000	0.008016
2158.000000	0.007567
2157.000000	0.007270
2156.000000	0.007185
2155.000000	0.007246
2154.000000	0.007404
2153.000000	0.007631
2152.000000	0.007851
2151.000000	0.007996
2150.000000	0.008110
2149.000000	0.008254
2148.000000	0.008368
2147.000000	0.008331
2146.000000	0.008152
2145.000000	0.007983
2144.000000	0.007932
2143.000000	0.007978
2142.000000	0.008061
2141.000000	0.008152
2140.000000	0.008223
2139.000000	0.008246
2138.000000	0.008243
2137.000000	0.008254
2136.000000	0.008263
2135.000000	0.008207
2134.000000	0.008087
2133.000000	0.007980
2132.000000	0.007946
2131.000000	0.007987
2130.000000	0.008082
2129.000000	0.008208
2128.000000	0.008322
2127.000000	0.008396
2126.000000	0.008462
2125.000000	0.008567
2124.000000	0.008702
2123.000000	0.008804
2122.000000	0.008847
2121.000000	0.008856
2120.000000	0.008848
2119.000000	0.008812
2118.000000	0.008759
2117.000000	0.008734
2116.000000	0.008767
2115.000000	0.008842
2114.000000	0.008930
2113.000000	0.009000
2112.000000	0.009012
2111.000000	0.008950
2110.000000	0.008866
2109.000000	0.008838
2108.000000	0.008867
2107.000000	0.008891
2106.000000	0.008878
2105.000000	0.008860
2104.000000	0.008865
2103.000000	0.008883
2102.000000	0.008910
2101.000000	0.008958
2100.000000	0.009010
2099.000000	0.009019
2098.000000	0.008971
2097.000000	0.008904
2096.000000	0.008852
2095.000000	0.008816
2094.000000	0.008795
2093.000000	0.008790
2092.000000	0.008774
2091.000000	0.008733
2090.000000	0.008709
2089.000000	0.008758
2088.000000	0.008854
2087.000000	0.008903
2086.000000	0.008866
2085.000000	0.008790
2084.000000	0.008724
2083.000000	0.008673
2082.000000	0.008650
2081.000000	0.008691
2080.000000	0.008792
2079.000000	0.008896
2078.000000	0.008951
2077.000000	0.008946
2076.000000	0.008870
2075.000000	0.008716
2074.000000	0.008539
2073.000000	0.008436
2072.000000	0.008447
2071.000000	0.008518
2070.000000	0.008590
2069.000000	0.008650
2068.000000	0.008690
2067.000000	0.008693
2066.000000	0.008685
2065.000000	0.008705
2064.000000	0.008722
2063.000000	0.008647
2062.000000	0.008468
2061.000000	0.008288
2060.000000	0.008207
2059.000000	0.008232
2058.000000	0.008329
2057.000000	0.008464
2056.000000	0.008572
2055.000000	0.008587
2054.000000	0.008529
2053.000000	0.008492
2052.000000	0.008512
2051.000000	0.008509
2050.000000	0.008394
2049.000000	0.008184
2048.000000	0.007965
2047.000000	0.007814
2046.000000	0.007789
2045.000000	0.007904
2044.000000	0.008057
2043.000000	0.008084
2042.000000	0.007918
2041.000000	0.007635
2040.000000	0.007331
2039.000000	0.007062
2038.000000	0.006895
2037.000000	0.006893
2036.000000	0.006992
2035.000000	0.007051
2034.000000	0.007048
2033.000000	0.007092
2032.000000	0.007216
2031.000000	0.007332
2030.000000	0.007406
2029.000000	0.007503
2028.000000	0.007624
2027.000000	0.007662
2026.000000	0.007566
2025.000000	0.007393
2024.000000	0.007180
2023.000000	0.006901
2022.000000	0.006615
2021.000000	0.006485
2020.000000	0.006586
2019.000000	0.006821
2018.000000	0.007060
2017.000000	0.007232
2016.000000	0.007292
2015.000000	0.007235
2014.000000	0.007163
2013.000000	0.007207
2012.000000	0.007360
2011.000000	0.007505
2010.000000	0.007588
2009.000000	0.007645
2008.000000	0.007674
2007.000000	0.007639
2006.000000	0.007576
2005.000000	0.007545
2004.000000	0.007509
2003.000000	0.007406
2002.000000	0.007286
2001.000000	0.007241
2000.000000	0.007230
1999.000000	0.007163
1998.000000	0.007085
1997.000000	0.007126
1996.000000	0.007268
1995.000000	0.007353
1994.000000	0.007315
1993.000000	0.007257
1992.000000	0.007271
1991.000000	0.007335
1990.000000	0.007413
1989.000000	0.007507
1988.000000	0.007584
1987.000000	0.007581
1986.000000	0.007514
1985.000000	0.007462
1984.000000	0.007456
1983.000000	0.007484
1982.000000	0.007596
1981.000000	0.007821
1980.000000	0.008006
1979.000000	0.007941
1978.000000	0.007655
1977.000000	0.007394
1976.000000	0.007260
1975.000000	0.007116
1974.000000	0.006894
1973.000000	0.006709
1972.000000	0.006640
1971.000000	0.006623
1970.000000	0.006614
1969.000000	0.006653
1968.000000	0.006726
1967.000000	0.006744
1966.000000	0.006700
1965.000000	0.006679
1964.000000	0.006697
1963.000000	0.006687
1962.000000	0.006662
1961.000000	0.006716
1960.000000	0.006868
1959.000000	0.007035
1958.000000	0.007179
1957.000000	0.007329
1956.000000	0.007471
1955.000000	0.007552
1954.000000	0.007593
1953.000000	0.007650
1952.000000	0.007679
1951.000000	0.007571
1950.000000	0.007353
1949.000000	0.007187
1948.000000	0.007151
1947.000000	0.007169
1946.000000	0.007181
1945.000000	0.007224
1944.000000	0.007314
1943.000000	0.007376
1942.000000	0.007373
1941.000000	0.007362
1940.000000	0.007384
1939.000000	0.007398
1938.000000	0.007376
1937.000000	0.007360
1936.000000	0.007385
1935.000000	0.007427
1934.000000	0.007453
1933.000000	0.007476
1932.000000	0.007507
1931.000000	0.007521
1930.000000	0.007517
1929.000000	0.007530
1928.000000	0.007564
1927.000000	0.007595
1926.000000	0.007632
1925.000000	0.007717
1924.000000	0.007817
1923.000000	0.007835
1922.000000	0.007739
1921.000000	0.007607
1920.000000	0.007502
1919.000000	0.007423
1918.000000	0.007373
1917.000000	0.007387
1916.000000	0.007457
1915.000000	0.007535
1914.000000	0.007596
1913.000000	0.007639
1912.000000	0.007645
1911.000000	0.007592
1910.000000	0.007520
1909.000000	0.007486
1908.000000	0.007480
1907.000000	0.007452
1906.000000	0.007413
1905.000000	0.007418
1904.000000	0.007459
1903.000000	0.007472
1902.000000	0.007457
1901.000000	0.007463
1900.000000	0.007484
1899.000000	0.007475
1898.000000	0.007436
1897.000000	0.007426
1896.000000	0.007448
1895.000000	0.007451
1894.000000	0.007437
1893.000000	0.007447
1892.000000	0.007475
1891.000000	0.007467
1890.000000	0.007430
1889.000000	0.007427
1888.000000	0.007450
1887.000000	0.007437
1886.000000	0.007378
1885.000000	0.007320
1884.000000	0.007272
1883.000000	0.007210
1882.000000	0.007161
1881.000000	0.007181
1880.000000	0.007255
1879.000000	0.007310
1878.000000	0.007325
1877.000000	0.007346
1876.000000	0.007390
1875.000000	0.007405
1874.000000	0.007366
1873.000000	0.007313
1872.000000	0.007274
1871.000000	0.007225
1870.000000	0.007174
1869.000000	0.007169
1868.000000	0.007199
1867.000000	0.007194
1866.000000	0.007165
1865.000000	0.007166
1864.000000	0.007193
1863.000000	0.007197
1862.000000	0.007181
1861.000000	0.007201
1860.000000	0.007260
1859.000000	0.007293
1858.000000	0.007278
1857.000000	0.007258
1856.000000	0.007250
1855.000000	0.007234
1854.000000	0.007221
1853.000000	0.007234
1852.000000	0.007241
1851.000000	0.007202
1850.000000	0.007130
1849.000000	0.007087
1848.000000	0.007086
1847.000000	0.007088
1846.000000	0.007076
1845.000000	0.007071
1844.000000	0.007073
1843.000000	0.007056
1842.000000	0.007052
1841.000000	0.007105
1840.000000	0.007179
1839.000000	0.007197
1838.000000	0.007144
1837.000000	0.007086
1836.000000	0.007060
1835.000000	0.007037
1834.000000	0.007001
1833.000000	0.006972
1832.000000	0.006960
1831.000000	0.006950
1830.000000	0.006927
1829.000000	0.006919
1828.000000	0.006959
1827.000000	0.007035
1826.000000	0.007115
1825.000000	0.007189
1824.000000	0.007243
1823.000000	0.007244
1822.000000	0.007201
1821.000000	0.007164
1820.000000	0.007159
1819.000000	0.007159
1818.000000	0.007141
1817.000000	0.007148
1816.000000	0.007193
1815.000000	0.007228
1814.000000	0.007226
1813.000000	0.007219
1812.000000	0.007232
1811.000000	0.007221
1810.000000	0.007171
1809.000000	0.007148
1808.000000	0.007173
1807.000000	0.007184
1806.000000	0.007163
1805.000000	0.007170
1804.000000	0.007225
1803.000000	0.007263
1802.000000	0.007238
1801.000000	0.007190
1800.000000	0.007181
1799.000000	0.007198
1798.000000	0.007228
1797.000000	0.007281
1796.000000	0.007318
1795.000000	0.007269
1794.000000	0.007127
1793.000000	0.006979
1792.000000	0.006915
1791.000000	0.006902
1790.000000	0.006910
1789.000000	0.006964
1788.000000	0.007052
1787.000000	0.007113
1786.000000	0.007120
1785.000000	0.007109
1784.000000	0.007094
1783.000000	0.007063
1782.000000	0.007030
1781.000000	0.007017
1780.000000	0.007021
1779.000000	0.007003
1778.000000	0.006961
1777.000000	0.006920
1776.000000	0.006884
1775.000000	0.006835
1774.000000	0.006756
1773.000000	0.006656
1772.000000	0.006586
1771.000000	0.006563
1770.000000	0.006584
1769.000000	0.006652
1768.000000	0.006733
1767.000000	0.006772
1766.000000	0.006765
1765.000000	0.006771
1764.000000	0.006814
1763.000000	0.006845
1762.000000	0.006809
1761.000000	0.006732
1760.000000	0.006690
1759.000000	0.006697
1758.000000	0.006726
1757.000000	0.006740
1756.000000	0.006723
1755.000000	0.006690
1754.000000	0.006651
1753.000000	0.006612
1752.000000	0.006597
1751.000000	0.006645
1750.000000	0.006766
1749.000000	0.006944
1748.000000	0.007149
1747.000000	0.007356
1746.000000	0.007551
1745.000000	0.007732
1744.000000	0.007903
1743.000000	0.008029
1742.000000	0.008095
1741.000000	0.008164
1740.000000	0.008304
1739.000000	0.008476
1738.000000	0.008613
1737.000000	0.008722
1736.000000	0.008803
1735.000000	0.008800
1734.000000	0.008740
1733.000000	0.008683
1732.000000	0.008649
1731.000000	0.008619
1730.000000	0.008574
1729.000000	0.008515
1728.000000	0.008441
1727.000000	0.008349
1726.000000	0.008239
1725.000000	0.008134
1724.000000	0.008045
1723.000000	0.007931
1722.000000	0.007785
1721.000000	0.007675
1720.000000	0.007634
1719.000000	0.007612
1718.000000	0.007590
1717.000000	0.007695
1716.000000	0.007951
1715.000000	0.008231
1714.000000	0.008535
1713.000000	0.008941
1712.000000	0.009411
1711.000000	0.009845
1710.000000	0.010237
1709.000000	0.010666
1708.000000	0.011180
1707.000000	0.011766
1706.000000	0.012431
1705.000000	0.013185
1704.000000	0.013925
1703.000000	0.014556
1702.000000	0.015150
1701.000000	0.015954
1700.000000	0.017046
1699.000000	0.018010
1698.000000	0.018823
1697.000000	0.019840
1696.000000	0.021139
1695.000000	0.022355
1694.000000	0.023296
1693.000000	0.024175
1692.000000	0.025153
1691.000000	0.026183
1690.000000	0.027182
1689.000000	0.028118
1688.000000	0.028975
1687.000000	0.029753
1686.000000	0.030545
1685.000000	0.031613
1684.000000	0.033009
1683.000000	0.034306
1682.000000	0.035409
1681.000000	0.036496
1680.000000	0.037602
1679.000000	0.038629
1678.000000	0.039581
1677.000000	0.040618
1676.000000	0.041878
1675.000000	0.043255
1674.000000	0.044497
1673.000000	0.045559
1672.000000	0.046610
1671.000000	0.047782
1670.000000	0.049147
1669.000000	0.050638
1668.000000	0.052054
1667.000000	0.053265
1666.000000	0.054313
1665.000000	0.055360
1664.000000	0.056543
1663.000000	0.057834
1662.000000	0.059094
1661.000000	0.060235
1660.000000	0.061287
1659.000000	0.062281
1658.000000	0.063172
1657.000000	0.063927
1656.000000	0.064582
1655.000000	0.065274
1654.000000	0.066261
1653.000000	0.067634
1652.000000	0.068681
1651.000000	0.069139
1650.000000	0.069335
1649.000000	0.069620
1648.000000	0.070129
1647.000000	0.070807
1646.000000	0.071460
1645.000000	0.072000
1644.000000	0.072433
1643.000000	0.072764
1642.000000	0.073033
1641.000000	0.073257
1640.000000	0.073407
1639.000000	0.073446
1638.000000	0.073411
1637.000000	0.073409
1636.000000	0.073490
1635.000000	0.073576
1634.000000	0.073564
1633.000000	0.073479
1632.000000	0.073324
1631.000000	0.073048
1630.000000	0.072624
1629.000000	0.072069
1628.000000	0.071395
1627.000000	0.070617
1626.000000	0.069757
1625.000000	0.068808
1624.000000	0.067746
1623.000000	0.066598
1622.000000	0.065461
1621.000000	0.064381
1620.000000	0.063323
1619.000000	0.062207
1618.000000	0.060934
1617.000000	0.059470
1616.000000	0.057944
1615.000000	0.056570
1614.000000	0.055410
1613.000000	0.054327
1612.000000	0.053172
1611.000000	0.051941
1610.000000	0.050739
1609.000000	0.049602
1608.000000	0.048500
1607.000000	0.047463
1606.000000	0.046544
1605.000000	0.045690
1604.000000	0.044841
1603.000000	0.044030
1602.000000	0.043317
1601.000000	0.042684
1600.000000	0.042092
1599.000000	0.041572
1598.000000	0.041154
1597.000000	0.040789
1596.000000	0.040417
1595.000000	0.040070
1594.000000	0.039817
1593.000000	0.039645
1592.000000	0.039498
1591.000000	0.039389
1590.000000	0.039361
1589.000000	0.039391
1588.000000	0.039427
1587.000000	0.039494
1586.000000	0.039646
1585.000000	0.039849
1584.000000	0.040039
1583.000000	0.040259
1582.000000	0.040576
1581.000000	0.040931
1580.000000	0.041232
1579.000000	0.041513
1578.000000	0.041873
1577.000000	0.042332
1576.000000	0.042813
1575.000000	0.043264
1574.000000	0.043703
1573.000000	0.044125
1572.000000	0.044537
1571.000000	0.045008
1570.000000	0.045625
1569.000000	0.046303
1568.000000	0.046905
1567.000000	0.047500
1566.000000	0.048192
1565.000000	0.048956
1564.000000	0.049670
1563.000000	0.050293
1562.000000	0.050842
1561.000000	0.051291
1560.000000	0.051736
1559.000000	0.052581
1558.000000	0.053677
1557.000000	0.054627
1556.000000	0.055439
1555.000000	0.056228
1554.000000	0.056990
1553.000000	0.057642
1552.000000	0.058212
1551.000000	0.058786
1550.000000	0.059372
1549.000000	0.059889
1548.000000	0.060288
1547.000000	0.060626
1546.000000	0.060967
1545.000000	0.061305
1544.000000	0.061560
1543.000000	0.061680
1542.000000	0.061732
1541.000000	0.061899
1540.000000	0.062242
1539.000000	0.062579
1538.000000	0.062775
1537.000000	0.062833
1536.000000	0.062797
1535.000000	0.062702
1534.000000	0.062599
1533.000000	0.062531
1532.000000	0.062468
1531.000000	0.062345
1530.000000	0.062159
1529.000000	0.061962
1528.000000	0.061773
1527.000000	0.061541
1526.000000	0.061223
1525.000000	0.060862
1524.000000	0.060529
1523.000000	0.060232
1522.000000	0.059936
1521.000000	0.059627
1520.000000	0.059283
1519.000000	0.058918
1518.000000	0.058559
1517.000000	0.058215
1516.000000	0.057843
1515.000000	0.057399
1514.000000	0.056883
1513.000000	0.056318
1512.000000	0.055722
1511.000000	0.055075
1510.000000	0.054355
1509.000000	0.053550
1508.000000	0.052627
1507.000000	0.051501
1506.000000	0.050323
1505.000000	0.049443
1504.000000	0.048840
1503.000000	0.048284
1502.000000	0.047623
1501.000000	0.046819
1500.000000	0.045943
1499.000000	0.045063
1498.000000	0.044155
1497.000000	0.043229
1496.000000	0.042352
1495.000000	0.041525
1494.000000	0.040733
1493.000000	0.040000
1492.000000	0.039321
1491.000000	0.038633
1490.000000	0.037922
1489.000000	0.037303
1488.000000	0.036857
1487.000000	0.036502
1486.000000	0.036200
1485.000000	0.035985
1484.000000	0.035851
1483.000000	0.035776
1482.000000	0.035754
1481.000000	0.035824
1480.000000	0.035983
1479.000000	0.036185
1478.000000	0.036422
1477.000000	0.036752
1476.000000	0.037188
1475.000000	0.037671
1474.000000	0.038234
1473.000000	0.038982
1472.000000	0.039878
1471.000000	0.040715
1470.000000	0.041428
1469.000000	0.042088
1468.000000	0.042727
1467.000000	0.043309
1466.000000	0.043853
1465.000000	0.044424
1464.000000	0.045004
1463.000000	0.045496
1462.000000	0.045870
1461.000000	0.046211
1460.000000	0.046613
1459.000000	0.047158
1458.000000	0.047908
1457.000000	0.048832
1456.000000	0.049683
1455.000000	0.050290
1454.000000	0.050739
1453.000000	0.051144
1452.000000	0.051504
1451.000000	0.051754
1450.000000	0.051895
1449.000000	0.052007
1448.000000	0.052130
1447.000000	0.052222
1446.000000	0.052252
1445.000000	0.052234
1444.000000	0.052200
1443.000000	0.052140
1442.000000	0.052026
1441.000000	0.051854
1440.000000	0.051649
1439.000000	0.051425
1438.000000	0.051146
1437.000000	0.050807
1436.000000	0.050459
1435.000000	0.050131
1434.000000	0.049806
1433.000000	0.049473
1432.000000	0.049121
1431.000000	0.048745
1430.000000	0.048359
1429.000000	0.048007
1428.000000	0.047726
1427.000000	0.047502
1426.000000	0.047299
1425.000000	0.047073
1424.000000	0.046850
1423.000000	0.046683
1422.000000	0.046562
1421.000000	0.046446
1420.000000	0.046333
1419.000000	0.046257
1418.000000	0.046163
1417.000000	0.046035
1416.000000	0.045944
1415.000000	0.045901
1414.000000	0.045850
1413.000000	0.045762
1412.000000	0.045676
1411.000000	0.045625
1410.000000	0.045578
1409.000000	0.045512
1408.000000	0.045455
1407.000000	0.045428
1406.000000	0.045416
1405.000000	0.045388
1404.000000	0.045347
1403.000000	0.045300
1402.000000	0.045228
1401.000000	0.045117
1400.000000	0.044989
1399.000000	0.044874
1398.000000	0.044763
1397.000000	0.044642
1396.000000	0.044507
1395.000000	0.044352
1394.000000	0.044139
1393.000000	0.043845
1392.000000	0.043520
1391.000000	0.043213
1390.000000	0.042921
1389.000000	0.042616
1388.000000	0.042288
1387.000000	0.041953
1386.000000	0.041626
1385.000000	0.041309
1384.000000	0.040999
1383.000000	0.040692
1382.000000	0.040387
1381.000000	0.040090
1380.000000	0.039791
1379.000000	0.039458
1378.000000	0.039073
1377.000000	0.038654
1376.000000	0.038228
1375.000000	0.037818
1374.000000	0.037417
1373.000000	0.036998
1372.000000	0.036559
1371.000000	0.036106
1370.000000	0.035642
1369.000000	0.035133
1368.000000	0.034569
1367.000000	0.033994
1366.000000	0.033454
1365.000000	0.032957
1364.000000	0.032484
1363.000000	0.032018
1362.000000	0.031570
1361.000000	0.031172
1360.000000	0.030849
1359.000000	0.030609
1358.000000	0.030451
1357.000000	0.030360
1356.000000	0.030320
1355.000000	0.030322
1354.000000	0.030360
1353.000000	0.030440
1352.000000	0.030573
1351.000000	0.030760
1350.000000	0.031001
1349.000000	0.031265
1348.000000	0.031529
1347.000000	0.031793
1346.000000	0.032073
1345.000000	0.032369
1344.000000	0.032669
1343.000000	0.032977
1342.000000	0.033307
1341.000000	0.033655
1340.000000	0.033984
1339.000000	0.034242
1338.000000	0.034403
1337.000000	0.034474
1336.000000	0.034478
1335.000000	0.034439
1334.000000	0.034364
1333.000000	0.034246
1332.000000	0.034079
1331.000000	0.033874
1330.000000	0.033656
1329.000000	0.033439
1328.000000	0.033216
1327.000000	0.032982
1326.000000	0.032753
1325.000000	0.032544
1324.000000	0.032372
1323.000000	0.032249
1322.000000	0.032174
1321.000000	0.032128
1320.000000	0.032084
1319.000000	0.032029
1318.000000	0.031961
1317.000000	0.031882
1316.000000	0.031798
1315.000000	0.031710
1314.000000	0.031605
1313.000000	0.031467
1312.000000	0.031299
1311.000000	0.031120
1310.000000	0.030941
1309.000000	0.030755
1308.000000	0.030562
1307.000000	0.030369
1306.000000	0.030180
1305.000000	0.029981
1304.000000	0.029769
1303.000000	0.029558
1302.000000	0.029362
1301.000000	0.029182
1300.000000	0.029014
1299.000000	0.028865
1298.000000	0.028740
1297.000000	0.028640
1296.000000	0.028567
1295.000000	0.028529
1294.000000	0.028534
1293.000000	0.028579
1292.000000	0.028666
1291.000000	0.028794
1290.000000	0.028958
1289.000000	0.029139
1288.000000	0.029317
1287.000000	0.029485
1286.000000	0.029646
1285.000000	0.029808
1284.000000	0.029979
1283.000000	0.030158
1282.000000	0.030325
1281.000000	0.030460
1280.000000	0.030553
1279.000000	0.030606
1278.000000	0.030627
1277.000000	0.030627
1276.000000	0.030627
1275.000000	0.030640
1274.000000	0.030663
1273.000000	0.030682
1272.000000	0.030698
1271.000000	0.030729
1270.000000	0.030795
1269.000000	0.030898
1268.000000	0.031018
1267.000000	0.031137
1266.000000	0.031248
1265.000000	0.031368
1264.000000	0.031524
1263.000000	0.031726
1262.000000	0.031951
1261.000000	0.032174
1260.000000	0.032398
1259.000000	0.032644
1258.000000	0.032920
1257.000000	0.033209
1256.000000	0.033496
1255.000000	0.033781
1254.000000	0.034072
1253.000000	0.034372
1252.000000	0.034682
1251.000000	0.035001
1250.000000	0.035328
1249.000000	0.035661
1248.000000	0.036002
1247.000000	0.036355
1246.000000	0.036714
1245.000000	0.037067
1244.000000	0.037404
1243.000000	0.037718
1242.000000	0.038002
1241.000000	0.038247
1240.000000	0.038447
1239.000000	0.038600
1238.000000	0.038710
1237.000000	0.038784
1236.000000	0.038824
1235.000000	0.038823
1234.000000	0.038775
1233.000000	0.038679
1232.000000	0.038540
1231.000000	0.038351
1230.000000	0.038092
1229.000000	0.037750
1228.000000	0.037338
1227.000000	0.036875
1226.000000	0.036372
1225.000000	0.035827
1224.000000	0.035243
1223.000000	0.034636
1222.000000	0.034016
1221.000000	0.033385
1220.000000	0.032752
1219.000000	0.032147
1218.000000	0.031613
1217.000000	0.031176
1216.000000	0.030840
1215.000000	0.030595
1214.000000	0.030425
1213.000000	0.030311
1212.000000	0.030227
1211.000000	0.030166
1210.000000	0.030132
1209.000000	0.030141
1208.000000	0.030197
1207.000000	0.030284
1206.000000	0.030375
1205.000000	0.030450
1204.000000	0.030497
1203.000000	0.030502
1202.000000	0.030453
1201.000000	0.030345
1200.000000	0.030182
1199.000000	0.029960
1198.000000	0.029671
1197.000000	0.029325
1196.000000	0.028949
1195.000000	0.028566
1194.000000	0.028180
1193.000000	0.027791
1192.000000	0.027400
1191.000000	0.027012
1190.000000	0.026623
1189.000000	0.026234
1188.000000	0.025861
1187.000000	0.025520
1186.000000	0.025210
1185.000000	0.024922
1184.000000	0.024661
1183.000000	0.024433
1182.000000	0.024236
1181.000000	0.024066
1180.000000	0.023933
1179.000000	0.023853
1178.000000	0.023819
1177.000000	0.023804
1176.000000	0.023790
1175.000000	0.023781
1174.000000	0.023793
1173.000000	0.023827
1172.000000	0.023868
1171.000000	0.023902
1170.000000	0.023928
1169.000000	0.023973
1168.000000	0.024074
1167.000000	0.024235
1166.000000	0.024420
1165.000000	0.024584
1164.000000	0.024713
1163.000000	0.024816
1162.000000	0.024900
1161.000000	0.024952
1160.000000	0.024958
1159.000000	0.024912
1158.000000	0.024815
1157.000000	0.024671
1156.000000	0.024483
1155.000000	0.024258
1154.000000	0.023997
1153.000000	0.023707
1152.000000	0.023403
1151.000000	0.023096
1150.000000	0.022782
1149.000000	0.022447
1148.000000	0.022100
1147.000000	0.021763
1146.000000	0.021451
1145.000000	0.021158
1144.000000	0.020877
1143.000000	0.020607
1142.000000	0.020353
1141.000000	0.020113
1140.000000	0.019889
1139.000000	0.019684
1138.000000	0.019502
1137.000000	0.019345
1136.000000	0.019211
1135.000000	0.019098
1134.000000	0.019002
1133.000000	0.018934
1132.000000	0.018906
1131.000000	0.018915
1130.000000	0.018937
1129.000000	0.018951
1128.000000	0.018958
1127.000000	0.018975
1126.000000	0.019007
1125.000000	0.019049
1124.000000	0.019099
1123.000000	0.019158
1122.000000	0.019224
1121.000000	0.019287
1120.000000	0.019341
1119.000000	0.019394
1118.000000	0.019461
1117.000000	0.019563
1116.000000	0.019704
1115.000000	0.019861
1114.000000	0.019997
1113.000000	0.020093
1112.000000	0.020170
1111.000000	0.020262
1110.000000	0.020380
1109.000000	0.020511
1108.000000	0.020644
1107.000000	0.020774
1106.000000	0.020897
1105.000000	0.021008
1104.000000	0.021113
1103.000000	0.021223
1102.000000	0.021341
1101.000000	0.021459
1100.000000	0.021566
1099.000000	0.021650
1098.000000	0.021718
1097.000000	0.021802
1096.000000	0.021930
1095.000000	0.022105
1094.000000	0.022309
1093.000000	0.022545
1092.000000	0.022847
1091.000000	0.023235
1090.000000	0.023688
1089.000000	0.024168
1088.000000	0.024657
1087.000000	0.025161
1086.000000	0.025671
1085.000000	0.026155
1084.000000	0.026570
1083.000000	0.026878
1082.000000	0.027061
1081.000000	0.027134
1080.000000	0.027120
1079.000000	0.027027
1078.000000	0.026848
1077.000000	0.026588
1076.000000	0.026271
1075.000000	0.025928
1074.000000	0.025580
1073.000000	0.025246
1072.000000	0.024956
1071.000000	0.024728
1070.000000	0.024555
1069.000000	0.024413
1068.000000	0.024295
1067.000000	0.024205
1066.000000	0.024148
1065.000000	0.024136
1064.000000	0.024191
1063.000000	0.024312
1062.000000	0.024453
1061.000000	0.024556
1060.000000	0.024607
1059.000000	0.024632
1058.000000	0.024660
1057.000000	0.024687
1056.000000	0.024693
1055.000000	0.024677
1054.000000	0.024654
1053.000000	0.024637
1052.000000	0.024624
1051.000000	0.024606
1050.000000	0.024583
1049.000000	0.024568
1048.000000	0.024578
1047.000000	0.024609
1046.000000	0.024642
1045.000000	0.024663
1044.000000	0.024674
1043.000000	0.024692
1042.000000	0.024735
1041.000000	0.024816
1040.000000	0.024945
1039.000000	0.025122
1038.000000	0.025346
1037.000000	0.025612
1036.000000	0.025913
1035.000000	0.026231
1034.000000	0.026534
1033.000000	0.026801
1032.000000	0.027029
1031.000000	0.027224
1030.000000	0.027378
1029.000000	0.027479
1028.000000	0.027523
1027.000000	0.027520
1026.000000	0.027490
1025.000000	0.027459
1024.000000	0.027441
1023.000000	0.027434
1022.000000	0.027424
1021.000000	0.027405
1020.000000	0.027382
1019.000000	0.027353
1018.000000	0.027300
1017.000000	0.027203
1016.000000	0.027033
1015.000000	0.026765
1014.000000	0.026382
1013.000000	0.025905
1012.000000	0.025375
1011.000000	0.024825
1010.000000	0.024262
1009.000000	0.023694
1008.000000	0.023146
1007.000000	0.022641
1006.000000	0.022170
1005.000000	0.021716
1004.000000	0.021274
1003.000000	0.020860
1002.000000	0.020478
1001.000000	0.020115
1000.000000	0.019766
999.000000	0.019441
998.000000	0.019141
997.000000	0.018854
996.000000	0.018559
995.000000	0.018253
994.000000	0.017939
993.000000	0.017625
992.000000	0.017315
991.000000	0.017010
990.000000	0.016714
989.000000	0.016446
988.000000	0.016219
987.000000	0.016026
986.000000	0.015834
985.000000	0.015624
984.000000	0.015424
983.000000	0.015274
982.000000	0.015181
981.000000	0.015109
980.000000	0.015028
979.000000	0.014933
978.000000	0.014832
977.000000	0.014724
976.000000	0.014608
975.000000	0.014491
974.000000	0.014379
973.000000	0.014264
972.000000	0.014134
971.000000	0.013979
970.000000	0.013797
969.000000	0.013586
968.000000	0.013350
967.000000	0.013102
966.000000	0.012859
965.000000	0.012634
964.000000	0.012431
963.000000	0.012246
962.000000	0.012073
961.000000	0.011901
960.000000	0.011720
959.000000	0.011520
958.000000	0.011299
957.000000	0.011078
956.000000	0.010882
955.000000	0.010724
954.000000	0.010593
953.000000	0.010470
952.000000	0.010354
951.000000	0.010247
950.000000	0.010146
949.000000	0.010052
948.000000	0.009979
947.000000	0.009946
946.000000	0.009950
945.000000	0.009968
944.000000	0.009985
943.000000	0.009998
942.000000	0.010015
941.000000	0.010034
940.000000	0.010051
939.000000	0.010054
938.000000	0.010032
937.000000	0.009983
936.000000	0.009918
935.000000	0.009850
934.000000	0.009785
933.000000	0.009724
932.000000	0.009672
931.000000	0.009630
930.000000	0.009595
929.000000	0.009563
928.000000	0.009529
927.000000	0.009485
926.000000	0.009424
925.000000	0.009352
924.000000	0.009291
923.000000	0.009247
922.000000	0.009201
921.000000	0.009128
920.000000	0.009030
919.000000	0.008926
918.000000	0.008827
917.000000	0.008725
916.000000	0.008607
915.000000	0.008465
914.000000	0.008297
913.000000	0.008111
912.000000	0.007931
911.000000	0.007772
910.000000	0.007638
909.000000	0.007527
908.000000	0.007453
907.000000	0.007419
906.000000	0.007403
905.000000	0.007366
904.000000	0.007292
903.000000	0.007194
902.000000	0.007099
901.000000	0.007028
900.000000	0.006990
899.000000	0.006971
898.000000	0.006942
897.000000	0.006880
896.000000	0.006801
895.000000	0.006735
894.000000	0.006689
893.000000	0.006646
892.000000	0.006593
891.000000	0.006542
890.000000	0.006511
889.000000	0.006520
888.000000	0.006586
887.000000	0.006735
886.000000	0.006985
885.000000	0.007331
884.000000	0.007754
883.000000	0.008248
882.000000	0.008831
881.000000	0.009537
880.000000	0.010367
879.000000	0.011245
878.000000	0.012030
877.000000	0.012579
876.000000	0.012811
875.000000	0.012723
874.000000	0.012362
873.000000	0.011805
872.000000	0.011141
871.000000	0.010455
870.000000	0.009815
869.000000	0.009266
868.000000	0.008827
867.000000	0.008492
866.000000	0.008244
865.000000	0.008065
864.000000	0.007939
863.000000	0.007845
862.000000	0.007764
861.000000	0.007689
860.000000	0.007637
859.000000	0.007621
858.000000	0.007637
857.000000	0.007671
856.000000	0.007708
855.000000	0.007740
854.000000	0.007767
853.000000	0.007796
852.000000	0.007838
851.000000	0.007885
850.000000	0.007909
849.000000	0.007882
848.000000	0.007786
847.000000	0.007625
846.000000	0.007427
845.000000	0.007241
844.000000	0.007110
843.000000	0.007041
842.000000	0.007019
841.000000	0.007029
840.000000	0.007054
839.000000	0.007062
838.000000	0.007016
837.000000	0.006915
836.000000	0.006805
835.000000	0.006723
834.000000	0.006672
833.000000	0.006639
832.000000	0.006620
831.000000	0.006616
830.000000	0.006616
829.000000	0.006613
828.000000	0.006611
827.000000	0.006617
826.000000	0.006622
825.000000	0.006625
824.000000	0.006642
823.000000	0.006679
822.000000	0.006716
821.000000	0.006738
820.000000	0.006745
819.000000	0.006742
818.000000	0.006729
817.000000	0.006707
816.000000	0.006689
815.000000	0.006683
814.000000	0.006685
813.000000	0.006693
812.000000	0.006708
811.000000	0.006716
810.000000	0.006696
809.000000	0.006657
808.000000	0.006639
807.000000	0.006659
806.000000	0.006690
805.000000	0.006703
804.000000	0.006699
803.000000	0.006690
802.000000	0.006669
801.000000	0.006639
800.000000	0.006631
799.000000	0.006673
798.000000	0.006750
797.000000	0.006820
796.000000	0.006862
795.000000	0.006884
794.000000	0.006904
793.000000	0.006938
792.000000	0.006988
791.000000	0.007034
790.000000	0.007046
789.000000	0.007027
788.000000	0.007024
787.000000	0.007077
786.000000	0.007170
785.000000	0.007256
784.000000	0.007302
783.000000	0.007307
782.000000	0.007282
781.000000	0.007254
780.000000	0.007260
779.000000	0.007309
778.000000	0.007362
777.000000	0.007379
776.000000	0.007364
775.000000	0.007366
774.000000	0.007412
773.000000	0.007491
772.000000	0.007576
771.000000	0.007640
770.000000	0.007660
769.000000	0.007635
768.000000	0.007604
767.000000	0.007615
766.000000	0.007670
765.000000	0.007724
764.000000	0.007748
763.000000	0.007759
762.000000	0.007789
761.000000	0.007836
760.000000	0.007872
759.000000	0.007882
758.000000	0.007885
757.000000	0.007919
756.000000	0.007997
755.000000	0.008094
754.000000	0.008166
753.000000	0.008184
752.000000	0.008163
751.000000	0.008145
750.000000	0.008158
749.000000	0.008205
748.000000	0.008273
747.000000	0.008342
746.000000	0.008398
745.000000	0.008438
744.000000	0.008484
743.000000	0.008566
742.000000	0.008686
741.000000	0.008810
740.000000	0.008902
739.000000	0.008952
738.000000	0.008985
737.000000	0.009031
736.000000	0.009108
735.000000	0.009211
734.000000	0.009328
733.000000	0.009462
732.000000	0.009630
731.000000	0.009835
730.000000	0.010040
729.000000	0.010206
728.000000	0.010337
727.000000	0.010462
726.000000	0.010600
725.000000	0.010752
724.000000	0.010917
723.000000	0.011111
722.000000	0.011349
721.000000	0.011622
720.000000	0.011891
719.000000	0.012106
718.000000	0.012242
717.000000	0.012312
716.000000	0.012359
715.000000	0.012436
714.000000	0.012579
713.000000	0.012782
712.000000	0.012995
711.000000	0.013154
710.000000	0.013224
709.000000	0.013233
708.000000	0.013248
707.000000	0.013308
706.000000	0.013405
705.000000	0.013517
704.000000	0.013618
703.000000	0.013681
702.000000	0.013687
701.000000	0.013650
700.000000	0.013618
699.000000	0.013627
698.000000	0.013672
697.000000	0.013736
696.000000	0.013802
695.000000	0.013873
694.000000	0.013933
693.000000	0.013953
692.000000	0.013926
691.000000	0.013874
690.000000	0.013836
689.000000	0.013858
688.000000	0.013955
687.000000	0.014082
686.000000	0.014151
685.000000	0.014122
684.000000	0.014074
683.000000	0.014108
682.000000	0.014220
681.000000	0.014332
680.000000	0.014423
679.000000	0.014539
678.000000	0.014679
677.000000	0.014819
676.000000	0.014966
675.000000	0.015146
674.000000	0.015329
673.000000	0.015433
672.000000	0.015396
671.000000	0.015187
670.000000	0.014791
669.000000	0.014286
668.000000	0.014128
667.000000	0.014659
666.000000	0.015211
665.000000	0.015618
664.000000	0.015978
663.000000	0.016238
662.000000	0.016339
661.000000	0.016332
660.000000	0.016302
659.000000	0.016258
658.000000	0.016177
657.000000	0.016114
656.000000	0.016111
655.000000	0.016129
654.000000	0.016140
653.000000	0.016192
652.000000	0.016279
651.000000	0.016317
650.000000	0.016270
649.000000	0.016217
648.000000	0.016212
647.000000	0.016210
646.000000	0.016199
645.000000	0.016230
644.000000	0.016314
643.000000	0.016397
642.000000	0.016449
641.000000	0.016486
640.000000	0.016485
639.000000	0.016381
638.000000	0.016210
637.000000	0.016106
636.000000	0.016120
635.000000	0.016164
634.000000	0.016167
633.000000	0.016166
632.000000	0.016203
631.000000	0.016241
630.000000	0.016254
629.000000	0.016291
628.000000	0.016392
627.000000	0.016517
626.000000	0.016638
625.000000	0.016777
624.000000	0.016918
623.000000	0.016983
622.000000	0.016943
621.000000	0.016868
620.000000	0.016831
619.000000	0.016828
618.000000	0.016829
617.000000	0.016836
616.000000	0.016839
615.000000	0.016803
614.000000	0.016748
613.000000	0.016756
612.000000	0.016850
611.000000	0.016943
610.000000	0.016968
609.000000	0.016969
608.000000	0.017001
607.000000	0.017024
606.000000	0.016979
605.000000	0.016888
604.000000	0.016817
603.000000	0.016795
602.000000	0.016816
601.000000	0.016875
600.000000	0.016951
599.000000	0.017015
598.000000	0.017053
597.000000	0.017068
596.000000	0.017033
595.000000	0.016930
594.000000	0.016834
593.000000	0.016863
592.000000	0.017007
591.000000	0.017123
590.000000	0.017127
589.000000	0.017091
588.000000	0.017096
587.000000	0.017094
586.000000	0.017004
585.000000	0.016858
584.000000	0.016760
583.000000	0.016752
582.000000	0.016802
581.000000	0.016886
580.000000	0.016990
579.000000	0.017081
578.000000	0.017136
577.000000	0.017180
576.000000	0.017255
575.000000	0.017355
574.000000	0.017447
573.000000	0.017518
572.000000	0.017571
571.000000	0.017596
570.000000	0.017600
569.000000	0.017625
568.000000	0.017697
567.000000	0.017803
566.000000	0.017930
565.000000	0.018105
564.000000	0.018332
563.000000	0.018556
562.000000	0.018725
561.000000	0.018850
560.000000	0.018954
559.000000	0.019010
558.000000	0.018989
557.000000	0.018922
556.000000	0.018845
555.000000	0.018750
554.000000	0.018645
553.000000	0.018604
552.000000	0.018662
551.000000	0.018719
550.000000	0.018649
549.000000	0.018465
548.000000	0.018294
547.000000	0.018221
546.000000	0.018213
545.000000	0.018171
544.000000	0.018009
543.000000	0.017719
542.000000	0.017418
541.000000	0.017297
540.000000	0.017452
539.000000	0.017799
538.000000	0.018167
537.000000	0.018440
536.000000	0.018579
535.000000	0.018599
534.000000	0.018555
533.000000	0.018533
532.000000	0.018552
531.000000	0.018553
530.000000	0.018517
529.000000	0.018494
528.000000	0.018483
527.000000	0.018398
526.000000	0.018199
525.000000	0.017938
524.000000	0.017651
523.000000	0.017319
522.000000	0.017004
521.000000	0.016860
520.000000	0.016906
519.000000	0.016940
518.000000	0.016778
517.000000	0.016486
516.000000	0.016206
515.000000	0.015934
514.000000	0.015615
513.000000	0.015311
512.000000	0.015098
511.000000	0.014916
510.000000	0.014703
509.000000	0.014542
508.000000	0.014496
507.000000	0.014434
506.000000	0.014222
505.000000	0.013952
504.000000	0.013787
503.000000	0.013684
502.000000	0.013465
501.000000	0.013130
500.000000	0.012857
499.000000	0.012754
498.000000	0.012777
497.000000	0.012849
496.000000	0.012893
495.000000	0.012795
494.000000	0.012499
493.000000	0.012102
492.000000	0.011738
491.000000	0.011450
490.000000	0.011245
489.000000	0.011181
488.000000	0.011262
487.000000	0.011329
486.000000	0.011231
485.000000	0.011019
484.000000	0.010863
483.000000	0.010836
482.000000	0.010908
481.000000	0.011048
480.000000	0.011197
479.000000	0.011225
478.000000	0.011049
477.000000	0.010776
476.000000	0.010587
475.000000	0.010499
474.000000	0.010396
473.000000	0.010275
472.000000	0.010275
471.000000	0.010455
470.000000	0.010686
469.000000	0.010872
468.000000	0.011079
467.000000	0.011328
466.000000	0.011426
465.000000	0.011163
464.000000	0.010545
463.000000	0.009763
462.000000	0.009050
461.000000	0.008537
460.000000	0.008201
459.000000	0.007920
458.000000	0.007571
457.000000	0.007196
456.000000	0.006954
455.000000	0.006894
454.000000	0.006948
453.000000	0.007032
452.000000	0.007060
451.000000	0.006966
450.000000	0.006774
