PE IR       SUBTECH     SPECTRUM    ASCII       PEDS        4.00        
   -1
3G-H10-F017_1.ASC
22/02/23
15:35:02.00
22/02/23
15:55:22.00
uco
Sample 017 By uco Date Wednesday, February 23 2022
450.000000
#HDR
-1
-1
#GR
cm-1
A
1.0
0.0
4000.000000
-1.000000
3551
8
0.063377
0.006414
#DATA
4000.000000	0.006733
3999.000000	0.006699
3998.000000	0.006673
3997.000000	0.006664
3996.000000	0.006674
3995.000000	0.006693
3994.000000	0.006843
3993.000000	0.006844
3992.000000	0.006835
3991.000000	0.006824
3990.000000	0.006814
3989.000000	0.006806
3988.000000	0.006803
3987.000000	0.006813
3986.000000	0.006833
3985.000000	0.006857
3984.000000	0.006876
3983.000000	0.006889
3982.000000	0.006897
3981.000000	0.006901
3980.000000	0.006896
3979.000000	0.006883
3978.000000	0.006865
3977.000000	0.006849
3976.000000	0.006847
3975.000000	0.006861
3974.000000	0.006885
3973.000000	0.006905
3972.000000	0.006910
3971.000000	0.006903
3970.000000	0.006894
3969.000000	0.006895
3968.000000	0.006908
3967.000000	0.006925
3966.000000	0.006936
3965.000000	0.006935
3964.000000	0.006926
3963.000000	0.006920
3962.000000	0.006925
3961.000000	0.006946
3960.000000	0.006977
3959.000000	0.007009
3958.000000	0.007037
3957.000000	0.007058
3956.000000	0.007072
3955.000000	0.007079
3954.000000	0.007077
3953.000000	0.007065
3952.000000	0.007042
3951.000000	0.007012
3950.000000	0.006978
3949.000000	0.006939
3948.000000	0.006900
3947.000000	0.006874
3946.000000	0.006874
3945.000000	0.006905
3944.000000	0.006955
3943.000000	0.006996
3942.000000	0.007014
3941.000000	0.007013
3940.000000	0.007013
3939.000000	0.007018
3938.000000	0.007022
3937.000000	0.007013
3936.000000	0.006990
3935.000000	0.006965
3934.000000	0.006956
3933.000000	0.006973
3932.000000	0.007010
3931.000000	0.007053
3930.000000	0.007085
3929.000000	0.007100
3928.000000	0.007106
3927.000000	0.007106
3926.000000	0.007100
3925.000000	0.007082
3924.000000	0.007052
3923.000000	0.007018
3922.000000	0.006986
3921.000000	0.006956
3920.000000	0.006928
3919.000000	0.006901
3918.000000	0.006883
3917.000000	0.006881
3916.000000	0.006897
3915.000000	0.006933
3914.000000	0.006985
3913.000000	0.007042
3912.000000	0.007089
3911.000000	0.007112
3910.000000	0.007111
3909.000000	0.007099
3908.000000	0.007091
3907.000000	0.007090
3906.000000	0.007079
3905.000000	0.007032
3904.000000	0.006943
3903.000000	0.006850
3902.000000	0.006808
3901.000000	0.006838
3900.000000	0.006915
3899.000000	0.006990
3898.000000	0.007033
3897.000000	0.007041
3896.000000	0.007030
3895.000000	0.007019
3894.000000	0.007025
3893.000000	0.007046
3892.000000	0.007061
3891.000000	0.007049
3890.000000	0.007012
3889.000000	0.006968
3888.000000	0.006939
3887.000000	0.006937
3886.000000	0.006956
3885.000000	0.006980
3884.000000	0.007003
3883.000000	0.007034
3882.000000	0.007071
3881.000000	0.007094
3880.000000	0.007084
3879.000000	0.007050
3878.000000	0.007020
3877.000000	0.007016
3876.000000	0.007038
3875.000000	0.007071
3874.000000	0.007085
3873.000000	0.007072
3872.000000	0.007043
3871.000000	0.007013
3870.000000	0.006978
3869.000000	0.006941
3868.000000	0.006921
3867.000000	0.006931
3866.000000	0.006965
3865.000000	0.007004
3864.000000	0.007019
3863.000000	0.007012
3862.000000	0.007003
3861.000000	0.007006
3860.000000	0.007022
3859.000000	0.007047
3858.000000	0.007083
3857.000000	0.007131
3856.000000	0.007189
3855.000000	0.007231
3854.000000	0.007189
3853.000000	0.007065
3852.000000	0.006957
3851.000000	0.006925
3850.000000	0.006944
3849.000000	0.006981
3848.000000	0.007019
3847.000000	0.007047
3846.000000	0.007064
3845.000000	0.007066
3844.000000	0.007051
3843.000000	0.007023
3842.000000	0.006990
3841.000000	0.006969
3840.000000	0.006970
3839.000000	0.006989
3838.000000	0.007018
3837.000000	0.007052
3836.000000	0.007083
3835.000000	0.007102
3834.000000	0.007100
3833.000000	0.007080
3832.000000	0.007059
3831.000000	0.007045
3830.000000	0.007045
3829.000000	0.007062
3828.000000	0.007089
3827.000000	0.007109
3826.000000	0.007103
3825.000000	0.007070
3824.000000	0.007032
3823.000000	0.007023
3822.000000	0.007043
3821.000000	0.007047
3820.000000	0.007015
3819.000000	0.006973
3818.000000	0.006956
3817.000000	0.006966
3816.000000	0.006985
3815.000000	0.006995
3814.000000	0.007002
3813.000000	0.007016
3812.000000	0.007035
3811.000000	0.007051
3810.000000	0.007060
3809.000000	0.007065
3808.000000	0.007059
3807.000000	0.007032
3806.000000	0.006991
3805.000000	0.006961
3804.000000	0.006966
3803.000000	0.007010
3802.000000	0.007061
3801.000000	0.007083
3800.000000	0.007082
3799.000000	0.007086
3798.000000	0.007097
3797.000000	0.007100
3796.000000	0.007088
3795.000000	0.007073
3794.000000	0.007072
3793.000000	0.007087
3792.000000	0.007107
3791.000000	0.007122
3790.000000	0.007131
3789.000000	0.007139
3788.000000	0.007152
3787.000000	0.007170
3786.000000	0.007187
3785.000000	0.007192
3784.000000	0.007181
3783.000000	0.007158
3782.000000	0.007138
3781.000000	0.007131
3780.000000	0.007132
3779.000000	0.007130
3778.000000	0.007127
3777.000000	0.007131
3776.000000	0.007142
3775.000000	0.007151
3774.000000	0.007148
3773.000000	0.007131
3772.000000	0.007106
3771.000000	0.007079
3770.000000	0.007055
3769.000000	0.007035
3768.000000	0.007029
3767.000000	0.007034
3766.000000	0.007044
3765.000000	0.007052
3764.000000	0.007056
3763.000000	0.007059
3762.000000	0.007061
3761.000000	0.007061
3760.000000	0.007050
3759.000000	0.007023
3758.000000	0.006987
3757.000000	0.006953
3756.000000	0.006921
3755.000000	0.006882
3754.000000	0.006834
3753.000000	0.006782
3752.000000	0.006741
3751.000000	0.006718
3750.000000	0.006711
3749.000000	0.006712
3748.000000	0.006710
3747.000000	0.006713
3746.000000	0.006742
3745.000000	0.006794
3744.000000	0.006837
3743.000000	0.006856
3742.000000	0.006855
3741.000000	0.006831
3740.000000	0.006784
3739.000000	0.006726
3738.000000	0.006688
3737.000000	0.006688
3736.000000	0.006711
3735.000000	0.006715
3734.000000	0.006685
3733.000000	0.006658
3732.000000	0.006664
3731.000000	0.006702
3730.000000	0.006753
3729.000000	0.006800
3728.000000	0.006835
3727.000000	0.006857
3726.000000	0.006870
3725.000000	0.006881
3724.000000	0.006897
3723.000000	0.006914
3722.000000	0.006914
3721.000000	0.006898
3720.000000	0.006880
3719.000000	0.006868
3718.000000	0.006862
3717.000000	0.006853
3716.000000	0.006834
3715.000000	0.006807
3714.000000	0.006786
3713.000000	0.006785
3712.000000	0.006799
3711.000000	0.006804
3710.000000	0.006794
3709.000000	0.006781
3708.000000	0.006772
3707.000000	0.006771
3706.000000	0.006771
3705.000000	0.006776
3704.000000	0.006790
3703.000000	0.006814
3702.000000	0.006843
3701.000000	0.006870
3700.000000	0.006899
3699.000000	0.006928
3698.000000	0.006949
3697.000000	0.006955
3696.000000	0.006943
3695.000000	0.006918
3694.000000	0.006896
3693.000000	0.006885
3692.000000	0.006881
3691.000000	0.006865
3690.000000	0.006821
3689.000000	0.006767
3688.000000	0.006743
3687.000000	0.006760
3686.000000	0.006798
3685.000000	0.006840
3684.000000	0.006878
3683.000000	0.006908
3682.000000	0.006932
3681.000000	0.006951
3680.000000	0.006965
3679.000000	0.006976
3678.000000	0.006990
3677.000000	0.007021
3676.000000	0.007052
3675.000000	0.007046
3674.000000	0.007003
3673.000000	0.006951
3672.000000	0.006915
3671.000000	0.006915
3670.000000	0.006947
3669.000000	0.006994
3668.000000	0.007049
3667.000000	0.007099
3666.000000	0.007128
3665.000000	0.007140
3664.000000	0.007156
3663.000000	0.007194
3662.000000	0.007246
3661.000000	0.007280
3660.000000	0.007272
3659.000000	0.007235
3658.000000	0.007203
3657.000000	0.007204
3656.000000	0.007230
3655.000000	0.007252
3654.000000	0.007251
3653.000000	0.007227
3652.000000	0.007195
3651.000000	0.007183
3650.000000	0.007204
3649.000000	0.007253
3648.000000	0.007325
3647.000000	0.007408
3646.000000	0.007483
3645.000000	0.007548
3644.000000	0.007613
3643.000000	0.007683
3642.000000	0.007753
3641.000000	0.007805
3640.000000	0.007832
3639.000000	0.007840
3638.000000	0.007839
3637.000000	0.007839
3636.000000	0.007850
3635.000000	0.007873
3634.000000	0.007897
3633.000000	0.007909
3632.000000	0.007910
3631.000000	0.007918
3630.000000	0.007941
3629.000000	0.007961
3628.000000	0.007972
3627.000000	0.008003
3626.000000	0.008066
3625.000000	0.008140
3624.000000	0.008199
3623.000000	0.008235
3622.000000	0.008257
3621.000000	0.008279
3620.000000	0.008304
3619.000000	0.008319
3618.000000	0.008329
3617.000000	0.008347
3616.000000	0.008379
3615.000000	0.008418
3614.000000	0.008451
3613.000000	0.008466
3612.000000	0.008468
3611.000000	0.008482
3610.000000	0.008536
3609.000000	0.008641
3608.000000	0.008775
3607.000000	0.008897
3606.000000	0.008987
3605.000000	0.009053
3604.000000	0.009111
3603.000000	0.009166
3602.000000	0.009212
3601.000000	0.009244
3600.000000	0.009265
3599.000000	0.009284
3598.000000	0.009312
3597.000000	0.009359
3596.000000	0.009424
3595.000000	0.009495
3594.000000	0.009548
3593.000000	0.009573
3592.000000	0.009578
3591.000000	0.009580
3590.000000	0.009601
3589.000000	0.009657
3588.000000	0.009739
3587.000000	0.009828
3586.000000	0.009909
3585.000000	0.009985
3584.000000	0.010056
3583.000000	0.010126
3582.000000	0.010201
3581.000000	0.010286
3580.000000	0.010376
3579.000000	0.010462
3578.000000	0.010536
3577.000000	0.010598
3576.000000	0.010648
3575.000000	0.010685
3574.000000	0.010716
3573.000000	0.010746
3572.000000	0.010781
3571.000000	0.010822
3570.000000	0.010870
3569.000000	0.010928
3568.000000	0.010995
3567.000000	0.011066
3566.000000	0.011141
3565.000000	0.011234
3564.000000	0.011349
3563.000000	0.011469
3562.000000	0.011575
3561.000000	0.011660
3560.000000	0.011732
3559.000000	0.011806
3558.000000	0.011891
3557.000000	0.011985
3556.000000	0.012077
3555.000000	0.012150
3554.000000	0.012194
3553.000000	0.012213
3552.000000	0.012222
3551.000000	0.012241
3550.000000	0.012277
3549.000000	0.012331
3548.000000	0.012401
3547.000000	0.012487
3546.000000	0.012588
3545.000000	0.012692
3544.000000	0.012790
3543.000000	0.012881
3542.000000	0.012969
3541.000000	0.013055
3540.000000	0.013131
3539.000000	0.013192
3538.000000	0.013240
3537.000000	0.013290
3536.000000	0.013352
3535.000000	0.013425
3534.000000	0.013501
3533.000000	0.013572
3532.000000	0.013639
3531.000000	0.013707
3530.000000	0.013777
3529.000000	0.013844
3528.000000	0.013903
3527.000000	0.013956
3526.000000	0.014010
3525.000000	0.014075
3524.000000	0.014154
3523.000000	0.014241
3522.000000	0.014324
3521.000000	0.014396
3520.000000	0.014459
3519.000000	0.014516
3518.000000	0.014570
3517.000000	0.014619
3516.000000	0.014662
3515.000000	0.014700
3514.000000	0.014738
3513.000000	0.014784
3512.000000	0.014838
3511.000000	0.014898
3510.000000	0.014956
3509.000000	0.015007
3508.000000	0.015056
3507.000000	0.015111
3506.000000	0.015178
3505.000000	0.015257
3504.000000	0.015339
3503.000000	0.015415
3502.000000	0.015482
3501.000000	0.015545
3500.000000	0.015610
3499.000000	0.015679
3498.000000	0.015746
3497.000000	0.015807
3496.000000	0.015865
3495.000000	0.015929
3494.000000	0.015999
3493.000000	0.016069
3492.000000	0.016128
3491.000000	0.016177
3490.000000	0.016222
3489.000000	0.016270
3488.000000	0.016320
3487.000000	0.016365
3486.000000	0.016401
3485.000000	0.016434
3484.000000	0.016469
3483.000000	0.016513
3482.000000	0.016568
3481.000000	0.016636
3480.000000	0.016714
3479.000000	0.016794
3478.000000	0.016863
3477.000000	0.016919
3476.000000	0.016963
3475.000000	0.017001
3474.000000	0.017042
3473.000000	0.017088
3472.000000	0.017144
3471.000000	0.017205
3470.000000	0.017268
3469.000000	0.017327
3468.000000	0.017382
3467.000000	0.017434
3466.000000	0.017483
3465.000000	0.017529
3464.000000	0.017576
3463.000000	0.017625
3462.000000	0.017681
3461.000000	0.017744
3460.000000	0.017814
3459.000000	0.017885
3458.000000	0.017952
3457.000000	0.018009
3456.000000	0.018052
3455.000000	0.018083
3454.000000	0.018109
3453.000000	0.018139
3452.000000	0.018187
3451.000000	0.018258
3450.000000	0.018349
3449.000000	0.018443
3448.000000	0.018524
3447.000000	0.018582
3446.000000	0.018630
3445.000000	0.018683
3444.000000	0.018748
3443.000000	0.018818
3442.000000	0.018881
3441.000000	0.018930
3440.000000	0.018967
3439.000000	0.019004
3438.000000	0.019049
3437.000000	0.019104
3436.000000	0.019164
3435.000000	0.019227
3434.000000	0.019295
3433.000000	0.019368
3432.000000	0.019437
3431.000000	0.019493
3430.000000	0.019530
3429.000000	0.019559
3428.000000	0.019600
3427.000000	0.019670
3426.000000	0.019769
3425.000000	0.019874
3424.000000	0.019959
3423.000000	0.020022
3422.000000	0.020076
3421.000000	0.020139
3420.000000	0.020209
3419.000000	0.020277
3418.000000	0.020334
3417.000000	0.020381
3416.000000	0.020427
3415.000000	0.020482
3414.000000	0.020547
3413.000000	0.020616
3412.000000	0.020684
3411.000000	0.020748
3410.000000	0.020814
3409.000000	0.020882
3408.000000	0.020945
3407.000000	0.020995
3406.000000	0.021037
3405.000000	0.021079
3404.000000	0.021131
3403.000000	0.021197
3402.000000	0.021270
3401.000000	0.021342
3400.000000	0.021402
3399.000000	0.021450
3398.000000	0.021494
3397.000000	0.021542
3396.000000	0.021602
3395.000000	0.021674
3394.000000	0.021745
3393.000000	0.021804
3392.000000	0.021850
3391.000000	0.021894
3390.000000	0.021945
3389.000000	0.022004
3388.000000	0.022062
3387.000000	0.022114
3386.000000	0.022167
3385.000000	0.022223
3384.000000	0.022279
3383.000000	0.022333
3382.000000	0.022391
3381.000000	0.022456
3380.000000	0.022525
3379.000000	0.022585
3378.000000	0.022633
3377.000000	0.022675
3376.000000	0.022721
3375.000000	0.022780
3374.000000	0.022850
3373.000000	0.022928
3372.000000	0.023008
3371.000000	0.023089
3370.000000	0.023172
3369.000000	0.023262
3368.000000	0.023356
3367.000000	0.023449
3366.000000	0.023541
3365.000000	0.023634
3364.000000	0.023728
3363.000000	0.023822
3362.000000	0.023916
3361.000000	0.024011
3360.000000	0.024106
3359.000000	0.024199
3358.000000	0.024287
3357.000000	0.024375
3356.000000	0.024467
3355.000000	0.024565
3354.000000	0.024667
3353.000000	0.024766
3352.000000	0.024858
3351.000000	0.024944
3350.000000	0.025028
3349.000000	0.025116
3348.000000	0.025207
3347.000000	0.025300
3346.000000	0.025393
3345.000000	0.025485
3344.000000	0.025575
3343.000000	0.025661
3342.000000	0.025745
3341.000000	0.025823
3340.000000	0.025895
3339.000000	0.025966
3338.000000	0.026047
3337.000000	0.026149
3336.000000	0.026266
3335.000000	0.026384
3334.000000	0.026490
3333.000000	0.026582
3332.000000	0.026663
3331.000000	0.026732
3330.000000	0.026791
3329.000000	0.026842
3328.000000	0.026891
3327.000000	0.026947
3326.000000	0.027020
3325.000000	0.027114
3324.000000	0.027223
3323.000000	0.027332
3322.000000	0.027426
3321.000000	0.027504
3320.000000	0.027569
3319.000000	0.027625
3318.000000	0.027674
3317.000000	0.027717
3316.000000	0.027758
3315.000000	0.027805
3314.000000	0.027861
3313.000000	0.027928
3312.000000	0.027996
3311.000000	0.028054
3310.000000	0.028088
3309.000000	0.028097
3308.000000	0.028095
3307.000000	0.028104
3306.000000	0.028144
3305.000000	0.028218
3304.000000	0.028315
3303.000000	0.028411
3302.000000	0.028486
3301.000000	0.028533
3300.000000	0.028559
3299.000000	0.028576
3298.000000	0.028594
3297.000000	0.028618
3296.000000	0.028647
3295.000000	0.028678
3294.000000	0.028701
3293.000000	0.028712
3292.000000	0.028716
3291.000000	0.028725
3290.000000	0.028751
3289.000000	0.028786
3288.000000	0.028816
3287.000000	0.028834
3286.000000	0.028841
3285.000000	0.028851
3284.000000	0.028868
3283.000000	0.028886
3282.000000	0.028896
3281.000000	0.028889
3280.000000	0.028868
3279.000000	0.028841
3278.000000	0.028813
3277.000000	0.028779
3276.000000	0.028731
3275.000000	0.028662
3274.000000	0.028576
3273.000000	0.028487
3272.000000	0.028412
3271.000000	0.028365
3270.000000	0.028345
3269.000000	0.028339
3268.000000	0.028330
3267.000000	0.028304
3266.000000	0.028255
3265.000000	0.028186
3264.000000	0.028112
3263.000000	0.028047
3262.000000	0.027999
3261.000000	0.027958
3260.000000	0.027908
3259.000000	0.027842
3258.000000	0.027766
3257.000000	0.027692
3256.000000	0.027619
3255.000000	0.027540
3254.000000	0.027453
3253.000000	0.027369
3252.000000	0.027299
3251.000000	0.027249
3250.000000	0.027204
3249.000000	0.027141
3248.000000	0.027054
3247.000000	0.026960
3246.000000	0.026882
3245.000000	0.026832
3244.000000	0.026799
3243.000000	0.026774
3242.000000	0.026750
3241.000000	0.026723
3240.000000	0.026684
3239.000000	0.026621
3238.000000	0.026536
3237.000000	0.026443
3236.000000	0.026357
3235.000000	0.026286
3234.000000	0.026231
3233.000000	0.026189
3232.000000	0.026153
3231.000000	0.026119
3230.000000	0.026084
3229.000000	0.026050
3228.000000	0.026017
3227.000000	0.025982
3226.000000	0.025940
3225.000000	0.025892
3224.000000	0.025842
3223.000000	0.025794
3222.000000	0.025748
3221.000000	0.025705
3220.000000	0.025664
3219.000000	0.025625
3218.000000	0.025585
3217.000000	0.025538
3216.000000	0.025482
3215.000000	0.025422
3214.000000	0.025367
3213.000000	0.025318
3212.000000	0.025271
3211.000000	0.025219
3210.000000	0.025165
3209.000000	0.025114
3208.000000	0.025064
3207.000000	0.025010
3206.000000	0.024954
3205.000000	0.024903
3204.000000	0.024859
3203.000000	0.024811
3202.000000	0.024744
3201.000000	0.024657
3200.000000	0.024564
3199.000000	0.024484
3198.000000	0.024422
3197.000000	0.024375
3196.000000	0.024335
3195.000000	0.024294
3194.000000	0.024247
3193.000000	0.024190
3192.000000	0.024121
3191.000000	0.024046
3190.000000	0.023970
3189.000000	0.023892
3188.000000	0.023807
3187.000000	0.023716
3186.000000	0.023633
3185.000000	0.023570
3184.000000	0.023522
3183.000000	0.023476
3182.000000	0.023419
3181.000000	0.023345
3180.000000	0.023259
3179.000000	0.023171
3178.000000	0.023092
3177.000000	0.023026
3176.000000	0.022966
3175.000000	0.022896
3174.000000	0.022811
3173.000000	0.022719
3172.000000	0.022631
3171.000000	0.022554
3170.000000	0.022485
3169.000000	0.022419
3168.000000	0.022351
3167.000000	0.022282
3166.000000	0.022214
3165.000000	0.022152
3164.000000	0.022097
3163.000000	0.022047
3162.000000	0.021994
3161.000000	0.021934
3160.000000	0.021865
3159.000000	0.021789
3158.000000	0.021710
3157.000000	0.021631
3156.000000	0.021550
3155.000000	0.021465
3154.000000	0.021374
3153.000000	0.021285
3152.000000	0.021207
3151.000000	0.021150
3150.000000	0.021112
3149.000000	0.021085
3148.000000	0.021058
3147.000000	0.021023
3146.000000	0.020981
3145.000000	0.020932
3144.000000	0.020870
3143.000000	0.020787
3142.000000	0.020689
3141.000000	0.020593
3140.000000	0.020518
3139.000000	0.020470
3138.000000	0.020441
3137.000000	0.020417
3136.000000	0.020387
3135.000000	0.020346
3134.000000	0.020295
3133.000000	0.020240
3132.000000	0.020190
3131.000000	0.020148
3130.000000	0.020118
3129.000000	0.020099
3128.000000	0.020085
3127.000000	0.020070
3126.000000	0.020054
3125.000000	0.020037
3124.000000	0.020016
3123.000000	0.019988
3122.000000	0.019956
3121.000000	0.019922
3120.000000	0.019885
3119.000000	0.019838
3118.000000	0.019787
3117.000000	0.019747
3116.000000	0.019732
3115.000000	0.019744
3114.000000	0.019771
3113.000000	0.019797
3112.000000	0.019813
3111.000000	0.019820
3110.000000	0.019831
3109.000000	0.019854
3108.000000	0.019886
3107.000000	0.019913
3106.000000	0.019932
3105.000000	0.019949
3104.000000	0.019966
3103.000000	0.019972
3102.000000	0.019958
3101.000000	0.019929
3100.000000	0.019905
3099.000000	0.019904
3098.000000	0.019933
3097.000000	0.019982
3096.000000	0.020034
3095.000000	0.020074
3094.000000	0.020099
3093.000000	0.020112
3092.000000	0.020117
3091.000000	0.020112
3090.000000	0.020099
3089.000000	0.020092
3088.000000	0.020104
3087.000000	0.020134
3086.000000	0.020175
3085.000000	0.020219
3084.000000	0.020264
3083.000000	0.020302
3082.000000	0.020324
3081.000000	0.020321
3080.000000	0.020296
3079.000000	0.020263
3078.000000	0.020241
3077.000000	0.020243
3076.000000	0.020265
3075.000000	0.020291
3074.000000	0.020309
3073.000000	0.020316
3072.000000	0.020314
3071.000000	0.020307
3070.000000	0.020296
3069.000000	0.020284
3068.000000	0.020267
3067.000000	0.020242
3066.000000	0.020211
3065.000000	0.020186
3064.000000	0.020179
3063.000000	0.020184
3062.000000	0.020181
3061.000000	0.020152
3060.000000	0.020095
3059.000000	0.020026
3058.000000	0.019960
3057.000000	0.019905
3056.000000	0.019857
3055.000000	0.019808
3054.000000	0.019751
3053.000000	0.019688
3052.000000	0.019626
3051.000000	0.019571
3050.000000	0.019524
3049.000000	0.019480
3048.000000	0.019428
3047.000000	0.019360
3046.000000	0.019278
3045.000000	0.019192
3044.000000	0.019112
3043.000000	0.019043
3042.000000	0.018986
3041.000000	0.018941
3040.000000	0.018904
3039.000000	0.018862
3038.000000	0.018803
3037.000000	0.018729
3036.000000	0.018657
3035.000000	0.018601
3034.000000	0.018558
3033.000000	0.018512
3032.000000	0.018454
3031.000000	0.018388
3030.000000	0.018328
3029.000000	0.018280
3028.000000	0.018235
3027.000000	0.018182
3026.000000	0.018120
3025.000000	0.018065
3024.000000	0.018023
3023.000000	0.017980
3022.000000	0.017917
3021.000000	0.017834
3020.000000	0.017749
3019.000000	0.017677
3018.000000	0.017624
3017.000000	0.017582
3016.000000	0.017549
3015.000000	0.017528
3014.000000	0.017521
3013.000000	0.017524
3012.000000	0.017531
3011.000000	0.017539
3010.000000	0.017545
3009.000000	0.017550
3008.000000	0.017554
3007.000000	0.017561
3006.000000	0.017576
3005.000000	0.017604
3004.000000	0.017641
3003.000000	0.017675
3002.000000	0.017696
3001.000000	0.017706
3000.000000	0.017714
2999.000000	0.017731
2998.000000	0.017764
2997.000000	0.017815
2996.000000	0.017884
2995.000000	0.017968
2994.000000	0.018062
2993.000000	0.018163
2992.000000	0.018268
2991.000000	0.018376
2990.000000	0.018486
2989.000000	0.018602
2988.000000	0.018734
2987.000000	0.018890
2986.000000	0.019066
2985.000000	0.019252
2984.000000	0.019438
2983.000000	0.019619
2982.000000	0.019799
2981.000000	0.019983
2980.000000	0.020173
2979.000000	0.020369
2978.000000	0.020568
2977.000000	0.020772
2976.000000	0.020979
2975.000000	0.021188
2974.000000	0.021398
2973.000000	0.021612
2972.000000	0.021835
2971.000000	0.022072
2970.000000	0.022324
2969.000000	0.022590
2968.000000	0.022867
2967.000000	0.023146
2966.000000	0.023416
2965.000000	0.023660
2964.000000	0.023870
2963.000000	0.024052
2962.000000	0.024221
2961.000000	0.024388
2960.000000	0.024552
2959.000000	0.024700
2958.000000	0.024823
2957.000000	0.024922
2956.000000	0.025008
2955.000000	0.025096
2954.000000	0.025184
2953.000000	0.025261
2952.000000	0.025312
2951.000000	0.025338
2950.000000	0.025357
2949.000000	0.025393
2948.000000	0.025461
2947.000000	0.025560
2946.000000	0.025681
2945.000000	0.025821
2944.000000	0.025984
2943.000000	0.026178
2942.000000	0.026410
2941.000000	0.026675
2940.000000	0.026966
2939.000000	0.027278
2938.000000	0.027619
2937.000000	0.027997
2936.000000	0.028418
2935.000000	0.028871
2934.000000	0.029341
2933.000000	0.029811
2932.000000	0.030274
2931.000000	0.030735
2930.000000	0.031204
2929.000000	0.031676
2928.000000	0.032137
2927.000000	0.032575
2926.000000	0.032984
2925.000000	0.033364
2924.000000	0.033704
2923.000000	0.033991
2922.000000	0.034211
2921.000000	0.034359
2920.000000	0.034419
2919.000000	0.034359
2918.000000	0.034138
2917.000000	0.033729
2916.000000	0.033134
2915.000000	0.032392
2914.000000	0.031562
2913.000000	0.030712
2912.000000	0.029898
2911.000000	0.029152
2910.000000	0.028489
2909.000000	0.027911
2908.000000	0.027410
2907.000000	0.026979
2906.000000	0.026609
2905.000000	0.026292
2904.000000	0.026013
2903.000000	0.025755
2902.000000	0.025501
2901.000000	0.025250
2900.000000	0.025003
2899.000000	0.024761
2898.000000	0.024526
2897.000000	0.024303
2896.000000	0.024100
2895.000000	0.023922
2894.000000	0.023768
2893.000000	0.023628
2892.000000	0.023493
2891.000000	0.023358
2890.000000	0.023225
2889.000000	0.023100
2888.000000	0.022985
2887.000000	0.022873
2886.000000	0.022765
2885.000000	0.022670
2884.000000	0.022596
2883.000000	0.022542
2882.000000	0.022501
2881.000000	0.022475
2880.000000	0.022471
2879.000000	0.022494
2878.000000	0.022535
2877.000000	0.022577
2876.000000	0.022609
2875.000000	0.022624
2874.000000	0.022623
2873.000000	0.022611
2872.000000	0.022588
2871.000000	0.022553
2870.000000	0.022499
2869.000000	0.022431
2868.000000	0.022363
2867.000000	0.022307
2866.000000	0.022271
2865.000000	0.022257
2864.000000	0.022275
2863.000000	0.022336
2862.000000	0.022457
2861.000000	0.022651
2860.000000	0.022925
2859.000000	0.023275
2858.000000	0.023688
2857.000000	0.024143
2856.000000	0.024622
2855.000000	0.025111
2854.000000	0.025594
2853.000000	0.026038
2852.000000	0.026388
2851.000000	0.026563
2850.000000	0.026486
2849.000000	0.026108
2848.000000	0.025452
2847.000000	0.024601
2846.000000	0.023672
2845.000000	0.022772
2844.000000	0.021968
2843.000000	0.021289
2842.000000	0.020730
2841.000000	0.020270
2840.000000	0.019882
2839.000000	0.019546
2838.000000	0.019253
2837.000000	0.018998
2836.000000	0.018773
2835.000000	0.018571
2834.000000	0.018388
2833.000000	0.018225
2832.000000	0.018080
2831.000000	0.017944
2830.000000	0.017813
2829.000000	0.017690
2828.000000	0.017580
2827.000000	0.017486
2826.000000	0.017397
2825.000000	0.017306
2824.000000	0.017210
2823.000000	0.017114
2822.000000	0.017020
2821.000000	0.016929
2820.000000	0.016840
2819.000000	0.016756
2818.000000	0.016682
2817.000000	0.016619
2816.000000	0.016562
2815.000000	0.016504
2814.000000	0.016445
2813.000000	0.016385
2812.000000	0.016323
2811.000000	0.016260
2810.000000	0.016200
2809.000000	0.016148
2808.000000	0.016103
2807.000000	0.016060
2806.000000	0.016022
2805.000000	0.015991
2804.000000	0.015963
2803.000000	0.015930
2802.000000	0.015890
2801.000000	0.015849
2800.000000	0.015809
2799.000000	0.015768
2798.000000	0.015723
2797.000000	0.015680
2796.000000	0.015640
2795.000000	0.015599
2794.000000	0.015555
2793.000000	0.015507
2792.000000	0.015466
2791.000000	0.015433
2790.000000	0.015406
2789.000000	0.015379
2788.000000	0.015350
2787.000000	0.015322
2786.000000	0.015300
2785.000000	0.015282
2784.000000	0.015260
2783.000000	0.015222
2782.000000	0.015169
2781.000000	0.015113
2780.000000	0.015071
2779.000000	0.015041
2778.000000	0.015014
2777.000000	0.014983
2776.000000	0.014951
2775.000000	0.014919
2774.000000	0.014882
2773.000000	0.014836
2772.000000	0.014787
2771.000000	0.014748
2770.000000	0.014726
2769.000000	0.014721
2768.000000	0.014722
2767.000000	0.014716
2766.000000	0.014696
2765.000000	0.014665
2764.000000	0.014630
2763.000000	0.014599
2762.000000	0.014576
2761.000000	0.014560
2760.000000	0.014548
2759.000000	0.014534
2758.000000	0.014512
2757.000000	0.014485
2756.000000	0.014457
2755.000000	0.014433
2754.000000	0.014407
2753.000000	0.014375
2752.000000	0.014336
2751.000000	0.014300
2750.000000	0.014281
2749.000000	0.014278
2748.000000	0.014280
2747.000000	0.014277
2746.000000	0.014265
2745.000000	0.014248
2744.000000	0.014225
2743.000000	0.014196
2742.000000	0.014161
2741.000000	0.014126
2740.000000	0.014099
2739.000000	0.014082
2738.000000	0.014070
2737.000000	0.014057
2736.000000	0.014040
2735.000000	0.014017
2734.000000	0.013995
2733.000000	0.013976
2732.000000	0.013958
2731.000000	0.013936
2730.000000	0.013908
2729.000000	0.013878
2728.000000	0.013851
2727.000000	0.013829
2726.000000	0.013811
2725.000000	0.013790
2724.000000	0.013764
2723.000000	0.013734
2722.000000	0.013711
2721.000000	0.013701
2720.000000	0.013700
2719.000000	0.013689
2718.000000	0.013661
2717.000000	0.013623
2716.000000	0.013590
2715.000000	0.013564
2714.000000	0.013541
2713.000000	0.013520
2712.000000	0.013503
2711.000000	0.013492
2710.000000	0.013484
2709.000000	0.013472
2708.000000	0.013455
2707.000000	0.013435
2706.000000	0.013422
2705.000000	0.013418
2704.000000	0.013421
2703.000000	0.013421
2702.000000	0.013414
2701.000000	0.013402
2700.000000	0.013381
2699.000000	0.013346
2698.000000	0.013298
2697.000000	0.013256
2696.000000	0.013237
2695.000000	0.013244
2694.000000	0.013263
2693.000000	0.013275
2692.000000	0.013276
2691.000000	0.013268
2690.000000	0.013256
2689.000000	0.013245
2688.000000	0.013236
2687.000000	0.013230
2686.000000	0.013223
2685.000000	0.013209
2684.000000	0.013186
2683.000000	0.013157
2682.000000	0.013133
2681.000000	0.013127
2680.000000	0.013139
2679.000000	0.013153
2678.000000	0.013148
2677.000000	0.013120
2676.000000	0.013081
2675.000000	0.013049
2674.000000	0.013034
2673.000000	0.013040
2672.000000	0.013059
2671.000000	0.013076
2670.000000	0.013080
2669.000000	0.013074
2668.000000	0.013069
2667.000000	0.013071
2666.000000	0.013074
2665.000000	0.013068
2664.000000	0.013055
2663.000000	0.013040
2662.000000	0.013030
2661.000000	0.013026
2660.000000	0.013026
2659.000000	0.013027
2658.000000	0.013025
2657.000000	0.013014
2656.000000	0.012994
2655.000000	0.012966
2654.000000	0.012932
2653.000000	0.012893
2652.000000	0.012850
2651.000000	0.012807
2650.000000	0.012766
2649.000000	0.012726
2648.000000	0.012687
2647.000000	0.012647
2646.000000	0.012609
2645.000000	0.012578
2644.000000	0.012561
2643.000000	0.012560
2642.000000	0.012564
2641.000000	0.012560
2640.000000	0.012542
2639.000000	0.012515
2638.000000	0.012486
2637.000000	0.012460
2636.000000	0.012441
2635.000000	0.012428
2634.000000	0.012418
2633.000000	0.012402
2632.000000	0.012374
2631.000000	0.012340
2630.000000	0.012310
2629.000000	0.012283
2628.000000	0.012249
2627.000000	0.012208
2626.000000	0.012169
2625.000000	0.012141
2624.000000	0.012121
2623.000000	0.012104
2622.000000	0.012092
2621.000000	0.012086
2620.000000	0.012075
2619.000000	0.012049
2618.000000	0.012008
2617.000000	0.011968
2616.000000	0.011933
2615.000000	0.011901
2614.000000	0.011870
2613.000000	0.011840
2612.000000	0.011812
2611.000000	0.011780
2610.000000	0.011748
2609.000000	0.011727
2608.000000	0.011719
2607.000000	0.011715
2606.000000	0.011703
2605.000000	0.011686
2604.000000	0.011673
2603.000000	0.011669
2602.000000	0.011670
2601.000000	0.011669
2600.000000	0.011660
2599.000000	0.011639
2598.000000	0.011607
2597.000000	0.011567
2596.000000	0.011519
2595.000000	0.011467
2594.000000	0.011427
2593.000000	0.011418
2592.000000	0.011440
2591.000000	0.011473
2590.000000	0.011492
2589.000000	0.011485
2588.000000	0.011457
2587.000000	0.011414
2586.000000	0.011366
2585.000000	0.011322
2584.000000	0.011288
2583.000000	0.011267
2582.000000	0.011251
2581.000000	0.011239
2580.000000	0.011228
2579.000000	0.011217
2578.000000	0.011203
2577.000000	0.011183
2576.000000	0.011157
2575.000000	0.011129
2574.000000	0.011111
2573.000000	0.011113
2572.000000	0.011132
2571.000000	0.011149
2570.000000	0.011148
2569.000000	0.011124
2568.000000	0.011085
2567.000000	0.011051
2566.000000	0.011037
2565.000000	0.011042
2564.000000	0.011055
2563.000000	0.011065
2562.000000	0.011076
2561.000000	0.011098
2560.000000	0.011128
2559.000000	0.011146
2558.000000	0.011136
2557.000000	0.011099
2556.000000	0.011043
2555.000000	0.010977
2554.000000	0.010919
2553.000000	0.010888
2552.000000	0.010895
2551.000000	0.010930
2550.000000	0.010969
2549.000000	0.010998
2548.000000	0.011017
2547.000000	0.011032
2546.000000	0.011038
2545.000000	0.011024
2544.000000	0.010981
2543.000000	0.010918
2542.000000	0.010859
2541.000000	0.010825
2540.000000	0.010823
2539.000000	0.010844
2538.000000	0.010881
2537.000000	0.010922
2536.000000	0.010951
2535.000000	0.010951
2534.000000	0.010915
2533.000000	0.010854
2532.000000	0.010794
2531.000000	0.010756
2530.000000	0.010748
2529.000000	0.010764
2528.000000	0.010791
2527.000000	0.010814
2526.000000	0.010823
2525.000000	0.010816
2524.000000	0.010795
2523.000000	0.010771
2522.000000	0.010760
2521.000000	0.010778
2520.000000	0.010820
2519.000000	0.010862
2518.000000	0.010875
2517.000000	0.010849
2516.000000	0.010803
2515.000000	0.010764
2514.000000	0.010747
2513.000000	0.010748
2512.000000	0.010751
2511.000000	0.010750
2510.000000	0.010744
2509.000000	0.010732
2508.000000	0.010707
2507.000000	0.010667
2506.000000	0.010622
2505.000000	0.010591
2504.000000	0.010586
2503.000000	0.010607
2502.000000	0.010638
2501.000000	0.010658
2500.000000	0.010652
2499.000000	0.010629
2498.000000	0.010613
2497.000000	0.010621
2496.000000	0.010643
2495.000000	0.010658
2494.000000	0.010660
2493.000000	0.010656
2492.000000	0.010650
2491.000000	0.010635
2490.000000	0.010606
2489.000000	0.010564
2488.000000	0.010517
2487.000000	0.010476
2486.000000	0.010449
2485.000000	0.010440
2484.000000	0.010439
2483.000000	0.010442
2482.000000	0.010454
2481.000000	0.010482
2480.000000	0.010514
2479.000000	0.010525
2478.000000	0.010507
2477.000000	0.010472
2476.000000	0.010434
2475.000000	0.010396
2474.000000	0.010362
2473.000000	0.010335
2472.000000	0.010321
2471.000000	0.010315
2470.000000	0.010314
2469.000000	0.010320
2468.000000	0.010335
2467.000000	0.010356
2466.000000	0.010377
2465.000000	0.010392
2464.000000	0.010403
2463.000000	0.010410
2462.000000	0.010416
2461.000000	0.010417
2460.000000	0.010408
2459.000000	0.010385
2458.000000	0.010347
2457.000000	0.010304
2456.000000	0.010271
2455.000000	0.010260
2454.000000	0.010271
2453.000000	0.010287
2452.000000	0.010293
2451.000000	0.010285
2450.000000	0.010275
2449.000000	0.010273
2448.000000	0.010276
2447.000000	0.010276
2446.000000	0.010271
2445.000000	0.010264
2444.000000	0.010257
2443.000000	0.010248
2442.000000	0.010238
2441.000000	0.010226
2440.000000	0.010209
2439.000000	0.010190
2438.000000	0.010181
2437.000000	0.010193
2436.000000	0.010218
2435.000000	0.010236
2434.000000	0.010234
2433.000000	0.010209
2432.000000	0.010170
2431.000000	0.010128
2430.000000	0.010093
2429.000000	0.010069
2428.000000	0.010060
2427.000000	0.010069
2426.000000	0.010098
2425.000000	0.010127
2424.000000	0.010134
2423.000000	0.010110
2422.000000	0.010072
2421.000000	0.010039
2420.000000	0.010013
2419.000000	0.009990
2418.000000	0.009976
2417.000000	0.009980
2416.000000	0.009993
2415.000000	0.009998
2414.000000	0.009995
2413.000000	0.009990
2412.000000	0.009987
2411.000000	0.009984
2410.000000	0.009986
2409.000000	0.009994
2408.000000	0.009994
2407.000000	0.009976
2406.000000	0.009954
2405.000000	0.009954
2404.000000	0.009982
2403.000000	0.010014
2402.000000	0.010031
2401.000000	0.010033
2400.000000	0.010031
2399.000000	0.010026
2398.000000	0.010018
2397.000000	0.010010
2396.000000	0.010000
2395.000000	0.009984
2394.000000	0.009967
2393.000000	0.009965
2392.000000	0.009986
2391.000000	0.010023
2390.000000	0.010049
2389.000000	0.010047
2388.000000	0.010014
2387.000000	0.009968
2386.000000	0.009932
2385.000000	0.009913
2384.000000	0.009900
2383.000000	0.009882
2382.000000	0.009863
2381.000000	0.009849
2380.000000	0.009839
2379.000000	0.009830
2378.000000	0.009833
2377.000000	0.009866
2376.000000	0.009925
2375.000000	0.009981
2374.000000	0.010010
2373.000000	0.010001
2372.000000	0.009961
2371.000000	0.009916
2370.000000	0.009897
2369.000000	0.009906
2368.000000	0.009913
2367.000000	0.009897
2366.000000	0.009879
2365.000000	0.009894
2364.000000	0.009942
2363.000000	0.010008
2362.000000	0.010073
2361.000000	0.010109
2360.000000	0.010096
2359.000000	0.010039
2358.000000	0.009977
2357.000000	0.009945
2356.000000	0.009948
2355.000000	0.009985
2354.000000	0.010012
2353.000000	0.009991
2352.000000	0.009930
2351.000000	0.009894
2350.000000	0.009926
2349.000000	0.010016
2348.000000	0.010120
2347.000000	0.010173
2346.000000	0.010144
2345.000000	0.010079
2344.000000	0.010041
2343.000000	0.010044
2342.000000	0.010047
2341.000000	0.010030
2340.000000	0.010019
2339.000000	0.010033
2338.000000	0.010054
2337.000000	0.010051
2336.000000	0.010021
2335.000000	0.009982
2334.000000	0.009947
2333.000000	0.009917
2332.000000	0.009915
2331.000000	0.009941
2330.000000	0.009981
2329.000000	0.009995
2328.000000	0.010004
2327.000000	0.010039
2326.000000	0.010115
2325.000000	0.010187
2324.000000	0.010205
2323.000000	0.010163
2322.000000	0.010112
2321.000000	0.010101
2320.000000	0.010119
2319.000000	0.010109
2318.000000	0.010053
2317.000000	0.009977
2316.000000	0.009930
2315.000000	0.009921
2314.000000	0.009947
2313.000000	0.009978
2312.000000	0.009989
2311.000000	0.009945
2310.000000	0.009852
2309.000000	0.009744
2308.000000	0.009668
2307.000000	0.009634
2306.000000	0.009635
2305.000000	0.009658
2304.000000	0.009690
2303.000000	0.009716
2302.000000	0.009737
2301.000000	0.009756
2300.000000	0.009779
2299.000000	0.009790
2298.000000	0.009789
2297.000000	0.009784
2296.000000	0.009793
2295.000000	0.009816
2294.000000	0.009844
2293.000000	0.009872
2292.000000	0.009893
2291.000000	0.009897
2290.000000	0.009882
2289.000000	0.009864
2288.000000	0.009860
2287.000000	0.009870
2286.000000	0.009877
2285.000000	0.009866
2284.000000	0.009825
2283.000000	0.009755
2282.000000	0.009678
2281.000000	0.009624
2280.000000	0.009613
2279.000000	0.009632
2278.000000	0.009654
2277.000000	0.009653
2276.000000	0.009612
2275.000000	0.009543
2274.000000	0.009486
2273.000000	0.009480
2272.000000	0.009522
2271.000000	0.009561
2270.000000	0.009561
2269.000000	0.009532
2268.000000	0.009507
2267.000000	0.009500
2266.000000	0.009488
2265.000000	0.009450
2264.000000	0.009386
2263.000000	0.009341
2262.000000	0.009370
2261.000000	0.009479
2260.000000	0.009593
2259.000000	0.009623
2258.000000	0.009562
2257.000000	0.009485
2256.000000	0.009454
2255.000000	0.009454
2254.000000	0.009442
2253.000000	0.009415
2252.000000	0.009408
2251.000000	0.009443
2250.000000	0.009499
2249.000000	0.009537
2248.000000	0.009534
2247.000000	0.009500
2246.000000	0.009462
2245.000000	0.009445
2244.000000	0.009450
2243.000000	0.009463
2242.000000	0.009475
2241.000000	0.009479
2240.000000	0.009471
2239.000000	0.009455
2238.000000	0.009453
2237.000000	0.009472
2236.000000	0.009482
2235.000000	0.009443
2234.000000	0.009354
2233.000000	0.009248
2232.000000	0.009157
2231.000000	0.009099
2230.000000	0.009095
2229.000000	0.009158
2228.000000	0.009263
2227.000000	0.009357
2226.000000	0.009397
2225.000000	0.009361
2224.000000	0.009240
2223.000000	0.009062
2222.000000	0.008910
2221.000000	0.008875
2220.000000	0.008958
2219.000000	0.009074
2218.000000	0.009141
2217.000000	0.009152
2216.000000	0.009140
2215.000000	0.009130
2214.000000	0.009114
2213.000000	0.009077
2212.000000	0.009022
2211.000000	0.008988
2210.000000	0.009028
2209.000000	0.009136
2208.000000	0.009232
2207.000000	0.009229
2206.000000	0.009129
2205.000000	0.009000
2204.000000	0.008904
2203.000000	0.008865
2202.000000	0.008888
2201.000000	0.008948
2200.000000	0.008991
2199.000000	0.008990
2198.000000	0.008990
2197.000000	0.009046
2196.000000	0.009131
2195.000000	0.009167
2194.000000	0.009137
2193.000000	0.009097
2192.000000	0.009086
2191.000000	0.009091
2190.000000	0.009082
2189.000000	0.009035
2188.000000	0.008939
2187.000000	0.008820
2186.000000	0.008745
2185.000000	0.008740
2184.000000	0.008734
2183.000000	0.008652
2182.000000	0.008542
2181.000000	0.008512
2180.000000	0.008575
2179.000000	0.008644
2178.000000	0.008664
2177.000000	0.008654
2176.000000	0.008637
2175.000000	0.008608
2174.000000	0.008577
2173.000000	0.008551
2172.000000	0.008505
2171.000000	0.008444
2170.000000	0.008451
2169.000000	0.008596
2168.000000	0.008804
2167.000000	0.008935
2166.000000	0.008956
2165.000000	0.008943
2164.000000	0.008921
2163.000000	0.008852
2162.000000	0.008736
2161.000000	0.008601
2160.000000	0.008380
2159.000000	0.007986
2158.000000	0.007540
2157.000000	0.007282
2156.000000	0.007263
2155.000000	0.007344
2154.000000	0.007437
2153.000000	0.007555
2152.000000	0.007676
2151.000000	0.007733
2150.000000	0.007745
2149.000000	0.007810
2148.000000	0.007957
2147.000000	0.008116
2146.000000	0.008240
2145.000000	0.008350
2144.000000	0.008445
2143.000000	0.008464
2142.000000	0.008392
2141.000000	0.008295
2140.000000	0.008238
2139.000000	0.008222
2138.000000	0.008234
2137.000000	0.008265
2136.000000	0.008281
2135.000000	0.008229
2134.000000	0.008124
2133.000000	0.008060
2132.000000	0.008107
2131.000000	0.008252
2130.000000	0.008427
2129.000000	0.008573
2128.000000	0.008661
2127.000000	0.008699
2126.000000	0.008729
2125.000000	0.008776
2124.000000	0.008816
2123.000000	0.008811
2122.000000	0.008772
2121.000000	0.008748
2120.000000	0.008746
2119.000000	0.008727
2118.000000	0.008672
2117.000000	0.008614
2116.000000	0.008601
2115.000000	0.008651
2114.000000	0.008751
2113.000000	0.008858
2112.000000	0.008921
2111.000000	0.008923
2110.000000	0.008909
2109.000000	0.008929
2108.000000	0.008967
2107.000000	0.008967
2106.000000	0.008930
2105.000000	0.008904
2104.000000	0.008907
2103.000000	0.008916
2102.000000	0.008924
2101.000000	0.008953
2100.000000	0.008991
2099.000000	0.008989
2098.000000	0.008926
2097.000000	0.008842
2096.000000	0.008771
2095.000000	0.008717
2094.000000	0.008683
2093.000000	0.008684
2092.000000	0.008707
2091.000000	0.008714
2090.000000	0.008705
2089.000000	0.008718
2088.000000	0.008765
2087.000000	0.008813
2086.000000	0.008833
2085.000000	0.008825
2084.000000	0.008792
2083.000000	0.008744
2082.000000	0.008722
2081.000000	0.008772
2080.000000	0.008869
2079.000000	0.008929
2078.000000	0.008908
2077.000000	0.008835
2076.000000	0.008747
2075.000000	0.008654
2074.000000	0.008589
2073.000000	0.008601
2072.000000	0.008691
2071.000000	0.008787
2070.000000	0.008836
2069.000000	0.008841
2068.000000	0.008805
2067.000000	0.008719
2066.000000	0.008606
2065.000000	0.008524
2064.000000	0.008480
2063.000000	0.008408
2062.000000	0.008281
2061.000000	0.008151
2060.000000	0.008085
2059.000000	0.008093
2058.000000	0.008167
2057.000000	0.008305
2056.000000	0.008473
2055.000000	0.008611
2054.000000	0.008700
2053.000000	0.008764
2052.000000	0.008786
2051.000000	0.008693
2050.000000	0.008454
2049.000000	0.008157
2048.000000	0.007932
2047.000000	0.007837
2046.000000	0.007865
2045.000000	0.007983
2044.000000	0.008110
2043.000000	0.008145
2042.000000	0.008077
2041.000000	0.008001
2040.000000	0.007977
2039.000000	0.007951
2038.000000	0.007853
2037.000000	0.007675
2036.000000	0.007443
2035.000000	0.007177
2034.000000	0.006945
2033.000000	0.006844
2032.000000	0.006891
2031.000000	0.007012
2030.000000	0.007146
2029.000000	0.007254
2028.000000	0.007253
2027.000000	0.007082
2026.000000	0.006856
2025.000000	0.006795
2024.000000	0.006961
2023.000000	0.007181
2022.000000	0.007262
2021.000000	0.007188
2020.000000	0.007059
2019.000000	0.006961
2018.000000	0.006933
2017.000000	0.006977
2016.000000	0.007049
2015.000000	0.007109
2014.000000	0.007177
2013.000000	0.007280
2012.000000	0.007389
2011.000000	0.007461
2010.000000	0.007518
2009.000000	0.007576
2008.000000	0.007567
2007.000000	0.007447
2006.000000	0.007329
2005.000000	0.007349
2004.000000	0.007472
2003.000000	0.007556
2002.000000	0.007555
2001.000000	0.007516
2000.000000	0.007435
1999.000000	0.007297
1998.000000	0.007192
1997.000000	0.007232
1996.000000	0.007358
1995.000000	0.007386
1994.000000	0.007259
1993.000000	0.007107
1992.000000	0.007050
1991.000000	0.007072
1990.000000	0.007150
1989.000000	0.007320
1988.000000	0.007554
1987.000000	0.007711
1986.000000	0.007689
1985.000000	0.007540
1984.000000	0.007382
1983.000000	0.007284
1982.000000	0.007263
1981.000000	0.007314
1980.000000	0.007383
1979.000000	0.007422
1978.000000	0.007451
1977.000000	0.007506
1976.000000	0.007524
1975.000000	0.007415
1974.000000	0.007214
1973.000000	0.007027
1972.000000	0.006860
1971.000000	0.006652
1970.000000	0.006456
1969.000000	0.006414
1968.000000	0.006557
1967.000000	0.006750
1966.000000	0.006875
1965.000000	0.006924
1964.000000	0.006910
1963.000000	0.006830
1962.000000	0.006743
1961.000000	0.006748
1960.000000	0.006861
1959.000000	0.007001
1958.000000	0.007106
1957.000000	0.007176
1956.000000	0.007229
1955.000000	0.007283
1954.000000	0.007372
1953.000000	0.007484
1952.000000	0.007514
1951.000000	0.007384
1950.000000	0.007185
1949.000000	0.007094
1948.000000	0.007143
1947.000000	0.007213
1946.000000	0.007235
1945.000000	0.007271
1944.000000	0.007378
1943.000000	0.007505
1942.000000	0.007582
1941.000000	0.007608
1940.000000	0.007609
1939.000000	0.007590
1938.000000	0.007559
1937.000000	0.007537
1936.000000	0.007518
1935.000000	0.007478
1934.000000	0.007424
1933.000000	0.007398
1932.000000	0.007419
1931.000000	0.007463
1930.000000	0.007520
1929.000000	0.007583
1928.000000	0.007606
1927.000000	0.007555
1926.000000	0.007491
1925.000000	0.007529
1924.000000	0.007668
1923.000000	0.007766
1922.000000	0.007710
1921.000000	0.007533
1920.000000	0.007346
1919.000000	0.007234
1918.000000	0.007239
1917.000000	0.007342
1916.000000	0.007451
1915.000000	0.007491
1914.000000	0.007471
1913.000000	0.007457
1912.000000	0.007476
1911.000000	0.007509
1910.000000	0.007549
1909.000000	0.007588
1908.000000	0.007592
1907.000000	0.007539
1906.000000	0.007483
1905.000000	0.007494
1904.000000	0.007549
1903.000000	0.007570
1902.000000	0.007551
1901.000000	0.007556
1900.000000	0.007600
1899.000000	0.007639
1898.000000	0.007655
1897.000000	0.007677
1896.000000	0.007702
1895.000000	0.007686
1894.000000	0.007633
1893.000000	0.007591
1892.000000	0.007562
1891.000000	0.007508
1890.000000	0.007442
1889.000000	0.007425
1888.000000	0.007465
1887.000000	0.007498
1886.000000	0.007495
1885.000000	0.007476
1884.000000	0.007454
1883.000000	0.007421
1882.000000	0.007403
1881.000000	0.007433
1880.000000	0.007482
1879.000000	0.007492
1878.000000	0.007465
1877.000000	0.007463
1876.000000	0.007505
1875.000000	0.007536
1874.000000	0.007513
1873.000000	0.007450
1872.000000	0.007371
1871.000000	0.007278
1870.000000	0.007202
1869.000000	0.007195
1868.000000	0.007239
1867.000000	0.007260
1866.000000	0.007256
1865.000000	0.007273
1864.000000	0.007303
1863.000000	0.007303
1862.000000	0.007280
1861.000000	0.007290
1860.000000	0.007337
1859.000000	0.007363
1858.000000	0.007342
1857.000000	0.007309
1856.000000	0.007287
1855.000000	0.007260
1854.000000	0.007238
1853.000000	0.007247
1852.000000	0.007272
1851.000000	0.007280
1850.000000	0.007261
1849.000000	0.007230
1848.000000	0.007184
1847.000000	0.007114
1846.000000	0.007059
1845.000000	0.007068
1844.000000	0.007131
1843.000000	0.007177
1842.000000	0.007204
1841.000000	0.007253
1840.000000	0.007308
1839.000000	0.007314
1838.000000	0.007265
1837.000000	0.007218
1836.000000	0.007205
1835.000000	0.007196
1834.000000	0.007165
1833.000000	0.007122
1832.000000	0.007083
1831.000000	0.007052
1830.000000	0.007017
1829.000000	0.006992
1828.000000	0.007002
1827.000000	0.007054
1826.000000	0.007129
1825.000000	0.007212
1824.000000	0.007281
1823.000000	0.007310
1822.000000	0.007308
1821.000000	0.007302
1820.000000	0.007302
1819.000000	0.007285
1818.000000	0.007247
1817.000000	0.007231
1816.000000	0.007252
1815.000000	0.007272
1814.000000	0.007267
1813.000000	0.007257
1812.000000	0.007258
1811.000000	0.007243
1810.000000	0.007211
1809.000000	0.007218
1808.000000	0.007265
1807.000000	0.007288
1806.000000	0.007267
1805.000000	0.007251
1804.000000	0.007258
1803.000000	0.007252
1802.000000	0.007219
1801.000000	0.007201
1800.000000	0.007226
1799.000000	0.007257
1798.000000	0.007274
1797.000000	0.007292
1796.000000	0.007293
1795.000000	0.007231
1794.000000	0.007114
1793.000000	0.007020
1792.000000	0.007004
1791.000000	0.007020
1790.000000	0.007041
1789.000000	0.007097
1788.000000	0.007171
1787.000000	0.007198
1786.000000	0.007161
1785.000000	0.007115
1784.000000	0.007088
1783.000000	0.007063
1782.000000	0.007043
1781.000000	0.007040
1780.000000	0.007057
1779.000000	0.007062
1778.000000	0.007043
1777.000000	0.007002
1776.000000	0.006934
1775.000000	0.006841
1774.000000	0.006739
1773.000000	0.006653
1772.000000	0.006602
1771.000000	0.006575
1770.000000	0.006580
1769.000000	0.006644
1768.000000	0.006749
1767.000000	0.006820
1766.000000	0.006826
1765.000000	0.006813
1764.000000	0.006824
1763.000000	0.006840
1762.000000	0.006824
1761.000000	0.006776
1760.000000	0.006738
1759.000000	0.006720
1758.000000	0.006715
1757.000000	0.006715
1756.000000	0.006716
1755.000000	0.006722
1754.000000	0.006727
1753.000000	0.006721
1752.000000	0.006710
1751.000000	0.006727
1750.000000	0.006804
1749.000000	0.006960
1748.000000	0.007171
1747.000000	0.007389
1746.000000	0.007583
1745.000000	0.007756
1744.000000	0.007932
1743.000000	0.008098
1742.000000	0.008234
1741.000000	0.008376
1740.000000	0.008561
1739.000000	0.008739
1738.000000	0.008860
1737.000000	0.008953
1736.000000	0.009040
1735.000000	0.009078
1734.000000	0.009069
1733.000000	0.009035
1732.000000	0.009004
1731.000000	0.008972
1730.000000	0.008921
1729.000000	0.008841
1728.000000	0.008727
1727.000000	0.008581
1726.000000	0.008411
1725.000000	0.008250
1724.000000	0.008123
1723.000000	0.007992
1722.000000	0.007832
1721.000000	0.007682
1720.000000	0.007569
1719.000000	0.007459
1718.000000	0.007353
1717.000000	0.007383
1716.000000	0.007582
1715.000000	0.007832
1714.000000	0.008102
1713.000000	0.008445
1712.000000	0.008837
1711.000000	0.009199
1710.000000	0.009525
1709.000000	0.009871
1708.000000	0.010274
1707.000000	0.010736
1706.000000	0.011266
1705.000000	0.011862
1704.000000	0.012429
1703.000000	0.012905
1702.000000	0.013381
1701.000000	0.014077
1700.000000	0.015030
1699.000000	0.015859
1698.000000	0.016550
1697.000000	0.017424
1696.000000	0.018544
1695.000000	0.019587
1694.000000	0.020391
1693.000000	0.021142
1692.000000	0.021969
1691.000000	0.022827
1690.000000	0.023655
1689.000000	0.024446
1688.000000	0.025195
1687.000000	0.025886
1686.000000	0.026575
1685.000000	0.027463
1684.000000	0.028603
1683.000000	0.029679
1682.000000	0.030642
1681.000000	0.031627
1680.000000	0.032628
1679.000000	0.033539
1678.000000	0.034366
1677.000000	0.035252
1676.000000	0.036313
1675.000000	0.037467
1674.000000	0.038518
1673.000000	0.039439
1672.000000	0.040361
1671.000000	0.041379
1670.000000	0.042556
1669.000000	0.043851
1668.000000	0.045103
1667.000000	0.046193
1666.000000	0.047145
1665.000000	0.048080
1664.000000	0.049099
1663.000000	0.050180
1662.000000	0.051235
1661.000000	0.052217
1660.000000	0.053147
1659.000000	0.054028
1658.000000	0.054817
1657.000000	0.055496
1656.000000	0.056095
1655.000000	0.056688
1654.000000	0.057419
1653.000000	0.058390
1652.000000	0.059178
1651.000000	0.059617
1650.000000	0.059894
1649.000000	0.060217
1648.000000	0.060657
1647.000000	0.061180
1646.000000	0.061682
1645.000000	0.062133
1644.000000	0.062534
1643.000000	0.062852
1642.000000	0.063093
1641.000000	0.063266
1640.000000	0.063361
1639.000000	0.063377
1638.000000	0.063338
1637.000000	0.063295
1636.000000	0.063270
1635.000000	0.063247
1634.000000	0.063211
1633.000000	0.063181
1632.000000	0.063106
1631.000000	0.062902
1630.000000	0.062530
1629.000000	0.062018
1628.000000	0.061399
1627.000000	0.060707
1626.000000	0.059972
1625.000000	0.059169
1624.000000	0.058251
1623.000000	0.057243
1622.000000	0.056262
1621.000000	0.055368
1620.000000	0.054513
1619.000000	0.053590
1618.000000	0.052487
1617.000000	0.051176
1616.000000	0.049806
1615.000000	0.048608
1614.000000	0.047639
1613.000000	0.046764
1612.000000	0.045828
1611.000000	0.044814
1610.000000	0.043819
1609.000000	0.042881
1608.000000	0.041966
1607.000000	0.041089
1606.000000	0.040302
1605.000000	0.039575
1604.000000	0.038862
1603.000000	0.038185
1602.000000	0.037589
1601.000000	0.037059
1600.000000	0.036554
1599.000000	0.036094
1598.000000	0.035708
1597.000000	0.035370
1596.000000	0.035042
1595.000000	0.034748
1594.000000	0.034535
1593.000000	0.034382
1592.000000	0.034242
1591.000000	0.034136
1590.000000	0.034113
1589.000000	0.034153
1588.000000	0.034200
1587.000000	0.034261
1586.000000	0.034386
1585.000000	0.034561
1584.000000	0.034735
1583.000000	0.034946
1582.000000	0.035239
1581.000000	0.035559
1580.000000	0.035823
1579.000000	0.036069
1578.000000	0.036377
1577.000000	0.036757
1576.000000	0.037139
1575.000000	0.037502
1574.000000	0.037890
1573.000000	0.038294
1572.000000	0.038689
1571.000000	0.039097
1570.000000	0.039588
1569.000000	0.040129
1568.000000	0.040639
1567.000000	0.041175
1566.000000	0.041804
1565.000000	0.042480
1564.000000	0.043088
1563.000000	0.043598
1562.000000	0.044028
1561.000000	0.044343
1560.000000	0.044604
1559.000000	0.045214
1558.000000	0.046143
1557.000000	0.047041
1556.000000	0.047849
1555.000000	0.048625
1554.000000	0.049357
1553.000000	0.049975
1552.000000	0.050505
1551.000000	0.051019
1550.000000	0.051530
1549.000000	0.051982
1548.000000	0.052334
1547.000000	0.052619
1546.000000	0.052889
1545.000000	0.053158
1544.000000	0.053382
1543.000000	0.053505
1542.000000	0.053538
1541.000000	0.053603
1540.000000	0.053784
1539.000000	0.054005
1538.000000	0.054178
1537.000000	0.054276
1536.000000	0.054284
1535.000000	0.054186
1534.000000	0.054013
1533.000000	0.053850
1532.000000	0.053737
1531.000000	0.053616
1530.000000	0.053436
1529.000000	0.053214
1528.000000	0.052967
1527.000000	0.052672
1526.000000	0.052316
1525.000000	0.051950
1524.000000	0.051634
1523.000000	0.051350
1522.000000	0.051049
1521.000000	0.050730
1520.000000	0.050408
1519.000000	0.050093
1518.000000	0.049774
1517.000000	0.049456
1516.000000	0.049137
1515.000000	0.048793
1514.000000	0.048390
1513.000000	0.047898
1512.000000	0.047333
1511.000000	0.046711
1510.000000	0.046042
1509.000000	0.045310
1508.000000	0.044474
1507.000000	0.043490
1506.000000	0.042521
1505.000000	0.041840
1504.000000	0.041392
1503.000000	0.040966
1502.000000	0.040433
1501.000000	0.039766
1500.000000	0.039028
1499.000000	0.038283
1498.000000	0.037522
1497.000000	0.036760
1496.000000	0.036054
1495.000000	0.035393
1494.000000	0.034753
1493.000000	0.034141
1492.000000	0.033541
1491.000000	0.032903
1490.000000	0.032250
1489.000000	0.031728
1488.000000	0.031410
1487.000000	0.031193
1486.000000	0.031009
1485.000000	0.030882
1484.000000	0.030814
1483.000000	0.030791
1482.000000	0.030804
1481.000000	0.030882
1480.000000	0.031024
1479.000000	0.031197
1478.000000	0.031400
1477.000000	0.031687
1476.000000	0.032072
1475.000000	0.032503
1474.000000	0.033016
1473.000000	0.033715
1472.000000	0.034578
1471.000000	0.035414
1470.000000	0.036145
1469.000000	0.036813
1468.000000	0.037430
1467.000000	0.037955
1466.000000	0.038405
1465.000000	0.038857
1464.000000	0.039328
1463.000000	0.039746
1462.000000	0.040065
1461.000000	0.040325
1460.000000	0.040589
1459.000000	0.040932
1458.000000	0.041444
1457.000000	0.042159
1456.000000	0.042893
1455.000000	0.043472
1454.000000	0.043919
1453.000000	0.044301
1452.000000	0.044613
1451.000000	0.044809
1450.000000	0.044899
1449.000000	0.044946
1448.000000	0.044989
1447.000000	0.045008
1446.000000	0.044996
1445.000000	0.044960
1444.000000	0.044922
1443.000000	0.044876
1442.000000	0.044795
1441.000000	0.044661
1440.000000	0.044482
1439.000000	0.044260
1438.000000	0.043964
1437.000000	0.043608
1436.000000	0.043269
1435.000000	0.042991
1434.000000	0.042748
1433.000000	0.042500
1432.000000	0.042221
1431.000000	0.041917
1430.000000	0.041615
1429.000000	0.041351
1428.000000	0.041139
1427.000000	0.040953
1426.000000	0.040759
1425.000000	0.040532
1424.000000	0.040311
1423.000000	0.040152
1422.000000	0.040043
1421.000000	0.039928
1420.000000	0.039793
1419.000000	0.039690
1418.000000	0.039612
1417.000000	0.039549
1416.000000	0.039527
1415.000000	0.039529
1414.000000	0.039504
1413.000000	0.039432
1412.000000	0.039355
1411.000000	0.039309
1410.000000	0.039272
1409.000000	0.039222
1408.000000	0.039172
1407.000000	0.039130
1406.000000	0.039093
1405.000000	0.039050
1404.000000	0.039012
1403.000000	0.038978
1402.000000	0.038918
1401.000000	0.038816
1400.000000	0.038688
1399.000000	0.038566
1398.000000	0.038444
1397.000000	0.038317
1396.000000	0.038192
1395.000000	0.038078
1394.000000	0.037950
1393.000000	0.037768
1392.000000	0.037543
1391.000000	0.037296
1390.000000	0.037025
1389.000000	0.036726
1388.000000	0.036417
1387.000000	0.036129
1386.000000	0.035874
1385.000000	0.035644
1384.000000	0.035430
1383.000000	0.035225
1382.000000	0.035019
1381.000000	0.034807
1380.000000	0.034573
1379.000000	0.034301
1378.000000	0.033986
1377.000000	0.033642
1376.000000	0.033285
1375.000000	0.032929
1374.000000	0.032583
1373.000000	0.032237
1372.000000	0.031885
1371.000000	0.031517
1370.000000	0.031122
1369.000000	0.030678
1368.000000	0.030185
1367.000000	0.029684
1366.000000	0.029211
1365.000000	0.028764
1364.000000	0.028325
1363.000000	0.027890
1362.000000	0.027490
1361.000000	0.027161
1360.000000	0.026918
1359.000000	0.026743
1358.000000	0.026616
1357.000000	0.026523
1356.000000	0.026465
1355.000000	0.026452
1354.000000	0.026489
1353.000000	0.026571
1352.000000	0.026689
1351.000000	0.026831
1350.000000	0.027003
1349.000000	0.027199
1348.000000	0.027413
1347.000000	0.027643
1346.000000	0.027892
1345.000000	0.028153
1344.000000	0.028417
1343.000000	0.028681
1342.000000	0.028944
1341.000000	0.029202
1340.000000	0.029440
1339.000000	0.029643
1338.000000	0.029801
1337.000000	0.029908
1336.000000	0.029963
1335.000000	0.029964
1334.000000	0.029910
1333.000000	0.029797
1332.000000	0.029634
1331.000000	0.029443
1330.000000	0.029247
1329.000000	0.029053
1328.000000	0.028858
1327.000000	0.028664
1326.000000	0.028487
1325.000000	0.028335
1324.000000	0.028213
1323.000000	0.028122
1322.000000	0.028059
1321.000000	0.028009
1320.000000	0.027961
1319.000000	0.027915
1318.000000	0.027870
1317.000000	0.027818
1316.000000	0.027755
1315.000000	0.027683
1314.000000	0.027602
1313.000000	0.027509
1312.000000	0.027401
1311.000000	0.027279
1310.000000	0.027139
1309.000000	0.026980
1308.000000	0.026809
1307.000000	0.026644
1306.000000	0.026485
1305.000000	0.026319
1304.000000	0.026139
1303.000000	0.025962
1302.000000	0.025807
1301.000000	0.025674
1300.000000	0.025555
1299.000000	0.025444
1298.000000	0.025342
1297.000000	0.025249
1296.000000	0.025173
1295.000000	0.025135
1294.000000	0.025144
1293.000000	0.025192
1292.000000	0.025261
1291.000000	0.025346
1290.000000	0.025448
1289.000000	0.025575
1288.000000	0.025729
1287.000000	0.025904
1286.000000	0.026082
1285.000000	0.026250
1284.000000	0.026408
1283.000000	0.026562
1282.000000	0.026702
1281.000000	0.026812
1280.000000	0.026883
1279.000000	0.026924
1278.000000	0.026944
1277.000000	0.026946
1276.000000	0.026936
1275.000000	0.026930
1274.000000	0.026937
1273.000000	0.026954
1272.000000	0.026969
1271.000000	0.026991
1270.000000	0.027037
1269.000000	0.027116
1268.000000	0.027217
1267.000000	0.027323
1266.000000	0.027430
1265.000000	0.027552
1264.000000	0.027704
1263.000000	0.027887
1262.000000	0.028082
1261.000000	0.028271
1260.000000	0.028455
1259.000000	0.028643
1258.000000	0.028850
1257.000000	0.029077
1256.000000	0.029324
1255.000000	0.029580
1254.000000	0.029834
1253.000000	0.030080
1252.000000	0.030330
1251.000000	0.030594
1250.000000	0.030878
1249.000000	0.031176
1248.000000	0.031481
1247.000000	0.031782
1246.000000	0.032074
1245.000000	0.032357
1244.000000	0.032633
1243.000000	0.032901
1242.000000	0.033143
1241.000000	0.033345
1240.000000	0.033500
1239.000000	0.033613
1238.000000	0.033696
1237.000000	0.033753
1236.000000	0.033781
1235.000000	0.033765
1234.000000	0.033693
1233.000000	0.033573
1232.000000	0.033421
1231.000000	0.033235
1230.000000	0.032993
1229.000000	0.032671
1228.000000	0.032275
1227.000000	0.031834
1226.000000	0.031374
1225.000000	0.030902
1224.000000	0.030410
1223.000000	0.029892
1222.000000	0.029347
1221.000000	0.028783
1220.000000	0.028221
1219.000000	0.027699
1218.000000	0.027259
1217.000000	0.026924
1216.000000	0.026690
1215.000000	0.026533
1214.000000	0.026423
1213.000000	0.026336
1212.000000	0.026267
1211.000000	0.026219
1210.000000	0.026199
1209.000000	0.026213
1208.000000	0.026263
1207.000000	0.026334
1206.000000	0.026404
1205.000000	0.026460
1204.000000	0.026499
1203.000000	0.026511
1202.000000	0.026473
1201.000000	0.026370
1200.000000	0.026211
1199.000000	0.026012
1198.000000	0.025783
1197.000000	0.025527
1196.000000	0.025257
1195.000000	0.024985
1194.000000	0.024704
1193.000000	0.024399
1192.000000	0.024065
1191.000000	0.023717
1190.000000	0.023375
1189.000000	0.023053
1188.000000	0.022757
1187.000000	0.022486
1186.000000	0.022231
1185.000000	0.021991
1184.000000	0.021776
1183.000000	0.021603
1182.000000	0.021469
1181.000000	0.021368
1180.000000	0.021296
1179.000000	0.021262
1178.000000	0.021263
1177.000000	0.021281
1176.000000	0.021303
1175.000000	0.021325
1174.000000	0.021352
1173.000000	0.021387
1172.000000	0.021426
1171.000000	0.021462
1170.000000	0.021490
1169.000000	0.021527
1168.000000	0.021603
1167.000000	0.021726
1166.000000	0.021870
1165.000000	0.021995
1164.000000	0.022089
1163.000000	0.022166
1162.000000	0.022234
1161.000000	0.022288
1160.000000	0.022314
1159.000000	0.022299
1158.000000	0.022231
1157.000000	0.022102
1156.000000	0.021926
1155.000000	0.021725
1154.000000	0.021508
1153.000000	0.021271
1152.000000	0.021012
1151.000000	0.020742
1150.000000	0.020467
1149.000000	0.020184
1148.000000	0.019893
1147.000000	0.019606
1146.000000	0.019334
1145.000000	0.019078
1144.000000	0.018834
1143.000000	0.018598
1142.000000	0.018363
1141.000000	0.018129
1140.000000	0.017910
1139.000000	0.017726
1138.000000	0.017586
1137.000000	0.017471
1136.000000	0.017361
1135.000000	0.017254
1134.000000	0.017163
1133.000000	0.017106
1132.000000	0.017089
1131.000000	0.017104
1130.000000	0.017129
1129.000000	0.017144
1128.000000	0.017147
1127.000000	0.017148
1126.000000	0.017163
1125.000000	0.017201
1124.000000	0.017267
1123.000000	0.017360
1122.000000	0.017460
1121.000000	0.017546
1120.000000	0.017614
1119.000000	0.017677
1118.000000	0.017755
1117.000000	0.017857
1116.000000	0.017978
1115.000000	0.018095
1114.000000	0.018188
1113.000000	0.018256
1112.000000	0.018317
1111.000000	0.018393
1110.000000	0.018487
1109.000000	0.018590
1108.000000	0.018694
1107.000000	0.018793
1106.000000	0.018879
1105.000000	0.018952
1104.000000	0.019028
1103.000000	0.019128
1102.000000	0.019247
1101.000000	0.019360
1100.000000	0.019444
1099.000000	0.019501
1098.000000	0.019553
1097.000000	0.019629
1096.000000	0.019740
1095.000000	0.019880
1094.000000	0.020038
1093.000000	0.020221
1092.000000	0.020462
1091.000000	0.020779
1090.000000	0.021158
1089.000000	0.021560
1088.000000	0.021961
1087.000000	0.022361
1086.000000	0.022766
1085.000000	0.023165
1084.000000	0.023523
1083.000000	0.023802
1082.000000	0.023981
1081.000000	0.024071
1080.000000	0.024090
1079.000000	0.024037
1078.000000	0.023900
1077.000000	0.023683
1076.000000	0.023412
1075.000000	0.023119
1074.000000	0.022827
1073.000000	0.022547
1072.000000	0.022294
1071.000000	0.022078
1070.000000	0.021899
1069.000000	0.021758
1068.000000	0.021656
1067.000000	0.021601
1066.000000	0.021593
1065.000000	0.021638
1064.000000	0.021738
1063.000000	0.021870
1062.000000	0.021987
1061.000000	0.022055
1060.000000	0.022084
1059.000000	0.022115
1058.000000	0.022167
1057.000000	0.022218
1056.000000	0.022237
1055.000000	0.022216
1054.000000	0.022173
1053.000000	0.022135
1052.000000	0.022112
1051.000000	0.022099
1050.000000	0.022092
1049.000000	0.022091
1048.000000	0.022101
1047.000000	0.022119
1046.000000	0.022135
1045.000000	0.022146
1044.000000	0.022159
1043.000000	0.022184
1042.000000	0.022232
1041.000000	0.022319
1040.000000	0.022459
1039.000000	0.022649
1038.000000	0.022869
1037.000000	0.023104
1036.000000	0.023351
1035.000000	0.023613
1034.000000	0.023877
1033.000000	0.024121
1032.000000	0.024330
1031.000000	0.024490
1030.000000	0.024595
1029.000000	0.024650
1028.000000	0.024679
1027.000000	0.024702
1026.000000	0.024726
1025.000000	0.024749
1024.000000	0.024771
1023.000000	0.024802
1022.000000	0.024839
1021.000000	0.024869
1020.000000	0.024879
1019.000000	0.024867
1018.000000	0.024838
1017.000000	0.024783
1016.000000	0.024671
1015.000000	0.024467
1014.000000	0.024166
1013.000000	0.023797
1012.000000	0.023395
1011.000000	0.022966
1010.000000	0.022496
1009.000000	0.021991
1008.000000	0.021493
1007.000000	0.021045
1006.000000	0.020657
1005.000000	0.020304
1004.000000	0.019967
1003.000000	0.019645
1002.000000	0.019342
1001.000000	0.019061
1000.000000	0.018795
999.000000	0.018532
998.000000	0.018258
997.000000	0.017966
996.000000	0.017659
995.000000	0.017354
994.000000	0.017069
993.000000	0.016810
992.000000	0.016574
991.000000	0.016347
990.000000	0.016115
989.000000	0.015882
988.000000	0.015669
987.000000	0.015491
986.000000	0.015333
985.000000	0.015169
984.000000	0.015003
983.000000	0.014862
982.000000	0.014763
981.000000	0.014688
980.000000	0.014604
979.000000	0.014495
978.000000	0.014359
977.000000	0.014207
976.000000	0.014052
975.000000	0.013908
974.000000	0.013785
973.000000	0.013679
972.000000	0.013573
971.000000	0.013442
970.000000	0.013268
969.000000	0.013057
968.000000	0.012836
967.000000	0.012624
966.000000	0.012418
965.000000	0.012205
964.000000	0.011982
963.000000	0.011766
962.000000	0.011564
961.000000	0.011376
960.000000	0.011200
959.000000	0.011036
958.000000	0.010880
957.000000	0.010718
956.000000	0.010544
955.000000	0.010367
954.000000	0.010207
953.000000	0.010078
952.000000	0.009981
951.000000	0.009900
950.000000	0.009810
949.000000	0.009707
948.000000	0.009620
947.000000	0.009581
946.000000	0.009591
945.000000	0.009617
944.000000	0.009634
943.000000	0.009641
942.000000	0.009650
941.000000	0.009665
940.000000	0.009679
939.000000	0.009675
938.000000	0.009641
937.000000	0.009576
936.000000	0.009500
935.000000	0.009437
934.000000	0.009395
933.000000	0.009363
932.000000	0.009323
931.000000	0.009264
930.000000	0.009194
929.000000	0.009131
928.000000	0.009094
927.000000	0.009072
926.000000	0.009035
925.000000	0.008974
924.000000	0.008915
923.000000	0.008883
922.000000	0.008864
921.000000	0.008819
920.000000	0.008730
919.000000	0.008613
918.000000	0.008493
917.000000	0.008382
916.000000	0.008277
915.000000	0.008164
914.000000	0.008036
913.000000	0.007902
912.000000	0.007782
911.000000	0.007685
910.000000	0.007596
909.000000	0.007507
908.000000	0.007441
907.000000	0.007416
906.000000	0.007407
905.000000	0.007363
904.000000	0.007272
903.000000	0.007170
902.000000	0.007094
901.000000	0.007048
900.000000	0.007008
899.000000	0.006947
898.000000	0.006856
897.000000	0.006758
896.000000	0.006698
895.000000	0.006705
894.000000	0.006749
893.000000	0.006768
892.000000	0.006724
891.000000	0.006631
890.000000	0.006532
889.000000	0.006472
888.000000	0.006494
887.000000	0.006633
886.000000	0.006884
885.000000	0.007208
884.000000	0.007565
883.000000	0.007947
882.000000	0.008382
881.000000	0.008911
880.000000	0.009557
879.000000	0.010285
878.000000	0.010976
877.000000	0.011481
876.000000	0.011698
875.000000	0.011617
874.000000	0.011292
873.000000	0.010799
872.000000	0.010223
871.000000	0.009651
870.000000	0.009149
869.000000	0.008741
868.000000	0.008424
867.000000	0.008188
866.000000	0.008015
865.000000	0.007874
864.000000	0.007742
863.000000	0.007622
862.000000	0.007525
861.000000	0.007447
860.000000	0.007380
859.000000	0.007330
858.000000	0.007317
857.000000	0.007347
856.000000	0.007401
855.000000	0.007449
854.000000	0.007478
853.000000	0.007492
852.000000	0.007494
851.000000	0.007483
850.000000	0.007463
849.000000	0.007445
848.000000	0.007429
847.000000	0.007382
846.000000	0.007273
845.000000	0.007114
844.000000	0.006962
843.000000	0.006866
842.000000	0.006818
841.000000	0.006790
840.000000	0.006774
839.000000	0.006777
838.000000	0.006785
837.000000	0.006764
836.000000	0.006711
835.000000	0.006664
834.000000	0.006649
833.000000	0.006651
832.000000	0.006647
831.000000	0.006638
830.000000	0.006640
829.000000	0.006658
828.000000	0.006682
827.000000	0.006704
826.000000	0.006713
825.000000	0.006696
824.000000	0.006655
823.000000	0.006632
822.000000	0.006665
821.000000	0.006742
820.000000	0.006801
819.000000	0.006795
818.000000	0.006734
817.000000	0.006667
816.000000	0.006638
815.000000	0.006656
814.000000	0.006699
813.000000	0.006742
812.000000	0.006764
811.000000	0.006757
810.000000	0.006721
809.000000	0.006674
808.000000	0.006635
807.000000	0.006620
806.000000	0.006634
805.000000	0.006676
804.000000	0.006730
803.000000	0.006767
802.000000	0.006759
801.000000	0.006706
800.000000	0.006646
799.000000	0.006625
798.000000	0.006655
797.000000	0.006716
796.000000	0.006772
795.000000	0.006797
794.000000	0.006782
793.000000	0.006744
792.000000	0.006722
791.000000	0.006743
790.000000	0.006794
789.000000	0.006839
788.000000	0.006861
787.000000	0.006877
786.000000	0.006909
785.000000	0.006956
784.000000	0.007000
783.000000	0.007032
782.000000	0.007063
781.000000	0.007107
780.000000	0.007163
779.000000	0.007214
778.000000	0.007231
777.000000	0.007206
776.000000	0.007166
775.000000	0.007156
774.000000	0.007194
773.000000	0.007262
772.000000	0.007328
771.000000	0.007378
770.000000	0.007408
769.000000	0.007414
768.000000	0.007392
767.000000	0.007353
766.000000	0.007325
765.000000	0.007330
764.000000	0.007376
763.000000	0.007453
762.000000	0.007539
761.000000	0.007611
760.000000	0.007649
759.000000	0.007657
758.000000	0.007652
757.000000	0.007657
756.000000	0.007683
755.000000	0.007721
754.000000	0.007753
753.000000	0.007761
752.000000	0.007746
751.000000	0.007736
750.000000	0.007759
749.000000	0.007815
748.000000	0.007881
747.000000	0.007937
746.000000	0.007978
745.000000	0.008010
744.000000	0.008045
743.000000	0.008094
742.000000	0.008170
741.000000	0.008267
740.000000	0.008360
739.000000	0.008422
738.000000	0.008454
737.000000	0.008484
736.000000	0.008552
735.000000	0.008672
734.000000	0.008829
733.000000	0.008998
732.000000	0.009166
731.000000	0.009328
730.000000	0.009469
729.000000	0.009581
728.000000	0.009678
727.000000	0.009789
726.000000	0.009928
725.000000	0.010088
724.000000	0.010259
723.000000	0.010449
722.000000	0.010664
721.000000	0.010882
720.000000	0.011066
719.000000	0.011198
718.000000	0.011288
717.000000	0.011350
716.000000	0.011393
715.000000	0.011455
714.000000	0.011590
713.000000	0.011798
712.000000	0.012004
711.000000	0.012119
710.000000	0.012128
709.000000	0.012100
708.000000	0.012105
707.000000	0.012158
706.000000	0.012238
705.000000	0.012329
704.000000	0.012413
703.000000	0.012470
702.000000	0.012481
701.000000	0.012450
700.000000	0.012394
699.000000	0.012328
698.000000	0.012267
697.000000	0.012238
696.000000	0.012264
695.000000	0.012354
694.000000	0.012479
693.000000	0.012589
692.000000	0.012642
691.000000	0.012631
690.000000	0.012583
689.000000	0.012543
688.000000	0.012535
687.000000	0.012557
686.000000	0.012598
685.000000	0.012655
684.000000	0.012746
683.000000	0.012870
682.000000	0.012983
681.000000	0.013036
680.000000	0.013047
679.000000	0.013091
678.000000	0.013206
677.000000	0.013380
676.000000	0.013577
675.000000	0.013770
674.000000	0.013951
673.000000	0.014110
672.000000	0.014202
671.000000	0.014143
670.000000	0.013872
669.000000	0.013454
668.000000	0.013239
667.000000	0.013512
666.000000	0.013876
665.000000	0.014170
664.000000	0.014416
663.000000	0.014589
662.000000	0.014683
661.000000	0.014736
660.000000	0.014774
659.000000	0.014760
658.000000	0.014667
657.000000	0.014568
656.000000	0.014550
655.000000	0.014605
654.000000	0.014674
653.000000	0.014721
652.000000	0.014720
651.000000	0.014658
650.000000	0.014585
649.000000	0.014584
648.000000	0.014652
647.000000	0.014700
646.000000	0.014692
645.000000	0.014676
644.000000	0.014678
643.000000	0.014666
642.000000	0.014625
641.000000	0.014585
640.000000	0.014556
639.000000	0.014506
638.000000	0.014441
637.000000	0.014415
636.000000	0.014441
635.000000	0.014480
634.000000	0.014526
633.000000	0.014609
632.000000	0.014717
631.000000	0.014786
630.000000	0.014791
629.000000	0.014774
628.000000	0.014753
627.000000	0.014712
626.000000	0.014694
625.000000	0.014774
624.000000	0.014925
623.000000	0.015015
622.000000	0.014982
621.000000	0.014908
620.000000	0.014892
619.000000	0.014938
618.000000	0.015004
617.000000	0.015069
616.000000	0.015108
615.000000	0.015083
614.000000	0.015012
613.000000	0.014972
612.000000	0.014990
611.000000	0.014985
610.000000	0.014901
609.000000	0.014804
608.000000	0.014772
607.000000	0.014783
606.000000	0.014775
605.000000	0.014750
604.000000	0.014760
603.000000	0.014813
602.000000	0.014874
601.000000	0.014915
600.000000	0.014934
599.000000	0.014953
598.000000	0.015006
597.000000	0.015096
596.000000	0.015152
595.000000	0.015096
594.000000	0.014958
593.000000	0.014870
592.000000	0.014909
591.000000	0.015018
590.000000	0.015106
589.000000	0.015144
588.000000	0.015132
587.000000	0.015055
586.000000	0.014921
585.000000	0.014789
584.000000	0.014693
583.000000	0.014603
582.000000	0.014509
581.000000	0.014470
580.000000	0.014541
579.000000	0.014691
578.000000	0.014840
577.000000	0.014945
576.000000	0.014997
575.000000	0.014986
574.000000	0.014948
573.000000	0.014986
572.000000	0.015184
571.000000	0.015502
570.000000	0.015804
569.000000	0.016007
568.000000	0.016133
567.000000	0.016230
566.000000	0.016288
565.000000	0.016267
564.000000	0.016163
563.000000	0.016054
562.000000	0.016051
561.000000	0.016213
560.000000	0.016481
559.000000	0.016736
558.000000	0.016902
557.000000	0.016973
556.000000	0.016943
555.000000	0.016776
554.000000	0.016509
553.000000	0.016281
552.000000	0.016213
551.000000	0.016277
550.000000	0.016331
549.000000	0.016268
548.000000	0.016090
547.000000	0.015871
546.000000	0.015669
545.000000	0.015472
544.000000	0.015226
543.000000	0.014940
542.000000	0.014733
541.000000	0.014733
540.000000	0.014936
539.000000	0.015223
538.000000	0.015471
537.000000	0.015613
536.000000	0.015623
535.000000	0.015565
534.000000	0.015601
533.000000	0.015864
532.000000	0.016256
531.000000	0.016514
530.000000	0.016498
529.000000	0.016316
528.000000	0.016121
527.000000	0.015946
526.000000	0.015770
525.000000	0.015593
524.000000	0.015401
523.000000	0.015170
522.000000	0.014958
521.000000	0.014872
520.000000	0.014879
519.000000	0.014783
518.000000	0.014478
517.000000	0.014114
516.000000	0.013874
515.000000	0.013731
514.000000	0.013549
513.000000	0.013286
512.000000	0.012985
511.000000	0.012678
510.000000	0.012397
509.000000	0.012210
508.000000	0.012122
507.000000	0.012050
506.000000	0.011975
505.000000	0.011980
504.000000	0.012083
503.000000	0.012135
502.000000	0.012013
501.000000	0.011796
500.000000	0.011629
499.000000	0.011528
498.000000	0.011431
497.000000	0.011318
496.000000	0.011178
495.000000	0.010984
494.000000	0.010785
493.000000	0.010700
492.000000	0.010717
491.000000	0.010668
490.000000	0.010488
489.000000	0.010348
488.000000	0.010381
487.000000	0.010458
486.000000	0.010374
485.000000	0.010133
484.000000	0.009891
483.000000	0.009747
482.000000	0.009737
481.000000	0.009897
480.000000	0.010162
479.000000	0.010312
478.000000	0.010166
477.000000	0.009813
476.000000	0.009485
475.000000	0.009266
474.000000	0.009091
473.000000	0.008984
472.000000	0.009088
471.000000	0.009440
470.000000	0.009859
469.000000	0.010119
468.000000	0.010101
467.000000	0.009804
466.000000	0.009370
465.000000	0.009067
464.000000	0.009048
463.000000	0.009149
462.000000	0.009053
461.000000	0.008637
460.000000	0.008072
459.000000	0.007593
458.000000	0.007352
457.000000	0.007423
456.000000	0.007726
455.000000	0.008000
454.000000	0.007992
453.000000	0.007692
452.000000	0.006800
451.000000	0.006689
450.000000	0.006602
