PE IR       SUBTECH     SPECTRUM    ASCII       PEDS        4.00        
   -1
3G-H10-C003_1.ASC
22/02/23
14:28:29.00
22/02/23
15:10:46.00
uco
Sample 003 By uco Date Wednesday, February 23 2022
450.000000
#HDR
-1
-1
#GR
cm-1
A
1.0
0.0
4000.000000
-1.000000
3551
8
0.019190
0.001340
#DATA
4000.000000	0.001521
3999.000000	0.001508
3998.000000	0.001498
3997.000000	0.001498
3996.000000	0.001509
3995.000000	0.001522
3994.000000	0.001527
3993.000000	0.001524
3992.000000	0.001529
3991.000000	0.001527
3990.000000	0.001524
3989.000000	0.001519
3988.000000	0.001515
3987.000000	0.001517
3986.000000	0.001527
3985.000000	0.001538
3984.000000	0.001544
3983.000000	0.001546
3982.000000	0.001550
3981.000000	0.001558
3980.000000	0.001564
3979.000000	0.001561
3978.000000	0.001548
3977.000000	0.001533
3976.000000	0.001526
3975.000000	0.001532
3974.000000	0.001547
3973.000000	0.001561
3972.000000	0.001565
3971.000000	0.001560
3970.000000	0.001549
3969.000000	0.001543
3968.000000	0.001548
3967.000000	0.001559
3966.000000	0.001569
3965.000000	0.001568
3964.000000	0.001554
3963.000000	0.001537
3962.000000	0.001530
3961.000000	0.001541
3960.000000	0.001564
3959.000000	0.001588
3958.000000	0.001603
3957.000000	0.001609
3956.000000	0.001612
3955.000000	0.001617
3954.000000	0.001621
3953.000000	0.001621
3952.000000	0.001614
3951.000000	0.001604
3950.000000	0.001596
3949.000000	0.001592
3948.000000	0.001592
3947.000000	0.001594
3946.000000	0.001598
3945.000000	0.001604
3944.000000	0.001614
3943.000000	0.001628
3942.000000	0.001645
3941.000000	0.001663
3940.000000	0.001676
3939.000000	0.001680
3938.000000	0.001672
3937.000000	0.001657
3936.000000	0.001642
3935.000000	0.001635
3934.000000	0.001646
3933.000000	0.001673
3932.000000	0.001706
3931.000000	0.001727
3930.000000	0.001723
3929.000000	0.001697
3928.000000	0.001663
3927.000000	0.001635
3926.000000	0.001619
3925.000000	0.001615
3924.000000	0.001620
3923.000000	0.001631
3922.000000	0.001644
3921.000000	0.001654
3920.000000	0.001656
3919.000000	0.001648
3918.000000	0.001635
3917.000000	0.001624
3916.000000	0.001618
3915.000000	0.001621
3914.000000	0.001631
3913.000000	0.001644
3912.000000	0.001651
3911.000000	0.001649
3910.000000	0.001642
3909.000000	0.001640
3908.000000	0.001650
3907.000000	0.001667
3906.000000	0.001680
3905.000000	0.001679
3904.000000	0.001663
3903.000000	0.001646
3902.000000	0.001639
3901.000000	0.001649
3900.000000	0.001668
3899.000000	0.001686
3898.000000	0.001695
3897.000000	0.001694
3896.000000	0.001685
3895.000000	0.001672
3894.000000	0.001661
3893.000000	0.001655
3892.000000	0.001658
3891.000000	0.001665
3890.000000	0.001671
3889.000000	0.001672
3888.000000	0.001673
3887.000000	0.001676
3886.000000	0.001683
3885.000000	0.001691
3884.000000	0.001696
3883.000000	0.001701
3882.000000	0.001704
3881.000000	0.001701
3880.000000	0.001685
3879.000000	0.001656
3878.000000	0.001623
3877.000000	0.001599
3876.000000	0.001593
3875.000000	0.001603
3874.000000	0.001619
3873.000000	0.001631
3872.000000	0.001635
3871.000000	0.001634
3870.000000	0.001631
3869.000000	0.001625
3868.000000	0.001614
3867.000000	0.001600
3866.000000	0.001592
3865.000000	0.001595
3864.000000	0.001612
3863.000000	0.001641
3862.000000	0.001673
3861.000000	0.001700
3860.000000	0.001716
3859.000000	0.001722
3858.000000	0.001721
3857.000000	0.001717
3856.000000	0.001703
3855.000000	0.001669
3854.000000	0.001617
3853.000000	0.001564
3852.000000	0.001532
3851.000000	0.001532
3850.000000	0.001561
3849.000000	0.001604
3848.000000	0.001648
3847.000000	0.001680
3846.000000	0.001696
3845.000000	0.001694
3844.000000	0.001680
3843.000000	0.001661
3842.000000	0.001643
3841.000000	0.001630
3840.000000	0.001627
3839.000000	0.001641
3838.000000	0.001672
3837.000000	0.001710
3836.000000	0.001739
3835.000000	0.001753
3834.000000	0.001752
3833.000000	0.001743
3832.000000	0.001732
3831.000000	0.001725
3830.000000	0.001721
3829.000000	0.001717
3828.000000	0.001713
3827.000000	0.001708
3826.000000	0.001702
3825.000000	0.001695
3824.000000	0.001689
3823.000000	0.001682
3822.000000	0.001678
3821.000000	0.001673
3820.000000	0.001664
3819.000000	0.001649
3818.000000	0.001635
3817.000000	0.001631
3816.000000	0.001640
3815.000000	0.001657
3814.000000	0.001671
3813.000000	0.001681
3812.000000	0.001686
3811.000000	0.001690
3810.000000	0.001694
3809.000000	0.001693
3808.000000	0.001681
3807.000000	0.001657
3806.000000	0.001630
3805.000000	0.001615
3804.000000	0.001612
3803.000000	0.001613
3802.000000	0.001609
3801.000000	0.001601
3800.000000	0.001592
3799.000000	0.001594
3798.000000	0.001611
3797.000000	0.001637
3796.000000	0.001662
3795.000000	0.001678
3794.000000	0.001684
3793.000000	0.001682
3792.000000	0.001676
3791.000000	0.001664
3790.000000	0.001647
3789.000000	0.001625
3788.000000	0.001607
3787.000000	0.001604
3786.000000	0.001623
3785.000000	0.001658
3784.000000	0.001690
3783.000000	0.001705
3782.000000	0.001702
3781.000000	0.001695
3780.000000	0.001700
3779.000000	0.001717
3778.000000	0.001733
3777.000000	0.001737
3776.000000	0.001733
3775.000000	0.001730
3774.000000	0.001734
3773.000000	0.001741
3772.000000	0.001742
3771.000000	0.001733
3770.000000	0.001717
3769.000000	0.001700
3768.000000	0.001681
3767.000000	0.001659
3766.000000	0.001639
3765.000000	0.001625
3764.000000	0.001619
3763.000000	0.001617
3762.000000	0.001610
3761.000000	0.001593
3760.000000	0.001572
3759.000000	0.001557
3758.000000	0.001557
3757.000000	0.001573
3756.000000	0.001593
3755.000000	0.001606
3754.000000	0.001606
3753.000000	0.001601
3752.000000	0.001606
3751.000000	0.001624
3750.000000	0.001638
3749.000000	0.001635
3748.000000	0.001622
3747.000000	0.001612
3746.000000	0.001618
3745.000000	0.001639
3744.000000	0.001658
3743.000000	0.001657
3742.000000	0.001642
3741.000000	0.001629
3740.000000	0.001617
3739.000000	0.001602
3738.000000	0.001583
3737.000000	0.001565
3736.000000	0.001553
3735.000000	0.001552
3734.000000	0.001558
3733.000000	0.001568
3732.000000	0.001580
3731.000000	0.001595
3730.000000	0.001615
3729.000000	0.001638
3728.000000	0.001655
3727.000000	0.001655
3726.000000	0.001635
3725.000000	0.001602
3724.000000	0.001567
3723.000000	0.001545
3722.000000	0.001540
3721.000000	0.001550
3720.000000	0.001566
3719.000000	0.001581
3718.000000	0.001590
3717.000000	0.001596
3716.000000	0.001596
3715.000000	0.001587
3714.000000	0.001564
3713.000000	0.001527
3712.000000	0.001490
3711.000000	0.001472
3710.000000	0.001479
3709.000000	0.001498
3708.000000	0.001514
3707.000000	0.001521
3706.000000	0.001527
3705.000000	0.001545
3704.000000	0.001582
3703.000000	0.001633
3702.000000	0.001685
3701.000000	0.001723
3700.000000	0.001744
3699.000000	0.001749
3698.000000	0.001740
3697.000000	0.001718
3696.000000	0.001686
3695.000000	0.001653
3694.000000	0.001627
3693.000000	0.001612
3692.000000	0.001607
3691.000000	0.001605
3690.000000	0.001603
3689.000000	0.001598
3688.000000	0.001587
3687.000000	0.001577
3686.000000	0.001576
3685.000000	0.001585
3684.000000	0.001597
3683.000000	0.001601
3682.000000	0.001597
3681.000000	0.001592
3680.000000	0.001588
3679.000000	0.001580
3678.000000	0.001553
3677.000000	0.001506
3676.000000	0.001470
3675.000000	0.001471
3674.000000	0.001497
3673.000000	0.001515
3672.000000	0.001513
3671.000000	0.001498
3670.000000	0.001502
3669.000000	0.001541
3668.000000	0.001600
3667.000000	0.001656
3666.000000	0.001694
3665.000000	0.001713
3664.000000	0.001721
3663.000000	0.001725
3662.000000	0.001727
3661.000000	0.001721
3660.000000	0.001705
3659.000000	0.001685
3658.000000	0.001673
3657.000000	0.001679
3656.000000	0.001702
3655.000000	0.001729
3654.000000	0.001749
3653.000000	0.001757
3652.000000	0.001751
3651.000000	0.001739
3650.000000	0.001740
3649.000000	0.001764
3648.000000	0.001796
3647.000000	0.001815
3646.000000	0.001818
3645.000000	0.001816
3644.000000	0.001822
3643.000000	0.001841
3642.000000	0.001865
3641.000000	0.001883
3640.000000	0.001892
3639.000000	0.001898
3638.000000	0.001905
3637.000000	0.001913
3636.000000	0.001918
3635.000000	0.001919
3634.000000	0.001918
3633.000000	0.001919
3632.000000	0.001923
3631.000000	0.001930
3630.000000	0.001936
3629.000000	0.001941
3628.000000	0.001941
3627.000000	0.001936
3626.000000	0.001938
3625.000000	0.001954
3624.000000	0.001977
3623.000000	0.001995
3622.000000	0.001997
3621.000000	0.001981
3620.000000	0.001963
3619.000000	0.001960
3618.000000	0.001979
3617.000000	0.002010
3616.000000	0.002039
3615.000000	0.002060
3614.000000	0.002076
3613.000000	0.002096
3612.000000	0.002121
3611.000000	0.002146
3610.000000	0.002167
3609.000000	0.002186
3608.000000	0.002206
3607.000000	0.002223
3606.000000	0.002231
3605.000000	0.002229
3604.000000	0.002227
3603.000000	0.002235
3602.000000	0.002255
3601.000000	0.002277
3600.000000	0.002289
3599.000000	0.002289
3598.000000	0.002283
3597.000000	0.002284
3596.000000	0.002297
3595.000000	0.002323
3594.000000	0.002354
3593.000000	0.002378
3592.000000	0.002391
3591.000000	0.002392
3590.000000	0.002386
3589.000000	0.002383
3588.000000	0.002393
3587.000000	0.002415
3586.000000	0.002427
3585.000000	0.002418
3584.000000	0.002399
3583.000000	0.002395
3582.000000	0.002423
3581.000000	0.002481
3580.000000	0.002547
3579.000000	0.002598
3578.000000	0.002627
3577.000000	0.002641
3576.000000	0.002647
3575.000000	0.002651
3574.000000	0.002657
3573.000000	0.002667
3572.000000	0.002681
3571.000000	0.002693
3570.000000	0.002694
3569.000000	0.002682
3568.000000	0.002668
3567.000000	0.002674
3566.000000	0.002712
3565.000000	0.002776
3564.000000	0.002854
3563.000000	0.002930
3562.000000	0.002990
3561.000000	0.003024
3560.000000	0.003034
3559.000000	0.003028
3558.000000	0.003020
3557.000000	0.003023
3556.000000	0.003037
3555.000000	0.003053
3554.000000	0.003065
3553.000000	0.003071
3552.000000	0.003081
3551.000000	0.003096
3550.000000	0.003114
3549.000000	0.003129
3548.000000	0.003144
3547.000000	0.003169
3546.000000	0.003205
3545.000000	0.003247
3544.000000	0.003288
3543.000000	0.003327
3542.000000	0.003364
3541.000000	0.003397
3540.000000	0.003419
3539.000000	0.003428
3538.000000	0.003429
3537.000000	0.003431
3536.000000	0.003441
3535.000000	0.003455
3534.000000	0.003468
3533.000000	0.003478
3532.000000	0.003485
3531.000000	0.003492
3530.000000	0.003496
3529.000000	0.003498
3528.000000	0.003500
3527.000000	0.003509
3526.000000	0.003526
3525.000000	0.003549
3524.000000	0.003579
3523.000000	0.003618
3522.000000	0.003668
3521.000000	0.003725
3520.000000	0.003778
3519.000000	0.003811
3518.000000	0.003815
3517.000000	0.003795
3516.000000	0.003768
3515.000000	0.003751
3514.000000	0.003753
3513.000000	0.003767
3512.000000	0.003786
3511.000000	0.003805
3510.000000	0.003827
3509.000000	0.003852
3508.000000	0.003877
3507.000000	0.003897
3506.000000	0.003910
3505.000000	0.003923
3504.000000	0.003944
3503.000000	0.003975
3502.000000	0.004010
3501.000000	0.004043
3500.000000	0.004069
3499.000000	0.004091
3498.000000	0.004109
3497.000000	0.004123
3496.000000	0.004135
3495.000000	0.004150
3494.000000	0.004170
3493.000000	0.004193
3492.000000	0.004214
3491.000000	0.004229
3490.000000	0.004237
3489.000000	0.004237
3488.000000	0.004230
3487.000000	0.004221
3486.000000	0.004217
3485.000000	0.004219
3484.000000	0.004227
3483.000000	0.004237
3482.000000	0.004252
3481.000000	0.004271
3480.000000	0.004294
3479.000000	0.004315
3478.000000	0.004330
3477.000000	0.004341
3476.000000	0.004352
3475.000000	0.004367
3474.000000	0.004388
3473.000000	0.004412
3472.000000	0.004431
3471.000000	0.004445
3470.000000	0.004451
3469.000000	0.004451
3468.000000	0.004447
3467.000000	0.004442
3466.000000	0.004437
3465.000000	0.004434
3464.000000	0.004436
3463.000000	0.004450
3462.000000	0.004483
3461.000000	0.004532
3460.000000	0.004584
3459.000000	0.004625
3458.000000	0.004650
3457.000000	0.004657
3456.000000	0.004649
3455.000000	0.004630
3454.000000	0.004607
3453.000000	0.004593
3452.000000	0.004600
3451.000000	0.004629
3450.000000	0.004671
3449.000000	0.004714
3448.000000	0.004752
3447.000000	0.004783
3446.000000	0.004806
3445.000000	0.004819
3444.000000	0.004822
3443.000000	0.004823
3442.000000	0.004832
3441.000000	0.004850
3440.000000	0.004871
3439.000000	0.004888
3438.000000	0.004900
3437.000000	0.004916
3436.000000	0.004943
3435.000000	0.004980
3434.000000	0.005017
3433.000000	0.005040
3432.000000	0.005040
3431.000000	0.005018
3430.000000	0.004989
3429.000000	0.004969
3428.000000	0.004973
3427.000000	0.005003
3426.000000	0.005053
3425.000000	0.005103
3424.000000	0.005134
3423.000000	0.005144
3422.000000	0.005144
3421.000000	0.005151
3420.000000	0.005173
3419.000000	0.005204
3418.000000	0.005232
3417.000000	0.005250
3416.000000	0.005256
3415.000000	0.005253
3414.000000	0.005247
3413.000000	0.005242
3412.000000	0.005242
3411.000000	0.005249
3410.000000	0.005262
3409.000000	0.005276
3408.000000	0.005285
3407.000000	0.005290
3406.000000	0.005298
3405.000000	0.005315
3404.000000	0.005337
3403.000000	0.005360
3402.000000	0.005383
3401.000000	0.005403
3400.000000	0.005415
3399.000000	0.005414
3398.000000	0.005406
3397.000000	0.005405
3396.000000	0.005421
3395.000000	0.005449
3394.000000	0.005476
3393.000000	0.005496
3392.000000	0.005515
3391.000000	0.005538
3390.000000	0.005564
3389.000000	0.005588
3388.000000	0.005603
3387.000000	0.005612
3386.000000	0.005615
3385.000000	0.005610
3384.000000	0.005599
3383.000000	0.005592
3382.000000	0.005601
3381.000000	0.005628
3380.000000	0.005659
3379.000000	0.005684
3378.000000	0.005696
3377.000000	0.005697
3376.000000	0.005690
3375.000000	0.005685
3374.000000	0.005690
3373.000000	0.005711
3372.000000	0.005744
3371.000000	0.005784
3370.000000	0.005825
3369.000000	0.005867
3368.000000	0.005905
3367.000000	0.005936
3366.000000	0.005961
3365.000000	0.005983
3364.000000	0.006006
3363.000000	0.006034
3362.000000	0.006067
3361.000000	0.006101
3360.000000	0.006130
3359.000000	0.006151
3358.000000	0.006166
3357.000000	0.006185
3356.000000	0.006212
3355.000000	0.006248
3354.000000	0.006282
3353.000000	0.006307
3352.000000	0.006321
3351.000000	0.006336
3350.000000	0.006366
3349.000000	0.006417
3348.000000	0.006481
3347.000000	0.006542
3346.000000	0.006591
3345.000000	0.006627
3344.000000	0.006656
3343.000000	0.006680
3342.000000	0.006701
3341.000000	0.006716
3340.000000	0.006725
3339.000000	0.006734
3338.000000	0.006754
3337.000000	0.006793
3336.000000	0.006845
3335.000000	0.006899
3334.000000	0.006945
3333.000000	0.006982
3332.000000	0.007014
3331.000000	0.007040
3330.000000	0.007061
3329.000000	0.007074
3328.000000	0.007078
3327.000000	0.007079
3326.000000	0.007086
3325.000000	0.007112
3324.000000	0.007158
3323.000000	0.007213
3322.000000	0.007260
3321.000000	0.007287
3320.000000	0.007294
3319.000000	0.007290
3318.000000	0.007288
3317.000000	0.007293
3316.000000	0.007303
3315.000000	0.007314
3314.000000	0.007326
3313.000000	0.007348
3312.000000	0.007381
3311.000000	0.007417
3310.000000	0.007442
3309.000000	0.007445
3308.000000	0.007432
3307.000000	0.007420
3306.000000	0.007421
3305.000000	0.007433
3304.000000	0.007444
3303.000000	0.007445
3302.000000	0.007439
3301.000000	0.007434
3300.000000	0.007432
3299.000000	0.007434
3298.000000	0.007439
3297.000000	0.007445
3296.000000	0.007451
3295.000000	0.007463
3294.000000	0.007481
3293.000000	0.007502
3292.000000	0.007516
3291.000000	0.007522
3290.000000	0.007528
3289.000000	0.007546
3288.000000	0.007571
3287.000000	0.007592
3286.000000	0.007602
3285.000000	0.007601
3284.000000	0.007594
3283.000000	0.007579
3282.000000	0.007559
3281.000000	0.007541
3280.000000	0.007525
3279.000000	0.007512
3278.000000	0.007500
3277.000000	0.007488
3276.000000	0.007473
3275.000000	0.007449
3274.000000	0.007414
3273.000000	0.007381
3272.000000	0.007368
3271.000000	0.007381
3270.000000	0.007410
3269.000000	0.007438
3268.000000	0.007450
3267.000000	0.007438
3266.000000	0.007409
3265.000000	0.007379
3264.000000	0.007361
3263.000000	0.007358
3262.000000	0.007359
3261.000000	0.007349
3260.000000	0.007326
3259.000000	0.007300
3258.000000	0.007281
3257.000000	0.007271
3256.000000	0.007262
3255.000000	0.007246
3254.000000	0.007222
3253.000000	0.007193
3252.000000	0.007164
3251.000000	0.007138
3250.000000	0.007111
3249.000000	0.007083
3248.000000	0.007058
3247.000000	0.007043
3246.000000	0.007047
3245.000000	0.007070
3244.000000	0.007098
3243.000000	0.007115
3242.000000	0.007117
3241.000000	0.007113
3240.000000	0.007111
3239.000000	0.007106
3238.000000	0.007095
3237.000000	0.007082
3236.000000	0.007078
3235.000000	0.007081
3234.000000	0.007080
3233.000000	0.007058
3232.000000	0.007016
3231.000000	0.006969
3230.000000	0.006937
3229.000000	0.006928
3228.000000	0.006933
3227.000000	0.006936
3226.000000	0.006928
3225.000000	0.006912
3224.000000	0.006897
3223.000000	0.006888
3222.000000	0.006885
3221.000000	0.006889
3220.000000	0.006898
3219.000000	0.006903
3218.000000	0.006893
3217.000000	0.006862
3216.000000	0.006820
3215.000000	0.006786
3214.000000	0.006771
3213.000000	0.006768
3212.000000	0.006766
3211.000000	0.006759
3210.000000	0.006750
3209.000000	0.006743
3208.000000	0.006741
3207.000000	0.006740
3206.000000	0.006733
3205.000000	0.006717
3204.000000	0.006691
3203.000000	0.006659
3202.000000	0.006625
3201.000000	0.006594
3200.000000	0.006570
3199.000000	0.006558
3198.000000	0.006558
3197.000000	0.006562
3196.000000	0.006562
3195.000000	0.006553
3194.000000	0.006541
3193.000000	0.006530
3192.000000	0.006518
3191.000000	0.006503
3190.000000	0.006481
3189.000000	0.006454
3188.000000	0.006425
3187.000000	0.006401
3186.000000	0.006386
3185.000000	0.006387
3184.000000	0.006397
3183.000000	0.006405
3182.000000	0.006394
3181.000000	0.006361
3180.000000	0.006311
3179.000000	0.006260
3178.000000	0.006223
3177.000000	0.006206
3176.000000	0.006203
3175.000000	0.006203
3174.000000	0.006198
3173.000000	0.006183
3172.000000	0.006161
3171.000000	0.006138
3170.000000	0.006117
3169.000000	0.006096
3168.000000	0.006074
3167.000000	0.006047
3166.000000	0.006017
3165.000000	0.005990
3164.000000	0.005970
3163.000000	0.005963
3162.000000	0.005968
3161.000000	0.005978
3160.000000	0.005986
3159.000000	0.005984
3158.000000	0.005968
3157.000000	0.005941
3156.000000	0.005909
3155.000000	0.005876
3154.000000	0.005845
3153.000000	0.005819
3152.000000	0.005799
3151.000000	0.005787
3150.000000	0.005784
3149.000000	0.005783
3148.000000	0.005778
3147.000000	0.005764
3146.000000	0.005744
3145.000000	0.005720
3144.000000	0.005691
3143.000000	0.005655
3142.000000	0.005617
3141.000000	0.005594
3140.000000	0.005596
3139.000000	0.005616
3138.000000	0.005633
3137.000000	0.005631
3136.000000	0.005606
3135.000000	0.005573
3134.000000	0.005546
3133.000000	0.005533
3132.000000	0.005529
3131.000000	0.005528
3130.000000	0.005520
3129.000000	0.005503
3128.000000	0.005479
3127.000000	0.005457
3126.000000	0.005447
3125.000000	0.005457
3124.000000	0.005484
3123.000000	0.005518
3122.000000	0.005546
3121.000000	0.005557
3120.000000	0.005549
3119.000000	0.005524
3118.000000	0.005488
3117.000000	0.005450
3116.000000	0.005422
3115.000000	0.005415
3114.000000	0.005435
3113.000000	0.005472
3112.000000	0.005507
3111.000000	0.005527
3110.000000	0.005535
3109.000000	0.005540
3108.000000	0.005548
3107.000000	0.005557
3106.000000	0.005565
3105.000000	0.005575
3104.000000	0.005589
3103.000000	0.005601
3102.000000	0.005601
3101.000000	0.005585
3100.000000	0.005564
3099.000000	0.005551
3098.000000	0.005552
3097.000000	0.005566
3096.000000	0.005587
3095.000000	0.005607
3094.000000	0.005623
3093.000000	0.005637
3092.000000	0.005650
3091.000000	0.005656
3090.000000	0.005645
3089.000000	0.005619
3088.000000	0.005597
3087.000000	0.005599
3086.000000	0.005629
3085.000000	0.005673
3084.000000	0.005710
3083.000000	0.005732
3082.000000	0.005737
3081.000000	0.005729
3080.000000	0.005709
3079.000000	0.005685
3078.000000	0.005669
3077.000000	0.005668
3076.000000	0.005680
3075.000000	0.005697
3074.000000	0.005711
3073.000000	0.005716
3072.000000	0.005710
3071.000000	0.005699
3070.000000	0.005689
3069.000000	0.005682
3068.000000	0.005674
3067.000000	0.005662
3066.000000	0.005653
3065.000000	0.005654
3064.000000	0.005668
3063.000000	0.005686
3062.000000	0.005698
3061.000000	0.005697
3060.000000	0.005687
3059.000000	0.005673
3058.000000	0.005662
3057.000000	0.005649
3056.000000	0.005632
3055.000000	0.005609
3054.000000	0.005582
3053.000000	0.005555
3052.000000	0.005531
3051.000000	0.005514
3050.000000	0.005501
3049.000000	0.005488
3048.000000	0.005466
3047.000000	0.005434
3046.000000	0.005401
3045.000000	0.005374
3044.000000	0.005356
3043.000000	0.005344
3042.000000	0.005335
3041.000000	0.005325
3040.000000	0.005311
3039.000000	0.005291
3038.000000	0.005264
3037.000000	0.005239
3036.000000	0.005220
3035.000000	0.005207
3034.000000	0.005194
3033.000000	0.005174
3032.000000	0.005150
3031.000000	0.005129
3030.000000	0.005116
3029.000000	0.005110
3028.000000	0.005107
3027.000000	0.005102
3026.000000	0.005095
3025.000000	0.005090
3024.000000	0.005087
3023.000000	0.005078
3022.000000	0.005057
3021.000000	0.005023
3020.000000	0.004981
3019.000000	0.004935
3018.000000	0.004894
3017.000000	0.004864
3016.000000	0.004853
3015.000000	0.004865
3014.000000	0.004888
3013.000000	0.004905
3012.000000	0.004902
3011.000000	0.004879
3010.000000	0.004846
3009.000000	0.004817
3008.000000	0.004797
3007.000000	0.004786
3006.000000	0.004781
3005.000000	0.004780
3004.000000	0.004779
3003.000000	0.004772
3002.000000	0.004761
3001.000000	0.004749
3000.000000	0.004742
2999.000000	0.004740
2998.000000	0.004743
2997.000000	0.004754
2996.000000	0.004776
2995.000000	0.004811
2994.000000	0.004854
2993.000000	0.004896
2992.000000	0.004927
2991.000000	0.004946
2990.000000	0.004956
2989.000000	0.004965
2988.000000	0.004979
2987.000000	0.005002
2986.000000	0.005032
2985.000000	0.005064
2984.000000	0.005092
2983.000000	0.005107
2982.000000	0.005107
2981.000000	0.005099
2980.000000	0.005092
2979.000000	0.005093
2978.000000	0.005104
2977.000000	0.005115
2976.000000	0.005118
2975.000000	0.005108
2974.000000	0.005091
2973.000000	0.005073
2972.000000	0.005056
2971.000000	0.005043
2970.000000	0.005040
2969.000000	0.005056
2968.000000	0.005089
2967.000000	0.005124
2966.000000	0.005146
2965.000000	0.005150
2964.000000	0.005148
2963.000000	0.005147
2962.000000	0.005149
2961.000000	0.005149
2960.000000	0.005144
2959.000000	0.005135
2958.000000	0.005125
2957.000000	0.005121
2956.000000	0.005129
2955.000000	0.005150
2954.000000	0.005177
2953.000000	0.005198
2952.000000	0.005205
2951.000000	0.005201
2950.000000	0.005195
2949.000000	0.005196
2948.000000	0.005206
2947.000000	0.005226
2946.000000	0.005250
2945.000000	0.005268
2944.000000	0.005273
2943.000000	0.005263
2942.000000	0.005247
2941.000000	0.005232
2940.000000	0.005220
2939.000000	0.005208
2938.000000	0.005194
2937.000000	0.005182
2936.000000	0.005178
2935.000000	0.005187
2934.000000	0.005207
2933.000000	0.005227
2932.000000	0.005238
2931.000000	0.005239
2930.000000	0.005236
2929.000000	0.005229
2928.000000	0.005215
2927.000000	0.005190
2926.000000	0.005168
2925.000000	0.005161
2924.000000	0.005173
2923.000000	0.005196
2922.000000	0.005223
2921.000000	0.005255
2920.000000	0.005292
2919.000000	0.005327
2918.000000	0.005346
2917.000000	0.005342
2916.000000	0.005319
2915.000000	0.005283
2914.000000	0.005239
2913.000000	0.005189
2912.000000	0.005139
2911.000000	0.005093
2910.000000	0.005057
2909.000000	0.005032
2908.000000	0.005014
2907.000000	0.004999
2906.000000	0.004982
2905.000000	0.004962
2904.000000	0.004940
2903.000000	0.004920
2902.000000	0.004911
2901.000000	0.004916
2900.000000	0.004929
2899.000000	0.004930
2898.000000	0.004912
2897.000000	0.004880
2896.000000	0.004852
2895.000000	0.004843
2894.000000	0.004853
2893.000000	0.004874
2892.000000	0.004897
2891.000000	0.004914
2890.000000	0.004926
2889.000000	0.004936
2888.000000	0.004946
2887.000000	0.004955
2886.000000	0.004959
2885.000000	0.004958
2884.000000	0.004953
2883.000000	0.004942
2882.000000	0.004930
2881.000000	0.004921
2880.000000	0.004920
2879.000000	0.004925
2878.000000	0.004932
2877.000000	0.004934
2876.000000	0.004924
2875.000000	0.004898
2874.000000	0.004861
2873.000000	0.004826
2872.000000	0.004804
2871.000000	0.004796
2870.000000	0.004793
2869.000000	0.004790
2868.000000	0.004785
2867.000000	0.004782
2866.000000	0.004776
2865.000000	0.004762
2864.000000	0.004734
2863.000000	0.004694
2862.000000	0.004652
2861.000000	0.004618
2860.000000	0.004596
2859.000000	0.004583
2858.000000	0.004570
2857.000000	0.004555
2856.000000	0.004547
2855.000000	0.004552
2854.000000	0.004572
2853.000000	0.004598
2852.000000	0.004625
2851.000000	0.004648
2850.000000	0.004665
2849.000000	0.004676
2848.000000	0.004679
2847.000000	0.004676
2846.000000	0.004662
2845.000000	0.004633
2844.000000	0.004595
2843.000000	0.004563
2842.000000	0.004549
2841.000000	0.004550
2840.000000	0.004553
2839.000000	0.004542
2838.000000	0.004518
2837.000000	0.004489
2836.000000	0.004464
2835.000000	0.004447
2834.000000	0.004435
2833.000000	0.004428
2832.000000	0.004422
2831.000000	0.004415
2830.000000	0.004404
2829.000000	0.004391
2828.000000	0.004388
2827.000000	0.004401
2826.000000	0.004425
2825.000000	0.004446
2824.000000	0.004452
2823.000000	0.004447
2822.000000	0.004436
2821.000000	0.004424
2820.000000	0.004410
2819.000000	0.004394
2818.000000	0.004377
2817.000000	0.004360
2816.000000	0.004346
2815.000000	0.004341
2814.000000	0.004346
2813.000000	0.004360
2812.000000	0.004373
2811.000000	0.004380
2810.000000	0.004377
2809.000000	0.004365
2808.000000	0.004349
2807.000000	0.004335
2806.000000	0.004330
2805.000000	0.004335
2804.000000	0.004343
2803.000000	0.004347
2802.000000	0.004347
2801.000000	0.004349
2800.000000	0.004356
2799.000000	0.004362
2798.000000	0.004360
2797.000000	0.004348
2796.000000	0.004329
2795.000000	0.004308
2794.000000	0.004291
2793.000000	0.004278
2792.000000	0.004272
2791.000000	0.004274
2790.000000	0.004283
2789.000000	0.004290
2788.000000	0.004289
2787.000000	0.004279
2786.000000	0.004270
2785.000000	0.004266
2784.000000	0.004264
2783.000000	0.004254
2782.000000	0.004238
2781.000000	0.004223
2780.000000	0.004218
2779.000000	0.004221
2778.000000	0.004222
2777.000000	0.004214
2776.000000	0.004198
2775.000000	0.004182
2774.000000	0.004170
2773.000000	0.004164
2772.000000	0.004160
2771.000000	0.004155
2770.000000	0.004150
2769.000000	0.004147
2768.000000	0.004147
2767.000000	0.004151
2766.000000	0.004155
2765.000000	0.004153
2764.000000	0.004145
2763.000000	0.004138
2762.000000	0.004142
2761.000000	0.004155
2760.000000	0.004166
2759.000000	0.004164
2758.000000	0.004145
2757.000000	0.004119
2756.000000	0.004095
2755.000000	0.004081
2754.000000	0.004076
2753.000000	0.004073
2752.000000	0.004069
2751.000000	0.004066
2750.000000	0.004070
2749.000000	0.004080
2748.000000	0.004088
2747.000000	0.004084
2746.000000	0.004068
2745.000000	0.004048
2744.000000	0.004033
2743.000000	0.004025
2742.000000	0.004023
2741.000000	0.004023
2740.000000	0.004022
2739.000000	0.004017
2738.000000	0.004005
2737.000000	0.003987
2736.000000	0.003966
2735.000000	0.003952
2734.000000	0.003951
2733.000000	0.003961
2732.000000	0.003970
2731.000000	0.003967
2730.000000	0.003955
2729.000000	0.003942
2728.000000	0.003934
2727.000000	0.003929
2726.000000	0.003922
2725.000000	0.003907
2724.000000	0.003888
2723.000000	0.003877
2722.000000	0.003879
2721.000000	0.003895
2720.000000	0.003911
2719.000000	0.003917
2718.000000	0.003914
2717.000000	0.003909
2716.000000	0.003908
2715.000000	0.003905
2714.000000	0.003893
2713.000000	0.003874
2712.000000	0.003858
2711.000000	0.003856
2710.000000	0.003869
2709.000000	0.003883
2708.000000	0.003886
2707.000000	0.003873
2706.000000	0.003857
2705.000000	0.003852
2704.000000	0.003862
2703.000000	0.003880
2702.000000	0.003899
2701.000000	0.003912
2700.000000	0.003911
2699.000000	0.003890
2698.000000	0.003854
2697.000000	0.003820
2696.000000	0.003803
2695.000000	0.003808
2694.000000	0.003824
2693.000000	0.003839
2692.000000	0.003849
2691.000000	0.003853
2690.000000	0.003851
2689.000000	0.003840
2688.000000	0.003822
2687.000000	0.003803
2686.000000	0.003792
2685.000000	0.003792
2684.000000	0.003796
2683.000000	0.003794
2682.000000	0.003786
2681.000000	0.003780
2680.000000	0.003785
2679.000000	0.003800
2678.000000	0.003813
2677.000000	0.003815
2676.000000	0.003802
2675.000000	0.003780
2674.000000	0.003761
2673.000000	0.003750
2672.000000	0.003749
2671.000000	0.003755
2670.000000	0.003765
2669.000000	0.003778
2668.000000	0.003793
2667.000000	0.003805
2666.000000	0.003812
2665.000000	0.003812
2664.000000	0.003807
2663.000000	0.003799
2662.000000	0.003792
2661.000000	0.003787
2660.000000	0.003784
2659.000000	0.003777
2658.000000	0.003764
2657.000000	0.003750
2656.000000	0.003744
2655.000000	0.003752
2654.000000	0.003768
2653.000000	0.003778
2652.000000	0.003774
2651.000000	0.003755
2650.000000	0.003730
2649.000000	0.003708
2648.000000	0.003689
2647.000000	0.003667
2646.000000	0.003642
2645.000000	0.003621
2644.000000	0.003614
2643.000000	0.003623
2642.000000	0.003633
2641.000000	0.003629
2640.000000	0.003606
2639.000000	0.003574
2638.000000	0.003545
2637.000000	0.003523
2636.000000	0.003511
2635.000000	0.003510
2634.000000	0.003516
2633.000000	0.003517
2632.000000	0.003502
2631.000000	0.003474
2630.000000	0.003447
2629.000000	0.003430
2628.000000	0.003418
2627.000000	0.003403
2626.000000	0.003383
2625.000000	0.003363
2624.000000	0.003348
2623.000000	0.003336
2622.000000	0.003326
2621.000000	0.003322
2620.000000	0.003325
2619.000000	0.003332
2618.000000	0.003336
2617.000000	0.003331
2616.000000	0.003315
2615.000000	0.003296
2614.000000	0.003285
2613.000000	0.003284
2612.000000	0.003283
2611.000000	0.003269
2610.000000	0.003247
2609.000000	0.003234
2608.000000	0.003235
2607.000000	0.003236
2606.000000	0.003221
2605.000000	0.003192
2604.000000	0.003171
2603.000000	0.003175
2602.000000	0.003198
2601.000000	0.003221
2600.000000	0.003225
2599.000000	0.003212
2598.000000	0.003195
2597.000000	0.003187
2596.000000	0.003181
2595.000000	0.003166
2594.000000	0.003137
2593.000000	0.003110
2592.000000	0.003103
2591.000000	0.003115
2590.000000	0.003132
2589.000000	0.003138
2588.000000	0.003128
2587.000000	0.003107
2586.000000	0.003078
2585.000000	0.003047
2584.000000	0.003023
2583.000000	0.003013
2582.000000	0.003015
2581.000000	0.003020
2580.000000	0.003020
2579.000000	0.003015
2578.000000	0.003011
2577.000000	0.003017
2576.000000	0.003040
2575.000000	0.003071
2574.000000	0.003092
2573.000000	0.003091
2572.000000	0.003073
2571.000000	0.003058
2570.000000	0.003056
2569.000000	0.003057
2568.000000	0.003042
2567.000000	0.003009
2566.000000	0.002975
2565.000000	0.002955
2564.000000	0.002952
2563.000000	0.002957
2562.000000	0.002960
2561.000000	0.002963
2560.000000	0.002971
2559.000000	0.002984
2558.000000	0.002997
2557.000000	0.002998
2556.000000	0.002983
2555.000000	0.002954
2554.000000	0.002922
2553.000000	0.002901
2552.000000	0.002903
2551.000000	0.002929
2550.000000	0.002971
2549.000000	0.003008
2548.000000	0.003021
2547.000000	0.003008
2546.000000	0.002979
2545.000000	0.002948
2544.000000	0.002923
2543.000000	0.002907
2542.000000	0.002900
2541.000000	0.002909
2540.000000	0.002933
2539.000000	0.002962
2538.000000	0.002981
2537.000000	0.002984
2536.000000	0.002974
2535.000000	0.002958
2534.000000	0.002939
2533.000000	0.002917
2532.000000	0.002894
2531.000000	0.002876
2530.000000	0.002869
2529.000000	0.002877
2528.000000	0.002892
2527.000000	0.002905
2526.000000	0.002906
2525.000000	0.002899
2524.000000	0.002890
2523.000000	0.002883
2522.000000	0.002873
2521.000000	0.002860
2520.000000	0.002856
2519.000000	0.002873
2518.000000	0.002902
2517.000000	0.002920
2516.000000	0.002909
2515.000000	0.002883
2514.000000	0.002864
2513.000000	0.002862
2512.000000	0.002867
2511.000000	0.002871
2510.000000	0.002874
2509.000000	0.002875
2508.000000	0.002867
2507.000000	0.002849
2506.000000	0.002829
2505.000000	0.002818
2504.000000	0.002819
2503.000000	0.002826
2502.000000	0.002836
2501.000000	0.002845
2500.000000	0.002850
2499.000000	0.002855
2498.000000	0.002880
2497.000000	0.002936
2496.000000	0.003000
2495.000000	0.003031
2494.000000	0.003004
2493.000000	0.002945
2492.000000	0.002899
2491.000000	0.002892
2490.000000	0.002913
2489.000000	0.002925
2488.000000	0.002905
2487.000000	0.002857
2486.000000	0.002808
2485.000000	0.002787
2484.000000	0.002803
2483.000000	0.002840
2482.000000	0.002869
2481.000000	0.002872
2480.000000	0.002855
2479.000000	0.002840
2478.000000	0.002846
2477.000000	0.002880
2476.000000	0.002928
2475.000000	0.002961
2474.000000	0.002958
2473.000000	0.002921
2472.000000	0.002879
2471.000000	0.002864
2470.000000	0.002884
2469.000000	0.002923
2468.000000	0.002953
2467.000000	0.002956
2466.000000	0.002928
2465.000000	0.002887
2464.000000	0.002854
2463.000000	0.002842
2462.000000	0.002839
2461.000000	0.002822
2460.000000	0.002790
2459.000000	0.002759
2458.000000	0.002749
2457.000000	0.002759
2456.000000	0.002774
2455.000000	0.002787
2454.000000	0.002798
2453.000000	0.002809
2452.000000	0.002818
2451.000000	0.002829
2450.000000	0.002843
2449.000000	0.002860
2448.000000	0.002879
2447.000000	0.002900
2446.000000	0.002916
2445.000000	0.002914
2444.000000	0.002893
2443.000000	0.002870
2442.000000	0.002865
2441.000000	0.002871
2440.000000	0.002871
2439.000000	0.002857
2438.000000	0.002841
2437.000000	0.002832
2436.000000	0.002822
2435.000000	0.002803
2434.000000	0.002783
2433.000000	0.002776
2432.000000	0.002783
2431.000000	0.002799
2430.000000	0.002815
2429.000000	0.002820
2428.000000	0.002804
2427.000000	0.002773
2426.000000	0.002749
2425.000000	0.002746
2424.000000	0.002752
2423.000000	0.002743
2422.000000	0.002711
2421.000000	0.002671
2420.000000	0.002644
2419.000000	0.002643
2418.000000	0.002667
2417.000000	0.002707
2416.000000	0.002747
2415.000000	0.002774
2414.000000	0.002786
2413.000000	0.002786
2412.000000	0.002771
2411.000000	0.002740
2410.000000	0.002708
2409.000000	0.002692
2408.000000	0.002694
2407.000000	0.002698
2406.000000	0.002690
2405.000000	0.002679
2404.000000	0.002684
2403.000000	0.002711
2402.000000	0.002750
2401.000000	0.002779
2400.000000	0.002787
2399.000000	0.002778
2398.000000	0.002768
2397.000000	0.002768
2396.000000	0.002774
2395.000000	0.002777
2394.000000	0.002777
2393.000000	0.002783
2392.000000	0.002795
2391.000000	0.002801
2390.000000	0.002790
2389.000000	0.002760
2388.000000	0.002719
2387.000000	0.002676
2386.000000	0.002647
2385.000000	0.002644
2384.000000	0.002670
2383.000000	0.002705
2382.000000	0.002726
2381.000000	0.002727
2380.000000	0.002721
2379.000000	0.002719
2378.000000	0.002721
2377.000000	0.002725
2376.000000	0.002732
2375.000000	0.002740
2374.000000	0.002740
2373.000000	0.002719
2372.000000	0.002682
2371.000000	0.002654
2370.000000	0.002658
2369.000000	0.002692
2368.000000	0.002728
2367.000000	0.002737
2366.000000	0.002714
2365.000000	0.002683
2364.000000	0.002668
2363.000000	0.002681
2362.000000	0.002714
2361.000000	0.002746
2360.000000	0.002773
2359.000000	0.002799
2358.000000	0.002818
2357.000000	0.002814
2356.000000	0.002785
2355.000000	0.002755
2354.000000	0.002745
2353.000000	0.002749
2352.000000	0.002748
2351.000000	0.002742
2350.000000	0.002742
2349.000000	0.002751
2348.000000	0.002765
2347.000000	0.002773
2346.000000	0.002771
2345.000000	0.002767
2344.000000	0.002777
2343.000000	0.002808
2342.000000	0.002838
2341.000000	0.002845
2340.000000	0.002832
2339.000000	0.002815
2338.000000	0.002800
2337.000000	0.002784
2336.000000	0.002769
2335.000000	0.002761
2334.000000	0.002762
2333.000000	0.002762
2332.000000	0.002763
2331.000000	0.002770
2330.000000	0.002788
2329.000000	0.002799
2328.000000	0.002807
2327.000000	0.002829
2326.000000	0.002874
2325.000000	0.002914
2324.000000	0.002909
2323.000000	0.002864
2322.000000	0.002830
2321.000000	0.002843
2320.000000	0.002876
2319.000000	0.002865
2318.000000	0.002790
2317.000000	0.002693
2316.000000	0.002641
2315.000000	0.002663
2314.000000	0.002749
2313.000000	0.002850
2312.000000	0.002915
2311.000000	0.002914
2310.000000	0.002865
2309.000000	0.002812
2308.000000	0.002793
2307.000000	0.002808
2306.000000	0.002829
2305.000000	0.002832
2304.000000	0.002818
2303.000000	0.002805
2302.000000	0.002810
2301.000000	0.002835
2300.000000	0.002865
2299.000000	0.002879
2298.000000	0.002872
2297.000000	0.002854
2296.000000	0.002845
2295.000000	0.002851
2294.000000	0.002868
2293.000000	0.002888
2292.000000	0.002910
2291.000000	0.002932
2290.000000	0.002950
2289.000000	0.002955
2288.000000	0.002949
2287.000000	0.002945
2286.000000	0.002949
2285.000000	0.002945
2284.000000	0.002910
2283.000000	0.002840
2282.000000	0.002772
2281.000000	0.002747
2280.000000	0.002772
2279.000000	0.002816
2278.000000	0.002851
2277.000000	0.002869
2276.000000	0.002879
2275.000000	0.002880
2274.000000	0.002867
2273.000000	0.002836
2272.000000	0.002801
2271.000000	0.002780
2270.000000	0.002785
2269.000000	0.002810
2268.000000	0.002827
2267.000000	0.002803
2266.000000	0.002730
2265.000000	0.002633
2264.000000	0.002568
2263.000000	0.002582
2262.000000	0.002671
2261.000000	0.002770
2260.000000	0.002801
2259.000000	0.002747
2258.000000	0.002668
2257.000000	0.002645
2256.000000	0.002683
2255.000000	0.002717
2254.000000	0.002684
2253.000000	0.002603
2252.000000	0.002546
2251.000000	0.002560
2250.000000	0.002627
2249.000000	0.002695
2248.000000	0.002721
2247.000000	0.002703
2246.000000	0.002659
2245.000000	0.002613
2244.000000	0.002582
2243.000000	0.002576
2242.000000	0.002595
2241.000000	0.002635
2240.000000	0.002682
2239.000000	0.002721
2238.000000	0.002741
2237.000000	0.002749
2236.000000	0.002768
2235.000000	0.002806
2234.000000	0.002832
2233.000000	0.002803
2232.000000	0.002715
2231.000000	0.002621
2230.000000	0.002579
2229.000000	0.002603
2228.000000	0.002665
2227.000000	0.002738
2226.000000	0.002806
2225.000000	0.002846
2224.000000	0.002827
2223.000000	0.002739
2222.000000	0.002615
2221.000000	0.002506
2220.000000	0.002453
2219.000000	0.002468
2218.000000	0.002526
2217.000000	0.002573
2216.000000	0.002566
2215.000000	0.002502
2214.000000	0.002414
2213.000000	0.002330
2212.000000	0.002269
2211.000000	0.002271
2210.000000	0.002374
2209.000000	0.002557
2208.000000	0.002722
2207.000000	0.002774
2206.000000	0.002705
2205.000000	0.002589
2204.000000	0.002504
2203.000000	0.002479
2202.000000	0.002494
2201.000000	0.002509
2200.000000	0.002505
2199.000000	0.002505
2198.000000	0.002550
2197.000000	0.002631
2196.000000	0.002684
2195.000000	0.002648
2194.000000	0.002544
2193.000000	0.002461
2192.000000	0.002471
2191.000000	0.002564
2190.000000	0.002654
2189.000000	0.002646
2188.000000	0.002517
2187.000000	0.002335
2186.000000	0.002198
2185.000000	0.002138
2184.000000	0.002100
2183.000000	0.002040
2182.000000	0.001986
2181.000000	0.002009
2180.000000	0.002131
2179.000000	0.002318
2178.000000	0.002514
2177.000000	0.002671
2176.000000	0.002754
2175.000000	0.002752
2174.000000	0.002686
2173.000000	0.002584
2172.000000	0.002482
2171.000000	0.002437
2170.000000	0.002488
2169.000000	0.002586
2168.000000	0.002604
2167.000000	0.002475
2166.000000	0.002281
2165.000000	0.002168
2164.000000	0.002189
2163.000000	0.002283
2162.000000	0.002376
2161.000000	0.002427
2160.000000	0.002378
2159.000000	0.002181
2158.000000	0.001881
2157.000000	0.001599
2156.000000	0.001416
2155.000000	0.001340
2154.000000	0.001372
2153.000000	0.001515
2152.000000	0.001713
2151.000000	0.001873
2150.000000	0.001940
2149.000000	0.001931
2148.000000	0.001889
2147.000000	0.001845
2146.000000	0.001827
2145.000000	0.001865
2144.000000	0.001963
2143.000000	0.002089
2142.000000	0.002198
2141.000000	0.002259
2140.000000	0.002266
2139.000000	0.002233
2138.000000	0.002184
2137.000000	0.002141
2136.000000	0.002098
2135.000000	0.002039
2134.000000	0.001966
2133.000000	0.001915
2132.000000	0.001926
2131.000000	0.002010
2130.000000	0.002133
2129.000000	0.002240
2128.000000	0.002304
2127.000000	0.002347
2126.000000	0.002406
2125.000000	0.002485
2124.000000	0.002550
2123.000000	0.002577
2122.000000	0.002581
2121.000000	0.002586
2120.000000	0.002593
2119.000000	0.002579
2118.000000	0.002530
2117.000000	0.002461
2116.000000	0.002413
2115.000000	0.002421
2114.000000	0.002498
2113.000000	0.002610
2112.000000	0.002707
2111.000000	0.002769
2110.000000	0.002811
2109.000000	0.002833
2108.000000	0.002800
2107.000000	0.002699
2106.000000	0.002585
2105.000000	0.002531
2104.000000	0.002547
2103.000000	0.002584
2102.000000	0.002610
2101.000000	0.002632
2100.000000	0.002656
2099.000000	0.002657
2098.000000	0.002611
2097.000000	0.002538
2096.000000	0.002485
2095.000000	0.002490
2094.000000	0.002547
2093.000000	0.002607
2092.000000	0.002615
2091.000000	0.002563
2090.000000	0.002513
2089.000000	0.002526
2088.000000	0.002593
2087.000000	0.002643
2086.000000	0.002625
2085.000000	0.002554
2084.000000	0.002470
2083.000000	0.002394
2082.000000	0.002334
2081.000000	0.002309
2080.000000	0.002329
2079.000000	0.002374
2078.000000	0.002417
2077.000000	0.002442
2076.000000	0.002442
2075.000000	0.002414
2074.000000	0.002371
2073.000000	0.002356
2072.000000	0.002400
2071.000000	0.002493
2070.000000	0.002582
2069.000000	0.002622
2068.000000	0.002607
2067.000000	0.002566
2066.000000	0.002537
2065.000000	0.002536
2064.000000	0.002533
2063.000000	0.002490
2062.000000	0.002407
2061.000000	0.002323
2060.000000	0.002274
2059.000000	0.002260
2058.000000	0.002271
2057.000000	0.002318
2056.000000	0.002419
2055.000000	0.002565
2054.000000	0.002715
2053.000000	0.002819
2052.000000	0.002837
2051.000000	0.002743
2050.000000	0.002536
2049.000000	0.002263
2048.000000	0.002021
2047.000000	0.001905
2046.000000	0.001957
2045.000000	0.002133
2044.000000	0.002329
2043.000000	0.002446
2042.000000	0.002447
2041.000000	0.002356
2040.000000	0.002220
2039.000000	0.002072
2038.000000	0.001941
2037.000000	0.001850
2036.000000	0.001795
2035.000000	0.001767
2034.000000	0.001795
2033.000000	0.001941
2032.000000	0.002201
2031.000000	0.002472
2030.000000	0.002633
2029.000000	0.002646
2028.000000	0.002561
2027.000000	0.002440
2026.000000	0.002316
2025.000000	0.002209
2024.000000	0.002112
2023.000000	0.001984
2022.000000	0.001795
2021.000000	0.001601
2020.000000	0.001515
2019.000000	0.001566
2018.000000	0.001641
2017.000000	0.001613
2016.000000	0.001513
2015.000000	0.001513
2014.000000	0.001703
2013.000000	0.001977
2012.000000	0.002160
2011.000000	0.002212
2010.000000	0.002222
2009.000000	0.002259
2008.000000	0.002296
2007.000000	0.002300
2006.000000	0.002296
2005.000000	0.002312
2004.000000	0.002333
2003.000000	0.002334
2002.000000	0.002331
2001.000000	0.002335
2000.000000	0.002319
1999.000000	0.002254
1998.000000	0.002162
1997.000000	0.002096
1996.000000	0.002068
1995.000000	0.002042
1994.000000	0.001989
1993.000000	0.001916
1992.000000	0.001846
1991.000000	0.001793
1990.000000	0.001764
1989.000000	0.001764
1988.000000	0.001805
1987.000000	0.001901
1986.000000	0.002045
1985.000000	0.002194
1984.000000	0.002300
1983.000000	0.002371
1982.000000	0.002446
1981.000000	0.002520
1980.000000	0.002527
1979.000000	0.002437
1978.000000	0.002310
1977.000000	0.002206
1976.000000	0.002104
1975.000000	0.001969
1974.000000	0.001843
1973.000000	0.001785
1972.000000	0.001773
1971.000000	0.001740
1970.000000	0.001674
1969.000000	0.001616
1968.000000	0.001578
1967.000000	0.001534
1966.000000	0.001493
1965.000000	0.001498
1964.000000	0.001558
1963.000000	0.001641
1962.000000	0.001729
1961.000000	0.001833
1960.000000	0.001959
1959.000000	0.002072
1958.000000	0.002123
1957.000000	0.002083
1956.000000	0.001978
1955.000000	0.001895
1954.000000	0.001913
1953.000000	0.002014
1952.000000	0.002081
1951.000000	0.002019
1950.000000	0.001862
1949.000000	0.001733
1948.000000	0.001708
1947.000000	0.001775
1946.000000	0.001891
1945.000000	0.002025
1944.000000	0.002141
1943.000000	0.002196
1942.000000	0.002175
1941.000000	0.002107
1940.000000	0.002033
1939.000000	0.001979
1938.000000	0.001959
1937.000000	0.001977
1936.000000	0.002006
1935.000000	0.002011
1934.000000	0.001980
1933.000000	0.001933
1932.000000	0.001891
1931.000000	0.001868
1930.000000	0.001874
1929.000000	0.001914
1928.000000	0.001979
1927.000000	0.002050
1926.000000	0.002114
1925.000000	0.002166
1924.000000	0.002196
1923.000000	0.002195
1922.000000	0.002176
1921.000000	0.002161
1920.000000	0.002158
1919.000000	0.002156
1918.000000	0.002154
1917.000000	0.002158
1916.000000	0.002166
1915.000000	0.002168
1914.000000	0.002161
1913.000000	0.002148
1912.000000	0.002134
1911.000000	0.002123
1910.000000	0.002119
1909.000000	0.002118
1908.000000	0.002106
1907.000000	0.002088
1906.000000	0.002087
1905.000000	0.002113
1904.000000	0.002130
1903.000000	0.002104
1902.000000	0.002053
1901.000000	0.002024
1900.000000	0.002040
1899.000000	0.002080
1898.000000	0.002126
1897.000000	0.002172
1896.000000	0.002208
1895.000000	0.002220
1894.000000	0.002216
1893.000000	0.002220
1892.000000	0.002230
1891.000000	0.002214
1890.000000	0.002154
1889.000000	0.002081
1888.000000	0.002032
1887.000000	0.002018
1886.000000	0.002020
1885.000000	0.002015
1884.000000	0.001993
1883.000000	0.001963
1882.000000	0.001960
1881.000000	0.002008
1880.000000	0.002078
1879.000000	0.002122
1878.000000	0.002123
1877.000000	0.002118
1876.000000	0.002145
1875.000000	0.002200
1874.000000	0.002248
1873.000000	0.002269
1872.000000	0.002262
1871.000000	0.002237
1870.000000	0.002206
1869.000000	0.002178
1868.000000	0.002144
1867.000000	0.002094
1866.000000	0.002043
1865.000000	0.002010
1864.000000	0.001997
1863.000000	0.001982
1862.000000	0.001952
1861.000000	0.001917
1860.000000	0.001893
1859.000000	0.001884
1858.000000	0.001886
1857.000000	0.001893
1856.000000	0.001905
1855.000000	0.001921
1854.000000	0.001943
1853.000000	0.001970
1852.000000	0.001993
1851.000000	0.002011
1850.000000	0.002027
1849.000000	0.002043
1848.000000	0.002044
1847.000000	0.002027
1846.000000	0.002013
1845.000000	0.002033
1844.000000	0.002090
1843.000000	0.002145
1842.000000	0.002171
1841.000000	0.002174
1840.000000	0.002164
1839.000000	0.002137
1838.000000	0.002096
1837.000000	0.002056
1836.000000	0.002028
1835.000000	0.002013
1834.000000	0.002011
1833.000000	0.002020
1832.000000	0.002030
1831.000000	0.002029
1830.000000	0.002011
1829.000000	0.001995
1828.000000	0.002002
1827.000000	0.002039
1826.000000	0.002098
1825.000000	0.002155
1824.000000	0.002190
1823.000000	0.002197
1822.000000	0.002188
1821.000000	0.002174
1820.000000	0.002154
1819.000000	0.002122
1818.000000	0.002087
1817.000000	0.002075
1816.000000	0.002092
1815.000000	0.002125
1814.000000	0.002154
1813.000000	0.002166
1812.000000	0.002157
1811.000000	0.002131
1810.000000	0.002101
1809.000000	0.002085
1808.000000	0.002082
1807.000000	0.002076
1806.000000	0.002063
1805.000000	0.002056
1804.000000	0.002060
1803.000000	0.002067
1802.000000	0.002073
1801.000000	0.002083
1800.000000	0.002101
1799.000000	0.002125
1798.000000	0.002155
1797.000000	0.002188
1796.000000	0.002206
1795.000000	0.002185
1794.000000	0.002122
1793.000000	0.002052
1792.000000	0.002015
1791.000000	0.002011
1790.000000	0.002013
1789.000000	0.002013
1788.000000	0.002012
1787.000000	0.002010
1786.000000	0.002007
1785.000000	0.002007
1784.000000	0.002009
1783.000000	0.002006
1782.000000	0.001996
1781.000000	0.001987
1780.000000	0.001987
1779.000000	0.001998
1778.000000	0.002015
1777.000000	0.002028
1776.000000	0.002031
1775.000000	0.002028
1774.000000	0.002020
1773.000000	0.001994
1772.000000	0.001939
1771.000000	0.001864
1770.000000	0.001806
1769.000000	0.001796
1768.000000	0.001824
1767.000000	0.001851
1766.000000	0.001856
1765.000000	0.001851
1764.000000	0.001852
1763.000000	0.001854
1762.000000	0.001848
1761.000000	0.001829
1760.000000	0.001805
1759.000000	0.001782
1758.000000	0.001764
1757.000000	0.001750
1756.000000	0.001740
1755.000000	0.001737
1754.000000	0.001744
1753.000000	0.001754
1752.000000	0.001745
1751.000000	0.001701
1750.000000	0.001638
1749.000000	0.001591
1748.000000	0.001576
1747.000000	0.001580
1746.000000	0.001581
1745.000000	0.001572
1744.000000	0.001561
1743.000000	0.001557
1742.000000	0.001564
1741.000000	0.001573
1740.000000	0.001564
1739.000000	0.001524
1738.000000	0.001483
1737.000000	0.001488
1736.000000	0.001548
1735.000000	0.001613
1734.000000	0.001643
1733.000000	0.001631
1732.000000	0.001601
1731.000000	0.001582
1730.000000	0.001588
1729.000000	0.001610
1728.000000	0.001627
1727.000000	0.001627
1726.000000	0.001613
1725.000000	0.001595
1724.000000	0.001578
1723.000000	0.001551
1722.000000	0.001510
1721.000000	0.001473
1720.000000	0.001455
1719.000000	0.001453
1718.000000	0.001462
1717.000000	0.001487
1716.000000	0.001516
1715.000000	0.001539
1714.000000	0.001587
1713.000000	0.001688
1712.000000	0.001824
1711.000000	0.001959
1710.000000	0.002079
1709.000000	0.002199
1708.000000	0.002326
1707.000000	0.002461
1706.000000	0.002613
1705.000000	0.002795
1704.000000	0.003000
1703.000000	0.003214
1702.000000	0.003428
1701.000000	0.003648
1700.000000	0.003893
1699.000000	0.004128
1698.000000	0.004353
1697.000000	0.004613
1696.000000	0.004892
1695.000000	0.005118
1694.000000	0.005281
1693.000000	0.005442
1692.000000	0.005649
1691.000000	0.005889
1690.000000	0.006130
1689.000000	0.006368
1688.000000	0.006615
1687.000000	0.006875
1686.000000	0.007129
1685.000000	0.007386
1684.000000	0.007663
1683.000000	0.007918
1682.000000	0.008158
1681.000000	0.008423
1680.000000	0.008718
1679.000000	0.009014
1678.000000	0.009317
1677.000000	0.009659
1676.000000	0.010053
1675.000000	0.010454
1674.000000	0.010806
1673.000000	0.011115
1672.000000	0.011429
1671.000000	0.011776
1670.000000	0.012171
1669.000000	0.012605
1668.000000	0.013025
1667.000000	0.013383
1666.000000	0.013687
1665.000000	0.013989
1664.000000	0.014334
1663.000000	0.014717
1662.000000	0.015086
1661.000000	0.015407
1660.000000	0.015690
1659.000000	0.015954
1658.000000	0.016201
1657.000000	0.016433
1656.000000	0.016662
1655.000000	0.016878
1654.000000	0.017090
1653.000000	0.017353
1652.000000	0.017582
1651.000000	0.017662
1650.000000	0.017657
1649.000000	0.017688
1648.000000	0.017788
1647.000000	0.017925
1646.000000	0.018064
1645.000000	0.018197
1644.000000	0.018313
1643.000000	0.018411
1642.000000	0.018504
1641.000000	0.018597
1640.000000	0.018685
1639.000000	0.018766
1638.000000	0.018845
1637.000000	0.018927
1636.000000	0.019009
1635.000000	0.019072
1634.000000	0.019107
1633.000000	0.019133
1632.000000	0.019165
1631.000000	0.019190
1630.000000	0.019177
1629.000000	0.019111
1628.000000	0.018995
1627.000000	0.018837
1626.000000	0.018638
1625.000000	0.018393
1624.000000	0.018105
1623.000000	0.017803
1622.000000	0.017526
1621.000000	0.017285
1620.000000	0.017062
1619.000000	0.016823
1618.000000	0.016511
1617.000000	0.016090
1616.000000	0.015615
1615.000000	0.015175
1614.000000	0.014807
1613.000000	0.014485
1612.000000	0.014170
1611.000000	0.013843
1610.000000	0.013518
1609.000000	0.013209
1608.000000	0.012915
1607.000000	0.012640
1606.000000	0.012387
1605.000000	0.012140
1604.000000	0.011890
1603.000000	0.011652
1602.000000	0.011442
1601.000000	0.011261
1600.000000	0.011095
1599.000000	0.010947
1598.000000	0.010818
1597.000000	0.010696
1596.000000	0.010571
1595.000000	0.010452
1594.000000	0.010357
1593.000000	0.010282
1592.000000	0.010222
1591.000000	0.010182
1590.000000	0.010173
1589.000000	0.010184
1588.000000	0.010198
1587.000000	0.010214
1586.000000	0.010244
1585.000000	0.010289
1584.000000	0.010347
1583.000000	0.010434
1582.000000	0.010554
1581.000000	0.010685
1580.000000	0.010807
1579.000000	0.010940
1578.000000	0.011105
1577.000000	0.011286
1576.000000	0.011450
1575.000000	0.011576
1574.000000	0.011680
1573.000000	0.011796
1572.000000	0.011948
1571.000000	0.012142
1570.000000	0.012371
1569.000000	0.012597
1568.000000	0.012793
1567.000000	0.012985
1566.000000	0.013214
1565.000000	0.013476
1564.000000	0.013729
1563.000000	0.013963
1562.000000	0.014189
1561.000000	0.014401
1560.000000	0.014613
1559.000000	0.014922
1558.000000	0.015257
1557.000000	0.015522
1556.000000	0.015737
1555.000000	0.015938
1554.000000	0.016119
1553.000000	0.016267
1552.000000	0.016396
1551.000000	0.016529
1550.000000	0.016656
1549.000000	0.016749
1548.000000	0.016802
1547.000000	0.016838
1546.000000	0.016883
1545.000000	0.016939
1544.000000	0.016987
1543.000000	0.017002
1542.000000	0.016984
1541.000000	0.016964
1540.000000	0.016968
1539.000000	0.016983
1538.000000	0.016967
1537.000000	0.016910
1536.000000	0.016832
1535.000000	0.016738
1534.000000	0.016627
1533.000000	0.016523
1532.000000	0.016440
1531.000000	0.016356
1530.000000	0.016248
1529.000000	0.016121
1528.000000	0.015992
1527.000000	0.015859
1526.000000	0.015718
1525.000000	0.015584
1524.000000	0.015477
1523.000000	0.015384
1522.000000	0.015268
1521.000000	0.015115
1520.000000	0.014942
1519.000000	0.014764
1518.000000	0.014588
1517.000000	0.014423
1516.000000	0.014275
1515.000000	0.014139
1514.000000	0.014000
1513.000000	0.013839
1512.000000	0.013658
1511.000000	0.013473
1510.000000	0.013313
1509.000000	0.013179
1508.000000	0.013025
1507.000000	0.012786
1506.000000	0.012491
1505.000000	0.012245
1504.000000	0.012046
1503.000000	0.011860
1502.000000	0.011672
1501.000000	0.011474
1500.000000	0.011275
1499.000000	0.011087
1498.000000	0.010899
1497.000000	0.010694
1496.000000	0.010482
1495.000000	0.010278
1494.000000	0.010097
1493.000000	0.009943
1492.000000	0.009798
1491.000000	0.009624
1490.000000	0.009419
1489.000000	0.009229
1488.000000	0.009095
1487.000000	0.009002
1486.000000	0.008927
1485.000000	0.008868
1484.000000	0.008824
1483.000000	0.008792
1482.000000	0.008767
1481.000000	0.008760
1480.000000	0.008777
1479.000000	0.008806
1478.000000	0.008831
1477.000000	0.008859
1476.000000	0.008912
1475.000000	0.008996
1474.000000	0.009106
1473.000000	0.009228
1472.000000	0.009354
1471.000000	0.009472
1470.000000	0.009583
1469.000000	0.009694
1468.000000	0.009805
1467.000000	0.009908
1466.000000	0.010014
1465.000000	0.010139
1464.000000	0.010282
1463.000000	0.010422
1462.000000	0.010548
1461.000000	0.010672
1460.000000	0.010815
1459.000000	0.010996
1458.000000	0.011224
1457.000000	0.011483
1456.000000	0.011696
1455.000000	0.011818
1454.000000	0.011889
1453.000000	0.011963
1452.000000	0.012041
1451.000000	0.012094
1450.000000	0.012119
1449.000000	0.012126
1448.000000	0.012118
1447.000000	0.012093
1446.000000	0.012056
1445.000000	0.012008
1444.000000	0.011946
1443.000000	0.011873
1442.000000	0.011799
1441.000000	0.011732
1440.000000	0.011671
1439.000000	0.011599
1438.000000	0.011483
1437.000000	0.011309
1436.000000	0.011120
1435.000000	0.010968
1434.000000	0.010858
1433.000000	0.010768
1432.000000	0.010669
1431.000000	0.010548
1430.000000	0.010427
1429.000000	0.010342
1428.000000	0.010305
1427.000000	0.010295
1426.000000	0.010283
1425.000000	0.010252
1424.000000	0.010207
1423.000000	0.010171
1422.000000	0.010151
1421.000000	0.010132
1420.000000	0.010096
1419.000000	0.010060
1418.000000	0.010044
1417.000000	0.010050
1416.000000	0.010069
1415.000000	0.010092
1414.000000	0.010107
1413.000000	0.010121
1412.000000	0.010146
1411.000000	0.010186
1410.000000	0.010233
1409.000000	0.010283
1408.000000	0.010339
1407.000000	0.010403
1406.000000	0.010470
1405.000000	0.010536
1404.000000	0.010599
1403.000000	0.010653
1402.000000	0.010694
1401.000000	0.010720
1400.000000	0.010731
1399.000000	0.010731
1398.000000	0.010731
1397.000000	0.010735
1396.000000	0.010732
1395.000000	0.010702
1394.000000	0.010645
1393.000000	0.010575
1392.000000	0.010509
1391.000000	0.010449
1390.000000	0.010392
1389.000000	0.010335
1388.000000	0.010272
1387.000000	0.010194
1386.000000	0.010100
1385.000000	0.009999
1384.000000	0.009907
1383.000000	0.009828
1382.000000	0.009755
1381.000000	0.009677
1380.000000	0.009585
1379.000000	0.009478
1378.000000	0.009364
1377.000000	0.009249
1376.000000	0.009136
1375.000000	0.009029
1374.000000	0.008935
1373.000000	0.008852
1372.000000	0.008767
1371.000000	0.008666
1370.000000	0.008539
1369.000000	0.008385
1368.000000	0.008211
1367.000000	0.008037
1366.000000	0.007878
1365.000000	0.007739
1364.000000	0.007619
1363.000000	0.007515
1362.000000	0.007425
1361.000000	0.007348
1360.000000	0.007281
1359.000000	0.007228
1358.000000	0.007195
1357.000000	0.007182
1356.000000	0.007183
1355.000000	0.007198
1354.000000	0.007232
1353.000000	0.007292
1352.000000	0.007376
1351.000000	0.007479
1350.000000	0.007596
1349.000000	0.007716
1348.000000	0.007834
1347.000000	0.007949
1346.000000	0.008064
1345.000000	0.008179
1344.000000	0.008291
1343.000000	0.008405
1342.000000	0.008532
1341.000000	0.008674
1340.000000	0.008813
1339.000000	0.008923
1338.000000	0.008990
1337.000000	0.009020
1336.000000	0.009027
1335.000000	0.009017
1334.000000	0.008992
1333.000000	0.008944
1332.000000	0.008873
1331.000000	0.008786
1330.000000	0.008697
1329.000000	0.008616
1328.000000	0.008543
1327.000000	0.008473
1326.000000	0.008407
1325.000000	0.008348
1324.000000	0.008295
1323.000000	0.008254
1322.000000	0.008231
1321.000000	0.008225
1320.000000	0.008226
1319.000000	0.008222
1318.000000	0.008209
1317.000000	0.008188
1316.000000	0.008158
1315.000000	0.008124
1314.000000	0.008088
1313.000000	0.008052
1312.000000	0.008015
1311.000000	0.007971
1310.000000	0.007917
1309.000000	0.007849
1308.000000	0.007771
1307.000000	0.007692
1306.000000	0.007622
1305.000000	0.007561
1304.000000	0.007503
1303.000000	0.007453
1302.000000	0.007419
1301.000000	0.007394
1300.000000	0.007359
1299.000000	0.007308
1298.000000	0.007257
1297.000000	0.007231
1296.000000	0.007234
1295.000000	0.007255
1294.000000	0.007282
1293.000000	0.007312
1292.000000	0.007343
1291.000000	0.007371
1290.000000	0.007403
1289.000000	0.007448
1288.000000	0.007511
1287.000000	0.007589
1286.000000	0.007672
1285.000000	0.007752
1284.000000	0.007822
1283.000000	0.007877
1282.000000	0.007919
1281.000000	0.007951
1280.000000	0.007974
1279.000000	0.007986
1278.000000	0.007985
1277.000000	0.007971
1276.000000	0.007945
1275.000000	0.007913
1274.000000	0.007883
1273.000000	0.007861
1272.000000	0.007850
1271.000000	0.007849
1270.000000	0.007860
1269.000000	0.007879
1268.000000	0.007893
1267.000000	0.007895
1266.000000	0.007894
1265.000000	0.007908
1264.000000	0.007947
1263.000000	0.008007
1262.000000	0.008079
1261.000000	0.008158
1260.000000	0.008239
1259.000000	0.008317
1258.000000	0.008391
1257.000000	0.008467
1256.000000	0.008551
1255.000000	0.008640
1254.000000	0.008731
1253.000000	0.008818
1252.000000	0.008899
1251.000000	0.008981
1250.000000	0.009078
1249.000000	0.009195
1248.000000	0.009323
1247.000000	0.009452
1246.000000	0.009583
1245.000000	0.009717
1244.000000	0.009851
1243.000000	0.009976
1242.000000	0.010093
1241.000000	0.010202
1240.000000	0.010294
1239.000000	0.010352
1238.000000	0.010378
1237.000000	0.010386
1236.000000	0.010384
1235.000000	0.010369
1234.000000	0.010336
1233.000000	0.010290
1232.000000	0.010231
1231.000000	0.010149
1230.000000	0.010035
1229.000000	0.009890
1228.000000	0.009720
1227.000000	0.009527
1226.000000	0.009312
1225.000000	0.009088
1224.000000	0.008863
1223.000000	0.008635
1222.000000	0.008394
1221.000000	0.008140
1220.000000	0.007890
1219.000000	0.007673
1218.000000	0.007512
1217.000000	0.007417
1216.000000	0.007379
1215.000000	0.007380
1214.000000	0.007404
1213.000000	0.007438
1212.000000	0.007475
1211.000000	0.007515
1210.000000	0.007562
1209.000000	0.007619
1208.000000	0.007685
1207.000000	0.007748
1206.000000	0.007804
1205.000000	0.007850
1204.000000	0.007883
1203.000000	0.007902
1202.000000	0.007905
1201.000000	0.007895
1200.000000	0.007863
1199.000000	0.007800
1198.000000	0.007704
1197.000000	0.007589
1196.000000	0.007472
1195.000000	0.007355
1194.000000	0.007231
1193.000000	0.007096
1192.000000	0.006957
1191.000000	0.006827
1190.000000	0.006708
1189.000000	0.006598
1188.000000	0.006491
1187.000000	0.006387
1186.000000	0.006287
1185.000000	0.006191
1184.000000	0.006094
1183.000000	0.005997
1182.000000	0.005910
1181.000000	0.005842
1180.000000	0.005800
1179.000000	0.005778
1178.000000	0.005771
1177.000000	0.005770
1176.000000	0.005769
1175.000000	0.005762
1174.000000	0.005747
1173.000000	0.005732
1172.000000	0.005719
1171.000000	0.005707
1170.000000	0.005694
1169.000000	0.005685
1168.000000	0.005687
1167.000000	0.005701
1166.000000	0.005721
1165.000000	0.005738
1164.000000	0.005745
1163.000000	0.005745
1162.000000	0.005745
1161.000000	0.005748
1160.000000	0.005750
1159.000000	0.005738
1158.000000	0.005707
1157.000000	0.005657
1156.000000	0.005587
1155.000000	0.005502
1154.000000	0.005414
1153.000000	0.005335
1152.000000	0.005268
1151.000000	0.005199
1150.000000	0.005115
1149.000000	0.005020
1148.000000	0.004932
1147.000000	0.004867
1146.000000	0.004824
1145.000000	0.004790
1144.000000	0.004747
1143.000000	0.004688
1142.000000	0.004618
1141.000000	0.004549
1140.000000	0.004489
1139.000000	0.004444
1138.000000	0.004408
1137.000000	0.004379
1136.000000	0.004355
1135.000000	0.004337
1134.000000	0.004330
1133.000000	0.004332
1132.000000	0.004332
1131.000000	0.004317
1130.000000	0.004288
1129.000000	0.004254
1128.000000	0.004225
1127.000000	0.004202
1126.000000	0.004185
1125.000000	0.004178
1124.000000	0.004187
1123.000000	0.004211
1122.000000	0.004246
1121.000000	0.004282
1120.000000	0.004304
1119.000000	0.004303
1118.000000	0.004283
1117.000000	0.004262
1116.000000	0.004257
1115.000000	0.004266
1114.000000	0.004281
1113.000000	0.004293
1112.000000	0.004302
1111.000000	0.004311
1110.000000	0.004330
1109.000000	0.004364
1108.000000	0.004404
1107.000000	0.004431
1106.000000	0.004429
1105.000000	0.004409
1104.000000	0.004399
1103.000000	0.004422
1102.000000	0.004472
1101.000000	0.004526
1100.000000	0.004555
1099.000000	0.004554
1098.000000	0.004549
1097.000000	0.004571
1096.000000	0.004625
1095.000000	0.004682
1094.000000	0.004716
1093.000000	0.004736
1092.000000	0.004780
1091.000000	0.004872
1090.000000	0.005002
1089.000000	0.005142
1088.000000	0.005277
1087.000000	0.005411
1086.000000	0.005557
1085.000000	0.005705
1084.000000	0.005830
1083.000000	0.005906
1082.000000	0.005937
1081.000000	0.005947
1080.000000	0.005953
1079.000000	0.005943
1078.000000	0.005906
1077.000000	0.005848
1076.000000	0.005785
1075.000000	0.005722
1074.000000	0.005652
1073.000000	0.005571
1072.000000	0.005492
1071.000000	0.005424
1070.000000	0.005367
1069.000000	0.005312
1068.000000	0.005259
1067.000000	0.005206
1066.000000	0.005157
1065.000000	0.005122
1064.000000	0.005120
1063.000000	0.005158
1062.000000	0.005214
1061.000000	0.005253
1060.000000	0.005259
1059.000000	0.005248
1058.000000	0.005238
1057.000000	0.005228
1056.000000	0.005199
1055.000000	0.005148
1054.000000	0.005099
1053.000000	0.005070
1052.000000	0.005057
1051.000000	0.005038
1050.000000	0.005007
1049.000000	0.004973
1048.000000	0.004947
1047.000000	0.004927
1046.000000	0.004907
1045.000000	0.004889
1044.000000	0.004873
1043.000000	0.004857
1042.000000	0.004839
1041.000000	0.004831
1040.000000	0.004851
1039.000000	0.004909
1038.000000	0.005001
1037.000000	0.005111
1036.000000	0.005220
1035.000000	0.005309
1034.000000	0.005372
1033.000000	0.005413
1032.000000	0.005439
1031.000000	0.005453
1030.000000	0.005458
1029.000000	0.005450
1028.000000	0.005417
1027.000000	0.005350
1026.000000	0.005252
1025.000000	0.005144
1024.000000	0.005047
1023.000000	0.004965
1022.000000	0.004895
1021.000000	0.004837
1020.000000	0.004792
1019.000000	0.004753
1018.000000	0.004706
1017.000000	0.004648
1016.000000	0.004587
1015.000000	0.004531
1014.000000	0.004482
1013.000000	0.004442
1012.000000	0.004414
1011.000000	0.004388
1010.000000	0.004340
1009.000000	0.004256
1008.000000	0.004152
1007.000000	0.004056
1006.000000	0.003985
1005.000000	0.003928
1004.000000	0.003866
1003.000000	0.003793
1002.000000	0.003719
1001.000000	0.003657
1000.000000	0.003611
999.000000	0.003576
998.000000	0.003540
997.000000	0.003485
996.000000	0.003396
995.000000	0.003280
994.000000	0.003175
993.000000	0.003123
992.000000	0.003126
991.000000	0.003140
990.000000	0.003119
989.000000	0.003058
988.000000	0.002991
987.000000	0.002946
986.000000	0.002919
985.000000	0.002893
984.000000	0.002864
983.000000	0.002850
982.000000	0.002870
981.000000	0.002922
980.000000	0.002982
979.000000	0.003017
978.000000	0.003012
977.000000	0.002976
976.000000	0.002938
975.000000	0.002919
974.000000	0.002926
973.000000	0.002943
972.000000	0.002950
971.000000	0.002933
970.000000	0.002896
969.000000	0.002852
968.000000	0.002813
967.000000	0.002781
966.000000	0.002749
965.000000	0.002717
964.000000	0.002687
963.000000	0.002668
962.000000	0.002663
961.000000	0.002665
960.000000	0.002651
959.000000	0.002604
958.000000	0.002530
957.000000	0.002456
956.000000	0.002405
955.000000	0.002376
954.000000	0.002355
953.000000	0.002340
952.000000	0.002337
951.000000	0.002346
950.000000	0.002353
949.000000	0.002346
948.000000	0.002328
947.000000	0.002310
946.000000	0.002303
945.000000	0.002309
944.000000	0.002317
943.000000	0.002319
942.000000	0.002314
941.000000	0.002317
940.000000	0.002332
939.000000	0.002349
938.000000	0.002351
937.000000	0.002334
936.000000	0.002305
935.000000	0.002271
934.000000	0.002241
933.000000	0.002227
932.000000	0.002228
931.000000	0.002230
930.000000	0.002211
929.000000	0.002171
928.000000	0.002130
927.000000	0.002103
926.000000	0.002092
925.000000	0.002093
924.000000	0.002103
923.000000	0.002118
922.000000	0.002125
921.000000	0.002112
920.000000	0.002079
919.000000	0.002041
918.000000	0.002009
917.000000	0.001984
916.000000	0.001961
915.000000	0.001930
914.000000	0.001882
913.000000	0.001818
912.000000	0.001742
911.000000	0.001661
910.000000	0.001589
909.000000	0.001550
908.000000	0.001562
907.000000	0.001619
906.000000	0.001689
905.000000	0.001740
904.000000	0.001761
903.000000	0.001753
902.000000	0.001722
901.000000	0.001682
900.000000	0.001649
899.000000	0.001631
898.000000	0.001622
897.000000	0.001606
896.000000	0.001587
895.000000	0.001574
894.000000	0.001567
893.000000	0.001552
892.000000	0.001519
891.000000	0.001473
890.000000	0.001434
889.000000	0.001421
888.000000	0.001445
887.000000	0.001504
886.000000	0.001581
885.000000	0.001649
884.000000	0.001683
883.000000	0.001690
882.000000	0.001707
881.000000	0.001775
880.000000	0.001909
879.000000	0.002086
878.000000	0.002262
877.000000	0.002394
876.000000	0.002456
875.000000	0.002447
874.000000	0.002393
873.000000	0.002325
872.000000	0.002265
871.000000	0.002206
870.000000	0.002136
869.000000	0.002056
868.000000	0.001978
867.000000	0.001915
866.000000	0.001872
865.000000	0.001848
864.000000	0.001832
863.000000	0.001804
862.000000	0.001746
861.000000	0.001667
860.000000	0.001605
859.000000	0.001600
858.000000	0.001662
857.000000	0.001754
856.000000	0.001822
855.000000	0.001838
854.000000	0.001823
853.000000	0.001820
852.000000	0.001851
851.000000	0.001899
850.000000	0.001939
849.000000	0.001963
848.000000	0.001976
847.000000	0.001961
846.000000	0.001897
845.000000	0.001797
844.000000	0.001709
843.000000	0.001666
842.000000	0.001652
841.000000	0.001635
840.000000	0.001616
839.000000	0.001619
838.000000	0.001649
837.000000	0.001673
836.000000	0.001663
835.000000	0.001621
834.000000	0.001571
833.000000	0.001528
832.000000	0.001493
831.000000	0.001466
830.000000	0.001453
829.000000	0.001449
828.000000	0.001447
827.000000	0.001452
826.000000	0.001478
825.000000	0.001527
824.000000	0.001580
823.000000	0.001620
822.000000	0.001648
821.000000	0.001670
820.000000	0.001679
819.000000	0.001664
818.000000	0.001636
817.000000	0.001620
816.000000	0.001623
815.000000	0.001631
814.000000	0.001629
813.000000	0.001616
812.000000	0.001592
811.000000	0.001551
810.000000	0.001496
809.000000	0.001451
808.000000	0.001434
807.000000	0.001444
806.000000	0.001474
805.000000	0.001525
804.000000	0.001591
803.000000	0.001640
802.000000	0.001636
801.000000	0.001590
800.000000	0.001545
799.000000	0.001536
798.000000	0.001557
797.000000	0.001591
796.000000	0.001628
795.000000	0.001660
794.000000	0.001677
793.000000	0.001679
792.000000	0.001672
791.000000	0.001661
790.000000	0.001647
789.000000	0.001643
788.000000	0.001670
787.000000	0.001735
786.000000	0.001811
785.000000	0.001864
784.000000	0.001877
783.000000	0.001854
782.000000	0.001813
781.000000	0.001783
780.000000	0.001789
779.000000	0.001832
778.000000	0.001877
777.000000	0.001895
776.000000	0.001889
775.000000	0.001886
774.000000	0.001905
773.000000	0.001940
772.000000	0.001981
771.000000	0.002022
770.000000	0.002056
769.000000	0.002068
768.000000	0.002050
767.000000	0.002010
766.000000	0.001970
765.000000	0.001960
764.000000	0.001996
763.000000	0.002058
762.000000	0.002096
761.000000	0.002078
760.000000	0.002024
759.000000	0.001990
758.000000	0.002004
757.000000	0.002051
756.000000	0.002097
755.000000	0.002130
754.000000	0.002155
753.000000	0.002170
752.000000	0.002168
751.000000	0.002150
750.000000	0.002135
749.000000	0.002143
748.000000	0.002180
747.000000	0.002235
746.000000	0.002285
745.000000	0.002321
744.000000	0.002356
743.000000	0.002413
742.000000	0.002493
741.000000	0.002557
740.000000	0.002568
739.000000	0.002532
738.000000	0.002500
737.000000	0.002517
736.000000	0.002591
735.000000	0.002695
734.000000	0.002793
733.000000	0.002863
732.000000	0.002895
731.000000	0.002894
730.000000	0.002875
729.000000	0.002852
728.000000	0.002837
727.000000	0.002841
726.000000	0.002871
725.000000	0.002918
724.000000	0.002972
723.000000	0.003032
722.000000	0.003110
721.000000	0.003203
720.000000	0.003294
719.000000	0.003378
718.000000	0.003464
717.000000	0.003551
716.000000	0.003612
715.000000	0.003629
714.000000	0.003636
713.000000	0.003684
712.000000	0.003774
711.000000	0.003850
710.000000	0.003883
709.000000	0.003906
708.000000	0.003972
707.000000	0.004070
706.000000	0.004133
705.000000	0.004112
704.000000	0.004016
703.000000	0.003907
702.000000	0.003851
701.000000	0.003874
700.000000	0.003950
699.000000	0.004025
698.000000	0.004063
697.000000	0.004070
696.000000	0.004070
695.000000	0.004091
694.000000	0.004147
693.000000	0.004237
692.000000	0.004335
691.000000	0.004400
690.000000	0.004424
689.000000	0.004437
688.000000	0.004472
687.000000	0.004517
686.000000	0.004536
685.000000	0.004516
684.000000	0.004483
683.000000	0.004467
682.000000	0.004483
681.000000	0.004532
680.000000	0.004604
679.000000	0.004669
678.000000	0.004701
677.000000	0.004718
676.000000	0.004756
675.000000	0.004819
674.000000	0.004877
673.000000	0.004912
672.000000	0.004925
671.000000	0.004896
670.000000	0.004801
669.000000	0.004657
668.000000	0.004574
667.000000	0.004658
666.000000	0.004812
665.000000	0.004953
664.000000	0.005080
663.000000	0.005208
662.000000	0.005318
661.000000	0.005381
660.000000	0.005387
659.000000	0.005351
658.000000	0.005297
657.000000	0.005256
656.000000	0.005252
655.000000	0.005284
654.000000	0.005337
653.000000	0.005402
652.000000	0.005471
651.000000	0.005527
650.000000	0.005554
649.000000	0.005555
648.000000	0.005542
647.000000	0.005522
646.000000	0.005509
645.000000	0.005518
644.000000	0.005554
643.000000	0.005600
642.000000	0.005629
641.000000	0.005628
640.000000	0.005603
639.000000	0.005556
638.000000	0.005487
637.000000	0.005405
636.000000	0.005335
635.000000	0.005310
634.000000	0.005349
633.000000	0.005428
632.000000	0.005504
631.000000	0.005553
630.000000	0.005594
629.000000	0.005657
628.000000	0.005740
627.000000	0.005809
626.000000	0.005834
625.000000	0.005802
624.000000	0.005713
623.000000	0.005603
622.000000	0.005545
621.000000	0.005599
620.000000	0.005738
619.000000	0.005864
618.000000	0.005899
617.000000	0.005841
616.000000	0.005736
615.000000	0.005636
614.000000	0.005593
613.000000	0.005648
612.000000	0.005773
611.000000	0.005872
610.000000	0.005878
609.000000	0.005831
608.000000	0.005821
607.000000	0.005874
606.000000	0.005928
605.000000	0.005915
604.000000	0.005823
603.000000	0.005690
602.000000	0.005560
601.000000	0.005457
600.000000	0.005390
599.000000	0.005369
598.000000	0.005412
597.000000	0.005506
596.000000	0.005596
595.000000	0.005627
594.000000	0.005612
593.000000	0.005629
592.000000	0.005732
591.000000	0.005884
590.000000	0.006014
589.000000	0.006078
588.000000	0.006057
587.000000	0.005932
586.000000	0.005725
585.000000	0.005532
584.000000	0.005457
583.000000	0.005502
582.000000	0.005570
581.000000	0.005577
580.000000	0.005530
579.000000	0.005488
578.000000	0.005498
577.000000	0.005565
576.000000	0.005662
575.000000	0.005739
574.000000	0.005753
573.000000	0.005712
572.000000	0.005667
571.000000	0.005665
570.000000	0.005715
569.000000	0.005794
568.000000	0.005873
567.000000	0.005935
566.000000	0.005971
565.000000	0.005986
564.000000	0.005993
563.000000	0.006012
562.000000	0.006052
561.000000	0.006108
560.000000	0.006175
559.000000	0.006267
558.000000	0.006405
557.000000	0.006561
556.000000	0.006641
555.000000	0.006565
554.000000	0.006388
553.000000	0.006267
552.000000	0.006288
551.000000	0.006370
550.000000	0.006372
549.000000	0.006262
548.000000	0.006139
547.000000	0.006104
546.000000	0.006160
545.000000	0.006211
544.000000	0.006151
543.000000	0.005948
542.000000	0.005685
541.000000	0.005513
540.000000	0.005517
539.000000	0.005658
538.000000	0.005833
537.000000	0.005977
536.000000	0.006081
535.000000	0.006165
534.000000	0.006244
533.000000	0.006324
532.000000	0.006375
531.000000	0.006355
530.000000	0.006263
529.000000	0.006148
528.000000	0.006041
527.000000	0.005923
526.000000	0.005788
525.000000	0.005669
524.000000	0.005572
523.000000	0.005459
522.000000	0.005330
521.000000	0.005253
520.000000	0.005255
519.000000	0.005254
518.000000	0.005162
517.000000	0.005035
516.000000	0.005002
515.000000	0.005078
514.000000	0.005153
513.000000	0.005140
512.000000	0.005054
511.000000	0.004962
510.000000	0.004931
509.000000	0.004989
508.000000	0.005084
507.000000	0.005101
506.000000	0.005003
505.000000	0.004895
504.000000	0.004877
503.000000	0.004884
502.000000	0.004777
501.000000	0.004565
500.000000	0.004405
499.000000	0.004377
498.000000	0.004391
497.000000	0.004331
496.000000	0.004176
495.000000	0.003976
494.000000	0.003769
493.000000	0.003585
492.000000	0.003461
491.000000	0.003419
490.000000	0.003474
489.000000	0.003639
488.000000	0.003870
487.000000	0.004027
486.000000	0.003995
485.000000	0.003860
484.000000	0.003858
483.000000	0.004084
482.000000	0.004362
481.000000	0.004472
480.000000	0.004389
479.000000	0.004223
478.000000	0.004034
477.000000	0.003806
476.000000	0.003547
475.000000	0.003321
474.000000	0.003196
473.000000	0.003213
472.000000	0.003367
471.000000	0.003552
470.000000	0.003598
469.000000	0.003421
468.000000	0.003135
467.000000	0.002945
466.000000	0.002931
465.000000	0.002993
464.000000	0.003006
463.000000	0.002935
462.000000	0.002814
461.000000	0.002670
460.000000	0.002517
459.000000	0.002380
458.000000	0.002295
457.000000	0.002273
456.000000	0.002292
455.000000	0.002303
454.000000	0.002232
453.000000	0.002007
452.000000	0.001661
451.000000	0.001382
450.000000	0.001387
