PE IR       SUBTECH     SPECTRUM    ASCII       PEDS        4.00        
   -1
3G-H10-F010_1.ASC
22/02/23
15:22:16.00
22/02/23
15:55:22.00
uco
Sample 010 By uco Date Wednesday, February 23 2022
450.000000
#HDR
-1
-1
#GR
cm-1
A
1.0
0.0
4000.000000
-1.000000
3551
8
0.052352
0.004369
#DATA
4000.000000	0.004977
3999.000000	0.004960
3998.000000	0.004945
3997.000000	0.004943
3996.000000	0.004957
3995.000000	0.005081
3994.000000	0.005105
3993.000000	0.005110
3992.000000	0.005101
3991.000000	0.005084
3990.000000	0.005068
3989.000000	0.005059
3988.000000	0.005061
3987.000000	0.005073
3986.000000	0.005092
3985.000000	0.005111
3984.000000	0.005126
3983.000000	0.005138
3982.000000	0.005146
3981.000000	0.005150
3980.000000	0.005144
3979.000000	0.005127
3978.000000	0.005103
3977.000000	0.005080
3976.000000	0.005071
3975.000000	0.005083
3974.000000	0.005114
3973.000000	0.005151
3972.000000	0.005175
3971.000000	0.005179
3970.000000	0.005169
3969.000000	0.005154
3968.000000	0.005139
3967.000000	0.005129
3966.000000	0.005123
3965.000000	0.005122
3964.000000	0.005121
3963.000000	0.005118
3962.000000	0.005114
3961.000000	0.005117
3960.000000	0.005133
3959.000000	0.005159
3958.000000	0.005184
3957.000000	0.005196
3956.000000	0.005197
3955.000000	0.005195
3954.000000	0.005200
3953.000000	0.005208
3952.000000	0.005207
3951.000000	0.005188
3950.000000	0.005152
3949.000000	0.005111
3948.000000	0.005080
3947.000000	0.005069
3946.000000	0.005078
3945.000000	0.005101
3944.000000	0.005129
3943.000000	0.005154
3942.000000	0.005172
3941.000000	0.005187
3940.000000	0.005203
3939.000000	0.005220
3938.000000	0.005229
3937.000000	0.005221
3936.000000	0.005194
3935.000000	0.005163
3934.000000	0.005151
3933.000000	0.005176
3932.000000	0.005229
3931.000000	0.005281
3930.000000	0.005307
3929.000000	0.005304
3928.000000	0.005285
3927.000000	0.005263
3926.000000	0.005242
3925.000000	0.005221
3924.000000	0.005198
3923.000000	0.005178
3922.000000	0.005166
3921.000000	0.005162
3920.000000	0.005160
3919.000000	0.005152
3918.000000	0.005139
3917.000000	0.005133
3916.000000	0.005139
3915.000000	0.005159
3914.000000	0.005185
3913.000000	0.005215
3912.000000	0.005238
3911.000000	0.005246
3910.000000	0.005237
3909.000000	0.005221
3908.000000	0.005215
3907.000000	0.005225
3906.000000	0.005237
3905.000000	0.005231
3904.000000	0.005200
3903.000000	0.005164
3902.000000	0.005150
3901.000000	0.005170
3900.000000	0.005216
3899.000000	0.005265
3898.000000	0.005295
3897.000000	0.005300
3896.000000	0.005286
3895.000000	0.005266
3894.000000	0.005248
3893.000000	0.005241
3892.000000	0.005250
3891.000000	0.005271
3890.000000	0.005285
3889.000000	0.005279
3888.000000	0.005251
3887.000000	0.005224
3886.000000	0.005226
3885.000000	0.005255
3884.000000	0.005282
3883.000000	0.005291
3882.000000	0.005285
3881.000000	0.005271
3880.000000	0.005249
3879.000000	0.005220
3878.000000	0.005193
3877.000000	0.005175
3876.000000	0.005179
3875.000000	0.005213
3874.000000	0.005265
3873.000000	0.005307
3872.000000	0.005318
3871.000000	0.005307
3870.000000	0.005296
3869.000000	0.005292
3868.000000	0.005279
3867.000000	0.005250
3866.000000	0.005220
3865.000000	0.005207
3864.000000	0.005208
3863.000000	0.005212
3862.000000	0.005223
3861.000000	0.005241
3860.000000	0.005268
3859.000000	0.005313
3858.000000	0.005388
3857.000000	0.005487
3856.000000	0.005569
3855.000000	0.005592
3854.000000	0.005548
3853.000000	0.005469
3852.000000	0.005384
3851.000000	0.005310
3850.000000	0.005251
3849.000000	0.005216
3848.000000	0.005202
3847.000000	0.005197
3846.000000	0.005198
3845.000000	0.005205
3844.000000	0.005215
3843.000000	0.005227
3842.000000	0.005234
3841.000000	0.005242
3840.000000	0.005264
3839.000000	0.005308
3838.000000	0.005361
3837.000000	0.005399
3836.000000	0.005405
3835.000000	0.005375
3834.000000	0.005323
3833.000000	0.005271
3832.000000	0.005240
3831.000000	0.005229
3830.000000	0.005224
3829.000000	0.005216
3828.000000	0.005208
3827.000000	0.005208
3826.000000	0.005215
3825.000000	0.005210
3824.000000	0.005183
3823.000000	0.005153
3822.000000	0.005158
3821.000000	0.005203
3820.000000	0.005248
3819.000000	0.005262
3818.000000	0.005254
3817.000000	0.005251
3816.000000	0.005271
3815.000000	0.005295
3814.000000	0.005293
3813.000000	0.005268
3812.000000	0.005243
3811.000000	0.005232
3810.000000	0.005225
3809.000000	0.005209
3808.000000	0.005185
3807.000000	0.005173
3806.000000	0.005178
3805.000000	0.005188
3804.000000	0.005191
3803.000000	0.005190
3802.000000	0.005200
3801.000000	0.005223
3800.000000	0.005239
3799.000000	0.005241
3798.000000	0.005236
3797.000000	0.005232
3796.000000	0.005232
3795.000000	0.005231
3794.000000	0.005226
3793.000000	0.005219
3792.000000	0.005213
3791.000000	0.005210
3790.000000	0.005213
3789.000000	0.005224
3788.000000	0.005246
3787.000000	0.005275
3786.000000	0.005306
3785.000000	0.005329
3784.000000	0.005336
3783.000000	0.005316
3782.000000	0.005274
3781.000000	0.005229
3780.000000	0.005205
3779.000000	0.005209
3778.000000	0.005229
3777.000000	0.005248
3776.000000	0.005264
3775.000000	0.005283
3774.000000	0.005303
3773.000000	0.005311
3772.000000	0.005295
3771.000000	0.005261
3770.000000	0.005225
3769.000000	0.005191
3768.000000	0.005156
3767.000000	0.005122
3766.000000	0.005104
3765.000000	0.005110
3764.000000	0.005133
3763.000000	0.005148
3762.000000	0.005146
3761.000000	0.005133
3760.000000	0.005115
3759.000000	0.005088
3758.000000	0.005058
3757.000000	0.005043
3756.000000	0.005049
3755.000000	0.005057
3754.000000	0.005051
3753.000000	0.005038
3752.000000	0.005041
3751.000000	0.005071
3750.000000	0.005111
3749.000000	0.005144
3748.000000	0.005161
3747.000000	0.005159
3746.000000	0.005152
3745.000000	0.005173
3744.000000	0.005220
3743.000000	0.005234
3742.000000	0.005188
3741.000000	0.005111
3740.000000	0.005041
3739.000000	0.004991
3738.000000	0.004960
3737.000000	0.004959
3736.000000	0.004985
3735.000000	0.004997
3734.000000	0.004963
3733.000000	0.004914
3732.000000	0.004903
3731.000000	0.004942
3730.000000	0.004999
3729.000000	0.005038
3728.000000	0.005050
3727.000000	0.005049
3726.000000	0.005053
3725.000000	0.005059
3724.000000	0.005061
3723.000000	0.005059
3722.000000	0.005052
3721.000000	0.005044
3720.000000	0.005039
3719.000000	0.005038
3718.000000	0.005043
3717.000000	0.005054
3716.000000	0.005062
3715.000000	0.005051
3714.000000	0.005021
3713.000000	0.004993
3712.000000	0.004985
3711.000000	0.004984
3710.000000	0.004973
3709.000000	0.004953
3708.000000	0.004937
3707.000000	0.004939
3706.000000	0.004958
3705.000000	0.004991
3704.000000	0.005031
3703.000000	0.005068
3702.000000	0.005094
3701.000000	0.005109
3700.000000	0.005117
3699.000000	0.005122
3698.000000	0.005123
3697.000000	0.005119
3696.000000	0.005110
3695.000000	0.005094
3694.000000	0.005077
3693.000000	0.005072
3692.000000	0.005083
3691.000000	0.005093
3690.000000	0.005080
3689.000000	0.005048
3688.000000	0.005032
3687.000000	0.005042
3686.000000	0.005063
3685.000000	0.005081
3684.000000	0.005092
3683.000000	0.005093
3682.000000	0.005088
3681.000000	0.005086
3680.000000	0.005107
3679.000000	0.005146
3678.000000	0.005178
3677.000000	0.005200
3676.000000	0.005235
3675.000000	0.005274
3674.000000	0.005276
3673.000000	0.005222
3672.000000	0.005134
3671.000000	0.005068
3670.000000	0.005068
3669.000000	0.005115
3668.000000	0.005165
3667.000000	0.005197
3666.000000	0.005206
3665.000000	0.005202
3664.000000	0.005201
3663.000000	0.005214
3662.000000	0.005242
3661.000000	0.005271
3660.000000	0.005285
3659.000000	0.005282
3658.000000	0.005278
3657.000000	0.005292
3656.000000	0.005326
3655.000000	0.005359
3654.000000	0.005368
3653.000000	0.005346
3652.000000	0.005313
3651.000000	0.005302
3650.000000	0.005334
3649.000000	0.005392
3648.000000	0.005458
3647.000000	0.005522
3646.000000	0.005578
3645.000000	0.005620
3644.000000	0.005646
3643.000000	0.005659
3642.000000	0.005662
3641.000000	0.005658
3640.000000	0.005656
3639.000000	0.005670
3638.000000	0.005705
3637.000000	0.005749
3636.000000	0.005784
3635.000000	0.005811
3634.000000	0.005842
3633.000000	0.005881
3632.000000	0.005917
3631.000000	0.005942
3630.000000	0.005967
3629.000000	0.005999
3628.000000	0.006024
3627.000000	0.006034
3626.000000	0.006045
3625.000000	0.006063
3624.000000	0.006087
3623.000000	0.006106
3622.000000	0.006117
3621.000000	0.006127
3620.000000	0.006152
3619.000000	0.006190
3618.000000	0.006234
3617.000000	0.006280
3616.000000	0.006325
3615.000000	0.006371
3614.000000	0.006425
3613.000000	0.006482
3612.000000	0.006529
3611.000000	0.006556
3610.000000	0.006577
3609.000000	0.006612
3608.000000	0.006665
3607.000000	0.006718
3606.000000	0.006757
3605.000000	0.006790
3604.000000	0.006827
3603.000000	0.006872
3602.000000	0.006917
3601.000000	0.006951
3600.000000	0.006966
3599.000000	0.006964
3598.000000	0.006962
3597.000000	0.006982
3596.000000	0.007033
3595.000000	0.007103
3594.000000	0.007168
3593.000000	0.007215
3592.000000	0.007245
3591.000000	0.007268
3590.000000	0.007298
3589.000000	0.007346
3588.000000	0.007409
3587.000000	0.007465
3586.000000	0.007495
3585.000000	0.007514
3584.000000	0.007546
3583.000000	0.007606
3582.000000	0.007691
3581.000000	0.007789
3580.000000	0.007881
3579.000000	0.007957
3578.000000	0.008015
3577.000000	0.008058
3576.000000	0.008092
3575.000000	0.008120
3574.000000	0.008151
3573.000000	0.008193
3572.000000	0.008246
3571.000000	0.008298
3570.000000	0.008336
3569.000000	0.008363
3568.000000	0.008398
3567.000000	0.008451
3566.000000	0.008518
3565.000000	0.008595
3564.000000	0.008684
3563.000000	0.008783
3562.000000	0.008881
3561.000000	0.008964
3560.000000	0.009024
3559.000000	0.009068
3558.000000	0.009106
3557.000000	0.009146
3556.000000	0.009187
3555.000000	0.009227
3554.000000	0.009263
3553.000000	0.009301
3552.000000	0.009343
3551.000000	0.009388
3550.000000	0.009433
3549.000000	0.009479
3548.000000	0.009533
3547.000000	0.009599
3546.000000	0.009674
3545.000000	0.009751
3544.000000	0.009825
3543.000000	0.009894
3542.000000	0.009958
3541.000000	0.010013
3540.000000	0.010058
3539.000000	0.010097
3538.000000	0.010139
3537.000000	0.010190
3536.000000	0.010249
3535.000000	0.010305
3534.000000	0.010349
3533.000000	0.010385
3532.000000	0.010424
3531.000000	0.010473
3530.000000	0.010529
3529.000000	0.010580
3528.000000	0.010623
3527.000000	0.010661
3526.000000	0.010703
3525.000000	0.010754
3524.000000	0.010817
3523.000000	0.010891
3522.000000	0.010972
3521.000000	0.011053
3520.000000	0.011123
3519.000000	0.011175
3518.000000	0.011210
3517.000000	0.011235
3516.000000	0.011259
3515.000000	0.011285
3514.000000	0.011318
3513.000000	0.011360
3512.000000	0.011409
3511.000000	0.011460
3510.000000	0.011501
3509.000000	0.011534
3508.000000	0.011567
3507.000000	0.011612
3506.000000	0.011671
3505.000000	0.011743
3504.000000	0.011820
3503.000000	0.011897
3502.000000	0.011964
3501.000000	0.012021
3500.000000	0.012075
3499.000000	0.012133
3498.000000	0.012191
3497.000000	0.012241
3496.000000	0.012276
3495.000000	0.012302
3494.000000	0.012331
3493.000000	0.012369
3492.000000	0.012415
3491.000000	0.012463
3490.000000	0.012504
3489.000000	0.012532
3488.000000	0.012556
3487.000000	0.012589
3486.000000	0.012640
3485.000000	0.012708
3484.000000	0.012779
3483.000000	0.012837
3482.000000	0.012879
3481.000000	0.012911
3480.000000	0.012942
3479.000000	0.012982
3478.000000	0.013030
3477.000000	0.013083
3476.000000	0.013136
3475.000000	0.013187
3474.000000	0.013236
3473.000000	0.013285
3472.000000	0.013332
3471.000000	0.013379
3470.000000	0.013422
3469.000000	0.013458
3468.000000	0.013487
3467.000000	0.013509
3466.000000	0.013529
3465.000000	0.013553
3464.000000	0.013590
3463.000000	0.013642
3462.000000	0.013710
3461.000000	0.013788
3460.000000	0.013870
3459.000000	0.013944
3458.000000	0.014002
3457.000000	0.014040
3456.000000	0.014062
3455.000000	0.014075
3454.000000	0.014087
3453.000000	0.014106
3452.000000	0.014134
3451.000000	0.014174
3450.000000	0.014227
3449.000000	0.014289
3448.000000	0.014352
3447.000000	0.014410
3446.000000	0.014463
3445.000000	0.014516
3444.000000	0.014575
3443.000000	0.014640
3442.000000	0.014704
3441.000000	0.014757
3440.000000	0.014797
3439.000000	0.014828
3438.000000	0.014854
3437.000000	0.014878
3436.000000	0.014906
3435.000000	0.014948
3434.000000	0.015009
3433.000000	0.015084
3432.000000	0.015152
3431.000000	0.015198
3430.000000	0.015228
3429.000000	0.015262
3428.000000	0.015322
3427.000000	0.015414
3426.000000	0.015526
3425.000000	0.015635
3424.000000	0.015719
3423.000000	0.015764
3422.000000	0.015777
3421.000000	0.015775
3420.000000	0.015781
3419.000000	0.015809
3418.000000	0.015859
3417.000000	0.015919
3416.000000	0.015980
3415.000000	0.016037
3414.000000	0.016089
3413.000000	0.016136
3412.000000	0.016178
3411.000000	0.016221
3410.000000	0.016265
3409.000000	0.016310
3408.000000	0.016356
3407.000000	0.016406
3406.000000	0.016462
3405.000000	0.016521
3404.000000	0.016574
3403.000000	0.016623
3402.000000	0.016673
3401.000000	0.016724
3400.000000	0.016774
3399.000000	0.016820
3398.000000	0.016866
3397.000000	0.016916
3396.000000	0.016971
3395.000000	0.017023
3394.000000	0.017069
3393.000000	0.017113
3392.000000	0.017160
3391.000000	0.017212
3390.000000	0.017266
3389.000000	0.017319
3388.000000	0.017369
3387.000000	0.017414
3386.000000	0.017453
3385.000000	0.017482
3384.000000	0.017503
3383.000000	0.017525
3382.000000	0.017560
3381.000000	0.017612
3380.000000	0.017669
3379.000000	0.017714
3378.000000	0.017746
3377.000000	0.017771
3376.000000	0.017803
3375.000000	0.017850
3374.000000	0.017913
3373.000000	0.017991
3372.000000	0.018076
3371.000000	0.018161
3370.000000	0.018245
3369.000000	0.018329
3368.000000	0.018420
3367.000000	0.018516
3366.000000	0.018612
3365.000000	0.018700
3364.000000	0.018779
3363.000000	0.018849
3362.000000	0.018910
3361.000000	0.018962
3360.000000	0.019006
3359.000000	0.019047
3358.000000	0.019092
3357.000000	0.019148
3356.000000	0.019223
3355.000000	0.019321
3354.000000	0.019434
3353.000000	0.019547
3352.000000	0.019643
3351.000000	0.019720
3350.000000	0.019786
3349.000000	0.019854
3348.000000	0.019931
3347.000000	0.020015
3346.000000	0.020106
3345.000000	0.020199
3344.000000	0.020287
3343.000000	0.020363
3342.000000	0.020429
3341.000000	0.020488
3340.000000	0.020541
3339.000000	0.020594
3338.000000	0.020654
3337.000000	0.020728
3336.000000	0.020817
3335.000000	0.020912
3334.000000	0.021000
3333.000000	0.021073
3332.000000	0.021132
3331.000000	0.021179
3330.000000	0.021216
3329.000000	0.021250
3328.000000	0.021289
3327.000000	0.021345
3326.000000	0.021426
3325.000000	0.021528
3324.000000	0.021630
3323.000000	0.021712
3322.000000	0.021763
3321.000000	0.021791
3320.000000	0.021812
3319.000000	0.021834
3318.000000	0.021862
3317.000000	0.021896
3316.000000	0.021943
3315.000000	0.022001
3314.000000	0.022066
3313.000000	0.022125
3312.000000	0.022174
3311.000000	0.022214
3310.000000	0.022250
3309.000000	0.022284
3308.000000	0.022313
3307.000000	0.022342
3306.000000	0.022378
3305.000000	0.022424
3304.000000	0.022478
3303.000000	0.022530
3302.000000	0.022577
3301.000000	0.022617
3300.000000	0.022656
3299.000000	0.022698
3298.000000	0.022741
3297.000000	0.022777
3296.000000	0.022804
3295.000000	0.022828
3294.000000	0.022854
3293.000000	0.022880
3292.000000	0.022895
3291.000000	0.022896
3290.000000	0.022894
3289.000000	0.022900
3288.000000	0.022915
3287.000000	0.022929
3286.000000	0.022935
3285.000000	0.022937
3284.000000	0.022938
3283.000000	0.022942
3282.000000	0.022944
3281.000000	0.022943
3280.000000	0.022935
3279.000000	0.022920
3278.000000	0.022896
3277.000000	0.022862
3276.000000	0.022815
3275.000000	0.022754
3274.000000	0.022680
3273.000000	0.022604
3272.000000	0.022545
3271.000000	0.022515
3270.000000	0.022511
3269.000000	0.022514
3268.000000	0.022504
3267.000000	0.022471
3266.000000	0.022420
3265.000000	0.022359
3264.000000	0.022299
3263.000000	0.022247
3262.000000	0.022197
3261.000000	0.022142
3260.000000	0.022073
3259.000000	0.021993
3258.000000	0.021918
3257.000000	0.021858
3256.000000	0.021810
3255.000000	0.021764
3254.000000	0.021710
3253.000000	0.021650
3252.000000	0.021589
3251.000000	0.021530
3250.000000	0.021466
3249.000000	0.021392
3248.000000	0.021317
3247.000000	0.021260
3246.000000	0.021229
3245.000000	0.021217
3244.000000	0.021206
3243.000000	0.021185
3242.000000	0.021153
3241.000000	0.021115
3240.000000	0.021066
3239.000000	0.021002
3238.000000	0.020928
3237.000000	0.020856
3236.000000	0.020798
3235.000000	0.020757
3234.000000	0.020724
3233.000000	0.020689
3232.000000	0.020652
3231.000000	0.020621
3230.000000	0.020602
3229.000000	0.020588
3228.000000	0.020566
3227.000000	0.020528
3226.000000	0.020477
3225.000000	0.020427
3224.000000	0.020387
3223.000000	0.020358
3222.000000	0.020334
3221.000000	0.020304
3220.000000	0.020264
3219.000000	0.020211
3218.000000	0.020149
3217.000000	0.020084
3216.000000	0.020026
3215.000000	0.019985
3214.000000	0.019958
3213.000000	0.019936
3212.000000	0.019907
3211.000000	0.019866
3210.000000	0.019818
3209.000000	0.019765
3208.000000	0.019708
3207.000000	0.019647
3206.000000	0.019588
3205.000000	0.019541
3204.000000	0.019513
3203.000000	0.019500
3202.000000	0.019487
3201.000000	0.019458
3200.000000	0.019406
3199.000000	0.019345
3198.000000	0.019293
3197.000000	0.019260
3196.000000	0.019235
3195.000000	0.019204
3194.000000	0.019159
3193.000000	0.019104
3192.000000	0.019045
3191.000000	0.018986
3190.000000	0.018933
3189.000000	0.018883
3188.000000	0.018825
3187.000000	0.018753
3186.000000	0.018673
3185.000000	0.018603
3184.000000	0.018555
3183.000000	0.018525
3182.000000	0.018501
3181.000000	0.018467
3180.000000	0.018416
3179.000000	0.018344
3178.000000	0.018255
3177.000000	0.018164
3176.000000	0.018089
3175.000000	0.018039
3174.000000	0.018006
3173.000000	0.017973
3172.000000	0.017923
3171.000000	0.017853
3170.000000	0.017772
3169.000000	0.017696
3168.000000	0.017633
3167.000000	0.017578
3166.000000	0.017523
3165.000000	0.017461
3164.000000	0.017397
3163.000000	0.017341
3162.000000	0.017294
3161.000000	0.017250
3160.000000	0.017199
3159.000000	0.017137
3158.000000	0.017066
3157.000000	0.016994
3156.000000	0.016929
3155.000000	0.016874
3154.000000	0.016822
3153.000000	0.016766
3152.000000	0.016705
3151.000000	0.016650
3150.000000	0.016607
3149.000000	0.016575
3148.000000	0.016544
3147.000000	0.016504
3146.000000	0.016455
3145.000000	0.016398
3144.000000	0.016338
3143.000000	0.016279
3142.000000	0.016226
3141.000000	0.016183
3140.000000	0.016152
3139.000000	0.016129
3138.000000	0.016108
3137.000000	0.016079
3136.000000	0.016040
3135.000000	0.015993
3134.000000	0.015946
3133.000000	0.015904
3132.000000	0.015865
3131.000000	0.015828
3130.000000	0.015796
3129.000000	0.015771
3128.000000	0.015749
3127.000000	0.015727
3126.000000	0.015704
3125.000000	0.015684
3124.000000	0.015664
3123.000000	0.015640
3122.000000	0.015614
3121.000000	0.015587
3120.000000	0.015560
3119.000000	0.015530
3118.000000	0.015503
3117.000000	0.015488
3116.000000	0.015489
3115.000000	0.015499
3114.000000	0.015512
3113.000000	0.015526
3112.000000	0.015539
3111.000000	0.015550
3110.000000	0.015562
3109.000000	0.015581
3108.000000	0.015605
3107.000000	0.015625
3106.000000	0.015635
3105.000000	0.015641
3104.000000	0.015649
3103.000000	0.015655
3102.000000	0.015650
3101.000000	0.015635
3100.000000	0.015622
3099.000000	0.015624
3098.000000	0.015643
3097.000000	0.015667
3096.000000	0.015686
3095.000000	0.015697
3094.000000	0.015704
3093.000000	0.015713
3092.000000	0.015729
3091.000000	0.015749
3090.000000	0.015760
3089.000000	0.015759
3088.000000	0.015749
3087.000000	0.015747
3086.000000	0.015763
3085.000000	0.015801
3084.000000	0.015846
3083.000000	0.015879
3082.000000	0.015886
3081.000000	0.015868
3080.000000	0.015838
3079.000000	0.015814
3078.000000	0.015809
3077.000000	0.015827
3076.000000	0.015857
3075.000000	0.015888
3074.000000	0.015915
3073.000000	0.015936
3072.000000	0.015950
3071.000000	0.015948
3070.000000	0.015927
3069.000000	0.015890
3068.000000	0.015849
3067.000000	0.015818
3066.000000	0.015802
3065.000000	0.015802
3064.000000	0.015810
3063.000000	0.015816
3062.000000	0.015815
3061.000000	0.015804
3060.000000	0.015785
3059.000000	0.015758
3058.000000	0.015720
3057.000000	0.015672
3056.000000	0.015615
3055.000000	0.015553
3054.000000	0.015489
3053.000000	0.015427
3052.000000	0.015373
3051.000000	0.015333
3050.000000	0.015304
3049.000000	0.015276
3048.000000	0.015237
3047.000000	0.015187
3046.000000	0.015134
3045.000000	0.015087
3044.000000	0.015047
3043.000000	0.015004
3042.000000	0.014951
3041.000000	0.014892
3040.000000	0.014835
3039.000000	0.014782
3038.000000	0.014732
3037.000000	0.014679
3036.000000	0.014627
3035.000000	0.014580
3034.000000	0.014539
3033.000000	0.014499
3032.000000	0.014459
3031.000000	0.014427
3030.000000	0.014407
3029.000000	0.014394
3028.000000	0.014370
3027.000000	0.014323
3026.000000	0.014263
3025.000000	0.014208
3024.000000	0.014168
3023.000000	0.014134
3022.000000	0.014089
3021.000000	0.014029
3020.000000	0.013965
3019.000000	0.013913
3018.000000	0.013875
3017.000000	0.013840
3016.000000	0.013802
3015.000000	0.013766
3014.000000	0.013740
3013.000000	0.013729
3012.000000	0.013727
3011.000000	0.013729
3010.000000	0.013736
3009.000000	0.013747
3008.000000	0.013757
3007.000000	0.013757
3006.000000	0.013749
3005.000000	0.013740
3004.000000	0.013735
3003.000000	0.013733
3002.000000	0.013732
3001.000000	0.013738
3000.000000	0.013755
2999.000000	0.013782
2998.000000	0.013815
2997.000000	0.013854
2996.000000	0.013901
2995.000000	0.013961
2994.000000	0.014036
2993.000000	0.014121
2992.000000	0.014206
2991.000000	0.014284
2990.000000	0.014352
2989.000000	0.014424
2988.000000	0.014518
2987.000000	0.014639
2986.000000	0.014776
2985.000000	0.014914
2984.000000	0.015046
2983.000000	0.015172
2982.000000	0.015294
2981.000000	0.015409
2980.000000	0.015516
2979.000000	0.015623
2978.000000	0.015743
2977.000000	0.015879
2976.000000	0.016023
2975.000000	0.016171
2974.000000	0.016322
2973.000000	0.016476
2972.000000	0.016635
2971.000000	0.016799
2970.000000	0.016973
2969.000000	0.017160
2968.000000	0.017361
2967.000000	0.017566
2966.000000	0.017765
2965.000000	0.017946
2964.000000	0.018108
2963.000000	0.018256
2962.000000	0.018393
2961.000000	0.018516
2960.000000	0.018620
2959.000000	0.018702
2958.000000	0.018765
2957.000000	0.018815
2956.000000	0.018859
2955.000000	0.018904
2954.000000	0.018953
2953.000000	0.019001
2952.000000	0.019039
2951.000000	0.019062
2950.000000	0.019074
2949.000000	0.019093
2948.000000	0.019134
2947.000000	0.019204
2946.000000	0.019299
2945.000000	0.019409
2944.000000	0.019527
2943.000000	0.019656
2942.000000	0.019807
2941.000000	0.019986
2940.000000	0.020193
2939.000000	0.020424
2938.000000	0.020675
2937.000000	0.020942
2936.000000	0.021221
2935.000000	0.021510
2934.000000	0.021815
2933.000000	0.022136
2932.000000	0.022469
2931.000000	0.022806
2930.000000	0.023135
2929.000000	0.023451
2928.000000	0.023747
2927.000000	0.024029
2926.000000	0.024301
2925.000000	0.024562
2924.000000	0.024797
2923.000000	0.024992
2922.000000	0.025142
2921.000000	0.025250
2920.000000	0.025305
2919.000000	0.025283
2918.000000	0.025153
2917.000000	0.024896
2916.000000	0.024509
2915.000000	0.024007
2914.000000	0.023429
2913.000000	0.022824
2912.000000	0.022240
2911.000000	0.021707
2910.000000	0.021234
2909.000000	0.020816
2908.000000	0.020447
2907.000000	0.020124
2906.000000	0.019850
2905.000000	0.019620
2904.000000	0.019419
2903.000000	0.019227
2902.000000	0.019039
2901.000000	0.018865
2900.000000	0.018708
2899.000000	0.018566
2898.000000	0.018430
2897.000000	0.018296
2896.000000	0.018166
2895.000000	0.018041
2894.000000	0.017925
2893.000000	0.017823
2892.000000	0.017737
2891.000000	0.017662
2890.000000	0.017589
2889.000000	0.017514
2888.000000	0.017431
2887.000000	0.017341
2886.000000	0.017251
2885.000000	0.017174
2884.000000	0.017122
2883.000000	0.017091
2882.000000	0.017071
2881.000000	0.017058
2880.000000	0.017056
2879.000000	0.017071
2878.000000	0.017101
2877.000000	0.017136
2876.000000	0.017158
2875.000000	0.017158
2874.000000	0.017141
2873.000000	0.017120
2872.000000	0.017103
2871.000000	0.017090
2870.000000	0.017071
2869.000000	0.017040
2868.000000	0.016994
2867.000000	0.016942
2866.000000	0.016895
2865.000000	0.016868
2864.000000	0.016871
2863.000000	0.016908
2862.000000	0.016981
2861.000000	0.017095
2860.000000	0.017256
2859.000000	0.017464
2858.000000	0.017714
2857.000000	0.018001
2856.000000	0.018319
2855.000000	0.018659
2854.000000	0.019005
2853.000000	0.019327
2852.000000	0.019580
2851.000000	0.019713
2850.000000	0.019674
2849.000000	0.019436
2848.000000	0.019004
2847.000000	0.018426
2846.000000	0.017780
2845.000000	0.017144
2844.000000	0.016576
2843.000000	0.016101
2842.000000	0.015718
2841.000000	0.015406
2840.000000	0.015139
2839.000000	0.014899
2838.000000	0.014681
2837.000000	0.014494
2836.000000	0.014341
2835.000000	0.014216
2834.000000	0.014109
2833.000000	0.014012
2832.000000	0.013921
2831.000000	0.013830
2830.000000	0.013738
2829.000000	0.013650
2828.000000	0.013574
2827.000000	0.013511
2826.000000	0.013451
2825.000000	0.013382
2824.000000	0.013298
2823.000000	0.013201
2822.000000	0.013103
2821.000000	0.013019
2820.000000	0.012958
2819.000000	0.012920
2818.000000	0.012889
2817.000000	0.012849
2816.000000	0.012798
2815.000000	0.012746
2814.000000	0.012708
2813.000000	0.012683
2812.000000	0.012658
2811.000000	0.012624
2810.000000	0.012584
2809.000000	0.012546
2808.000000	0.012516
2807.000000	0.012490
2806.000000	0.012466
2805.000000	0.012441
2804.000000	0.012415
2803.000000	0.012383
2802.000000	0.012348
2801.000000	0.012315
2800.000000	0.012288
2799.000000	0.012266
2798.000000	0.012245
2797.000000	0.012223
2796.000000	0.012199
2795.000000	0.012169
2794.000000	0.012125
2793.000000	0.012069
2792.000000	0.012014
2791.000000	0.011975
2790.000000	0.011957
2789.000000	0.011947
2788.000000	0.011934
2787.000000	0.011913
2786.000000	0.011891
2785.000000	0.011877
2784.000000	0.011867
2783.000000	0.011853
2782.000000	0.011832
2781.000000	0.011806
2780.000000	0.011781
2779.000000	0.011758
2778.000000	0.011737
2777.000000	0.011716
2776.000000	0.011690
2775.000000	0.011657
2774.000000	0.011625
2773.000000	0.011600
2772.000000	0.011584
2771.000000	0.011567
2770.000000	0.011546
2769.000000	0.011526
2768.000000	0.011512
2767.000000	0.011503
2766.000000	0.011488
2765.000000	0.011462
2764.000000	0.011431
2763.000000	0.011408
2762.000000	0.011403
2761.000000	0.011413
2760.000000	0.011425
2759.000000	0.011421
2758.000000	0.011390
2757.000000	0.011341
2756.000000	0.011296
2755.000000	0.011271
2754.000000	0.011266
2753.000000	0.011268
2752.000000	0.011266
2751.000000	0.011256
2750.000000	0.011247
2749.000000	0.011239
2748.000000	0.011229
2747.000000	0.011212
2746.000000	0.011187
2745.000000	0.011158
2744.000000	0.011129
2743.000000	0.011101
2742.000000	0.011081
2741.000000	0.011069
2740.000000	0.011060
2739.000000	0.011048
2738.000000	0.011030
2737.000000	0.011010
2736.000000	0.010992
2735.000000	0.010976
2734.000000	0.010961
2733.000000	0.010953
2732.000000	0.010952
2731.000000	0.010950
2730.000000	0.010940
2729.000000	0.010921
2728.000000	0.010903
2727.000000	0.010889
2726.000000	0.010876
2725.000000	0.010854
2724.000000	0.010823
2723.000000	0.010790
2722.000000	0.010767
2721.000000	0.010758
2720.000000	0.010754
2719.000000	0.010744
2718.000000	0.010724
2717.000000	0.010705
2716.000000	0.010694
2715.000000	0.010686
2714.000000	0.010670
2713.000000	0.010640
2712.000000	0.010606
2711.000000	0.010583
2710.000000	0.010579
2709.000000	0.010586
2708.000000	0.010588
2707.000000	0.010574
2706.000000	0.010546
2705.000000	0.010519
2704.000000	0.010505
2703.000000	0.010505
2702.000000	0.010516
2701.000000	0.010527
2700.000000	0.010527
2699.000000	0.010506
2698.000000	0.010466
2697.000000	0.010421
2696.000000	0.010386
2695.000000	0.010367
2694.000000	0.010358
2693.000000	0.010354
2692.000000	0.010353
2691.000000	0.010354
2690.000000	0.010358
2689.000000	0.010364
2688.000000	0.010367
2687.000000	0.010365
2686.000000	0.010360
2685.000000	0.010355
2684.000000	0.010351
2683.000000	0.010344
2682.000000	0.010338
2681.000000	0.010338
2680.000000	0.010347
2679.000000	0.010350
2678.000000	0.010335
2677.000000	0.010299
2676.000000	0.010256
2675.000000	0.010223
2674.000000	0.010209
2673.000000	0.010212
2672.000000	0.010223
2671.000000	0.010232
2670.000000	0.010235
2669.000000	0.010235
2668.000000	0.010238
2667.000000	0.010244
2666.000000	0.010249
2665.000000	0.010249
2664.000000	0.010246
2663.000000	0.010240
2662.000000	0.010230
2661.000000	0.010217
2660.000000	0.010203
2659.000000	0.010186
2658.000000	0.010163
2657.000000	0.010135
2656.000000	0.010105
2655.000000	0.010080
2654.000000	0.010064
2653.000000	0.010055
2652.000000	0.010049
2651.000000	0.010041
2650.000000	0.010028
2649.000000	0.010012
2648.000000	0.009996
2647.000000	0.009975
2646.000000	0.009946
2645.000000	0.009910
2644.000000	0.009880
2643.000000	0.009860
2642.000000	0.009847
2641.000000	0.009827
2640.000000	0.009796
2639.000000	0.009756
2638.000000	0.009713
2637.000000	0.009674
2636.000000	0.009652
2635.000000	0.009652
2634.000000	0.009669
2633.000000	0.009681
2632.000000	0.009675
2631.000000	0.009653
2630.000000	0.009626
2629.000000	0.009594
2628.000000	0.009551
2627.000000	0.009501
2626.000000	0.009465
2625.000000	0.009459
2624.000000	0.009471
2623.000000	0.009475
2622.000000	0.009455
2621.000000	0.009416
2620.000000	0.009368
2619.000000	0.009320
2618.000000	0.009279
2617.000000	0.009248
2616.000000	0.009224
2615.000000	0.009209
2614.000000	0.009204
2613.000000	0.009209
2612.000000	0.009212
2611.000000	0.009204
2610.000000	0.009190
2609.000000	0.009181
2608.000000	0.009179
2607.000000	0.009169
2606.000000	0.009144
2605.000000	0.009114
2604.000000	0.009096
2603.000000	0.009098
2602.000000	0.009116
2601.000000	0.009134
2600.000000	0.009139
2599.000000	0.009127
2598.000000	0.009101
2597.000000	0.009066
2596.000000	0.009022
2595.000000	0.008973
2594.000000	0.008935
2593.000000	0.008928
2592.000000	0.008953
2591.000000	0.008986
2590.000000	0.009001
2589.000000	0.008984
2588.000000	0.008939
2587.000000	0.008874
2586.000000	0.008803
2585.000000	0.008744
2584.000000	0.008709
2583.000000	0.008699
2582.000000	0.008707
2581.000000	0.008728
2580.000000	0.008752
2579.000000	0.008770
2578.000000	0.008776
2577.000000	0.008766
2576.000000	0.008746
2575.000000	0.008728
2574.000000	0.008719
2573.000000	0.008715
2572.000000	0.008710
2571.000000	0.008697
2570.000000	0.008682
2569.000000	0.008672
2568.000000	0.008667
2567.000000	0.008665
2566.000000	0.008668
2565.000000	0.008675
2564.000000	0.008680
2563.000000	0.008681
2562.000000	0.008686
2561.000000	0.008701
2560.000000	0.008722
2559.000000	0.008730
2558.000000	0.008719
2557.000000	0.008697
2556.000000	0.008666
2555.000000	0.008623
2554.000000	0.008574
2553.000000	0.008543
2552.000000	0.008545
2551.000000	0.008569
2550.000000	0.008591
2549.000000	0.008602
2548.000000	0.008612
2547.000000	0.008631
2546.000000	0.008652
2545.000000	0.008656
2544.000000	0.008634
2543.000000	0.008589
2542.000000	0.008542
2541.000000	0.008509
2540.000000	0.008496
2539.000000	0.008499
2538.000000	0.008512
2537.000000	0.008527
2536.000000	0.008530
2535.000000	0.008508
2534.000000	0.008468
2533.000000	0.008434
2532.000000	0.008423
2531.000000	0.008438
2530.000000	0.008468
2529.000000	0.008500
2528.000000	0.008515
2527.000000	0.008502
2526.000000	0.008462
2525.000000	0.008416
2524.000000	0.008380
2523.000000	0.008358
2522.000000	0.008349
2521.000000	0.008361
2520.000000	0.008399
2519.000000	0.008451
2518.000000	0.008486
2517.000000	0.008483
2516.000000	0.008445
2515.000000	0.008396
2514.000000	0.008357
2513.000000	0.008331
2512.000000	0.008314
2511.000000	0.008302
2510.000000	0.008299
2509.000000	0.008299
2508.000000	0.008282
2507.000000	0.008240
2506.000000	0.008195
2505.000000	0.008183
2504.000000	0.008211
2503.000000	0.008257
2502.000000	0.008287
2501.000000	0.008287
2500.000000	0.008263
2499.000000	0.008239
2498.000000	0.008240
2497.000000	0.008273
2496.000000	0.008316
2495.000000	0.008336
2494.000000	0.008324
2493.000000	0.008302
2492.000000	0.008294
2491.000000	0.008305
2490.000000	0.008322
2489.000000	0.008326
2488.000000	0.008306
2487.000000	0.008266
2486.000000	0.008225
2485.000000	0.008203
2484.000000	0.008202
2483.000000	0.008209
2482.000000	0.008213
2481.000000	0.008216
2480.000000	0.008217
2479.000000	0.008207
2478.000000	0.008184
2477.000000	0.008158
2476.000000	0.008140
2475.000000	0.008128
2474.000000	0.008119
2473.000000	0.008109
2472.000000	0.008098
2471.000000	0.008082
2470.000000	0.008063
2469.000000	0.008049
2468.000000	0.008042
2467.000000	0.008031
2466.000000	0.008015
2465.000000	0.008007
2464.000000	0.008020
2463.000000	0.008052
2462.000000	0.008091
2461.000000	0.008129
2460.000000	0.008163
2459.000000	0.008176
2458.000000	0.008154
2457.000000	0.008100
2456.000000	0.008040
2455.000000	0.007998
2454.000000	0.007982
2453.000000	0.007982
2452.000000	0.007992
2451.000000	0.008007
2450.000000	0.008028
2449.000000	0.008051
2448.000000	0.008070
2447.000000	0.008079
2446.000000	0.008076
2445.000000	0.008064
2444.000000	0.008043
2443.000000	0.008014
2442.000000	0.007982
2441.000000	0.007954
2440.000000	0.007937
2439.000000	0.007939
2438.000000	0.007963
2437.000000	0.008001
2436.000000	0.008029
2435.000000	0.008032
2434.000000	0.008017
2433.000000	0.008004
2432.000000	0.008006
2431.000000	0.008017
2430.000000	0.008024
2429.000000	0.008021
2428.000000	0.008004
2427.000000	0.007977
2426.000000	0.007948
2425.000000	0.007924
2424.000000	0.007897
2423.000000	0.007856
2422.000000	0.007806
2421.000000	0.007760
2420.000000	0.007733
2419.000000	0.007734
2418.000000	0.007763
2417.000000	0.007810
2416.000000	0.007851
2415.000000	0.007868
2414.000000	0.007863
2413.000000	0.007849
2412.000000	0.007837
2411.000000	0.007826
2410.000000	0.007817
2409.000000	0.007813
2408.000000	0.007808
2407.000000	0.007799
2406.000000	0.007792
2405.000000	0.007795
2404.000000	0.007806
2403.000000	0.007821
2402.000000	0.007845
2401.000000	0.007880
2400.000000	0.007907
2399.000000	0.007894
2398.000000	0.007843
2397.000000	0.007790
2396.000000	0.007761
2395.000000	0.007752
2394.000000	0.007743
2393.000000	0.007733
2392.000000	0.007737
2391.000000	0.007759
2390.000000	0.007792
2389.000000	0.007824
2388.000000	0.007841
2387.000000	0.007839
2386.000000	0.007832
2385.000000	0.007843
2384.000000	0.007881
2383.000000	0.007924
2382.000000	0.007942
2381.000000	0.007930
2380.000000	0.007903
2379.000000	0.007885
2378.000000	0.007890
2377.000000	0.007915
2376.000000	0.007947
2375.000000	0.007972
2374.000000	0.007985
2373.000000	0.007987
2372.000000	0.007979
2371.000000	0.007973
2370.000000	0.007983
2369.000000	0.008006
2368.000000	0.008021
2367.000000	0.008014
2366.000000	0.008000
2365.000000	0.008008
2364.000000	0.008051
2363.000000	0.008123
2362.000000	0.008201
2361.000000	0.008245
2360.000000	0.008232
2359.000000	0.008177
2358.000000	0.008119
2357.000000	0.008078
2356.000000	0.008066
2355.000000	0.008085
2354.000000	0.008088
2353.000000	0.008025
2352.000000	0.007933
2351.000000	0.007905
2350.000000	0.007976
2349.000000	0.008106
2348.000000	0.008218
2347.000000	0.008246
2346.000000	0.008182
2345.000000	0.008100
2344.000000	0.008072
2343.000000	0.008091
2342.000000	0.008114
2341.000000	0.008123
2340.000000	0.008131
2339.000000	0.008146
2338.000000	0.008157
2337.000000	0.008150
2336.000000	0.008128
2335.000000	0.008100
2334.000000	0.008058
2333.000000	0.008000
2332.000000	0.007948
2331.000000	0.007922
2330.000000	0.007924
2329.000000	0.007946
2328.000000	0.008001
2327.000000	0.008092
2326.000000	0.008198
2325.000000	0.008267
2324.000000	0.008264
2323.000000	0.008195
2322.000000	0.008113
2321.000000	0.008079
2320.000000	0.008106
2319.000000	0.008146
2318.000000	0.008149
2317.000000	0.008115
2316.000000	0.008079
2315.000000	0.008064
2314.000000	0.008067
2313.000000	0.008074
2312.000000	0.008068
2311.000000	0.008026
2310.000000	0.007941
2309.000000	0.007841
2308.000000	0.007767
2307.000000	0.007741
2306.000000	0.007748
2305.000000	0.007760
2304.000000	0.007764
2303.000000	0.007755
2302.000000	0.007742
2301.000000	0.007736
2300.000000	0.007749
2299.000000	0.007780
2298.000000	0.007819
2297.000000	0.007860
2296.000000	0.007896
2295.000000	0.007914
2294.000000	0.007910
2293.000000	0.007888
2292.000000	0.007859
2291.000000	0.007831
2290.000000	0.007803
2289.000000	0.007780
2288.000000	0.007769
2287.000000	0.007775
2286.000000	0.007795
2285.000000	0.007820
2284.000000	0.007831
2283.000000	0.007816
2282.000000	0.007784
2281.000000	0.007759
2280.000000	0.007753
2279.000000	0.007750
2278.000000	0.007727
2277.000000	0.007674
2276.000000	0.007604
2275.000000	0.007542
2274.000000	0.007517
2273.000000	0.007535
2272.000000	0.007568
2271.000000	0.007568
2270.000000	0.007526
2269.000000	0.007479
2268.000000	0.007462
2267.000000	0.007464
2266.000000	0.007446
2265.000000	0.007387
2264.000000	0.007308
2263.000000	0.007253
2262.000000	0.007263
2261.000000	0.007334
2260.000000	0.007417
2259.000000	0.007453
2258.000000	0.007439
2257.000000	0.007429
2256.000000	0.007463
2255.000000	0.007513
2254.000000	0.007514
2253.000000	0.007436
2252.000000	0.007323
2251.000000	0.007248
2250.000000	0.007255
2249.000000	0.007317
2248.000000	0.007359
2247.000000	0.007342
2246.000000	0.007305
2245.000000	0.007318
2244.000000	0.007386
2243.000000	0.007441
2242.000000	0.007422
2241.000000	0.007342
2240.000000	0.007255
2239.000000	0.007203
2238.000000	0.007203
2237.000000	0.007255
2236.000000	0.007328
2235.000000	0.007370
2234.000000	0.007354
2233.000000	0.007298
2232.000000	0.007236
2231.000000	0.007188
2230.000000	0.007169
2229.000000	0.007198
2228.000000	0.007274
2227.000000	0.007354
2226.000000	0.007390
2225.000000	0.007367
2224.000000	0.007293
2223.000000	0.007183
2222.000000	0.007064
2221.000000	0.006970
2220.000000	0.006918
2219.000000	0.006905
2218.000000	0.006930
2217.000000	0.006994
2216.000000	0.007067
2215.000000	0.007089
2214.000000	0.007037
2213.000000	0.006952
2212.000000	0.006904
2211.000000	0.006927
2210.000000	0.007017
2209.000000	0.007141
2208.000000	0.007239
2207.000000	0.007253
2206.000000	0.007172
2205.000000	0.007048
2204.000000	0.006951
2203.000000	0.006916
2202.000000	0.006946
2201.000000	0.007012
2200.000000	0.007063
2199.000000	0.007066
2198.000000	0.007045
2197.000000	0.007057
2196.000000	0.007093
2195.000000	0.007080
2194.000000	0.006985
2193.000000	0.006887
2192.000000	0.006894
2191.000000	0.007004
2190.000000	0.007104
2189.000000	0.007078
2188.000000	0.006915
2187.000000	0.006694
2186.000000	0.006512
2185.000000	0.006397
2184.000000	0.006319
2183.000000	0.006252
2182.000000	0.006223
2181.000000	0.006258
2180.000000	0.006329
2179.000000	0.006396
2178.000000	0.006476
2177.000000	0.006602
2176.000000	0.006731
2175.000000	0.006761
2174.000000	0.006655
2173.000000	0.006483
2172.000000	0.006346
2171.000000	0.006300
2170.000000	0.006351
2169.000000	0.006451
2168.000000	0.006496
2167.000000	0.006430
2166.000000	0.006334
2165.000000	0.006357
2164.000000	0.006512
2163.000000	0.006633
2162.000000	0.006555
2161.000000	0.006275
2160.000000	0.005902
2159.000000	0.005547
2158.000000	0.005309
2157.000000	0.005254
2156.000000	0.005362
2155.000000	0.005550
2154.000000	0.005762
2153.000000	0.005973
2152.000000	0.006130
2151.000000	0.006176
2150.000000	0.006129
2149.000000	0.006085
2148.000000	0.006118
2147.000000	0.006226
2146.000000	0.006377
2145.000000	0.006537
2144.000000	0.006661
2143.000000	0.006710
2142.000000	0.006700
2141.000000	0.006682
2140.000000	0.006670
2139.000000	0.006632
2138.000000	0.006562
2137.000000	0.006496
2136.000000	0.006452
2135.000000	0.006401
2134.000000	0.006323
2133.000000	0.006259
2132.000000	0.006268
2131.000000	0.006369
2130.000000	0.006531
2129.000000	0.006687
2128.000000	0.006781
2127.000000	0.006799
2126.000000	0.006781
2125.000000	0.006780
2124.000000	0.006801
2123.000000	0.006824
2122.000000	0.006840
2121.000000	0.006864
2120.000000	0.006892
2119.000000	0.006903
2118.000000	0.006892
2117.000000	0.006887
2116.000000	0.006908
2115.000000	0.006951
2114.000000	0.007003
2113.000000	0.007052
2112.000000	0.007077
2111.000000	0.007073
2110.000000	0.007059
2109.000000	0.007064
2108.000000	0.007076
2107.000000	0.007067
2106.000000	0.007036
2105.000000	0.007010
2104.000000	0.006995
2103.000000	0.006973
2102.000000	0.006954
2101.000000	0.006972
2100.000000	0.007023
2099.000000	0.007059
2098.000000	0.007045
2097.000000	0.006993
2096.000000	0.006928
2095.000000	0.006859
2094.000000	0.006800
2093.000000	0.006771
2092.000000	0.006774
2091.000000	0.006800
2090.000000	0.006859
2089.000000	0.006963
2088.000000	0.007071
2087.000000	0.007116
2086.000000	0.007077
2085.000000	0.007001
2084.000000	0.006929
2083.000000	0.006869
2082.000000	0.006832
2081.000000	0.006843
2080.000000	0.006888
2079.000000	0.006903
2078.000000	0.006851
2077.000000	0.006762
2076.000000	0.006667
2075.000000	0.006566
2074.000000	0.006470
2073.000000	0.006442
2072.000000	0.006523
2071.000000	0.006671
2070.000000	0.006789
2069.000000	0.006804
2068.000000	0.006708
2067.000000	0.006549
2066.000000	0.006413
2065.000000	0.006373
2064.000000	0.006406
2063.000000	0.006422
2062.000000	0.006373
2061.000000	0.006305
2060.000000	0.006285
2059.000000	0.006322
2058.000000	0.006394
2057.000000	0.006496
2056.000000	0.006618
2055.000000	0.006717
2054.000000	0.006751
2053.000000	0.006729
2052.000000	0.006680
2051.000000	0.006611
2050.000000	0.006512
2049.000000	0.006380
2048.000000	0.006229
2047.000000	0.006089
2046.000000	0.006018
2045.000000	0.006043
2044.000000	0.006104
2043.000000	0.006105
2042.000000	0.006034
2041.000000	0.005970
2040.000000	0.005936
2039.000000	0.005856
2038.000000	0.005681
2037.000000	0.005485
2036.000000	0.005377
2035.000000	0.005379
2034.000000	0.005446
2033.000000	0.005530
2032.000000	0.005589
2031.000000	0.005601
2030.000000	0.005598
2029.000000	0.005643
2028.000000	0.005739
2027.000000	0.005817
2026.000000	0.005814
2025.000000	0.005705
2024.000000	0.005472
2023.000000	0.005133
2022.000000	0.004811
2021.000000	0.004674
2020.000000	0.004776
2019.000000	0.005028
2018.000000	0.005305
2017.000000	0.005505
2016.000000	0.005549
2015.000000	0.005431
2014.000000	0.005275
2013.000000	0.005245
2012.000000	0.005380
2011.000000	0.005587
2010.000000	0.005785
2009.000000	0.005947
2008.000000	0.006038
2007.000000	0.006016
2006.000000	0.005922
2005.000000	0.005842
2004.000000	0.005805
2003.000000	0.005784
2002.000000	0.005777
2001.000000	0.005786
2000.000000	0.005756
1999.000000	0.005656
1998.000000	0.005565
1997.000000	0.005580
1996.000000	0.005654
1995.000000	0.005649
1994.000000	0.005546
1993.000000	0.005465
1992.000000	0.005479
1991.000000	0.005533
1990.000000	0.005583
1989.000000	0.005664
1988.000000	0.005779
1987.000000	0.005854
1986.000000	0.005863
1985.000000	0.005866
1984.000000	0.005893
1983.000000	0.005897
1982.000000	0.005866
1981.000000	0.005872
1980.000000	0.005938
1979.000000	0.005960
1978.000000	0.005846
1977.000000	0.005635
1976.000000	0.005426
1975.000000	0.005242
1974.000000	0.005078
1973.000000	0.004953
1972.000000	0.004877
1971.000000	0.004830
1970.000000	0.004820
1969.000000	0.004874
1968.000000	0.004964
1967.000000	0.005030
1966.000000	0.005089
1965.000000	0.005205
1964.000000	0.005358
1963.000000	0.005451
1962.000000	0.005460
1961.000000	0.005463
1960.000000	0.005522
1959.000000	0.005605
1958.000000	0.005658
1957.000000	0.005675
1956.000000	0.005666
1955.000000	0.005648
1954.000000	0.005664
1953.000000	0.005728
1952.000000	0.005766
1951.000000	0.005684
1950.000000	0.005513
1949.000000	0.005383
1948.000000	0.005357
1947.000000	0.005371
1946.000000	0.005373
1945.000000	0.005408
1944.000000	0.005530
1943.000000	0.005693
1942.000000	0.005797
1941.000000	0.005785
1940.000000	0.005681
1939.000000	0.005552
1938.000000	0.005485
1937.000000	0.005545
1936.000000	0.005699
1935.000000	0.005839
1934.000000	0.005885
1933.000000	0.005852
1932.000000	0.005791
1931.000000	0.005730
1930.000000	0.005695
1929.000000	0.005712
1928.000000	0.005765
1927.000000	0.005806
1926.000000	0.005818
1925.000000	0.005849
1924.000000	0.005928
1923.000000	0.006012
1922.000000	0.006026
1921.000000	0.005949
1920.000000	0.005814
1919.000000	0.005678
1918.000000	0.005615
1917.000000	0.005655
1916.000000	0.005750
1915.000000	0.005832
1914.000000	0.005874
1913.000000	0.005885
1912.000000	0.005868
1911.000000	0.005828
1910.000000	0.005803
1909.000000	0.005823
1908.000000	0.005854
1907.000000	0.005836
1906.000000	0.005775
1905.000000	0.005734
1904.000000	0.005739
1903.000000	0.005752
1902.000000	0.005752
1901.000000	0.005763
1900.000000	0.005794
1899.000000	0.005825
1898.000000	0.005846
1897.000000	0.005866
1896.000000	0.005878
1895.000000	0.005859
1894.000000	0.005815
1893.000000	0.005777
1892.000000	0.005748
1891.000000	0.005707
1890.000000	0.005671
1889.000000	0.005671
1888.000000	0.005686
1887.000000	0.005669
1886.000000	0.005632
1885.000000	0.005615
1884.000000	0.005622
1883.000000	0.005617
1882.000000	0.005603
1881.000000	0.005616
1880.000000	0.005652
1879.000000	0.005667
1878.000000	0.005647
1877.000000	0.005640
1876.000000	0.005674
1875.000000	0.005717
1874.000000	0.005727
1873.000000	0.005699
1872.000000	0.005639
1871.000000	0.005543
1870.000000	0.005443
1869.000000	0.005408
1868.000000	0.005435
1867.000000	0.005461
1866.000000	0.005485
1865.000000	0.005545
1864.000000	0.005623
1863.000000	0.005665
1862.000000	0.005662
1861.000000	0.005658
1860.000000	0.005671
1859.000000	0.005663
1858.000000	0.005615
1857.000000	0.005562
1856.000000	0.005539
1855.000000	0.005550
1854.000000	0.005590
1853.000000	0.005647
1852.000000	0.005675
1851.000000	0.005635
1850.000000	0.005544
1849.000000	0.005461
1848.000000	0.005422
1847.000000	0.005418
1846.000000	0.005433
1845.000000	0.005470
1844.000000	0.005515
1843.000000	0.005520
1842.000000	0.005499
1841.000000	0.005505
1840.000000	0.005527
1839.000000	0.005514
1838.000000	0.005464
1837.000000	0.005430
1836.000000	0.005431
1835.000000	0.005435
1834.000000	0.005415
1833.000000	0.005376
1832.000000	0.005329
1831.000000	0.005289
1830.000000	0.005282
1829.000000	0.005300
1828.000000	0.005307
1827.000000	0.005296
1826.000000	0.005291
1825.000000	0.005327
1824.000000	0.005397
1823.000000	0.005452
1822.000000	0.005476
1821.000000	0.005491
1820.000000	0.005497
1819.000000	0.005470
1818.000000	0.005415
1817.000000	0.005384
1816.000000	0.005402
1815.000000	0.005430
1814.000000	0.005433
1813.000000	0.005420
1812.000000	0.005412
1811.000000	0.005392
1810.000000	0.005354
1809.000000	0.005347
1808.000000	0.005392
1807.000000	0.005444
1806.000000	0.005466
1805.000000	0.005464
1804.000000	0.005451
1803.000000	0.005414
1802.000000	0.005358
1801.000000	0.005322
1800.000000	0.005318
1799.000000	0.005310
1798.000000	0.005296
1797.000000	0.005313
1796.000000	0.005356
1795.000000	0.005367
1794.000000	0.005310
1793.000000	0.005239
1792.000000	0.005226
1791.000000	0.005233
1790.000000	0.005217
1789.000000	0.005217
1788.000000	0.005245
1787.000000	0.005258
1786.000000	0.005240
1785.000000	0.005220
1784.000000	0.005204
1783.000000	0.005172
1782.000000	0.005133
1781.000000	0.005123
1780.000000	0.005147
1779.000000	0.005166
1778.000000	0.005162
1777.000000	0.005162
1776.000000	0.005179
1775.000000	0.005183
1774.000000	0.005121
1773.000000	0.005004
1772.000000	0.004908
1771.000000	0.004850
1770.000000	0.004834
1769.000000	0.004892
1768.000000	0.004994
1767.000000	0.005055
1766.000000	0.005043
1765.000000	0.005014
1764.000000	0.005013
1763.000000	0.005027
1762.000000	0.005021
1761.000000	0.004986
1760.000000	0.004946
1759.000000	0.004930
1758.000000	0.004939
1757.000000	0.004959
1756.000000	0.004970
1755.000000	0.004968
1754.000000	0.004972
1753.000000	0.004982
1752.000000	0.004985
1751.000000	0.004987
1750.000000	0.005008
1749.000000	0.005080
1748.000000	0.005221
1747.000000	0.005392
1746.000000	0.005540
1745.000000	0.005658
1744.000000	0.005778
1743.000000	0.005891
1742.000000	0.005963
1741.000000	0.006007
1740.000000	0.006069
1739.000000	0.006152
1738.000000	0.006238
1737.000000	0.006353
1736.000000	0.006471
1735.000000	0.006518
1734.000000	0.006528
1733.000000	0.006481
1732.000000	0.006362
1731.000000	0.006270
1730.000000	0.006230
1729.000000	0.006206
1728.000000	0.006146
1727.000000	0.006037
1726.000000	0.005903
1725.000000	0.005789
1724.000000	0.005717
1723.000000	0.005648
1722.000000	0.005556
1721.000000	0.005490
1720.000000	0.005480
1719.000000	0.005494
1718.000000	0.005524
1717.000000	0.005605
1716.000000	0.005700
1715.000000	0.005793
1714.000000	0.005953
1713.000000	0.006224
1712.000000	0.006556
1711.000000	0.006865
1710.000000	0.007139
1709.000000	0.007425
1708.000000	0.007752
1707.000000	0.008122
1706.000000	0.008575
1705.000000	0.009145
1704.000000	0.009766
1703.000000	0.010365
1702.000000	0.010901
1701.000000	0.011449
1700.000000	0.012154
1699.000000	0.012835
1698.000000	0.013476
1697.000000	0.014289
1696.000000	0.015243
1695.000000	0.016039
1694.000000	0.016582
1693.000000	0.017129
1692.000000	0.017806
1691.000000	0.018535
1690.000000	0.019250
1689.000000	0.019988
1688.000000	0.020787
1687.000000	0.021593
1686.000000	0.022286
1685.000000	0.022911
1684.000000	0.023667
1683.000000	0.024404
1682.000000	0.025084
1681.000000	0.025888
1680.000000	0.026779
1679.000000	0.027642
1678.000000	0.028442
1677.000000	0.029236
1676.000000	0.030068
1675.000000	0.030922
1674.000000	0.031736
1673.000000	0.032532
1672.000000	0.033371
1671.000000	0.034242
1670.000000	0.035156
1669.000000	0.036124
1668.000000	0.037083
1667.000000	0.037993
1666.000000	0.038872
1665.000000	0.039742
1664.000000	0.040602
1663.000000	0.041435
1662.000000	0.042239
1661.000000	0.043031
1660.000000	0.043837
1659.000000	0.044640
1658.000000	0.045415
1657.000000	0.046202
1656.000000	0.047037
1655.000000	0.047777
1654.000000	0.048281
1653.000000	0.048717
1652.000000	0.049015
1651.000000	0.049210
1650.000000	0.049529
1649.000000	0.049936
1648.000000	0.050348
1647.000000	0.050683
1646.000000	0.050923
1645.000000	0.051117
1644.000000	0.051355
1643.000000	0.051615
1642.000000	0.051838
1641.000000	0.051999
1640.000000	0.052124
1639.000000	0.052254
1638.000000	0.052352
1637.000000	0.052298
1636.000000	0.052043
1635.000000	0.051696
1634.000000	0.051423
1633.000000	0.051326
1632.000000	0.051317
1631.000000	0.051221
1630.000000	0.050931
1629.000000	0.050456
1628.000000	0.049880
1627.000000	0.049286
1626.000000	0.048684
1625.000000	0.047990
1624.000000	0.047121
1623.000000	0.046152
1622.000000	0.045271
1621.000000	0.044590
1620.000000	0.044065
1619.000000	0.043519
1618.000000	0.042708
1617.000000	0.041530
1616.000000	0.040196
1615.000000	0.039036
1614.000000	0.038178
1613.000000	0.037477
1612.000000	0.036729
1611.000000	0.035888
1610.000000	0.035052
1609.000000	0.034276
1608.000000	0.033525
1607.000000	0.032805
1606.000000	0.032163
1605.000000	0.031586
1604.000000	0.031022
1603.000000	0.030479
1602.000000	0.029997
1601.000000	0.029565
1600.000000	0.029151
1599.000000	0.028773
1598.000000	0.028467
1597.000000	0.028213
1596.000000	0.027969
1595.000000	0.027751
1594.000000	0.027599
1593.000000	0.027497
1592.000000	0.027401
1591.000000	0.027321
1590.000000	0.027305
1589.000000	0.027351
1588.000000	0.027410
1587.000000	0.027479
1586.000000	0.027589
1585.000000	0.027729
1584.000000	0.027868
1583.000000	0.028034
1582.000000	0.028269
1581.000000	0.028549
1580.000000	0.028840
1579.000000	0.029173
1578.000000	0.029552
1577.000000	0.029892
1576.000000	0.030115
1575.000000	0.030268
1574.000000	0.030494
1573.000000	0.030852
1572.000000	0.031246
1571.000000	0.031575
1570.000000	0.031883
1569.000000	0.032238
1568.000000	0.032618
1567.000000	0.033060
1566.000000	0.033595
1565.000000	0.034185
1564.000000	0.034791
1563.000000	0.035453
1562.000000	0.036163
1561.000000	0.036672
1560.000000	0.036725
1559.000000	0.036841
1558.000000	0.037335
1557.000000	0.037915
1556.000000	0.038607
1555.000000	0.039308
1554.000000	0.039919
1553.000000	0.040399
1552.000000	0.040819
1551.000000	0.041243
1550.000000	0.041678
1549.000000	0.042087
1548.000000	0.042444
1547.000000	0.042757
1546.000000	0.043037
1545.000000	0.043316
1544.000000	0.043611
1543.000000	0.043864
1542.000000	0.043978
1541.000000	0.043955
1540.000000	0.043900
1539.000000	0.043835
1538.000000	0.043810
1537.000000	0.043911
1536.000000	0.044051
1535.000000	0.044052
1534.000000	0.043849
1533.000000	0.043597
1532.000000	0.043432
1531.000000	0.043336
1530.000000	0.043241
1529.000000	0.043117
1528.000000	0.042970
1527.000000	0.042776
1526.000000	0.042521
1525.000000	0.042276
1524.000000	0.042109
1523.000000	0.041945
1522.000000	0.041658
1521.000000	0.041274
1520.000000	0.040894
1519.000000	0.040582
1518.000000	0.040315
1517.000000	0.040049
1516.000000	0.039784
1515.000000	0.039514
1514.000000	0.039218
1513.000000	0.038848
1512.000000	0.038405
1511.000000	0.037965
1510.000000	0.037581
1509.000000	0.037181
1508.000000	0.036596
1507.000000	0.035754
1506.000000	0.034757
1505.000000	0.033913
1504.000000	0.033408
1503.000000	0.033085
1502.000000	0.032740
1501.000000	0.032275
1500.000000	0.031720
1499.000000	0.031141
1498.000000	0.030524
1497.000000	0.029855
1496.000000	0.029183
1495.000000	0.028559
1494.000000	0.028014
1493.000000	0.027552
1492.000000	0.027100
1491.000000	0.026584
1490.000000	0.026044
1489.000000	0.025602
1488.000000	0.025301
1487.000000	0.025076
1486.000000	0.024887
1485.000000	0.024755
1484.000000	0.024679
1483.000000	0.024637
1482.000000	0.024627
1481.000000	0.024693
1480.000000	0.024845
1479.000000	0.025032
1478.000000	0.025225
1477.000000	0.025469
1476.000000	0.025815
1475.000000	0.026215
1474.000000	0.026616
1473.000000	0.027063
1472.000000	0.027585
1471.000000	0.028106
1470.000000	0.028610
1469.000000	0.029135
1468.000000	0.029655
1467.000000	0.030097
1466.000000	0.030440
1465.000000	0.030749
1464.000000	0.031077
1463.000000	0.031399
1462.000000	0.031709
1461.000000	0.032043
1460.000000	0.032436
1459.000000	0.032881
1458.000000	0.033358
1457.000000	0.033849
1456.000000	0.034242
1455.000000	0.034523
1454.000000	0.034820
1453.000000	0.035160
1452.000000	0.035477
1451.000000	0.035696
1450.000000	0.035805
1449.000000	0.035839
1448.000000	0.035845
1447.000000	0.035852
1446.000000	0.035867
1445.000000	0.035883
1444.000000	0.035884
1443.000000	0.035856
1442.000000	0.035797
1441.000000	0.035731
1440.000000	0.035688
1439.000000	0.035633
1438.000000	0.035438
1437.000000	0.035056
1436.000000	0.034628
1435.000000	0.034313
1434.000000	0.034134
1433.000000	0.034007
1432.000000	0.033822
1431.000000	0.033547
1430.000000	0.033233
1429.000000	0.032957
1428.000000	0.032756
1427.000000	0.032620
1426.000000	0.032501
1425.000000	0.032349
1424.000000	0.032199
1423.000000	0.032130
1422.000000	0.032145
1421.000000	0.032132
1420.000000	0.031995
1419.000000	0.031812
1418.000000	0.031677
1417.000000	0.031601
1416.000000	0.031585
1415.000000	0.031590
1414.000000	0.031565
1413.000000	0.031505
1412.000000	0.031447
1411.000000	0.031411
1410.000000	0.031375
1409.000000	0.031324
1408.000000	0.031275
1407.000000	0.031240
1406.000000	0.031210
1405.000000	0.031162
1404.000000	0.031101
1403.000000	0.031054
1402.000000	0.031017
1401.000000	0.030954
1400.000000	0.030844
1399.000000	0.030728
1398.000000	0.030639
1397.000000	0.030567
1396.000000	0.030479
1395.000000	0.030351
1394.000000	0.030181
1393.000000	0.029977
1392.000000	0.029773
1391.000000	0.029592
1390.000000	0.029413
1389.000000	0.029198
1388.000000	0.028937
1387.000000	0.028664
1386.000000	0.028411
1385.000000	0.028182
1384.000000	0.027968
1383.000000	0.027752
1382.000000	0.027530
1381.000000	0.027310
1380.000000	0.027082
1379.000000	0.026830
1378.000000	0.026548
1377.000000	0.026247
1376.000000	0.025943
1375.000000	0.025654
1374.000000	0.025390
1373.000000	0.025123
1372.000000	0.024827
1371.000000	0.024497
1370.000000	0.024138
1369.000000	0.023750
1368.000000	0.023348
1367.000000	0.022965
1366.000000	0.022618
1365.000000	0.022290
1364.000000	0.021956
1363.000000	0.021622
1362.000000	0.021319
1361.000000	0.021070
1360.000000	0.020880
1359.000000	0.020743
1358.000000	0.020648
1357.000000	0.020587
1356.000000	0.020555
1355.000000	0.020556
1354.000000	0.020590
1353.000000	0.020657
1352.000000	0.020754
1351.000000	0.020879
1350.000000	0.021039
1349.000000	0.021226
1348.000000	0.021423
1347.000000	0.021619
1346.000000	0.021813
1345.000000	0.022007
1344.000000	0.022205
1343.000000	0.022410
1342.000000	0.022628
1341.000000	0.022854
1340.000000	0.023076
1339.000000	0.023269
1338.000000	0.023414
1337.000000	0.023506
1336.000000	0.023550
1335.000000	0.023548
1334.000000	0.023504
1333.000000	0.023421
1332.000000	0.023308
1331.000000	0.023176
1330.000000	0.023033
1329.000000	0.022877
1328.000000	0.022706
1327.000000	0.022531
1326.000000	0.022372
1325.000000	0.022242
1324.000000	0.022143
1323.000000	0.022076
1322.000000	0.022038
1321.000000	0.022010
1320.000000	0.021975
1319.000000	0.021933
1318.000000	0.021887
1317.000000	0.021839
1316.000000	0.021786
1315.000000	0.021728
1314.000000	0.021667
1313.000000	0.021595
1312.000000	0.021502
1311.000000	0.021389
1310.000000	0.021260
1309.000000	0.021126
1308.000000	0.020996
1307.000000	0.020874
1306.000000	0.020757
1305.000000	0.020632
1304.000000	0.020492
1303.000000	0.020352
1302.000000	0.020225
1301.000000	0.020115
1300.000000	0.020014
1299.000000	0.019923
1298.000000	0.019846
1297.000000	0.019786
1296.000000	0.019739
1295.000000	0.019707
1294.000000	0.019693
1293.000000	0.019704
1292.000000	0.019743
1291.000000	0.019804
1290.000000	0.019885
1289.000000	0.019984
1288.000000	0.020107
1287.000000	0.020252
1286.000000	0.020405
1285.000000	0.020548
1284.000000	0.020676
1283.000000	0.020789
1282.000000	0.020883
1281.000000	0.020956
1280.000000	0.021010
1279.000000	0.021051
1278.000000	0.021079
1277.000000	0.021087
1276.000000	0.021081
1275.000000	0.021080
1274.000000	0.021093
1273.000000	0.021114
1272.000000	0.021133
1271.000000	0.021154
1270.000000	0.021191
1269.000000	0.021252
1268.000000	0.021335
1267.000000	0.021428
1266.000000	0.021523
1265.000000	0.021625
1264.000000	0.021747
1263.000000	0.021900
1262.000000	0.022073
1261.000000	0.022242
1260.000000	0.022392
1259.000000	0.022529
1258.000000	0.022670
1257.000000	0.022826
1256.000000	0.023002
1255.000000	0.023193
1254.000000	0.023390
1253.000000	0.023587
1252.000000	0.023782
1251.000000	0.023978
1250.000000	0.024179
1249.000000	0.024393
1248.000000	0.024628
1247.000000	0.024886
1246.000000	0.025153
1245.000000	0.025404
1244.000000	0.025623
1243.000000	0.025819
1242.000000	0.026006
1241.000000	0.026180
1240.000000	0.026320
1239.000000	0.026411
1238.000000	0.026463
1237.000000	0.026493
1236.000000	0.026509
1235.000000	0.026500
1234.000000	0.026452
1233.000000	0.026365
1232.000000	0.026243
1231.000000	0.026085
1230.000000	0.025881
1229.000000	0.025627
1228.000000	0.025330
1227.000000	0.025002
1226.000000	0.024649
1225.000000	0.024272
1224.000000	0.023870
1223.000000	0.023448
1222.000000	0.023008
1221.000000	0.022552
1220.000000	0.022093
1219.000000	0.021661
1218.000000	0.021288
1217.000000	0.020989
1216.000000	0.020761
1215.000000	0.020596
1214.000000	0.020481
1213.000000	0.020409
1212.000000	0.020371
1211.000000	0.020360
1210.000000	0.020368
1209.000000	0.020390
1208.000000	0.020427
1207.000000	0.020475
1206.000000	0.020524
1205.000000	0.020559
1204.000000	0.020573
1203.000000	0.020562
1202.000000	0.020523
1201.000000	0.020450
1200.000000	0.020341
1199.000000	0.020198
1198.000000	0.020022
1197.000000	0.019816
1196.000000	0.019584
1195.000000	0.019331
1194.000000	0.019068
1193.000000	0.018809
1192.000000	0.018564
1191.000000	0.018324
1190.000000	0.018074
1189.000000	0.017811
1188.000000	0.017553
1187.000000	0.017320
1186.000000	0.017107
1185.000000	0.016902
1184.000000	0.016707
1183.000000	0.016539
1182.000000	0.016409
1181.000000	0.016314
1180.000000	0.016255
1179.000000	0.016233
1178.000000	0.016238
1177.000000	0.016251
1176.000000	0.016261
1175.000000	0.016272
1174.000000	0.016291
1173.000000	0.016319
1172.000000	0.016351
1171.000000	0.016385
1170.000000	0.016428
1169.000000	0.016489
1168.000000	0.016579
1167.000000	0.016695
1166.000000	0.016821
1165.000000	0.016935
1164.000000	0.017033
1163.000000	0.017122
1162.000000	0.017198
1161.000000	0.017245
1160.000000	0.017253
1159.000000	0.017222
1158.000000	0.017162
1157.000000	0.017081
1156.000000	0.016984
1155.000000	0.016869
1154.000000	0.016721
1153.000000	0.016535
1152.000000	0.016322
1151.000000	0.016105
1150.000000	0.015891
1149.000000	0.015672
1148.000000	0.015439
1147.000000	0.015198
1146.000000	0.014959
1145.000000	0.014732
1144.000000	0.014527
1143.000000	0.014351
1142.000000	0.014197
1141.000000	0.014045
1140.000000	0.013883
1139.000000	0.013723
1138.000000	0.013590
1137.000000	0.013498
1136.000000	0.013439
1135.000000	0.013399
1134.000000	0.013360
1133.000000	0.013320
1132.000000	0.013286
1131.000000	0.013268
1130.000000	0.013265
1129.000000	0.013267
1128.000000	0.013270
1127.000000	0.013280
1126.000000	0.013301
1125.000000	0.013341
1124.000000	0.013404
1123.000000	0.013488
1122.000000	0.013565
1121.000000	0.013611
1120.000000	0.013632
1119.000000	0.013665
1118.000000	0.013736
1117.000000	0.013843
1116.000000	0.013964
1115.000000	0.014085
1114.000000	0.014198
1113.000000	0.014296
1112.000000	0.014373
1111.000000	0.014436
1110.000000	0.014502
1109.000000	0.014579
1108.000000	0.014667
1107.000000	0.014755
1106.000000	0.014836
1105.000000	0.014903
1104.000000	0.014963
1103.000000	0.015028
1102.000000	0.015107
1101.000000	0.015190
1100.000000	0.015263
1099.000000	0.015315
1098.000000	0.015357
1097.000000	0.015417
1096.000000	0.015513
1095.000000	0.015639
1094.000000	0.015777
1093.000000	0.015933
1092.000000	0.016132
1091.000000	0.016392
1090.000000	0.016699
1089.000000	0.017019
1088.000000	0.017341
1087.000000	0.017672
1086.000000	0.018018
1085.000000	0.018362
1084.000000	0.018666
1083.000000	0.018892
1082.000000	0.019028
1081.000000	0.019088
1080.000000	0.019097
1079.000000	0.019061
1078.000000	0.018974
1077.000000	0.018826
1076.000000	0.018627
1075.000000	0.018395
1074.000000	0.018151
1073.000000	0.017915
1072.000000	0.017704
1071.000000	0.017530
1070.000000	0.017396
1069.000000	0.017308
1068.000000	0.017268
1067.000000	0.017269
1066.000000	0.017294
1065.000000	0.017333
1064.000000	0.017398
1063.000000	0.017492
1062.000000	0.017593
1061.000000	0.017670
1060.000000	0.017717
1059.000000	0.017747
1058.000000	0.017767
1057.000000	0.017773
1056.000000	0.017760
1055.000000	0.017744
1054.000000	0.017732
1053.000000	0.017721
1052.000000	0.017704
1051.000000	0.017692
1050.000000	0.017705
1049.000000	0.017744
1048.000000	0.017786
1047.000000	0.017805
1046.000000	0.017797
1045.000000	0.017781
1044.000000	0.017778
1043.000000	0.017793
1042.000000	0.017821
1041.000000	0.017866
1040.000000	0.017950
1039.000000	0.018097
1038.000000	0.018302
1037.000000	0.018538
1036.000000	0.018774
1035.000000	0.018999
1034.000000	0.019215
1033.000000	0.019423
1032.000000	0.019611
1031.000000	0.019768
1030.000000	0.019887
1029.000000	0.019973
1028.000000	0.020030
1027.000000	0.020058
1026.000000	0.020061
1025.000000	0.020052
1024.000000	0.020052
1023.000000	0.020081
1022.000000	0.020138
1021.000000	0.020210
1020.000000	0.020278
1019.000000	0.020328
1018.000000	0.020347
1017.000000	0.020317
1016.000000	0.020216
1015.000000	0.020030
1014.000000	0.019763
1013.000000	0.019442
1012.000000	0.019088
1011.000000	0.018711
1010.000000	0.018310
1009.000000	0.017900
1008.000000	0.017510
1007.000000	0.017161
1006.000000	0.016850
1005.000000	0.016552
1004.000000	0.016251
1003.000000	0.015952
1002.000000	0.015670
1001.000000	0.015414
1000.000000	0.015177
999.000000	0.014950
998.000000	0.014724
997.000000	0.014493
996.000000	0.014252
995.000000	0.013998
994.000000	0.013739
993.000000	0.013490
992.000000	0.013261
991.000000	0.013048
990.000000	0.012839
989.000000	0.012641
988.000000	0.012474
987.000000	0.012339
986.000000	0.012207
985.000000	0.012047
984.000000	0.011868
983.000000	0.011710
982.000000	0.011600
981.000000	0.011530
980.000000	0.011468
979.000000	0.011387
978.000000	0.011274
977.000000	0.011132
976.000000	0.010983
975.000000	0.010847
974.000000	0.010735
973.000000	0.010636
972.000000	0.010531
971.000000	0.010407
970.000000	0.010262
969.000000	0.010101
968.000000	0.009931
967.000000	0.009755
966.000000	0.009572
965.000000	0.009388
964.000000	0.009221
963.000000	0.009080
962.000000	0.008953
961.000000	0.008825
960.000000	0.008690
959.000000	0.008552
958.000000	0.008409
957.000000	0.008256
956.000000	0.008102
955.000000	0.007962
954.000000	0.007842
953.000000	0.007735
952.000000	0.007643
951.000000	0.007574
950.000000	0.007527
949.000000	0.007489
948.000000	0.007453
947.000000	0.007424
946.000000	0.007401
945.000000	0.007374
944.000000	0.007340
943.000000	0.007310
942.000000	0.007298
941.000000	0.007304
940.000000	0.007315
939.000000	0.007312
938.000000	0.007280
937.000000	0.007222
936.000000	0.007158
935.000000	0.007113
934.000000	0.007086
933.000000	0.007062
932.000000	0.007030
931.000000	0.006995
930.000000	0.006962
929.000000	0.006937
928.000000	0.006919
927.000000	0.006904
926.000000	0.006881
925.000000	0.006850
924.000000	0.006826
923.000000	0.006823
922.000000	0.006820
921.000000	0.006779
920.000000	0.006682
919.000000	0.006552
918.000000	0.006424
917.000000	0.006312
916.000000	0.006218
915.000000	0.006138
914.000000	0.006063
913.000000	0.005972
912.000000	0.005854
911.000000	0.005722
910.000000	0.005608
909.000000	0.005534
908.000000	0.005504
907.000000	0.005503
906.000000	0.005501
905.000000	0.005465
904.000000	0.005384
903.000000	0.005279
902.000000	0.005190
901.000000	0.005145
900.000000	0.005150
899.000000	0.005177
898.000000	0.005184
897.000000	0.005143
896.000000	0.005068
895.000000	0.005003
894.000000	0.004974
893.000000	0.004964
892.000000	0.004934
891.000000	0.004872
890.000000	0.004810
889.000000	0.004795
888.000000	0.004856
887.000000	0.004994
886.000000	0.005194
885.000000	0.005441
884.000000	0.005726
883.000000	0.006048
882.000000	0.006419
881.000000	0.006861
880.000000	0.007386
879.000000	0.007958
878.000000	0.008485
877.000000	0.008860
876.000000	0.009018
875.000000	0.008953
874.000000	0.008700
873.000000	0.008314
872.000000	0.007852
871.000000	0.007379
870.000000	0.006948
869.000000	0.006593
868.000000	0.006321
867.000000	0.006118
866.000000	0.005961
865.000000	0.005830
864.000000	0.005718
863.000000	0.005634
862.000000	0.005589
861.000000	0.005583
860.000000	0.005597
859.000000	0.005607
858.000000	0.005599
857.000000	0.005579
856.000000	0.005561
855.000000	0.005545
854.000000	0.005528
853.000000	0.005509
852.000000	0.005498
851.000000	0.005511
850.000000	0.005547
849.000000	0.005588
848.000000	0.005595
847.000000	0.005536
846.000000	0.005416
845.000000	0.005276
844.000000	0.005160
843.000000	0.005081
842.000000	0.005035
841.000000	0.005024
840.000000	0.005054
839.000000	0.005104
838.000000	0.005131
837.000000	0.005115
836.000000	0.005066
835.000000	0.005010
834.000000	0.004957
833.000000	0.004912
832.000000	0.004885
831.000000	0.004884
830.000000	0.004898
829.000000	0.004912
828.000000	0.004923
827.000000	0.004929
826.000000	0.004933
825.000000	0.004940
824.000000	0.004959
823.000000	0.004985
822.000000	0.004999
821.000000	0.004992
820.000000	0.004972
819.000000	0.004950
818.000000	0.004931
817.000000	0.004928
816.000000	0.004953
815.000000	0.004997
814.000000	0.005031
813.000000	0.005044
812.000000	0.005038
811.000000	0.005010
810.000000	0.004951
809.000000	0.004884
808.000000	0.004854
807.000000	0.004878
806.000000	0.004924
805.000000	0.004965
804.000000	0.005009
803.000000	0.005057
802.000000	0.005065
801.000000	0.004994
800.000000	0.004885
799.000000	0.004828
798.000000	0.004870
797.000000	0.004965
796.000000	0.005041
795.000000	0.005065
794.000000	0.005059
793.000000	0.005053
792.000000	0.005062
791.000000	0.005073
790.000000	0.005067
789.000000	0.005050
788.000000	0.005048
787.000000	0.005076
786.000000	0.005120
785.000000	0.005161
784.000000	0.005206
783.000000	0.005261
782.000000	0.005301
781.000000	0.005291
780.000000	0.005229
779.000000	0.005150
778.000000	0.005093
777.000000	0.005078
776.000000	0.005111
775.000000	0.005185
774.000000	0.005267
773.000000	0.005323
772.000000	0.005344
771.000000	0.005343
770.000000	0.005332
769.000000	0.005313
768.000000	0.005305
767.000000	0.005331
766.000000	0.005387
765.000000	0.005435
764.000000	0.005443
763.000000	0.005417
762.000000	0.005382
761.000000	0.005363
760.000000	0.005372
759.000000	0.005413
758.000000	0.005470
757.000000	0.005515
756.000000	0.005534
755.000000	0.005535
754.000000	0.005533
753.000000	0.005530
752.000000	0.005522
751.000000	0.005506
750.000000	0.005494
749.000000	0.005497
748.000000	0.005522
747.000000	0.005563
746.000000	0.005602
745.000000	0.005632
744.000000	0.005674
743.000000	0.005753
742.000000	0.005863
741.000000	0.005974
740.000000	0.006062
739.000000	0.006119
738.000000	0.006151
737.000000	0.006170
736.000000	0.006202
735.000000	0.006262
734.000000	0.006343
733.000000	0.006418
732.000000	0.006486
731.000000	0.006567
730.000000	0.006668
729.000000	0.006779
728.000000	0.006889
727.000000	0.006995
726.000000	0.007088
725.000000	0.007162
724.000000	0.007240
723.000000	0.007367
722.000000	0.007557
721.000000	0.007765
720.000000	0.007927
719.000000	0.008015
718.000000	0.008050
717.000000	0.008066
716.000000	0.008097
715.000000	0.008181
714.000000	0.008341
713.000000	0.008548
712.000000	0.008729
711.000000	0.008823
710.000000	0.008827
709.000000	0.008806
708.000000	0.008838
707.000000	0.008943
706.000000	0.009076
705.000000	0.009169
704.000000	0.009185
703.000000	0.009135
702.000000	0.009057
701.000000	0.008991
700.000000	0.008967
699.000000	0.008995
698.000000	0.009053
697.000000	0.009098
696.000000	0.009105
695.000000	0.009093
694.000000	0.009094
693.000000	0.009114
692.000000	0.009140
691.000000	0.009162
690.000000	0.009182
689.000000	0.009209
688.000000	0.009236
687.000000	0.009255
686.000000	0.009253
685.000000	0.009235
684.000000	0.009234
683.000000	0.009284
682.000000	0.009372
681.000000	0.009461
680.000000	0.009538
679.000000	0.009632
678.000000	0.009754
677.000000	0.009905
676.000000	0.010083
675.000000	0.010266
674.000000	0.010429
673.000000	0.010575
672.000000	0.010724
671.000000	0.010832
670.000000	0.010780
669.000000	0.010439
668.000000	0.009996
667.000000	0.009944
666.000000	0.010141
665.000000	0.010384
664.000000	0.010617
663.000000	0.010797
662.000000	0.010928
661.000000	0.011029
660.000000	0.011087
659.000000	0.011060
658.000000	0.010945
657.000000	0.010818
656.000000	0.010736
655.000000	0.010682
654.000000	0.010645
653.000000	0.010663
652.000000	0.010726
651.000000	0.010748
650.000000	0.010682
649.000000	0.010587
648.000000	0.010532
647.000000	0.010523
646.000000	0.010565
645.000000	0.010679
644.000000	0.010828
643.000000	0.010911
642.000000	0.010861
641.000000	0.010721
640.000000	0.010576
639.000000	0.010464
638.000000	0.010388
637.000000	0.010348
636.000000	0.010328
635.000000	0.010313
634.000000	0.010324
633.000000	0.010398
632.000000	0.010509
631.000000	0.010582
630.000000	0.010588
629.000000	0.010577
628.000000	0.010600
627.000000	0.010660
626.000000	0.010757
625.000000	0.010892
624.000000	0.011015
623.000000	0.011040
622.000000	0.010961
621.000000	0.010873
620.000000	0.010862
619.000000	0.010899
618.000000	0.010895
617.000000	0.010814
616.000000	0.010694
615.000000	0.010599
614.000000	0.010576
613.000000	0.010636
612.000000	0.010727
611.000000	0.010773
610.000000	0.010757
609.000000	0.010742
608.000000	0.010761
607.000000	0.010760
606.000000	0.010693
605.000000	0.010611
604.000000	0.010602
603.000000	0.010671
602.000000	0.010726
601.000000	0.010693
600.000000	0.010589
599.000000	0.010505
598.000000	0.010517
597.000000	0.010614
596.000000	0.010716
595.000000	0.010753
594.000000	0.010737
593.000000	0.010723
592.000000	0.010728
591.000000	0.010730
590.000000	0.010727
589.000000	0.010742
588.000000	0.010753
587.000000	0.010707
586.000000	0.010600
585.000000	0.010512
584.000000	0.010502
583.000000	0.010539
582.000000	0.010562
581.000000	0.010578
580.000000	0.010646
579.000000	0.010785
578.000000	0.010941
577.000000	0.011047
576.000000	0.011067
575.000000	0.011015
574.000000	0.010941
573.000000	0.010901
572.000000	0.010918
571.000000	0.010968
570.000000	0.011027
569.000000	0.011110
568.000000	0.011243
567.000000	0.011407
566.000000	0.011551
565.000000	0.011650
564.000000	0.011729
563.000000	0.011821
562.000000	0.011917
561.000000	0.011976
560.000000	0.011976
559.000000	0.011951
558.000000	0.011945
557.000000	0.011963
556.000000	0.011955
555.000000	0.011891
554.000000	0.011820
553.000000	0.011809
552.000000	0.011852
551.000000	0.011868
550.000000	0.011798
549.000000	0.011658
548.000000	0.011496
547.000000	0.011353
546.000000	0.011250
545.000000	0.011166
544.000000	0.011047
543.000000	0.010880
542.000000	0.010757
541.000000	0.010786
540.000000	0.010952
539.000000	0.011127
538.000000	0.011225
537.000000	0.011281
536.000000	0.011349
535.000000	0.011422
534.000000	0.011460
533.000000	0.011457
532.000000	0.011406
531.000000	0.011292
530.000000	0.011153
529.000000	0.011067
528.000000	0.011046
527.000000	0.011017
526.000000	0.010940
525.000000	0.010855
524.000000	0.010779
523.000000	0.010663
522.000000	0.010501
521.000000	0.010386
520.000000	0.010394
519.000000	0.010481
518.000000	0.010545
517.000000	0.010529
516.000000	0.010405
515.000000	0.010151
514.000000	0.009822
513.000000	0.009558
512.000000	0.009421
511.000000	0.009308
510.000000	0.009091
509.000000	0.008786
508.000000	0.008473
507.000000	0.008197
506.000000	0.008007
505.000000	0.007987
504.000000	0.008130
503.000000	0.008279
502.000000	0.008299
501.000000	0.008253
500.000000	0.008265
499.000000	0.008300
498.000000	0.008220
497.000000	0.008002
496.000000	0.007750
495.000000	0.007542
494.000000	0.007371
493.000000	0.007214
492.000000	0.007064
491.000000	0.006920
490.000000	0.006809
489.000000	0.006785
488.000000	0.006828
487.000000	0.006818
486.000000	0.006707
485.000000	0.006637
484.000000	0.006760
483.000000	0.007001
482.000000	0.007145
481.000000	0.007111
480.000000	0.006995
479.000000	0.006888
478.000000	0.006769
477.000000	0.006595
476.000000	0.006365
475.000000	0.006098
474.000000	0.005831
473.000000	0.005683
472.000000	0.005791
471.000000	0.006146
470.000000	0.006543
469.000000	0.006764
468.000000	0.006745
467.000000	0.006557
466.000000	0.006332
465.000000	0.006212
464.000000	0.006249
463.000000	0.006353
462.000000	0.006373
461.000000	0.006214
460.000000	0.005857
459.000000	0.005311
458.000000	0.004706
457.000000	0.004369
456.000000	0.004501
455.000000	0.004898
454.000000	0.005199
453.000000	0.005251
452.000000	0.005186
451.000000	0.005158
450.000000	0.004940
