PE IR       SUBTECH     SPECTRUM    ASCII       PEDS        4.00        
   -1
3G-H10-F026_1.ASC
22/02/23
15:43:14.00
22/02/23
15:55:22.00
uco
Sample 026 By uco Date Wednesday, February 23 2022
450.000000
#HDR
-1
-1
#GR
cm-1
A
1.0
0.0
4000.000000
-1.000000
3551
8
0.054762
0.006347
#DATA
4000.000000	0.006738
3999.000000	0.006697
3998.000000	0.006660
3997.000000	0.006639
3996.000000	0.006638
3995.000000	0.006651
3994.000000	0.006835
3993.000000	0.006855
3992.000000	0.006872
3991.000000	0.006888
3990.000000	0.006899
3989.000000	0.006907
3988.000000	0.006920
3987.000000	0.006938
3986.000000	0.006957
3985.000000	0.006967
3984.000000	0.006967
3983.000000	0.006965
3982.000000	0.006964
3981.000000	0.006962
3980.000000	0.006954
3979.000000	0.006940
3978.000000	0.006928
3977.000000	0.006928
3976.000000	0.006943
3975.000000	0.006969
3974.000000	0.006993
3973.000000	0.007004
3972.000000	0.006998
3971.000000	0.006981
3970.000000	0.006963
3969.000000	0.006951
3968.000000	0.006946
3967.000000	0.006949
3966.000000	0.006957
3965.000000	0.006966
3964.000000	0.006970
3963.000000	0.006964
3962.000000	0.006953
3961.000000	0.006947
3960.000000	0.006956
3959.000000	0.006981
3958.000000	0.007012
3957.000000	0.007035
3956.000000	0.007043
3955.000000	0.007043
3954.000000	0.007046
3953.000000	0.007056
3952.000000	0.007067
3951.000000	0.007071
3950.000000	0.007058
3949.000000	0.007030
3948.000000	0.006995
3947.000000	0.006973
3946.000000	0.006977
3945.000000	0.007007
3944.000000	0.007045
3943.000000	0.007068
3942.000000	0.007069
3941.000000	0.007061
3940.000000	0.007060
3939.000000	0.007069
3938.000000	0.007075
3937.000000	0.007063
3936.000000	0.007034
3935.000000	0.007005
3934.000000	0.006999
3933.000000	0.007032
3932.000000	0.007092
3931.000000	0.007152
3930.000000	0.007185
3929.000000	0.007186
3928.000000	0.007172
3927.000000	0.007160
3926.000000	0.007152
3925.000000	0.007137
3924.000000	0.007108
3923.000000	0.007071
3922.000000	0.007042
3921.000000	0.007027
3920.000000	0.007020
3919.000000	0.007010
3918.000000	0.006995
3917.000000	0.006984
3916.000000	0.006982
3915.000000	0.006995
3914.000000	0.007022
3913.000000	0.007062
3912.000000	0.007104
3911.000000	0.007135
3910.000000	0.007150
3909.000000	0.007158
3908.000000	0.007170
3907.000000	0.007182
3906.000000	0.007170
3905.000000	0.007111
3904.000000	0.007005
3903.000000	0.006897
3902.000000	0.006845
3901.000000	0.006867
3900.000000	0.006939
3899.000000	0.007015
3898.000000	0.007058
3897.000000	0.007066
3896.000000	0.007052
3895.000000	0.007037
3894.000000	0.007037
3893.000000	0.007058
3892.000000	0.007081
3891.000000	0.007084
3890.000000	0.007056
3889.000000	0.007011
3888.000000	0.006970
3887.000000	0.006954
3886.000000	0.006970
3885.000000	0.006996
3884.000000	0.007015
3883.000000	0.007033
3882.000000	0.007062
3881.000000	0.007089
3880.000000	0.007094
3879.000000	0.007076
3878.000000	0.007059
3877.000000	0.007063
3876.000000	0.007093
3875.000000	0.007136
3874.000000	0.007160
3873.000000	0.007145
3872.000000	0.007100
3871.000000	0.007055
3870.000000	0.007028
3869.000000	0.007020
3868.000000	0.007024
3867.000000	0.007035
3866.000000	0.007056
3865.000000	0.007080
3864.000000	0.007083
3863.000000	0.007056
3862.000000	0.007026
3861.000000	0.007017
3860.000000	0.007039
3859.000000	0.007091
3858.000000	0.007169
3857.000000	0.007259
3856.000000	0.007327
3855.000000	0.007345
3854.000000	0.007296
3853.000000	0.007198
3852.000000	0.007109
3851.000000	0.007068
3850.000000	0.007061
3849.000000	0.007068
3848.000000	0.007071
3847.000000	0.007065
3846.000000	0.007054
3845.000000	0.007043
3844.000000	0.007032
3843.000000	0.007023
3842.000000	0.007017
3841.000000	0.007027
3840.000000	0.007063
3839.000000	0.007116
3838.000000	0.007166
3837.000000	0.007201
3836.000000	0.007211
3835.000000	0.007194
3834.000000	0.007151
3833.000000	0.007099
3832.000000	0.007060
3831.000000	0.007046
3830.000000	0.007056
3829.000000	0.007086
3828.000000	0.007129
3827.000000	0.007168
3826.000000	0.007177
3825.000000	0.007141
3824.000000	0.007065
3823.000000	0.006992
3822.000000	0.006966
3821.000000	0.006980
3820.000000	0.006995
3819.000000	0.007001
3818.000000	0.007016
3817.000000	0.007051
3816.000000	0.007106
3815.000000	0.007162
3814.000000	0.007202
3813.000000	0.007220
3812.000000	0.007216
3811.000000	0.007186
3810.000000	0.007136
3809.000000	0.007079
3808.000000	0.007034
3807.000000	0.007009
3806.000000	0.006995
3805.000000	0.006988
3804.000000	0.006996
3803.000000	0.007027
3802.000000	0.007072
3801.000000	0.007101
3800.000000	0.007103
3799.000000	0.007102
3798.000000	0.007116
3797.000000	0.007147
3796.000000	0.007183
3795.000000	0.007215
3794.000000	0.007238
3793.000000	0.007254
3792.000000	0.007263
3791.000000	0.007265
3790.000000	0.007263
3789.000000	0.007256
3788.000000	0.007250
3787.000000	0.007248
3786.000000	0.007250
3785.000000	0.007247
3784.000000	0.007232
3783.000000	0.007206
3782.000000	0.007186
3781.000000	0.007189
3780.000000	0.007217
3779.000000	0.007251
3778.000000	0.007275
3777.000000	0.007287
3776.000000	0.007287
3775.000000	0.007275
3774.000000	0.007253
3773.000000	0.007223
3772.000000	0.007191
3771.000000	0.007162
3770.000000	0.007132
3769.000000	0.007096
3768.000000	0.007061
3767.000000	0.007043
3766.000000	0.007050
3765.000000	0.007076
3764.000000	0.007105
3763.000000	0.007122
3762.000000	0.007121
3761.000000	0.007113
3760.000000	0.007100
3759.000000	0.007076
3758.000000	0.007048
3757.000000	0.007029
3756.000000	0.007015
3755.000000	0.006987
3754.000000	0.006925
3753.000000	0.006844
3752.000000	0.006784
3751.000000	0.006766
3750.000000	0.006783
3749.000000	0.006814
3748.000000	0.006841
3747.000000	0.006854
3746.000000	0.006861
3745.000000	0.006880
3744.000000	0.006909
3743.000000	0.006920
3742.000000	0.006902
3741.000000	0.006863
3740.000000	0.006811
3739.000000	0.006747
3738.000000	0.006689
3737.000000	0.006662
3736.000000	0.006672
3735.000000	0.006681
3734.000000	0.006662
3733.000000	0.006649
3732.000000	0.006680
3731.000000	0.006747
3730.000000	0.006821
3729.000000	0.006880
3728.000000	0.006921
3727.000000	0.006952
3726.000000	0.006978
3725.000000	0.006997
3724.000000	0.007011
3723.000000	0.007020
3722.000000	0.007013
3721.000000	0.006990
3720.000000	0.006962
3719.000000	0.006943
3718.000000	0.006935
3717.000000	0.006934
3716.000000	0.006927
3715.000000	0.006907
3714.000000	0.006883
3713.000000	0.006875
3712.000000	0.006881
3711.000000	0.006878
3710.000000	0.006856
3709.000000	0.006833
3708.000000	0.006820
3707.000000	0.006820
3706.000000	0.006830
3705.000000	0.006854
3704.000000	0.006897
3703.000000	0.006951
3702.000000	0.006999
3701.000000	0.007023
3700.000000	0.007033
3699.000000	0.007042
3698.000000	0.007053
3697.000000	0.007061
3696.000000	0.007054
3695.000000	0.007026
3694.000000	0.006982
3693.000000	0.006938
3692.000000	0.006904
3691.000000	0.006876
3690.000000	0.006843
3689.000000	0.006820
3688.000000	0.006835
3687.000000	0.006882
3686.000000	0.006926
3685.000000	0.006947
3684.000000	0.006948
3683.000000	0.006938
3682.000000	0.006937
3681.000000	0.006954
3680.000000	0.006990
3679.000000	0.007019
3678.000000	0.007017
3677.000000	0.006994
3676.000000	0.006979
3675.000000	0.006966
3674.000000	0.006937
3673.000000	0.006901
3672.000000	0.006871
3671.000000	0.006871
3670.000000	0.006905
3669.000000	0.006951
3668.000000	0.007004
3667.000000	0.007074
3666.000000	0.007149
3665.000000	0.007213
3664.000000	0.007259
3663.000000	0.007292
3662.000000	0.007315
3661.000000	0.007319
3660.000000	0.007293
3659.000000	0.007244
3658.000000	0.007200
3657.000000	0.007196
3656.000000	0.007229
3655.000000	0.007261
3654.000000	0.007255
3653.000000	0.007201
3652.000000	0.007126
3651.000000	0.007082
3650.000000	0.007109
3649.000000	0.007187
3648.000000	0.007284
3647.000000	0.007385
3646.000000	0.007473
3645.000000	0.007543
3644.000000	0.007600
3643.000000	0.007648
3642.000000	0.007687
3641.000000	0.007710
3640.000000	0.007719
3639.000000	0.007724
3638.000000	0.007732
3637.000000	0.007742
3636.000000	0.007752
3635.000000	0.007766
3634.000000	0.007785
3633.000000	0.007804
3632.000000	0.007815
3631.000000	0.007829
3630.000000	0.007863
3629.000000	0.007905
3628.000000	0.007919
3627.000000	0.007912
3626.000000	0.007920
3625.000000	0.007948
3624.000000	0.007981
3623.000000	0.008004
3622.000000	0.008017
3621.000000	0.008038
3620.000000	0.008080
3619.000000	0.008128
3618.000000	0.008163
3617.000000	0.008189
3616.000000	0.008218
3615.000000	0.008253
3614.000000	0.008286
3613.000000	0.008297
3612.000000	0.008283
3611.000000	0.008265
3610.000000	0.008276
3609.000000	0.008338
3608.000000	0.008438
3607.000000	0.008542
3606.000000	0.008632
3605.000000	0.008711
3604.000000	0.008788
3603.000000	0.008863
3602.000000	0.008924
3601.000000	0.008957
3600.000000	0.008962
3599.000000	0.008955
3598.000000	0.008966
3597.000000	0.009021
3596.000000	0.009116
3595.000000	0.009219
3594.000000	0.009286
3593.000000	0.009298
3592.000000	0.009270
3591.000000	0.009228
3590.000000	0.009201
3589.000000	0.009211
3588.000000	0.009258
3587.000000	0.009322
3586.000000	0.009391
3585.000000	0.009471
3584.000000	0.009563
3583.000000	0.009662
3582.000000	0.009757
3581.000000	0.009844
3580.000000	0.009921
3579.000000	0.009987
3578.000000	0.010046
3577.000000	0.010103
3576.000000	0.010159
3575.000000	0.010208
3574.000000	0.010248
3573.000000	0.010277
3572.000000	0.010294
3571.000000	0.010297
3570.000000	0.010295
3569.000000	0.010316
3568.000000	0.010386
3567.000000	0.010496
3566.000000	0.010612
3565.000000	0.010715
3564.000000	0.010812
3563.000000	0.010910
3562.000000	0.011006
3561.000000	0.011089
3560.000000	0.011149
3559.000000	0.011185
3558.000000	0.011212
3557.000000	0.011248
3556.000000	0.011305
3555.000000	0.011378
3554.000000	0.011455
3553.000000	0.011524
3552.000000	0.011578
3551.000000	0.011617
3550.000000	0.011646
3549.000000	0.011679
3548.000000	0.011732
3547.000000	0.011815
3546.000000	0.011913
3545.000000	0.012007
3544.000000	0.012085
3543.000000	0.012156
3542.000000	0.012229
3541.000000	0.012307
3540.000000	0.012383
3539.000000	0.012451
3538.000000	0.012509
3537.000000	0.012557
3536.000000	0.012596
3535.000000	0.012632
3534.000000	0.012669
3533.000000	0.012713
3532.000000	0.012762
3531.000000	0.012815
3530.000000	0.012864
3529.000000	0.012905
3528.000000	0.012939
3527.000000	0.012976
3526.000000	0.013025
3525.000000	0.013090
3524.000000	0.013166
3523.000000	0.013249
3522.000000	0.013336
3521.000000	0.013423
3520.000000	0.013507
3519.000000	0.013583
3518.000000	0.013643
3517.000000	0.013686
3516.000000	0.013718
3515.000000	0.013748
3514.000000	0.013787
3513.000000	0.013839
3512.000000	0.013900
3511.000000	0.013964
3510.000000	0.014018
3509.000000	0.014059
3508.000000	0.014091
3507.000000	0.014122
3506.000000	0.014163
3505.000000	0.014219
3504.000000	0.014282
3503.000000	0.014339
3502.000000	0.014382
3501.000000	0.014417
3500.000000	0.014459
3499.000000	0.014519
3498.000000	0.014597
3497.000000	0.014679
3496.000000	0.014752
3495.000000	0.014814
3494.000000	0.014871
3493.000000	0.014927
3492.000000	0.014982
3491.000000	0.015032
3490.000000	0.015074
3489.000000	0.015109
3488.000000	0.015141
3487.000000	0.015180
3486.000000	0.015234
3485.000000	0.015299
3484.000000	0.015360
3483.000000	0.015407
3482.000000	0.015436
3481.000000	0.015459
3480.000000	0.015486
3479.000000	0.015523
3478.000000	0.015569
3477.000000	0.015621
3476.000000	0.015679
3475.000000	0.015737
3474.000000	0.015793
3473.000000	0.015845
3472.000000	0.015896
3471.000000	0.015947
3470.000000	0.015998
3469.000000	0.016049
3468.000000	0.016099
3467.000000	0.016143
3466.000000	0.016176
3465.000000	0.016205
3464.000000	0.016240
3463.000000	0.016293
3462.000000	0.016365
3461.000000	0.016448
3460.000000	0.016531
3459.000000	0.016607
3458.000000	0.016670
3457.000000	0.016713
3456.000000	0.016735
3455.000000	0.016739
3454.000000	0.016740
3453.000000	0.016749
3452.000000	0.016776
3451.000000	0.016821
3450.000000	0.016884
3449.000000	0.016964
3448.000000	0.017051
3447.000000	0.017133
3446.000000	0.017197
3445.000000	0.017243
3444.000000	0.017282
3443.000000	0.017323
3442.000000	0.017369
3441.000000	0.017422
3440.000000	0.017481
3439.000000	0.017544
3438.000000	0.017609
3437.000000	0.017668
3436.000000	0.017719
3435.000000	0.017764
3434.000000	0.017809
3433.000000	0.017853
3432.000000	0.017895
3431.000000	0.017931
3430.000000	0.017960
3429.000000	0.017989
3428.000000	0.018031
3427.000000	0.018100
3426.000000	0.018196
3425.000000	0.018302
3424.000000	0.018398
3423.000000	0.018472
3422.000000	0.018530
3421.000000	0.018582
3420.000000	0.018631
3419.000000	0.018673
3418.000000	0.018706
3417.000000	0.018733
3416.000000	0.018767
3415.000000	0.018818
3414.000000	0.018885
3413.000000	0.018953
3412.000000	0.019008
3411.000000	0.019047
3410.000000	0.019079
3409.000000	0.019108
3408.000000	0.019138
3407.000000	0.019177
3406.000000	0.019236
3405.000000	0.019313
3404.000000	0.019393
3403.000000	0.019462
3402.000000	0.019515
3401.000000	0.019559
3400.000000	0.019599
3399.000000	0.019638
3398.000000	0.019682
3397.000000	0.019737
3396.000000	0.019804
3395.000000	0.019874
3394.000000	0.019941
3393.000000	0.020001
3392.000000	0.020058
3391.000000	0.020113
3390.000000	0.020160
3389.000000	0.020198
3388.000000	0.020231
3387.000000	0.020272
3386.000000	0.020329
3385.000000	0.020398
3384.000000	0.020468
3383.000000	0.020533
3382.000000	0.020593
3381.000000	0.020649
3380.000000	0.020699
3379.000000	0.020739
3378.000000	0.020773
3377.000000	0.020807
3376.000000	0.020845
3375.000000	0.020888
3374.000000	0.020940
3373.000000	0.021003
3372.000000	0.021076
3371.000000	0.021155
3370.000000	0.021236
3369.000000	0.021322
3368.000000	0.021415
3367.000000	0.021516
3366.000000	0.021620
3365.000000	0.021721
3364.000000	0.021811
3363.000000	0.021885
3362.000000	0.021945
3361.000000	0.021994
3360.000000	0.022037
3359.000000	0.022083
3358.000000	0.022145
3357.000000	0.022233
3356.000000	0.022348
3355.000000	0.022479
3354.000000	0.022606
3353.000000	0.022714
3352.000000	0.022800
3351.000000	0.022871
3350.000000	0.022940
3349.000000	0.023015
3348.000000	0.023094
3347.000000	0.023173
3346.000000	0.023252
3345.000000	0.023333
3344.000000	0.023416
3343.000000	0.023496
3342.000000	0.023568
3341.000000	0.023630
3340.000000	0.023690
3339.000000	0.023754
3338.000000	0.023829
3337.000000	0.023914
3336.000000	0.024006
3335.000000	0.024096
3334.000000	0.024180
3333.000000	0.024255
3332.000000	0.024319
3331.000000	0.024372
3330.000000	0.024414
3329.000000	0.024451
3328.000000	0.024491
3327.000000	0.024543
3326.000000	0.024615
3325.000000	0.024706
3324.000000	0.024803
3323.000000	0.024895
3322.000000	0.024976
3321.000000	0.025047
3320.000000	0.025109
3319.000000	0.025161
3318.000000	0.025199
3317.000000	0.025226
3316.000000	0.025251
3315.000000	0.025284
3314.000000	0.025329
3313.000000	0.025380
3312.000000	0.025426
3311.000000	0.025462
3310.000000	0.025491
3309.000000	0.025517
3308.000000	0.025540
3307.000000	0.025560
3306.000000	0.025580
3305.000000	0.025615
3304.000000	0.025672
3303.000000	0.025749
3302.000000	0.025829
3301.000000	0.025892
3300.000000	0.025931
3299.000000	0.025945
3298.000000	0.025948
3297.000000	0.025953
3296.000000	0.025974
3295.000000	0.026015
3294.000000	0.026061
3293.000000	0.026093
3292.000000	0.026102
3291.000000	0.026097
3290.000000	0.026099
3289.000000	0.026119
3288.000000	0.026154
3287.000000	0.026190
3286.000000	0.026216
3285.000000	0.026227
3284.000000	0.026226
3283.000000	0.026215
3282.000000	0.026204
3281.000000	0.026192
3280.000000	0.026176
3279.000000	0.026151
3278.000000	0.026121
3277.000000	0.026089
3276.000000	0.026058
3275.000000	0.026017
3274.000000	0.025961
3273.000000	0.025893
3272.000000	0.025826
3271.000000	0.025775
3270.000000	0.025743
3269.000000	0.025726
3268.000000	0.025714
3267.000000	0.025696
3266.000000	0.025664
3265.000000	0.025616
3264.000000	0.025556
3263.000000	0.025494
3262.000000	0.025437
3261.000000	0.025383
3260.000000	0.025325
3259.000000	0.025259
3258.000000	0.025187
3257.000000	0.025119
3256.000000	0.025057
3255.000000	0.024999
3254.000000	0.024935
3253.000000	0.024863
3252.000000	0.024789
3251.000000	0.024721
3250.000000	0.024658
3249.000000	0.024595
3248.000000	0.024534
3247.000000	0.024488
3246.000000	0.024468
3245.000000	0.024466
3244.000000	0.024462
3243.000000	0.024438
3242.000000	0.024395
3241.000000	0.024341
3240.000000	0.024280
3239.000000	0.024209
3238.000000	0.024133
3237.000000	0.024061
3236.000000	0.024001
3235.000000	0.023944
3234.000000	0.023882
3233.000000	0.023818
3232.000000	0.023766
3231.000000	0.023735
3230.000000	0.023719
3229.000000	0.023705
3228.000000	0.023678
3227.000000	0.023636
3226.000000	0.023586
3225.000000	0.023541
3224.000000	0.023509
3223.000000	0.023490
3222.000000	0.023472
3221.000000	0.023446
3220.000000	0.023407
3219.000000	0.023359
3218.000000	0.023304
3217.000000	0.023245
3216.000000	0.023181
3215.000000	0.023119
3214.000000	0.023063
3213.000000	0.023017
3212.000000	0.022978
3211.000000	0.022939
3210.000000	0.022899
3209.000000	0.022857
3208.000000	0.022817
3207.000000	0.022777
3206.000000	0.022737
3205.000000	0.022699
3204.000000	0.022667
3203.000000	0.022634
3202.000000	0.022593
3201.000000	0.022537
3200.000000	0.022471
3199.000000	0.022406
3198.000000	0.022351
3197.000000	0.022306
3196.000000	0.022263
3195.000000	0.022213
3194.000000	0.022155
3193.000000	0.022094
3192.000000	0.022037
3191.000000	0.021985
3190.000000	0.021930
3189.000000	0.021866
3188.000000	0.021797
3187.000000	0.021736
3186.000000	0.021690
3185.000000	0.021657
3184.000000	0.021628
3183.000000	0.021588
3182.000000	0.021529
3181.000000	0.021446
3180.000000	0.021342
3179.000000	0.021228
3178.000000	0.021125
3177.000000	0.021048
3176.000000	0.021000
3175.000000	0.020966
3174.000000	0.020927
3173.000000	0.020872
3172.000000	0.020802
3171.000000	0.020725
3170.000000	0.020649
3169.000000	0.020580
3168.000000	0.020521
3167.000000	0.020473
3166.000000	0.020425
3165.000000	0.020369
3164.000000	0.020303
3163.000000	0.020236
3162.000000	0.020177
3161.000000	0.020122
3160.000000	0.020062
3159.000000	0.019988
3158.000000	0.019905
3157.000000	0.019821
3156.000000	0.019743
3155.000000	0.019668
3154.000000	0.019595
3153.000000	0.019529
3152.000000	0.019480
3151.000000	0.019449
3150.000000	0.019428
3149.000000	0.019406
3148.000000	0.019380
3147.000000	0.019350
3146.000000	0.019313
3145.000000	0.019262
3144.000000	0.019195
3143.000000	0.019116
3142.000000	0.019040
3141.000000	0.018984
3140.000000	0.018953
3139.000000	0.018942
3138.000000	0.018933
3137.000000	0.018912
3136.000000	0.018873
3135.000000	0.018826
3134.000000	0.018779
3133.000000	0.018736
3132.000000	0.018691
3131.000000	0.018642
3130.000000	0.018591
3129.000000	0.018545
3128.000000	0.018510
3127.000000	0.018486
3126.000000	0.018472
3125.000000	0.018464
3124.000000	0.018452
3123.000000	0.018428
3122.000000	0.018394
3121.000000	0.018358
3120.000000	0.018324
3119.000000	0.018289
3118.000000	0.018248
3117.000000	0.018206
3116.000000	0.018176
3115.000000	0.018171
3114.000000	0.018194
3113.000000	0.018234
3112.000000	0.018274
3111.000000	0.018301
3110.000000	0.018315
3109.000000	0.018326
3108.000000	0.018339
3107.000000	0.018352
3106.000000	0.018363
3105.000000	0.018376
3104.000000	0.018390
3103.000000	0.018396
3102.000000	0.018390
3101.000000	0.018376
3100.000000	0.018366
3099.000000	0.018367
3098.000000	0.018382
3097.000000	0.018406
3096.000000	0.018436
3095.000000	0.018465
3094.000000	0.018488
3093.000000	0.018507
3092.000000	0.018523
3091.000000	0.018539
3090.000000	0.018551
3089.000000	0.018550
3088.000000	0.018539
3087.000000	0.018526
3086.000000	0.018524
3085.000000	0.018538
3084.000000	0.018567
3083.000000	0.018598
3082.000000	0.018620
3081.000000	0.018623
3080.000000	0.018604
3079.000000	0.018571
3078.000000	0.018540
3077.000000	0.018528
3076.000000	0.018544
3075.000000	0.018582
3074.000000	0.018627
3073.000000	0.018663
3072.000000	0.018676
3071.000000	0.018661
3070.000000	0.018623
3069.000000	0.018574
3068.000000	0.018531
3067.000000	0.018503
3066.000000	0.018496
3065.000000	0.018503
3064.000000	0.018510
3063.000000	0.018505
3062.000000	0.018483
3061.000000	0.018447
3060.000000	0.018412
3059.000000	0.018383
3058.000000	0.018355
3057.000000	0.018320
3056.000000	0.018274
3055.000000	0.018221
3054.000000	0.018163
3053.000000	0.018095
3052.000000	0.018015
3051.000000	0.017938
3050.000000	0.017886
3049.000000	0.017862
3048.000000	0.017846
3047.000000	0.017816
3046.000000	0.017758
3045.000000	0.017681
3044.000000	0.017601
3043.000000	0.017530
3042.000000	0.017474
3041.000000	0.017432
3040.000000	0.017397
3039.000000	0.017357
3038.000000	0.017305
3037.000000	0.017241
3036.000000	0.017176
3035.000000	0.017120
3034.000000	0.017070
3033.000000	0.017014
3032.000000	0.016946
3031.000000	0.016875
3030.000000	0.016825
3029.000000	0.016802
3028.000000	0.016794
3027.000000	0.016776
3026.000000	0.016738
3025.000000	0.016690
3024.000000	0.016645
3023.000000	0.016605
3022.000000	0.016559
3021.000000	0.016500
3020.000000	0.016432
3019.000000	0.016361
3018.000000	0.016292
3017.000000	0.016232
3016.000000	0.016189
3015.000000	0.016170
3014.000000	0.016177
3013.000000	0.016197
3012.000000	0.016216
3011.000000	0.016225
3010.000000	0.016229
3009.000000	0.016233
3008.000000	0.016234
3007.000000	0.016231
3006.000000	0.016226
3005.000000	0.016225
3004.000000	0.016228
3003.000000	0.016234
3002.000000	0.016242
3001.000000	0.016253
3000.000000	0.016268
2999.000000	0.016288
2998.000000	0.016320
2997.000000	0.016367
2996.000000	0.016432
2995.000000	0.016511
2994.000000	0.016602
2993.000000	0.016703
2992.000000	0.016805
2991.000000	0.016900
2990.000000	0.016986
2989.000000	0.017080
2988.000000	0.017200
2987.000000	0.017353
2986.000000	0.017525
2985.000000	0.017697
2984.000000	0.017855
2983.000000	0.018005
2982.000000	0.018152
2981.000000	0.018302
2980.000000	0.018454
2979.000000	0.018612
2978.000000	0.018784
2977.000000	0.018970
2976.000000	0.019167
2975.000000	0.019368
2974.000000	0.019571
2973.000000	0.019775
2972.000000	0.019980
2971.000000	0.020189
2970.000000	0.020409
2969.000000	0.020646
2968.000000	0.020897
2967.000000	0.021146
2966.000000	0.021381
2965.000000	0.021590
2964.000000	0.021773
2963.000000	0.021936
2962.000000	0.022087
2961.000000	0.022232
2960.000000	0.022368
2959.000000	0.022495
2958.000000	0.022613
2957.000000	0.022726
2956.000000	0.022830
2955.000000	0.022918
2954.000000	0.022985
2953.000000	0.023032
2952.000000	0.023061
2951.000000	0.023076
2950.000000	0.023088
2949.000000	0.023117
2948.000000	0.023182
2947.000000	0.023283
2946.000000	0.023406
2945.000000	0.023537
2944.000000	0.023676
2943.000000	0.023832
2942.000000	0.024019
2941.000000	0.024249
2940.000000	0.024527
2939.000000	0.024850
2938.000000	0.025207
2937.000000	0.025580
2936.000000	0.025955
2935.000000	0.026334
2934.000000	0.026732
2933.000000	0.027162
2932.000000	0.027620
2931.000000	0.028085
2930.000000	0.028540
2929.000000	0.028979
2928.000000	0.029407
2927.000000	0.029829
2926.000000	0.030238
2925.000000	0.030620
2924.000000	0.030960
2923.000000	0.031248
2922.000000	0.031482
2921.000000	0.031653
2920.000000	0.031735
2919.000000	0.031689
2918.000000	0.031475
2917.000000	0.031074
2916.000000	0.030493
2915.000000	0.029769
2914.000000	0.028959
2913.000000	0.028127
2912.000000	0.027334
2911.000000	0.026622
2910.000000	0.026010
2909.000000	0.025491
2908.000000	0.025046
2907.000000	0.024660
2906.000000	0.024327
2905.000000	0.024040
2904.000000	0.023782
2903.000000	0.023540
2902.000000	0.023309
2901.000000	0.023098
2900.000000	0.022902
2899.000000	0.022709
2898.000000	0.022505
2897.000000	0.022294
2896.000000	0.022093
2895.000000	0.021914
2894.000000	0.021761
2893.000000	0.021626
2892.000000	0.021499
2891.000000	0.021379
2890.000000	0.021273
2889.000000	0.021181
2888.000000	0.021095
2887.000000	0.021001
2886.000000	0.020900
2885.000000	0.020803
2884.000000	0.020725
2883.000000	0.020670
2882.000000	0.020634
2881.000000	0.020613
2880.000000	0.020610
2879.000000	0.020621
2878.000000	0.020644
2877.000000	0.020671
2876.000000	0.020694
2875.000000	0.020707
2874.000000	0.020707
2873.000000	0.020696
2872.000000	0.020675
2871.000000	0.020643
2870.000000	0.020599
2869.000000	0.020551
2868.000000	0.020506
2867.000000	0.020471
2866.000000	0.020451
2865.000000	0.020450
2864.000000	0.020473
2863.000000	0.020530
2862.000000	0.020633
2861.000000	0.020800
2860.000000	0.021037
2859.000000	0.021339
2858.000000	0.021697
2857.000000	0.022103
2856.000000	0.022554
2855.000000	0.023043
2854.000000	0.023544
2853.000000	0.024012
2852.000000	0.024379
2851.000000	0.024562
2850.000000	0.024488
2849.000000	0.024127
2848.000000	0.023510
2847.000000	0.022718
2846.000000	0.021857
2845.000000	0.021022
2844.000000	0.020280
2843.000000	0.019660
2842.000000	0.019160
2841.000000	0.018755
2840.000000	0.018415
2839.000000	0.018113
2838.000000	0.017843
2837.000000	0.017606
2836.000000	0.017405
2835.000000	0.017237
2834.000000	0.017092
2833.000000	0.016963
2832.000000	0.016847
2831.000000	0.016737
2830.000000	0.016631
2829.000000	0.016529
2828.000000	0.016437
2827.000000	0.016356
2826.000000	0.016280
2825.000000	0.016202
2824.000000	0.016117
2823.000000	0.016029
2822.000000	0.015943
2821.000000	0.015867
2820.000000	0.015800
2819.000000	0.015736
2818.000000	0.015668
2817.000000	0.015593
2816.000000	0.015517
2815.000000	0.015454
2814.000000	0.015410
2813.000000	0.015382
2812.000000	0.015353
2811.000000	0.015312
2810.000000	0.015262
2809.000000	0.015212
2808.000000	0.015164
2807.000000	0.015119
2806.000000	0.015086
2805.000000	0.015068
2804.000000	0.015058
2803.000000	0.015039
2802.000000	0.015007
2801.000000	0.014972
2800.000000	0.014944
2799.000000	0.014919
2798.000000	0.014890
2797.000000	0.014854
2796.000000	0.014817
2795.000000	0.014780
2794.000000	0.014743
2793.000000	0.014704
2792.000000	0.014668
2791.000000	0.014639
2790.000000	0.014614
2789.000000	0.014586
2788.000000	0.014550
2787.000000	0.014507
2786.000000	0.014469
2785.000000	0.014443
2784.000000	0.014426
2783.000000	0.014406
2782.000000	0.014374
2781.000000	0.014334
2780.000000	0.014298
2779.000000	0.014273
2778.000000	0.014256
2777.000000	0.014237
2776.000000	0.014208
2775.000000	0.014169
2774.000000	0.014128
2773.000000	0.014093
2772.000000	0.014069
2771.000000	0.014049
2770.000000	0.014028
2769.000000	0.014008
2768.000000	0.013990
2767.000000	0.013975
2766.000000	0.013961
2765.000000	0.013948
2764.000000	0.013941
2763.000000	0.013939
2762.000000	0.013938
2761.000000	0.013931
2760.000000	0.013912
2759.000000	0.013878
2758.000000	0.013833
2757.000000	0.013783
2756.000000	0.013742
2755.000000	0.013715
2754.000000	0.013701
2753.000000	0.013692
2752.000000	0.013678
2751.000000	0.013655
2750.000000	0.013626
2749.000000	0.013597
2748.000000	0.013573
2747.000000	0.013556
2746.000000	0.013545
2745.000000	0.013538
2744.000000	0.013529
2743.000000	0.013515
2742.000000	0.013493
2741.000000	0.013464
2740.000000	0.013432
2739.000000	0.013405
2738.000000	0.013389
2737.000000	0.013381
2736.000000	0.013376
2735.000000	0.013372
2734.000000	0.013370
2733.000000	0.013364
2732.000000	0.013346
2731.000000	0.013312
2730.000000	0.013273
2729.000000	0.013248
2728.000000	0.013241
2727.000000	0.013239
2726.000000	0.013229
2725.000000	0.013207
2724.000000	0.013177
2723.000000	0.013147
2722.000000	0.013122
2721.000000	0.013105
2720.000000	0.013091
2719.000000	0.013072
2718.000000	0.013049
2717.000000	0.013033
2716.000000	0.013032
2715.000000	0.013039
2714.000000	0.013037
2713.000000	0.013018
2712.000000	0.012987
2711.000000	0.012956
2710.000000	0.012933
2709.000000	0.012920
2708.000000	0.012911
2707.000000	0.012901
2706.000000	0.012888
2705.000000	0.012874
2704.000000	0.012862
2703.000000	0.012851
2702.000000	0.012842
2701.000000	0.012840
2700.000000	0.012839
2699.000000	0.012830
2698.000000	0.012806
2697.000000	0.012773
2696.000000	0.012747
2695.000000	0.012738
2694.000000	0.012742
2693.000000	0.012748
2692.000000	0.012752
2691.000000	0.012752
2690.000000	0.012746
2689.000000	0.012734
2688.000000	0.012715
2687.000000	0.012693
2686.000000	0.012677
2685.000000	0.012672
2684.000000	0.012674
2683.000000	0.012675
2682.000000	0.012675
2681.000000	0.012683
2680.000000	0.012700
2679.000000	0.012713
2678.000000	0.012701
2677.000000	0.012662
2676.000000	0.012618
2675.000000	0.012592
2674.000000	0.012591
2673.000000	0.012603
2672.000000	0.012612
2671.000000	0.012609
2670.000000	0.012597
2669.000000	0.012586
2668.000000	0.012585
2667.000000	0.012593
2666.000000	0.012603
2665.000000	0.012609
2664.000000	0.012606
2663.000000	0.012596
2662.000000	0.012580
2661.000000	0.012558
2660.000000	0.012533
2659.000000	0.012508
2658.000000	0.012488
2657.000000	0.012471
2656.000000	0.012456
2655.000000	0.012444
2654.000000	0.012434
2653.000000	0.012425
2652.000000	0.012412
2651.000000	0.012391
2650.000000	0.012363
2649.000000	0.012330
2648.000000	0.012295
2647.000000	0.012256
2646.000000	0.012214
2645.000000	0.012173
2644.000000	0.012143
2643.000000	0.012130
2642.000000	0.012126
2641.000000	0.012120
2640.000000	0.012100
2639.000000	0.012066
2638.000000	0.012029
2637.000000	0.012000
2636.000000	0.011984
2635.000000	0.011979
2634.000000	0.011978
2633.000000	0.011973
2632.000000	0.011954
2631.000000	0.011926
2630.000000	0.011897
2629.000000	0.011873
2628.000000	0.011844
2627.000000	0.011805
2626.000000	0.011764
2625.000000	0.011732
2624.000000	0.011709
2623.000000	0.011680
2622.000000	0.011641
2621.000000	0.011604
2620.000000	0.011580
2619.000000	0.011566
2618.000000	0.011551
2617.000000	0.011526
2616.000000	0.011491
2615.000000	0.011451
2614.000000	0.011417
2613.000000	0.011392
2612.000000	0.011377
2611.000000	0.011371
2610.000000	0.011380
2609.000000	0.011407
2608.000000	0.011438
2607.000000	0.011444
2606.000000	0.011416
2605.000000	0.011369
2604.000000	0.011329
2603.000000	0.011310
2602.000000	0.011311
2601.000000	0.011322
2600.000000	0.011335
2599.000000	0.011336
2598.000000	0.011315
2597.000000	0.011274
2596.000000	0.011223
2595.000000	0.011176
2594.000000	0.011145
2593.000000	0.011137
2592.000000	0.011147
2591.000000	0.011157
2590.000000	0.011152
2589.000000	0.011130
2588.000000	0.011098
2587.000000	0.011058
2586.000000	0.011010
2585.000000	0.010958
2584.000000	0.010914
2583.000000	0.010889
2582.000000	0.010889
2581.000000	0.010904
2580.000000	0.010917
2579.000000	0.010913
2578.000000	0.010886
2577.000000	0.010846
2576.000000	0.010811
2575.000000	0.010797
2574.000000	0.010810
2573.000000	0.010843
2572.000000	0.010874
2571.000000	0.010883
2570.000000	0.010868
2569.000000	0.010839
2568.000000	0.010807
2567.000000	0.010780
2566.000000	0.010768
2565.000000	0.010775
2564.000000	0.010789
2563.000000	0.010795
2562.000000	0.010788
2561.000000	0.010779
2560.000000	0.010780
2559.000000	0.010788
2558.000000	0.010794
2557.000000	0.010789
2556.000000	0.010763
2555.000000	0.010714
2554.000000	0.010655
2553.000000	0.010618
2552.000000	0.010627
2551.000000	0.010672
2550.000000	0.010719
2549.000000	0.010742
2548.000000	0.010741
2547.000000	0.010732
2546.000000	0.010726
2545.000000	0.010722
2544.000000	0.010706
2543.000000	0.010670
2542.000000	0.010620
2541.000000	0.010578
2540.000000	0.010563
2539.000000	0.010576
2538.000000	0.010600
2537.000000	0.010617
2536.000000	0.010617
2535.000000	0.010605
2534.000000	0.010595
2533.000000	0.010600
2532.000000	0.010621
2531.000000	0.010645
2530.000000	0.010660
2529.000000	0.010663
2528.000000	0.010650
2527.000000	0.010624
2526.000000	0.010590
2525.000000	0.010558
2524.000000	0.010540
2523.000000	0.010537
2522.000000	0.010546
2521.000000	0.010558
2520.000000	0.010565
2519.000000	0.010559
2518.000000	0.010537
2517.000000	0.010505
2516.000000	0.010473
2515.000000	0.010455
2514.000000	0.010462
2513.000000	0.010489
2512.000000	0.010517
2511.000000	0.010527
2510.000000	0.010518
2509.000000	0.010499
2508.000000	0.010476
2507.000000	0.010451
2506.000000	0.010426
2505.000000	0.010408
2504.000000	0.010397
2503.000000	0.010393
2502.000000	0.010390
2501.000000	0.010388
2500.000000	0.010384
2499.000000	0.010376
2498.000000	0.010372
2497.000000	0.010381
2496.000000	0.010395
2495.000000	0.010400
2494.000000	0.010390
2493.000000	0.010377
2492.000000	0.010377
2491.000000	0.010396
2490.000000	0.010427
2489.000000	0.010453
2488.000000	0.010453
2487.000000	0.010418
2486.000000	0.010357
2485.000000	0.010295
2484.000000	0.010256
2483.000000	0.010246
2482.000000	0.010265
2481.000000	0.010297
2480.000000	0.010319
2479.000000	0.010312
2478.000000	0.010283
2477.000000	0.010249
2476.000000	0.010223
2475.000000	0.010201
2474.000000	0.010179
2473.000000	0.010159
2472.000000	0.010148
2471.000000	0.010146
2470.000000	0.010150
2469.000000	0.010155
2468.000000	0.010154
2467.000000	0.010142
2466.000000	0.010125
2465.000000	0.010118
2464.000000	0.010127
2463.000000	0.010143
2462.000000	0.010150
2461.000000	0.010143
2460.000000	0.010126
2459.000000	0.010107
2458.000000	0.010088
2457.000000	0.010068
2456.000000	0.010045
2455.000000	0.010025
2454.000000	0.010020
2453.000000	0.010038
2452.000000	0.010071
2451.000000	0.010101
2450.000000	0.010121
2449.000000	0.010134
2448.000000	0.010147
2447.000000	0.010156
2446.000000	0.010155
2445.000000	0.010141
2444.000000	0.010117
2443.000000	0.010090
2442.000000	0.010066
2441.000000	0.010043
2440.000000	0.010012
2439.000000	0.009972
2438.000000	0.009943
2437.000000	0.009943
2436.000000	0.009971
2435.000000	0.010009
2434.000000	0.010037
2433.000000	0.010043
2432.000000	0.010022
2431.000000	0.009973
2430.000000	0.009915
2429.000000	0.009873
2428.000000	0.009861
2427.000000	0.009873
2426.000000	0.009893
2425.000000	0.009910
2424.000000	0.009916
2423.000000	0.009909
2422.000000	0.009893
2421.000000	0.009878
2420.000000	0.009868
2419.000000	0.009865
2418.000000	0.009871
2417.000000	0.009882
2416.000000	0.009888
2415.000000	0.009885
2414.000000	0.009886
2413.000000	0.009898
2412.000000	0.009910
2411.000000	0.009900
2410.000000	0.009860
2409.000000	0.009804
2408.000000	0.009746
2407.000000	0.009698
2406.000000	0.009673
2405.000000	0.009682
2404.000000	0.009716
2403.000000	0.009755
2402.000000	0.009788
2401.000000	0.009816
2400.000000	0.009833
2399.000000	0.009831
2398.000000	0.009815
2397.000000	0.009800
2396.000000	0.009791
2395.000000	0.009778
2394.000000	0.009765
2393.000000	0.009768
2392.000000	0.009794
2391.000000	0.009821
2390.000000	0.009817
2389.000000	0.009777
2388.000000	0.009723
2387.000000	0.009684
2386.000000	0.009675
2385.000000	0.009691
2384.000000	0.009706
2383.000000	0.009696
2382.000000	0.009658
2381.000000	0.009604
2380.000000	0.009555
2379.000000	0.009529
2378.000000	0.009547
2377.000000	0.009616
2376.000000	0.009715
2375.000000	0.009798
2374.000000	0.009830
2373.000000	0.009799
2372.000000	0.009719
2371.000000	0.009623
2370.000000	0.009553
2369.000000	0.009525
2368.000000	0.009524
2367.000000	0.009540
2366.000000	0.009577
2365.000000	0.009636
2364.000000	0.009697
2363.000000	0.009748
2362.000000	0.009791
2361.000000	0.009816
2360.000000	0.009811
2359.000000	0.009775
2358.000000	0.009723
2357.000000	0.009682
2356.000000	0.009675
2355.000000	0.009724
2354.000000	0.009772
2353.000000	0.009749
2352.000000	0.009666
2351.000000	0.009615
2350.000000	0.009645
2349.000000	0.009726
2348.000000	0.009796
2347.000000	0.009802
2346.000000	0.009753
2345.000000	0.009724
2344.000000	0.009757
2343.000000	0.009821
2342.000000	0.009833
2341.000000	0.009773
2340.000000	0.009706
2339.000000	0.009701
2338.000000	0.009748
2337.000000	0.009791
2336.000000	0.009800
2335.000000	0.009776
2334.000000	0.009722
2333.000000	0.009646
2332.000000	0.009592
2331.000000	0.009591
2330.000000	0.009647
2329.000000	0.009721
2328.000000	0.009817
2327.000000	0.009926
2326.000000	0.010021
2325.000000	0.010042
2324.000000	0.009968
2323.000000	0.009844
2322.000000	0.009763
2321.000000	0.009790
2320.000000	0.009910
2319.000000	0.010035
2318.000000	0.010090
2317.000000	0.010051
2316.000000	0.009961
2315.000000	0.009866
2314.000000	0.009813
2313.000000	0.009809
2312.000000	0.009837
2311.000000	0.009847
2310.000000	0.009814
2309.000000	0.009745
2308.000000	0.009684
2307.000000	0.009649
2306.000000	0.009643
2305.000000	0.009651
2304.000000	0.009662
2303.000000	0.009668
2302.000000	0.009669
2301.000000	0.009665
2300.000000	0.009660
2299.000000	0.009648
2298.000000	0.009635
2297.000000	0.009632
2296.000000	0.009651
2295.000000	0.009679
2294.000000	0.009700
2293.000000	0.009706
2292.000000	0.009714
2291.000000	0.009733
2290.000000	0.009764
2289.000000	0.009795
2288.000000	0.009821
2287.000000	0.009842
2286.000000	0.009854
2285.000000	0.009841
2284.000000	0.009779
2283.000000	0.009677
2282.000000	0.009585
2281.000000	0.009562
2280.000000	0.009609
2279.000000	0.009668
2278.000000	0.009679
2277.000000	0.009634
2276.000000	0.009556
2275.000000	0.009468
2274.000000	0.009381
2273.000000	0.009304
2272.000000	0.009254
2271.000000	0.009235
2270.000000	0.009239
2269.000000	0.009252
2268.000000	0.009262
2267.000000	0.009261
2266.000000	0.009248
2265.000000	0.009224
2264.000000	0.009198
2263.000000	0.009197
2262.000000	0.009256
2261.000000	0.009365
2260.000000	0.009459
2259.000000	0.009471
2258.000000	0.009405
2257.000000	0.009327
2256.000000	0.009283
2255.000000	0.009252
2254.000000	0.009191
2253.000000	0.009099
2252.000000	0.009013
2251.000000	0.008982
2250.000000	0.009027
2249.000000	0.009127
2248.000000	0.009218
2247.000000	0.009243
2246.000000	0.009210
2245.000000	0.009179
2244.000000	0.009194
2243.000000	0.009233
2242.000000	0.009253
2241.000000	0.009238
2240.000000	0.009203
2239.000000	0.009172
2238.000000	0.009167
2237.000000	0.009202
2236.000000	0.009264
2235.000000	0.009309
2234.000000	0.009297
2233.000000	0.009229
2232.000000	0.009137
2231.000000	0.009063
2230.000000	0.009041
2229.000000	0.009079
2228.000000	0.009151
2227.000000	0.009208
2226.000000	0.009224
2225.000000	0.009213
2224.000000	0.009209
2223.000000	0.009225
2222.000000	0.009240
2221.000000	0.009216
2220.000000	0.009133
2219.000000	0.009029
2218.000000	0.008970
2217.000000	0.008985
2216.000000	0.009032
2215.000000	0.009048
2214.000000	0.009017
2213.000000	0.008967
2212.000000	0.008927
2211.000000	0.008918
2210.000000	0.008967
2209.000000	0.009072
2208.000000	0.009182
2207.000000	0.009237
2206.000000	0.009225
2205.000000	0.009167
2204.000000	0.009079
2203.000000	0.008970
2202.000000	0.008875
2201.000000	0.008825
2200.000000	0.008802
2199.000000	0.008774
2198.000000	0.008764
2197.000000	0.008822
2196.000000	0.008929
2195.000000	0.008995
2194.000000	0.008965
2193.000000	0.008882
2192.000000	0.008840
2191.000000	0.008886
2190.000000	0.008990
2189.000000	0.009061
2188.000000	0.009027
2187.000000	0.008904
2186.000000	0.008791
2185.000000	0.008738
2184.000000	0.008685
2183.000000	0.008567
2182.000000	0.008443
2181.000000	0.008417
2180.000000	0.008488
2179.000000	0.008576
2178.000000	0.008658
2177.000000	0.008781
2176.000000	0.008925
2175.000000	0.008972
2174.000000	0.008837
2173.000000	0.008556
2172.000000	0.008258
2171.000000	0.008085
2170.000000	0.008124
2169.000000	0.008336
2168.000000	0.008545
2167.000000	0.008597
2166.000000	0.008521
2165.000000	0.008457
2164.000000	0.008455
2163.000000	0.008447
2162.000000	0.008400
2161.000000	0.008350
2160.000000	0.008278
2159.000000	0.008104
2158.000000	0.007858
2157.000000	0.007666
2156.000000	0.007567
2155.000000	0.007507
2154.000000	0.007480
2153.000000	0.007531
2152.000000	0.007642
2151.000000	0.007751
2150.000000	0.007860
2149.000000	0.008005
2148.000000	0.008135
2147.000000	0.008135
2146.000000	0.008010
2145.000000	0.007903
2144.000000	0.007926
2143.000000	0.008039
2142.000000	0.008140
2141.000000	0.008178
2140.000000	0.008153
2139.000000	0.008098
2138.000000	0.008063
2137.000000	0.008081
2136.000000	0.008110
2135.000000	0.008081
2134.000000	0.008002
2133.000000	0.007960
2132.000000	0.008011
2131.000000	0.008129
2130.000000	0.008259
2129.000000	0.008370
2128.000000	0.008442
2127.000000	0.008470
2126.000000	0.008481
2125.000000	0.008505
2124.000000	0.008536
2123.000000	0.008550
2122.000000	0.008557
2121.000000	0.008591
2120.000000	0.008647
2119.000000	0.008676
2118.000000	0.008656
2117.000000	0.008623
2116.000000	0.008625
2115.000000	0.008674
2114.000000	0.008753
2113.000000	0.008827
2112.000000	0.008848
2111.000000	0.008798
2110.000000	0.008723
2109.000000	0.008686
2108.000000	0.008689
2107.000000	0.008686
2106.000000	0.008669
2105.000000	0.008679
2104.000000	0.008736
2103.000000	0.008809
2102.000000	0.008872
2101.000000	0.008920
2100.000000	0.008930
2099.000000	0.008859
2098.000000	0.008715
2097.000000	0.008577
2096.000000	0.008500
2095.000000	0.008467
2094.000000	0.008448
2093.000000	0.008444
2092.000000	0.008459
2091.000000	0.008478
2090.000000	0.008504
2089.000000	0.008565
2088.000000	0.008649
2087.000000	0.008692
2086.000000	0.008655
2085.000000	0.008581
2084.000000	0.008537
2083.000000	0.008535
2082.000000	0.008555
2081.000000	0.008588
2080.000000	0.008627
2079.000000	0.008643
2078.000000	0.008603
2077.000000	0.008509
2076.000000	0.008385
2075.000000	0.008269
2074.000000	0.008210
2073.000000	0.008243
2072.000000	0.008341
2071.000000	0.008430
2070.000000	0.008471
2069.000000	0.008493
2068.000000	0.008518
2067.000000	0.008521
2066.000000	0.008483
2065.000000	0.008418
2064.000000	0.008331
2063.000000	0.008193
2062.000000	0.008007
2061.000000	0.007854
2060.000000	0.007822
2059.000000	0.007920
2058.000000	0.008087
2057.000000	0.008248
2056.000000	0.008349
2055.000000	0.008380
2054.000000	0.008374
2053.000000	0.008370
2052.000000	0.008354
2051.000000	0.008287
2050.000000	0.008169
2049.000000	0.008051
2048.000000	0.007975
2047.000000	0.007949
2046.000000	0.007995
2045.000000	0.008116
2044.000000	0.008224
2043.000000	0.008210
2042.000000	0.008085
2041.000000	0.007960
2040.000000	0.007859
2039.000000	0.007696
2038.000000	0.007457
2037.000000	0.007275
2036.000000	0.007242
2035.000000	0.007283
2034.000000	0.007302
2033.000000	0.007325
2032.000000	0.007410
2031.000000	0.007520
2030.000000	0.007576
2029.000000	0.007548
2028.000000	0.007424
2027.000000	0.007202
2026.000000	0.006955
2025.000000	0.006807
2024.000000	0.006764
2023.000000	0.006693
2022.000000	0.006525
2021.000000	0.006394
2020.000000	0.006461
2019.000000	0.006713
2018.000000	0.006982
2017.000000	0.007129
2016.000000	0.007136
2015.000000	0.007090
2014.000000	0.007097
2013.000000	0.007199
2012.000000	0.007346
2011.000000	0.007472
2010.000000	0.007586
2009.000000	0.007713
2008.000000	0.007799
2007.000000	0.007773
2006.000000	0.007679
2005.000000	0.007629
2004.000000	0.007645
2003.000000	0.007647
2002.000000	0.007586
2001.000000	0.007482
2000.000000	0.007351
1999.000000	0.007212
1998.000000	0.007123
1997.000000	0.007138
1996.000000	0.007213
1995.000000	0.007264
1994.000000	0.007294
1993.000000	0.007365
1992.000000	0.007448
1991.000000	0.007441
1990.000000	0.007339
1989.000000	0.007257
1988.000000	0.007273
1987.000000	0.007354
1986.000000	0.007448
1985.000000	0.007541
1984.000000	0.007609
1983.000000	0.007613
1982.000000	0.007578
1981.000000	0.007573
1980.000000	0.007597
1979.000000	0.007586
1978.000000	0.007539
1977.000000	0.007523
1976.000000	0.007536
1975.000000	0.007487
1974.000000	0.007351
1973.000000	0.007174
1972.000000	0.006965
1971.000000	0.006696
1970.000000	0.006441
1969.000000	0.006347
1968.000000	0.006457
1967.000000	0.006663
1966.000000	0.006868
1965.000000	0.007060
1964.000000	0.007224
1963.000000	0.007309
1962.000000	0.007313
1961.000000	0.007284
1960.000000	0.007238
1959.000000	0.007154
1958.000000	0.007067
1957.000000	0.007056
1956.000000	0.007137
1955.000000	0.007265
1954.000000	0.007421
1953.000000	0.007601
1952.000000	0.007727
1951.000000	0.007691
1950.000000	0.007501
1949.000000	0.007299
1948.000000	0.007188
1947.000000	0.007160
1946.000000	0.007199
1945.000000	0.007326
1944.000000	0.007514
1943.000000	0.007637
1942.000000	0.007604
1941.000000	0.007464
1940.000000	0.007328
1939.000000	0.007253
1938.000000	0.007241
1937.000000	0.007277
1936.000000	0.007336
1935.000000	0.007370
1934.000000	0.007353
1933.000000	0.007304
1932.000000	0.007260
1931.000000	0.007238
1930.000000	0.007255
1929.000000	0.007317
1928.000000	0.007387
1927.000000	0.007427
1926.000000	0.007453
1925.000000	0.007516
1924.000000	0.007603
1923.000000	0.007631
1922.000000	0.007568
1921.000000	0.007468
1920.000000	0.007381
1919.000000	0.007306
1918.000000	0.007255
1917.000000	0.007267
1916.000000	0.007330
1915.000000	0.007391
1914.000000	0.007416
1913.000000	0.007415
1912.000000	0.007404
1911.000000	0.007388
1910.000000	0.007382
1909.000000	0.007398
1908.000000	0.007413
1907.000000	0.007413
1906.000000	0.007428
1905.000000	0.007495
1904.000000	0.007568
1903.000000	0.007569
1902.000000	0.007509
1901.000000	0.007469
1900.000000	0.007474
1899.000000	0.007480
1898.000000	0.007465
1897.000000	0.007464
1896.000000	0.007483
1895.000000	0.007485
1894.000000	0.007458
1893.000000	0.007437
1892.000000	0.007434
1891.000000	0.007427
1890.000000	0.007417
1889.000000	0.007432
1888.000000	0.007456
1887.000000	0.007448
1886.000000	0.007408
1885.000000	0.007371
1884.000000	0.007341
1883.000000	0.007304
1882.000000	0.007293
1881.000000	0.007350
1880.000000	0.007440
1879.000000	0.007482
1878.000000	0.007452
1877.000000	0.007405
1876.000000	0.007380
1875.000000	0.007355
1874.000000	0.007318
1873.000000	0.007295
1872.000000	0.007284
1871.000000	0.007245
1870.000000	0.007171
1869.000000	0.007122
1868.000000	0.007120
1867.000000	0.007127
1866.000000	0.007149
1865.000000	0.007213
1864.000000	0.007291
1863.000000	0.007328
1862.000000	0.007328
1861.000000	0.007340
1860.000000	0.007362
1859.000000	0.007341
1858.000000	0.007274
1857.000000	0.007229
1856.000000	0.007239
1855.000000	0.007274
1854.000000	0.007303
1853.000000	0.007325
1852.000000	0.007321
1851.000000	0.007281
1850.000000	0.007229
1849.000000	0.007205
1848.000000	0.007213
1847.000000	0.007218
1846.000000	0.007212
1845.000000	0.007219
1844.000000	0.007242
1843.000000	0.007242
1842.000000	0.007240
1841.000000	0.007284
1840.000000	0.007347
1839.000000	0.007356
1838.000000	0.007297
1837.000000	0.007235
1836.000000	0.007212
1835.000000	0.007206
1834.000000	0.007191
1833.000000	0.007169
1832.000000	0.007142
1831.000000	0.007108
1830.000000	0.007073
1829.000000	0.007053
1828.000000	0.007060
1827.000000	0.007091
1826.000000	0.007131
1825.000000	0.007181
1824.000000	0.007231
1823.000000	0.007250
1822.000000	0.007238
1821.000000	0.007225
1820.000000	0.007229
1819.000000	0.007229
1818.000000	0.007212
1817.000000	0.007215
1816.000000	0.007254
1815.000000	0.007280
1814.000000	0.007264
1813.000000	0.007231
1812.000000	0.007219
1811.000000	0.007210
1810.000000	0.007178
1809.000000	0.007162
1808.000000	0.007179
1807.000000	0.007184
1806.000000	0.007159
1805.000000	0.007141
1804.000000	0.007148
1803.000000	0.007141
1802.000000	0.007103
1801.000000	0.007077
1800.000000	0.007095
1799.000000	0.007125
1798.000000	0.007149
1797.000000	0.007194
1796.000000	0.007245
1795.000000	0.007244
1794.000000	0.007168
1793.000000	0.007082
1792.000000	0.007059
1791.000000	0.007053
1790.000000	0.007021
1789.000000	0.007007
1788.000000	0.007024
1787.000000	0.007034
1786.000000	0.007016
1785.000000	0.006997
1784.000000	0.006981
1783.000000	0.006952
1782.000000	0.006930
1781.000000	0.006941
1780.000000	0.006979
1779.000000	0.006991
1778.000000	0.006958
1777.000000	0.006910
1776.000000	0.006866
1775.000000	0.006831
1774.000000	0.006780
1773.000000	0.006706
1772.000000	0.006638
1771.000000	0.006589
1770.000000	0.006580
1769.000000	0.006649
1768.000000	0.006762
1767.000000	0.006826
1766.000000	0.006807
1765.000000	0.006768
1764.000000	0.006768
1763.000000	0.006794
1762.000000	0.006797
1761.000000	0.006753
1760.000000	0.006703
1759.000000	0.006680
1758.000000	0.006691
1757.000000	0.006715
1756.000000	0.006725
1755.000000	0.006718
1754.000000	0.006704
1753.000000	0.006673
1752.000000	0.006626
1751.000000	0.006603
1750.000000	0.006634
1749.000000	0.006734
1748.000000	0.006900
1747.000000	0.007100
1746.000000	0.007287
1745.000000	0.007446
1744.000000	0.007603
1743.000000	0.007759
1742.000000	0.007899
1741.000000	0.008048
1740.000000	0.008241
1739.000000	0.008434
1738.000000	0.008574
1737.000000	0.008695
1736.000000	0.008805
1735.000000	0.008843
1734.000000	0.008828
1733.000000	0.008743
1732.000000	0.008607
1731.000000	0.008505
1730.000000	0.008458
1729.000000	0.008424
1728.000000	0.008351
1727.000000	0.008224
1726.000000	0.008058
1725.000000	0.007891
1724.000000	0.007760
1723.000000	0.007638
1722.000000	0.007503
1721.000000	0.007390
1720.000000	0.007321
1719.000000	0.007257
1718.000000	0.007197
1717.000000	0.007235
1716.000000	0.007370
1715.000000	0.007524
1714.000000	0.007717
1713.000000	0.008003
1712.000000	0.008344
1711.000000	0.008654
1710.000000	0.008923
1709.000000	0.009202
1708.000000	0.009530
1707.000000	0.009913
1706.000000	0.010376
1705.000000	0.010932
1704.000000	0.011506
1703.000000	0.012037
1702.000000	0.012530
1701.000000	0.013103
1700.000000	0.013844
1699.000000	0.014477
1698.000000	0.015040
1697.000000	0.015840
1696.000000	0.016870
1695.000000	0.017742
1694.000000	0.018316
1693.000000	0.018860
1692.000000	0.019543
1691.000000	0.020297
1690.000000	0.021038
1689.000000	0.021762
1688.000000	0.022479
1687.000000	0.023165
1686.000000	0.023792
1685.000000	0.024502
1684.000000	0.025429
1683.000000	0.026305
1682.000000	0.027083
1681.000000	0.027932
1680.000000	0.028841
1679.000000	0.029694
1678.000000	0.030482
1677.000000	0.031307
1676.000000	0.032241
1675.000000	0.033218
1674.000000	0.034090
1673.000000	0.034862
1672.000000	0.035667
1671.000000	0.036579
1670.000000	0.037632
1669.000000	0.038773
1668.000000	0.039837
1667.000000	0.040753
1666.000000	0.041573
1665.000000	0.042400
1664.000000	0.043296
1663.000000	0.044233
1662.000000	0.045137
1661.000000	0.045964
1660.000000	0.046742
1659.000000	0.047494
1658.000000	0.048200
1657.000000	0.048872
1656.000000	0.049549
1655.000000	0.050215
1654.000000	0.050901
1653.000000	0.051685
1652.000000	0.052137
1651.000000	0.052232
1650.000000	0.052315
1649.000000	0.052551
1648.000000	0.052924
1647.000000	0.053354
1646.000000	0.053722
1645.000000	0.053997
1644.000000	0.054231
1643.000000	0.054434
1642.000000	0.054603
1641.000000	0.054717
1640.000000	0.054762
1639.000000	0.054753
1638.000000	0.054708
1637.000000	0.054627
1636.000000	0.054507
1635.000000	0.054346
1634.000000	0.054153
1633.000000	0.054003
1632.000000	0.053868
1631.000000	0.053641
1630.000000	0.053255
1629.000000	0.052730
1628.000000	0.052124
1627.000000	0.051481
1626.000000	0.050812
1625.000000	0.050059
1624.000000	0.049170
1623.000000	0.048200
1622.000000	0.047289
1621.000000	0.046503
1620.000000	0.045812
1619.000000	0.045113
1618.000000	0.044263
1617.000000	0.043188
1616.000000	0.041985
1615.000000	0.040877
1614.000000	0.039992
1613.000000	0.039241
1612.000000	0.038469
1611.000000	0.037635
1610.000000	0.036826
1609.000000	0.036070
1608.000000	0.035326
1607.000000	0.034611
1606.000000	0.033987
1605.000000	0.033429
1604.000000	0.032881
1603.000000	0.032362
1602.000000	0.031911
1601.000000	0.031503
1600.000000	0.031096
1599.000000	0.030716
1598.000000	0.030407
1597.000000	0.030148
1596.000000	0.029903
1595.000000	0.029693
1594.000000	0.029563
1593.000000	0.029483
1592.000000	0.029397
1591.000000	0.029321
1590.000000	0.029315
1589.000000	0.029366
1588.000000	0.029420
1587.000000	0.029481
1586.000000	0.029600
1585.000000	0.029765
1584.000000	0.029921
1583.000000	0.030099
1582.000000	0.030349
1581.000000	0.030629
1580.000000	0.030884
1579.000000	0.031161
1578.000000	0.031517
1577.000000	0.031904
1576.000000	0.032214
1575.000000	0.032432
1574.000000	0.032669
1573.000000	0.032985
1572.000000	0.033345
1571.000000	0.033713
1570.000000	0.034135
1569.000000	0.034578
1568.000000	0.034959
1567.000000	0.035358
1566.000000	0.035865
1565.000000	0.036450
1564.000000	0.037023
1563.000000	0.037586
1562.000000	0.038146
1561.000000	0.038551
1560.000000	0.038700
1559.000000	0.039099
1558.000000	0.039812
1557.000000	0.040477
1556.000000	0.041124
1555.000000	0.041789
1554.000000	0.042398
1553.000000	0.042867
1552.000000	0.043258
1551.000000	0.043670
1550.000000	0.044105
1549.000000	0.044491
1548.000000	0.044788
1547.000000	0.045031
1546.000000	0.045257
1545.000000	0.045479
1544.000000	0.045681
1543.000000	0.045821
1542.000000	0.045871
1541.000000	0.045904
1540.000000	0.045981
1539.000000	0.046007
1538.000000	0.045965
1537.000000	0.045944
1536.000000	0.045944
1535.000000	0.045878
1534.000000	0.045719
1533.000000	0.045548
1532.000000	0.045407
1531.000000	0.045255
1530.000000	0.045063
1529.000000	0.044859
1528.000000	0.044662
1527.000000	0.044430
1526.000000	0.044126
1525.000000	0.043802
1524.000000	0.043537
1523.000000	0.043306
1522.000000	0.043034
1521.000000	0.042718
1520.000000	0.042373
1519.000000	0.042042
1518.000000	0.041749
1517.000000	0.041490
1516.000000	0.041237
1515.000000	0.040951
1514.000000	0.040619
1513.000000	0.040217
1512.000000	0.039744
1511.000000	0.039223
1510.000000	0.038693
1509.000000	0.038154
1508.000000	0.037557
1507.000000	0.036854
1506.000000	0.036066
1505.000000	0.035391
1504.000000	0.034925
1503.000000	0.034561
1502.000000	0.034170
1501.000000	0.033691
1500.000000	0.033163
1499.000000	0.032640
1498.000000	0.032092
1497.000000	0.031513
1496.000000	0.030946
1495.000000	0.030390
1494.000000	0.029853
1493.000000	0.029368
1492.000000	0.028913
1491.000000	0.028432
1490.000000	0.027951
1489.000000	0.027589
1488.000000	0.027391
1487.000000	0.027260
1486.000000	0.027144
1485.000000	0.027075
1484.000000	0.027052
1483.000000	0.027059
1482.000000	0.027090
1481.000000	0.027182
1480.000000	0.027341
1479.000000	0.027524
1478.000000	0.027722
1477.000000	0.027993
1476.000000	0.028373
1475.000000	0.028804
1474.000000	0.029274
1473.000000	0.029857
1472.000000	0.030555
1471.000000	0.031214
1470.000000	0.031783
1469.000000	0.032325
1468.000000	0.032850
1467.000000	0.033307
1466.000000	0.033684
1465.000000	0.034037
1464.000000	0.034381
1463.000000	0.034668
1462.000000	0.034890
1461.000000	0.035113
1460.000000	0.035412
1459.000000	0.035821
1458.000000	0.036343
1457.000000	0.036928
1456.000000	0.037396
1455.000000	0.037692
1454.000000	0.037950
1453.000000	0.038240
1452.000000	0.038515
1451.000000	0.038698
1450.000000	0.038780
1449.000000	0.038815
1448.000000	0.038842
1447.000000	0.038850
1446.000000	0.038831
1445.000000	0.038792
1444.000000	0.038761
1443.000000	0.038734
1442.000000	0.038680
1441.000000	0.038591
1440.000000	0.038492
1439.000000	0.038383
1438.000000	0.038187
1437.000000	0.037874
1436.000000	0.037535
1435.000000	0.037257
1434.000000	0.037050
1433.000000	0.036879
1432.000000	0.036687
1431.000000	0.036452
1430.000000	0.036189
1429.000000	0.035934
1428.000000	0.035725
1427.000000	0.035570
1426.000000	0.035450
1425.000000	0.035318
1424.000000	0.035184
1423.000000	0.035101
1422.000000	0.035067
1421.000000	0.035016
1420.000000	0.034907
1419.000000	0.034799
1418.000000	0.034689
1417.000000	0.034569
1416.000000	0.034493
1415.000000	0.034459
1414.000000	0.034412
1413.000000	0.034331
1412.000000	0.034252
1411.000000	0.034202
1410.000000	0.034147
1409.000000	0.034062
1408.000000	0.033974
1407.000000	0.033909
1406.000000	0.033859
1405.000000	0.033797
1404.000000	0.033731
1403.000000	0.033675
1402.000000	0.033611
1401.000000	0.033507
1400.000000	0.033367
1399.000000	0.033236
1398.000000	0.033125
1397.000000	0.033026
1396.000000	0.032930
1395.000000	0.032830
1394.000000	0.032694
1393.000000	0.032487
1392.000000	0.032249
1391.000000	0.032026
1390.000000	0.031813
1389.000000	0.031578
1388.000000	0.031317
1387.000000	0.031058
1386.000000	0.030817
1385.000000	0.030593
1384.000000	0.030391
1383.000000	0.030206
1382.000000	0.030029
1381.000000	0.029856
1380.000000	0.029672
1379.000000	0.029454
1378.000000	0.029187
1377.000000	0.028878
1376.000000	0.028554
1375.000000	0.028251
1374.000000	0.027983
1373.000000	0.027714
1372.000000	0.027416
1371.000000	0.027084
1370.000000	0.026729
1369.000000	0.026338
1368.000000	0.025913
1367.000000	0.025485
1366.000000	0.025085
1365.000000	0.024716
1364.000000	0.024370
1363.000000	0.024050
1362.000000	0.023764
1361.000000	0.023518
1360.000000	0.023318
1359.000000	0.023169
1358.000000	0.023070
1357.000000	0.023008
1356.000000	0.022975
1355.000000	0.022971
1354.000000	0.022999
1353.000000	0.023058
1352.000000	0.023147
1351.000000	0.023263
1350.000000	0.023409
1349.000000	0.023569
1348.000000	0.023732
1347.000000	0.023902
1346.000000	0.024090
1345.000000	0.024287
1344.000000	0.024475
1343.000000	0.024653
1342.000000	0.024841
1341.000000	0.025050
1340.000000	0.025264
1339.000000	0.025451
1338.000000	0.025582
1337.000000	0.025648
1336.000000	0.025663
1335.000000	0.025644
1334.000000	0.025598
1333.000000	0.025516
1332.000000	0.025394
1331.000000	0.025244
1330.000000	0.025087
1329.000000	0.024929
1328.000000	0.024768
1327.000000	0.024611
1326.000000	0.024476
1325.000000	0.024361
1324.000000	0.024262
1323.000000	0.024187
1322.000000	0.024142
1321.000000	0.024113
1320.000000	0.024079
1319.000000	0.024032
1318.000000	0.023973
1317.000000	0.023903
1316.000000	0.023828
1315.000000	0.023756
1314.000000	0.023691
1313.000000	0.023617
1312.000000	0.023520
1311.000000	0.023407
1310.000000	0.023286
1309.000000	0.023160
1308.000000	0.023027
1307.000000	0.022898
1306.000000	0.022783
1305.000000	0.022675
1304.000000	0.022563
1303.000000	0.022449
1302.000000	0.022338
1301.000000	0.022229
1300.000000	0.022115
1299.000000	0.022000
1298.000000	0.021898
1297.000000	0.021821
1296.000000	0.021777
1295.000000	0.021767
1294.000000	0.021785
1293.000000	0.021823
1292.000000	0.021873
1291.000000	0.021938
1290.000000	0.022021
1289.000000	0.022122
1288.000000	0.022239
1287.000000	0.022368
1286.000000	0.022500
1285.000000	0.022624
1284.000000	0.022746
1283.000000	0.022871
1282.000000	0.022988
1281.000000	0.023075
1280.000000	0.023123
1279.000000	0.023143
1278.000000	0.023143
1277.000000	0.023122
1276.000000	0.023087
1275.000000	0.023064
1274.000000	0.023071
1273.000000	0.023101
1272.000000	0.023130
1271.000000	0.023154
1270.000000	0.023192
1269.000000	0.023256
1268.000000	0.023340
1267.000000	0.023431
1266.000000	0.023521
1265.000000	0.023617
1264.000000	0.023737
1263.000000	0.023886
1262.000000	0.024048
1261.000000	0.024202
1260.000000	0.024345
1259.000000	0.024495
1258.000000	0.024667
1257.000000	0.024856
1256.000000	0.025042
1255.000000	0.025223
1254.000000	0.025405
1253.000000	0.025599
1252.000000	0.025803
1251.000000	0.026010
1250.000000	0.026214
1249.000000	0.026417
1248.000000	0.026623
1247.000000	0.026836
1246.000000	0.027053
1245.000000	0.027268
1244.000000	0.027472
1243.000000	0.027656
1242.000000	0.027816
1241.000000	0.027951
1240.000000	0.028060
1239.000000	0.028134
1238.000000	0.028171
1237.000000	0.028174
1236.000000	0.028152
1235.000000	0.028099
1234.000000	0.028004
1233.000000	0.027869
1232.000000	0.027708
1231.000000	0.027530
1230.000000	0.027319
1229.000000	0.027059
1228.000000	0.026751
1227.000000	0.026413
1226.000000	0.026050
1225.000000	0.025657
1224.000000	0.025235
1223.000000	0.024797
1222.000000	0.024350
1221.000000	0.023892
1220.000000	0.023437
1219.000000	0.023019
1218.000000	0.022677
1217.000000	0.022426
1216.000000	0.022263
1215.000000	0.022169
1214.000000	0.022119
1213.000000	0.022085
1212.000000	0.022050
1211.000000	0.022012
1210.000000	0.021980
1209.000000	0.021965
1208.000000	0.021975
1207.000000	0.022012
1206.000000	0.022065
1205.000000	0.022116
1204.000000	0.022151
1203.000000	0.022158
1202.000000	0.022129
1201.000000	0.022054
1200.000000	0.021936
1199.000000	0.021776
1198.000000	0.021579
1197.000000	0.021356
1196.000000	0.021127
1195.000000	0.020907
1194.000000	0.020688
1193.000000	0.020455
1192.000000	0.020203
1191.000000	0.019944
1190.000000	0.019687
1189.000000	0.019439
1188.000000	0.019202
1187.000000	0.018983
1186.000000	0.018781
1185.000000	0.018600
1184.000000	0.018448
1183.000000	0.018326
1182.000000	0.018225
1181.000000	0.018137
1180.000000	0.018068
1179.000000	0.018035
1178.000000	0.018037
1177.000000	0.018057
1176.000000	0.018081
1175.000000	0.018108
1174.000000	0.018143
1173.000000	0.018185
1172.000000	0.018235
1171.000000	0.018290
1170.000000	0.018343
1169.000000	0.018397
1168.000000	0.018469
1167.000000	0.018571
1166.000000	0.018697
1165.000000	0.018821
1164.000000	0.018927
1163.000000	0.019013
1162.000000	0.019086
1161.000000	0.019148
1160.000000	0.019194
1159.000000	0.019213
1158.000000	0.019190
1157.000000	0.019119
1156.000000	0.019016
1155.000000	0.018894
1154.000000	0.018751
1153.000000	0.018575
1152.000000	0.018371
1151.000000	0.018160
1150.000000	0.017954
1149.000000	0.017746
1148.000000	0.017534
1147.000000	0.017328
1146.000000	0.017137
1145.000000	0.016957
1144.000000	0.016784
1143.000000	0.016614
1142.000000	0.016441
1141.000000	0.016259
1140.000000	0.016075
1139.000000	0.015910
1138.000000	0.015782
1137.000000	0.015691
1136.000000	0.015623
1135.000000	0.015566
1134.000000	0.015514
1133.000000	0.015475
1132.000000	0.015463
1131.000000	0.015477
1130.000000	0.015500
1129.000000	0.015509
1128.000000	0.015503
1127.000000	0.015497
1126.000000	0.015502
1125.000000	0.015522
1124.000000	0.015564
1123.000000	0.015630
1122.000000	0.015709
1121.000000	0.015779
1120.000000	0.015834
1119.000000	0.015888
1118.000000	0.015954
1117.000000	0.016034
1116.000000	0.016127
1115.000000	0.016229
1114.000000	0.016335
1113.000000	0.016437
1112.000000	0.016533
1111.000000	0.016624
1110.000000	0.016711
1109.000000	0.016792
1108.000000	0.016865
1107.000000	0.016929
1106.000000	0.016979
1105.000000	0.017021
1104.000000	0.017069
1103.000000	0.017135
1102.000000	0.017214
1101.000000	0.017288
1100.000000	0.017347
1099.000000	0.017386
1098.000000	0.017413
1097.000000	0.017447
1096.000000	0.017508
1095.000000	0.017607
1094.000000	0.017735
1093.000000	0.017890
1092.000000	0.018087
1091.000000	0.018335
1090.000000	0.018622
1089.000000	0.018926
1088.000000	0.019239
1087.000000	0.019571
1086.000000	0.019920
1085.000000	0.020264
1084.000000	0.020565
1083.000000	0.020791
1082.000000	0.020936
1081.000000	0.021014
1080.000000	0.021040
1079.000000	0.021009
1078.000000	0.020904
1077.000000	0.020729
1076.000000	0.020515
1075.000000	0.020291
1074.000000	0.020068
1073.000000	0.019847
1072.000000	0.019646
1071.000000	0.019483
1070.000000	0.019356
1069.000000	0.019255
1068.000000	0.019179
1067.000000	0.019133
1066.000000	0.019123
1065.000000	0.019152
1064.000000	0.019232
1063.000000	0.019356
1062.000000	0.019479
1061.000000	0.019556
1060.000000	0.019587
1059.000000	0.019616
1058.000000	0.019670
1057.000000	0.019734
1056.000000	0.019782
1055.000000	0.019812
1054.000000	0.019837
1053.000000	0.019868
1052.000000	0.019903
1051.000000	0.019938
1050.000000	0.019969
1049.000000	0.019989
1048.000000	0.020000
1047.000000	0.020008
1046.000000	0.020020
1045.000000	0.020036
1044.000000	0.020056
1043.000000	0.020089
1042.000000	0.020140
1041.000000	0.020214
1040.000000	0.020321
1039.000000	0.020467
1038.000000	0.020647
1037.000000	0.020843
1036.000000	0.021046
1035.000000	0.021257
1034.000000	0.021472
1033.000000	0.021676
1032.000000	0.021849
1031.000000	0.021985
1030.000000	0.022091
1029.000000	0.022183
1028.000000	0.022274
1027.000000	0.022373
1026.000000	0.022476
1025.000000	0.022573
1024.000000	0.022656
1023.000000	0.022733
1022.000000	0.022815
1021.000000	0.022909
1020.000000	0.023008
1019.000000	0.023092
1018.000000	0.023138
1017.000000	0.023123
1016.000000	0.023022
1015.000000	0.022821
1014.000000	0.022523
1013.000000	0.022153
1012.000000	0.021739
1011.000000	0.021300
1010.000000	0.020845
1009.000000	0.020391
1008.000000	0.019959
1007.000000	0.019560
1006.000000	0.019192
1005.000000	0.018842
1004.000000	0.018505
1003.000000	0.018188
1002.000000	0.017900
1001.000000	0.017643
1000.000000	0.017417
999.000000	0.017214
998.000000	0.017018
997.000000	0.016808
996.000000	0.016571
995.000000	0.016313
994.000000	0.016056
993.000000	0.015820
992.000000	0.015602
991.000000	0.015384
990.000000	0.015155
989.000000	0.014937
988.000000	0.014757
987.000000	0.014616
986.000000	0.014474
985.000000	0.014298
984.000000	0.014099
983.000000	0.013919
982.000000	0.013779
981.000000	0.013665
980.000000	0.013552
979.000000	0.013424
978.000000	0.013282
977.000000	0.013126
976.000000	0.012964
975.000000	0.012810
974.000000	0.012675
973.000000	0.012561
972.000000	0.012459
971.000000	0.012351
970.000000	0.012220
969.000000	0.012061
968.000000	0.011882
967.000000	0.011692
966.000000	0.011498
965.000000	0.011309
964.000000	0.011141
963.000000	0.011003
962.000000	0.010886
961.000000	0.010770
960.000000	0.010640
959.000000	0.010484
958.000000	0.010299
957.000000	0.010106
956.000000	0.009943
955.000000	0.009830
954.000000	0.009749
953.000000	0.009669
952.000000	0.009580
951.000000	0.009489
950.000000	0.009395
949.000000	0.009293
948.000000	0.009198
947.000000	0.009134
946.000000	0.009104
945.000000	0.009093
944.000000	0.009094
943.000000	0.009115
942.000000	0.009155
941.000000	0.009198
940.000000	0.009228
939.000000	0.009239
938.000000	0.009221
937.000000	0.009165
936.000000	0.009083
935.000000	0.009006
934.000000	0.008956
933.000000	0.008930
932.000000	0.008912
931.000000	0.008889
930.000000	0.008855
929.000000	0.008815
928.000000	0.008780
927.000000	0.008756
926.000000	0.008731
925.000000	0.008697
924.000000	0.008660
923.000000	0.008630
922.000000	0.008595
921.000000	0.008532
920.000000	0.008443
919.000000	0.008355
918.000000	0.008284
917.000000	0.008220
916.000000	0.008140
915.000000	0.008035
914.000000	0.007908
913.000000	0.007771
912.000000	0.007642
911.000000	0.007542
910.000000	0.007479
909.000000	0.007444
908.000000	0.007432
907.000000	0.007428
906.000000	0.007406
905.000000	0.007344
904.000000	0.007248
903.000000	0.007154
902.000000	0.007082
901.000000	0.007026
900.000000	0.006972
899.000000	0.006914
898.000000	0.006853
897.000000	0.006798
896.000000	0.006770
895.000000	0.006782
894.000000	0.006808
893.000000	0.006793
892.000000	0.006710
891.000000	0.006593
890.000000	0.006512
889.000000	0.006505
888.000000	0.006572
887.000000	0.006694
886.000000	0.006863
885.000000	0.007079
884.000000	0.007343
883.000000	0.007663
882.000000	0.008059
881.000000	0.008559
880.000000	0.009177
879.000000	0.009865
878.000000	0.010513
877.000000	0.010988
876.000000	0.011196
875.000000	0.011121
874.000000	0.010812
873.000000	0.010356
872.000000	0.009842
871.000000	0.009338
870.000000	0.008882
869.000000	0.008498
868.000000	0.008200
867.000000	0.007985
866.000000	0.007821
865.000000	0.007674
864.000000	0.007541
863.000000	0.007438
862.000000	0.007376
861.000000	0.007339
860.000000	0.007309
859.000000	0.007281
858.000000	0.007256
857.000000	0.007234
856.000000	0.007216
855.000000	0.007211
854.000000	0.007230
853.000000	0.007277
852.000000	0.007340
851.000000	0.007397
850.000000	0.007426
849.000000	0.007421
848.000000	0.007381
847.000000	0.007299
846.000000	0.007168
845.000000	0.007014
844.000000	0.006895
843.000000	0.006848
842.000000	0.006858
841.000000	0.006888
840.000000	0.006915
839.000000	0.006933
838.000000	0.006928
837.000000	0.006887
836.000000	0.006820
835.000000	0.006756
834.000000	0.006708
833.000000	0.006670
832.000000	0.006637
831.000000	0.006619
830.000000	0.006623
829.000000	0.006645
828.000000	0.006674
827.000000	0.006700
826.000000	0.006711
825.000000	0.006704
824.000000	0.006696
823.000000	0.006706
822.000000	0.006738
821.000000	0.006777
820.000000	0.006808
819.000000	0.006814
818.000000	0.006782
817.000000	0.006724
816.000000	0.006682
815.000000	0.006692
814.000000	0.006741
813.000000	0.006784
812.000000	0.006784
811.000000	0.006744
810.000000	0.006686
809.000000	0.006631
808.000000	0.006593
807.000000	0.006584
806.000000	0.006607
805.000000	0.006670
804.000000	0.006770
803.000000	0.006878
802.000000	0.006953
801.000000	0.006977
800.000000	0.006981
799.000000	0.006996
798.000000	0.007021
797.000000	0.007033
796.000000	0.007028
795.000000	0.007025
794.000000	0.007033
793.000000	0.007047
792.000000	0.007067
791.000000	0.007095
790.000000	0.007120
789.000000	0.007135
788.000000	0.007156
787.000000	0.007195
786.000000	0.007232
785.000000	0.007233
784.000000	0.007205
783.000000	0.007188
782.000000	0.007201
781.000000	0.007236
780.000000	0.007278
779.000000	0.007331
778.000000	0.007387
777.000000	0.007431
776.000000	0.007460
775.000000	0.007496
774.000000	0.007549
773.000000	0.007599
772.000000	0.007625
771.000000	0.007630
770.000000	0.007633
769.000000	0.007645
768.000000	0.007671
767.000000	0.007700
766.000000	0.007710
765.000000	0.007690
764.000000	0.007661
763.000000	0.007657
762.000000	0.007682
761.000000	0.007711
760.000000	0.007730
759.000000	0.007749
758.000000	0.007772
757.000000	0.007791
756.000000	0.007810
755.000000	0.007858
754.000000	0.007940
753.000000	0.008018
752.000000	0.008052
751.000000	0.008046
750.000000	0.008038
749.000000	0.008056
748.000000	0.008103
747.000000	0.008169
746.000000	0.008235
745.000000	0.008287
744.000000	0.008332
743.000000	0.008388
742.000000	0.008463
741.000000	0.008540
740.000000	0.008601
739.000000	0.008647
738.000000	0.008682
737.000000	0.008708
736.000000	0.008735
735.000000	0.008775
734.000000	0.008832
733.000000	0.008900
732.000000	0.008998
731.000000	0.009150
730.000000	0.009339
729.000000	0.009507
728.000000	0.009623
727.000000	0.009710
726.000000	0.009806
725.000000	0.009923
724.000000	0.010053
723.000000	0.010205
722.000000	0.010390
721.000000	0.010581
720.000000	0.010720
719.000000	0.010777
718.000000	0.010777
717.000000	0.010776
716.000000	0.010830
715.000000	0.010983
714.000000	0.011228
713.000000	0.011487
712.000000	0.011656
711.000000	0.011680
710.000000	0.011592
709.000000	0.011486
708.000000	0.011444
707.000000	0.011479
706.000000	0.011555
705.000000	0.011633
704.000000	0.011701
703.000000	0.011762
702.000000	0.011810
701.000000	0.011832
700.000000	0.011837
699.000000	0.011847
698.000000	0.011863
697.000000	0.011857
696.000000	0.011818
695.000000	0.011784
694.000000	0.011796
693.000000	0.011838
692.000000	0.011859
691.000000	0.011830
690.000000	0.011772
689.000000	0.011736
688.000000	0.011753
687.000000	0.011805
686.000000	0.011832
685.000000	0.011798
684.000000	0.011758
683.000000	0.011805
682.000000	0.011949
681.000000	0.012113
680.000000	0.012239
679.000000	0.012345
678.000000	0.012452
677.000000	0.012576
676.000000	0.012729
675.000000	0.012910
674.000000	0.013085
673.000000	0.013207
672.000000	0.013224
671.000000	0.013073
670.000000	0.012683
669.000000	0.012079
668.000000	0.011682
667.000000	0.012008
666.000000	0.012542
665.000000	0.012943
664.000000	0.013223
663.000000	0.013384
662.000000	0.013439
661.000000	0.013426
660.000000	0.013371
659.000000	0.013272
658.000000	0.013145
657.000000	0.013054
656.000000	0.013024
655.000000	0.013004
654.000000	0.012983
653.000000	0.013021
652.000000	0.013126
651.000000	0.013222
650.000000	0.013259
649.000000	0.013269
648.000000	0.013267
647.000000	0.013235
646.000000	0.013212
645.000000	0.013267
644.000000	0.013369
643.000000	0.013406
642.000000	0.013340
641.000000	0.013259
640.000000	0.013239
639.000000	0.013242
638.000000	0.013215
637.000000	0.013178
636.000000	0.013169
635.000000	0.013184
634.000000	0.013208
633.000000	0.013242
632.000000	0.013281
631.000000	0.013293
630.000000	0.013269
629.000000	0.013250
628.000000	0.013276
627.000000	0.013349
626.000000	0.013466
625.000000	0.013606
624.000000	0.013711
623.000000	0.013729
622.000000	0.013685
621.000000	0.013661
620.000000	0.013697
619.000000	0.013759
618.000000	0.013792
617.000000	0.013770
616.000000	0.013690
615.000000	0.013569
614.000000	0.013475
613.000000	0.013483
612.000000	0.013581
611.000000	0.013674
610.000000	0.013688
609.000000	0.013642
608.000000	0.013579
607.000000	0.013509
606.000000	0.013444
605.000000	0.013417
604.000000	0.013445
603.000000	0.013505
602.000000	0.013550
601.000000	0.013541
600.000000	0.013468
599.000000	0.013381
598.000000	0.013363
597.000000	0.013424
596.000000	0.013463
595.000000	0.013396
594.000000	0.013292
593.000000	0.013296
592.000000	0.013439
591.000000	0.013599
590.000000	0.013672
589.000000	0.013671
588.000000	0.013641
587.000000	0.013577
586.000000	0.013477
585.000000	0.013405
584.000000	0.013424
583.000000	0.013512
582.000000	0.013589
581.000000	0.013606
580.000000	0.013562
579.000000	0.013482
578.000000	0.013396
577.000000	0.013344
576.000000	0.013356
575.000000	0.013407
574.000000	0.013433
573.000000	0.013411
572.000000	0.013401
571.000000	0.013490
570.000000	0.013690
569.000000	0.013913
568.000000	0.014077
567.000000	0.014185
566.000000	0.014284
565.000000	0.014370
564.000000	0.014384
563.000000	0.014330
562.000000	0.014290
561.000000	0.014325
560.000000	0.014405
559.000000	0.014475
558.000000	0.014523
557.000000	0.014547
556.000000	0.014494
555.000000	0.014327
554.000000	0.014129
553.000000	0.014040
552.000000	0.014096
551.000000	0.014186
550.000000	0.014175
549.000000	0.014026
548.000000	0.013813
547.000000	0.013649
546.000000	0.013604
545.000000	0.013626
544.000000	0.013584
543.000000	0.013426
542.000000	0.013260
541.000000	0.013240
540.000000	0.013394
539.000000	0.013632
538.000000	0.013862
537.000000	0.014023
536.000000	0.014059
535.000000	0.013985
534.000000	0.013914
533.000000	0.013938
532.000000	0.013952
531.000000	0.013771
530.000000	0.013408
529.000000	0.013094
528.000000	0.012971
527.000000	0.012971
526.000000	0.012978
525.000000	0.012968
524.000000	0.012929
523.000000	0.012808
522.000000	0.012623
521.000000	0.012504
520.000000	0.012511
519.000000	0.012522
518.000000	0.012398
517.000000	0.012190
516.000000	0.012040
515.000000	0.011968
514.000000	0.011887
513.000000	0.011776
512.000000	0.011673
511.000000	0.011593
510.000000	0.011519
509.000000	0.011464
508.000000	0.011395
507.000000	0.011216
506.000000	0.010894
505.000000	0.010547
504.000000	0.010303
503.000000	0.010165
502.000000	0.010078
501.000000	0.010050
500.000000	0.010108
499.000000	0.010204
498.000000	0.010257
497.000000	0.010235
496.000000	0.010143
495.000000	0.009951
494.000000	0.009646
493.000000	0.009282
492.000000	0.008939
491.000000	0.008685
490.000000	0.008587
489.000000	0.008698
488.000000	0.008955
487.000000	0.009184
486.000000	0.009259
485.000000	0.009205
484.000000	0.009107
483.000000	0.009014
482.000000	0.008971
481.000000	0.009015
480.000000	0.009096
479.000000	0.009100
478.000000	0.008983
477.000000	0.008863
476.000000	0.008872
475.000000	0.008993
474.000000	0.009086
473.000000	0.009071
472.000000	0.008992
471.000000	0.008972
470.000000	0.009075
469.000000	0.009261
468.000000	0.009426
467.000000	0.009453
466.000000	0.009296
465.000000	0.009065
464.000000	0.008884
463.000000	0.008734
462.000000	0.008507
461.000000	0.008157
460.000000	0.007746
459.000000	0.007350
458.000000	0.007019
457.000000	0.006846
456.000000	0.006906
455.000000	0.007112
454.000000	0.007259
453.000000	0.007214
452.000000	0.006431
451.000000	0.006554
450.000000	0.006814
