PE IR       SUBTECH     SPECTRUM    ASCII       PEDS        4.00        
   -1
3G-H10-F030_1.ASC
22/02/23
15:46:43.00
22/02/23
15:55:22.00
uco
Sample 030 By uco Date Wednesday, February 23 2022
450.000000
#HDR
-1
-1
#GR
cm-1
A
1.0
0.0
4000.000000
-1.000000
3551
8
0.079145
0.007271
#DATA
4000.000000	0.007557
3999.000000	0.007519
3998.000000	0.007481
3997.000000	0.007456
3996.000000	0.007593
3995.000000	0.007627
3994.000000	0.007656
3993.000000	0.007669
3992.000000	0.007667
3991.000000	0.007655
3990.000000	0.007639
3989.000000	0.007630
3988.000000	0.007634
3987.000000	0.007654
3986.000000	0.007680
3985.000000	0.007701
3984.000000	0.007712
3983.000000	0.007716
3982.000000	0.007722
3981.000000	0.007733
3980.000000	0.007745
3979.000000	0.007753
3978.000000	0.007757
3977.000000	0.007759
3976.000000	0.007764
3975.000000	0.007770
3974.000000	0.007770
3973.000000	0.007757
3972.000000	0.007732
3971.000000	0.007707
3970.000000	0.007696
3969.000000	0.007703
3968.000000	0.007719
3967.000000	0.007731
3966.000000	0.007730
3965.000000	0.007721
3964.000000	0.007712
3963.000000	0.007710
3962.000000	0.007719
3961.000000	0.007738
3960.000000	0.007764
3959.000000	0.007791
3958.000000	0.007815
3957.000000	0.007835
3956.000000	0.007851
3955.000000	0.007864
3954.000000	0.007875
3953.000000	0.007879
3952.000000	0.007871
3951.000000	0.007850
3950.000000	0.007816
3949.000000	0.007776
3948.000000	0.007742
3947.000000	0.007729
3946.000000	0.007742
3945.000000	0.007781
3944.000000	0.007831
3943.000000	0.007876
3942.000000	0.007905
3941.000000	0.007918
3940.000000	0.007923
3939.000000	0.007922
3938.000000	0.007914
3937.000000	0.007895
3936.000000	0.007867
3935.000000	0.007842
3934.000000	0.007842
3933.000000	0.007879
3932.000000	0.007940
3931.000000	0.007998
3930.000000	0.008028
3929.000000	0.008033
3928.000000	0.008030
3927.000000	0.008032
3926.000000	0.008030
3925.000000	0.008009
3924.000000	0.007964
3923.000000	0.007910
3922.000000	0.007863
3921.000000	0.007833
3920.000000	0.007815
3919.000000	0.007804
3918.000000	0.007803
3917.000000	0.007813
3916.000000	0.007832
3915.000000	0.007856
3914.000000	0.007880
3913.000000	0.007907
3912.000000	0.007930
3911.000000	0.007946
3910.000000	0.007953
3909.000000	0.007955
3908.000000	0.007961
3907.000000	0.007970
3906.000000	0.007964
3905.000000	0.007920
3904.000000	0.007835
3903.000000	0.007746
3902.000000	0.007704
3901.000000	0.007732
3900.000000	0.007811
3899.000000	0.007901
3898.000000	0.007967
3897.000000	0.008000
3896.000000	0.008006
3895.000000	0.008000
3894.000000	0.007992
3893.000000	0.007986
3892.000000	0.007974
3891.000000	0.007953
3890.000000	0.007925
3889.000000	0.007891
3888.000000	0.007860
3887.000000	0.007841
3886.000000	0.007838
3885.000000	0.007844
3884.000000	0.007853
3883.000000	0.007874
3882.000000	0.007910
3881.000000	0.007946
3880.000000	0.007960
3879.000000	0.007953
3878.000000	0.007941
3877.000000	0.007938
3876.000000	0.007951
3875.000000	0.007967
3874.000000	0.007968
3873.000000	0.007942
3872.000000	0.007901
3871.000000	0.007867
3870.000000	0.007849
3869.000000	0.007844
3868.000000	0.007847
3867.000000	0.007857
3866.000000	0.007881
3865.000000	0.007917
3864.000000	0.007937
3863.000000	0.007933
3862.000000	0.007921
3861.000000	0.007915
3860.000000	0.007922
3859.000000	0.007947
3858.000000	0.007993
3857.000000	0.008058
3856.000000	0.008120
3855.000000	0.008139
3854.000000	0.008065
3853.000000	0.007929
3852.000000	0.007832
3851.000000	0.007804
3850.000000	0.007815
3849.000000	0.007845
3848.000000	0.007874
3847.000000	0.007894
3846.000000	0.007901
3845.000000	0.007899
3844.000000	0.007891
3843.000000	0.007883
3842.000000	0.007877
3841.000000	0.007877
3840.000000	0.007887
3839.000000	0.007906
3838.000000	0.007935
3837.000000	0.007971
3836.000000	0.008006
3835.000000	0.008023
3834.000000	0.008019
3833.000000	0.008007
3832.000000	0.008008
3831.000000	0.008019
3830.000000	0.008029
3829.000000	0.008037
3828.000000	0.008044
3827.000000	0.008048
3826.000000	0.008033
3825.000000	0.007988
3824.000000	0.007926
3823.000000	0.007887
3822.000000	0.007894
3821.000000	0.007915
3820.000000	0.007911
3819.000000	0.007880
3818.000000	0.007862
3817.000000	0.007893
3816.000000	0.007968
3815.000000	0.008041
3814.000000	0.008074
3813.000000	0.008070
3812.000000	0.008051
3811.000000	0.008033
3810.000000	0.008022
3809.000000	0.008013
3808.000000	0.008002
3807.000000	0.007986
3806.000000	0.007965
3805.000000	0.007948
3804.000000	0.007945
3803.000000	0.007967
3802.000000	0.007999
3801.000000	0.008014
3800.000000	0.008006
3799.000000	0.007998
3798.000000	0.008006
3797.000000	0.008028
3796.000000	0.008054
3795.000000	0.008071
3794.000000	0.008080
3793.000000	0.008086
3792.000000	0.008095
3791.000000	0.008107
3790.000000	0.008118
3789.000000	0.008120
3788.000000	0.008114
3787.000000	0.008108
3786.000000	0.008107
3785.000000	0.008115
3784.000000	0.008124
3783.000000	0.008126
3782.000000	0.008118
3781.000000	0.008104
3780.000000	0.008084
3779.000000	0.008059
3778.000000	0.008037
3777.000000	0.008032
3776.000000	0.008043
3775.000000	0.008060
3774.000000	0.008069
3773.000000	0.008066
3772.000000	0.008054
3771.000000	0.008039
3770.000000	0.008019
3769.000000	0.007987
3768.000000	0.007951
3767.000000	0.007926
3766.000000	0.007925
3765.000000	0.007948
3764.000000	0.007977
3763.000000	0.007995
3762.000000	0.007991
3761.000000	0.007972
3760.000000	0.007939
3759.000000	0.007896
3758.000000	0.007859
3757.000000	0.007837
3756.000000	0.007819
3755.000000	0.007783
3754.000000	0.007720
3753.000000	0.007643
3752.000000	0.007584
3751.000000	0.007563
3750.000000	0.007585
3749.000000	0.007628
3748.000000	0.007657
3747.000000	0.007665
3746.000000	0.007675
3745.000000	0.007712
3744.000000	0.007763
3743.000000	0.007789
3742.000000	0.007770
3741.000000	0.007714
3740.000000	0.007645
3739.000000	0.007574
3738.000000	0.007520
3737.000000	0.007499
3736.000000	0.007507
3735.000000	0.007507
3734.000000	0.007481
3733.000000	0.007465
3732.000000	0.007497
3731.000000	0.007573
3730.000000	0.007658
3729.000000	0.007725
3728.000000	0.007764
3727.000000	0.007780
3726.000000	0.007780
3725.000000	0.007771
3724.000000	0.007762
3723.000000	0.007759
3722.000000	0.007752
3721.000000	0.007742
3720.000000	0.007743
3719.000000	0.007760
3718.000000	0.007789
3717.000000	0.007815
3716.000000	0.007814
3715.000000	0.007779
3714.000000	0.007727
3713.000000	0.007692
3712.000000	0.007685
3711.000000	0.007685
3710.000000	0.007677
3709.000000	0.007666
3708.000000	0.007662
3707.000000	0.007673
3706.000000	0.007695
3705.000000	0.007726
3704.000000	0.007760
3703.000000	0.007791
3702.000000	0.007813
3701.000000	0.007826
3700.000000	0.007839
3699.000000	0.007851
3698.000000	0.007857
3697.000000	0.007859
3696.000000	0.007857
3695.000000	0.007846
3694.000000	0.007827
3693.000000	0.007805
3692.000000	0.007784
3691.000000	0.007756
3690.000000	0.007710
3689.000000	0.007666
3688.000000	0.007670
3687.000000	0.007719
3686.000000	0.007775
3685.000000	0.007809
3684.000000	0.007817
3683.000000	0.007813
3682.000000	0.007825
3681.000000	0.007870
3680.000000	0.007940
3679.000000	0.007999
3678.000000	0.008009
3677.000000	0.007974
3676.000000	0.007933
3675.000000	0.007911
3674.000000	0.007901
3673.000000	0.007883
3672.000000	0.007854
3671.000000	0.007842
3670.000000	0.007863
3669.000000	0.007912
3668.000000	0.007981
3667.000000	0.008060
3666.000000	0.008132
3665.000000	0.008194
3664.000000	0.008251
3663.000000	0.008309
3662.000000	0.008365
3661.000000	0.008398
3660.000000	0.008393
3659.000000	0.008360
3658.000000	0.008324
3657.000000	0.008313
3656.000000	0.008320
3655.000000	0.008315
3654.000000	0.008275
3653.000000	0.008204
3652.000000	0.008136
3651.000000	0.008119
3650.000000	0.008172
3649.000000	0.008270
3648.000000	0.008388
3647.000000	0.008501
3646.000000	0.008591
3645.000000	0.008658
3644.000000	0.008720
3643.000000	0.008785
3642.000000	0.008847
3641.000000	0.008889
3640.000000	0.008906
3639.000000	0.008915
3638.000000	0.008926
3637.000000	0.008945
3636.000000	0.008968
3635.000000	0.009000
3634.000000	0.009033
3633.000000	0.009058
3632.000000	0.009072
3631.000000	0.009091
3630.000000	0.009129
3629.000000	0.009172
3628.000000	0.009200
3627.000000	0.009219
3626.000000	0.009245
3625.000000	0.009279
3624.000000	0.009313
3623.000000	0.009341
3622.000000	0.009367
3621.000000	0.009402
3620.000000	0.009448
3619.000000	0.009491
3618.000000	0.009528
3617.000000	0.009573
3616.000000	0.009633
3615.000000	0.009704
3614.000000	0.009768
3613.000000	0.009807
3612.000000	0.009820
3611.000000	0.009830
3610.000000	0.009868
3609.000000	0.009955
3608.000000	0.010074
3607.000000	0.010190
3606.000000	0.010285
3605.000000	0.010364
3604.000000	0.010435
3603.000000	0.010501
3602.000000	0.010558
3601.000000	0.010602
3600.000000	0.010635
3599.000000	0.010655
3598.000000	0.010677
3597.000000	0.010721
3596.000000	0.010800
3595.000000	0.010903
3594.000000	0.010996
3593.000000	0.011050
3592.000000	0.011061
3591.000000	0.011048
3590.000000	0.011041
3589.000000	0.011075
3588.000000	0.011150
3587.000000	0.011241
3586.000000	0.011325
3585.000000	0.011402
3584.000000	0.011485
3583.000000	0.011585
3582.000000	0.011702
3581.000000	0.011826
3580.000000	0.011942
3579.000000	0.012040
3578.000000	0.012119
3577.000000	0.012188
3576.000000	0.012254
3575.000000	0.012317
3574.000000	0.012378
3573.000000	0.012435
3572.000000	0.012479
3571.000000	0.012502
3570.000000	0.012510
3569.000000	0.012526
3568.000000	0.012579
3567.000000	0.012673
3566.000000	0.012796
3565.000000	0.012934
3564.000000	0.013082
3563.000000	0.013233
3562.000000	0.013376
3561.000000	0.013500
3560.000000	0.013598
3559.000000	0.013677
3558.000000	0.013748
3557.000000	0.013818
3556.000000	0.013885
3555.000000	0.013946
3554.000000	0.014003
3553.000000	0.014067
3552.000000	0.014143
3551.000000	0.014222
3550.000000	0.014290
3549.000000	0.014343
3548.000000	0.014394
3547.000000	0.014462
3546.000000	0.014557
3545.000000	0.014672
3544.000000	0.014791
3543.000000	0.014906
3542.000000	0.015013
3541.000000	0.015116
3540.000000	0.015215
3539.000000	0.015308
3538.000000	0.015396
3537.000000	0.015475
3536.000000	0.015545
3535.000000	0.015608
3534.000000	0.015663
3533.000000	0.015713
3532.000000	0.015760
3531.000000	0.015810
3530.000000	0.015867
3529.000000	0.015931
3528.000000	0.016001
3527.000000	0.016074
3526.000000	0.016154
3525.000000	0.016245
3524.000000	0.016350
3523.000000	0.016464
3522.000000	0.016581
3521.000000	0.016691
3520.000000	0.016785
3519.000000	0.016854
3518.000000	0.016901
3517.000000	0.016939
3516.000000	0.016986
3515.000000	0.017046
3514.000000	0.017114
3513.000000	0.017181
3512.000000	0.017246
3511.000000	0.017309
3510.000000	0.017368
3509.000000	0.017419
3508.000000	0.017469
3507.000000	0.017525
3506.000000	0.017596
3505.000000	0.017683
3504.000000	0.017779
3503.000000	0.017872
3502.000000	0.017957
3501.000000	0.018036
3500.000000	0.018118
3499.000000	0.018206
3498.000000	0.018292
3497.000000	0.018371
3496.000000	0.018438
3495.000000	0.018496
3494.000000	0.018549
3493.000000	0.018602
3492.000000	0.018662
3491.000000	0.018730
3490.000000	0.018800
3489.000000	0.018864
3488.000000	0.018917
3487.000000	0.018967
3486.000000	0.019024
3485.000000	0.019095
3484.000000	0.019175
3483.000000	0.019253
3482.000000	0.019320
3481.000000	0.019377
3480.000000	0.019433
3479.000000	0.019494
3478.000000	0.019558
3477.000000	0.019619
3476.000000	0.019675
3475.000000	0.019728
3474.000000	0.019781
3473.000000	0.019836
3472.000000	0.019891
3471.000000	0.019945
3470.000000	0.019996
3469.000000	0.020048
3468.000000	0.020103
3467.000000	0.020160
3466.000000	0.020214
3465.000000	0.020263
3464.000000	0.020316
3463.000000	0.020382
3462.000000	0.020464
3461.000000	0.020558
3460.000000	0.020651
3459.000000	0.020736
3458.000000	0.020808
3457.000000	0.020871
3456.000000	0.020932
3455.000000	0.020990
3454.000000	0.021042
3453.000000	0.021081
3452.000000	0.021109
3451.000000	0.021139
3450.000000	0.021185
3449.000000	0.021253
3448.000000	0.021338
3447.000000	0.021425
3446.000000	0.021504
3445.000000	0.021574
3444.000000	0.021640
3443.000000	0.021704
3442.000000	0.021767
3441.000000	0.021830
3440.000000	0.021897
3439.000000	0.021970
3438.000000	0.022044
3437.000000	0.022114
3436.000000	0.022181
3435.000000	0.022252
3434.000000	0.022331
3433.000000	0.022413
3432.000000	0.022481
3431.000000	0.022531
3430.000000	0.022573
3429.000000	0.022625
3428.000000	0.022701
3427.000000	0.022803
3426.000000	0.022921
3425.000000	0.023035
3424.000000	0.023129
3423.000000	0.023201
3422.000000	0.023261
3421.000000	0.023321
3420.000000	0.023385
3419.000000	0.023454
3418.000000	0.023526
3417.000000	0.023599
3416.000000	0.023674
3415.000000	0.023755
3414.000000	0.023842
3413.000000	0.023925
3412.000000	0.023991
3411.000000	0.024043
3410.000000	0.024095
3409.000000	0.024163
3408.000000	0.024247
3407.000000	0.024336
3406.000000	0.024419
3405.000000	0.024494
3404.000000	0.024559
3403.000000	0.024617
3402.000000	0.024673
3401.000000	0.024729
3400.000000	0.024791
3399.000000	0.024862
3398.000000	0.024945
3397.000000	0.025040
3396.000000	0.025143
3395.000000	0.025245
3394.000000	0.025334
3393.000000	0.025407
3392.000000	0.025470
3391.000000	0.025534
3390.000000	0.025605
3389.000000	0.025682
3388.000000	0.025765
3387.000000	0.025851
3386.000000	0.025934
3385.000000	0.026004
3384.000000	0.026059
3383.000000	0.026111
3382.000000	0.026175
3381.000000	0.026255
3380.000000	0.026338
3379.000000	0.026410
3378.000000	0.026466
3377.000000	0.026513
3376.000000	0.026564
3375.000000	0.026627
3374.000000	0.026705
3373.000000	0.026793
3372.000000	0.026882
3371.000000	0.026968
3370.000000	0.027056
3369.000000	0.027152
3368.000000	0.027260
3367.000000	0.027376
3366.000000	0.027494
3365.000000	0.027607
3364.000000	0.027713
3363.000000	0.027818
3362.000000	0.027926
3361.000000	0.028038
3360.000000	0.028149
3359.000000	0.028252
3358.000000	0.028348
3357.000000	0.028446
3356.000000	0.028555
3355.000000	0.028675
3354.000000	0.028792
3353.000000	0.028892
3352.000000	0.028973
3351.000000	0.029048
3350.000000	0.029138
3349.000000	0.029252
3348.000000	0.029382
3347.000000	0.029512
3346.000000	0.029630
3345.000000	0.029736
3344.000000	0.029836
3343.000000	0.029933
3342.000000	0.030026
3341.000000	0.030115
3340.000000	0.030202
3339.000000	0.030302
3338.000000	0.030425
3337.000000	0.030566
3336.000000	0.030705
3335.000000	0.030821
3334.000000	0.030914
3333.000000	0.030999
3332.000000	0.031089
3331.000000	0.031179
3330.000000	0.031255
3329.000000	0.031311
3328.000000	0.031355
3327.000000	0.031405
3326.000000	0.031474
3325.000000	0.031562
3324.000000	0.031662
3323.000000	0.031763
3322.000000	0.031863
3321.000000	0.031960
3320.000000	0.032054
3319.000000	0.032142
3318.000000	0.032226
3317.000000	0.032305
3316.000000	0.032378
3315.000000	0.032446
3314.000000	0.032508
3313.000000	0.032566
3312.000000	0.032616
3311.000000	0.032658
3310.000000	0.032694
3309.000000	0.032725
3308.000000	0.032755
3307.000000	0.032788
3306.000000	0.032836
3305.000000	0.032905
3304.000000	0.032994
3303.000000	0.033090
3302.000000	0.033175
3301.000000	0.033241
3300.000000	0.033288
3299.000000	0.033324
3298.000000	0.033354
3297.000000	0.033375
3296.000000	0.033382
3295.000000	0.033379
3294.000000	0.033383
3293.000000	0.033410
3292.000000	0.033463
3291.000000	0.033526
3290.000000	0.033584
3289.000000	0.033623
3288.000000	0.033641
3287.000000	0.033642
3286.000000	0.033636
3285.000000	0.033634
3284.000000	0.033640
3283.000000	0.033650
3282.000000	0.033657
3281.000000	0.033660
3280.000000	0.033656
3279.000000	0.033644
3278.000000	0.033618
3277.000000	0.033577
3276.000000	0.033520
3275.000000	0.033448
3274.000000	0.033362
3273.000000	0.033271
3272.000000	0.033194
3271.000000	0.033144
3270.000000	0.033120
3269.000000	0.033105
3268.000000	0.033079
3267.000000	0.033032
3266.000000	0.032969
3265.000000	0.032904
3264.000000	0.032843
3263.000000	0.032787
3262.000000	0.032730
3261.000000	0.032665
3260.000000	0.032588
3259.000000	0.032501
3258.000000	0.032414
3257.000000	0.032337
3256.000000	0.032275
3255.000000	0.032220
3254.000000	0.032161
3253.000000	0.032092
3252.000000	0.032016
3251.000000	0.031932
3250.000000	0.031838
3249.000000	0.031736
3248.000000	0.031639
3247.000000	0.031558
3246.000000	0.031501
3245.000000	0.031463
3244.000000	0.031431
3243.000000	0.031397
3242.000000	0.031358
3241.000000	0.031313
3240.000000	0.031258
3239.000000	0.031187
3238.000000	0.031102
3237.000000	0.031010
3236.000000	0.030925
3235.000000	0.030850
3234.000000	0.030786
3233.000000	0.030730
3232.000000	0.030683
3231.000000	0.030641
3230.000000	0.030607
3229.000000	0.030580
3228.000000	0.030559
3227.000000	0.030536
3226.000000	0.030501
3225.000000	0.030455
3224.000000	0.030400
3223.000000	0.030337
3222.000000	0.030262
3221.000000	0.030178
3220.000000	0.030098
3219.000000	0.030036
3218.000000	0.029993
3217.000000	0.029953
3216.000000	0.029903
3215.000000	0.029841
3214.000000	0.029774
3213.000000	0.029704
3212.000000	0.029635
3211.000000	0.029571
3210.000000	0.029517
3209.000000	0.029471
3208.000000	0.029429
3207.000000	0.029382
3206.000000	0.029328
3205.000000	0.029272
3204.000000	0.029219
3203.000000	0.029160
3202.000000	0.029084
3201.000000	0.028987
3200.000000	0.028880
3199.000000	0.028781
3198.000000	0.028704
3197.000000	0.028646
3196.000000	0.028594
3195.000000	0.028543
3194.000000	0.028491
3193.000000	0.028437
3192.000000	0.028375
3191.000000	0.028298
3190.000000	0.028206
3189.000000	0.028101
3188.000000	0.027991
3187.000000	0.027884
3186.000000	0.027788
3185.000000	0.027712
3184.000000	0.027652
3183.000000	0.027595
3182.000000	0.027524
3181.000000	0.027432
3180.000000	0.027325
3179.000000	0.027211
3178.000000	0.027098
3177.000000	0.026994
3176.000000	0.026903
3175.000000	0.026827
3174.000000	0.026761
3173.000000	0.026697
3172.000000	0.026627
3171.000000	0.026546
3170.000000	0.026454
3169.000000	0.026358
3168.000000	0.026261
3167.000000	0.026164
3166.000000	0.026061
3165.000000	0.025951
3164.000000	0.025840
3163.000000	0.025738
3162.000000	0.025657
3161.000000	0.025598
3160.000000	0.025548
3159.000000	0.025486
3158.000000	0.025398
3157.000000	0.025287
3156.000000	0.025170
3155.000000	0.025060
3154.000000	0.024959
3153.000000	0.024870
3152.000000	0.024795
3151.000000	0.024738
3150.000000	0.024699
3149.000000	0.024670
3148.000000	0.024642
3147.000000	0.024606
3146.000000	0.024554
3145.000000	0.024480
3144.000000	0.024389
3143.000000	0.024290
3142.000000	0.024197
3141.000000	0.024117
3140.000000	0.024056
3139.000000	0.024011
3138.000000	0.023974
3137.000000	0.023935
3136.000000	0.023886
3135.000000	0.023827
3134.000000	0.023764
3133.000000	0.023708
3132.000000	0.023658
3131.000000	0.023609
3130.000000	0.023560
3129.000000	0.023517
3128.000000	0.023490
3127.000000	0.023477
3126.000000	0.023467
3125.000000	0.023446
3124.000000	0.023411
3123.000000	0.023369
3122.000000	0.023327
3121.000000	0.023286
3120.000000	0.023237
3119.000000	0.023175
3118.000000	0.023108
3117.000000	0.023057
3116.000000	0.023044
3115.000000	0.023073
3114.000000	0.023132
3113.000000	0.023201
3112.000000	0.023261
3111.000000	0.023302
3110.000000	0.023325
3109.000000	0.023336
3108.000000	0.023343
3107.000000	0.023349
3106.000000	0.023361
3105.000000	0.023378
3104.000000	0.023395
3103.000000	0.023397
3102.000000	0.023380
3101.000000	0.023354
3100.000000	0.023340
3099.000000	0.023354
3098.000000	0.023396
3097.000000	0.023451
3096.000000	0.023506
3095.000000	0.023553
3094.000000	0.023593
3093.000000	0.023627
3092.000000	0.023658
3091.000000	0.023683
3090.000000	0.023699
3089.000000	0.023703
3088.000000	0.023699
3087.000000	0.023701
3086.000000	0.023718
3085.000000	0.023754
3084.000000	0.023795
3083.000000	0.023831
3082.000000	0.023853
3081.000000	0.023861
3080.000000	0.023855
3079.000000	0.023846
3078.000000	0.023847
3077.000000	0.023867
3076.000000	0.023899
3075.000000	0.023930
3074.000000	0.023951
3073.000000	0.023960
3072.000000	0.023954
3071.000000	0.023930
3070.000000	0.023891
3069.000000	0.023849
3068.000000	0.023813
3067.000000	0.023789
3066.000000	0.023778
3065.000000	0.023778
3064.000000	0.023784
3063.000000	0.023785
3062.000000	0.023770
3061.000000	0.023738
3060.000000	0.023691
3059.000000	0.023635
3058.000000	0.023571
3057.000000	0.023499
3056.000000	0.023423
3055.000000	0.023348
3054.000000	0.023274
3053.000000	0.023195
3052.000000	0.023110
3051.000000	0.023027
3050.000000	0.022958
3049.000000	0.022904
3048.000000	0.022854
3047.000000	0.022788
3046.000000	0.022697
3045.000000	0.022591
3044.000000	0.022487
3043.000000	0.022399
3042.000000	0.022336
3041.000000	0.022290
3040.000000	0.022248
3039.000000	0.022192
3038.000000	0.022115
3037.000000	0.022025
3036.000000	0.021939
3035.000000	0.021869
3034.000000	0.021813
3033.000000	0.021760
3032.000000	0.021697
3031.000000	0.021624
3030.000000	0.021551
3029.000000	0.021487
3028.000000	0.021426
3027.000000	0.021357
3026.000000	0.021277
3025.000000	0.021198
3024.000000	0.021131
3023.000000	0.021075
3022.000000	0.021021
3021.000000	0.020963
3020.000000	0.020904
3019.000000	0.020849
3018.000000	0.020797
3017.000000	0.020745
3016.000000	0.020696
3015.000000	0.020657
3014.000000	0.020631
3013.000000	0.020615
3012.000000	0.020604
3011.000000	0.020596
3010.000000	0.020592
3009.000000	0.020590
3008.000000	0.020587
3007.000000	0.020581
3006.000000	0.020577
3005.000000	0.020583
3004.000000	0.020601
3003.000000	0.020628
3002.000000	0.020654
3001.000000	0.020677
3000.000000	0.020699
2999.000000	0.020727
2998.000000	0.020770
2997.000000	0.020832
2996.000000	0.020915
2995.000000	0.021018
2994.000000	0.021139
2993.000000	0.021275
2992.000000	0.021418
2991.000000	0.021557
2990.000000	0.021690
2989.000000	0.021827
2988.000000	0.021983
2987.000000	0.022168
2986.000000	0.022371
2985.000000	0.022574
2984.000000	0.022764
2983.000000	0.022948
2982.000000	0.023136
2981.000000	0.023333
2980.000000	0.023538
2979.000000	0.023752
2978.000000	0.023980
2977.000000	0.024224
2976.000000	0.024472
2975.000000	0.024712
2974.000000	0.024938
2973.000000	0.025160
2972.000000	0.025391
2971.000000	0.025646
2970.000000	0.025928
2969.000000	0.026233
2968.000000	0.026546
2967.000000	0.026847
2966.000000	0.027119
2965.000000	0.027358
2964.000000	0.027571
2963.000000	0.027772
2962.000000	0.027971
2961.000000	0.028165
2960.000000	0.028342
2959.000000	0.028493
2958.000000	0.028616
2957.000000	0.028720
2956.000000	0.028814
2955.000000	0.028903
2954.000000	0.028985
2953.000000	0.029056
2952.000000	0.029113
2951.000000	0.029164
2950.000000	0.029217
2949.000000	0.029281
2948.000000	0.029364
2947.000000	0.029467
2946.000000	0.029592
2945.000000	0.029734
2944.000000	0.029899
2943.000000	0.030104
2942.000000	0.030366
2941.000000	0.030684
2940.000000	0.031041
2939.000000	0.031416
2938.000000	0.031804
2937.000000	0.032213
2936.000000	0.032658
2935.000000	0.033139
2934.000000	0.033645
2933.000000	0.034155
2932.000000	0.034651
2931.000000	0.035133
2930.000000	0.035614
2929.000000	0.036100
2928.000000	0.036579
2927.000000	0.037028
2926.000000	0.037428
2925.000000	0.037774
2924.000000	0.038061
2923.000000	0.038280
2922.000000	0.038413
2921.000000	0.038448
2920.000000	0.038372
2919.000000	0.038169
2918.000000	0.037819
2917.000000	0.037302
2916.000000	0.036621
2915.000000	0.035813
2914.000000	0.034942
2913.000000	0.034073
2912.000000	0.033251
2911.000000	0.032508
2910.000000	0.031855
2909.000000	0.031288
2908.000000	0.030791
2907.000000	0.030343
2906.000000	0.029939
2905.000000	0.029584
2904.000000	0.029281
2903.000000	0.029020
2902.000000	0.028779
2901.000000	0.028543
2900.000000	0.028301
2899.000000	0.028052
2898.000000	0.027800
2897.000000	0.027556
2896.000000	0.027328
2895.000000	0.027121
2894.000000	0.026936
2893.000000	0.026770
2892.000000	0.026617
2891.000000	0.026475
2890.000000	0.026343
2889.000000	0.026221
2888.000000	0.026107
2887.000000	0.026001
2886.000000	0.025903
2885.000000	0.025819
2884.000000	0.025755
2883.000000	0.025710
2882.000000	0.025685
2881.000000	0.025678
2880.000000	0.025690
2879.000000	0.025717
2878.000000	0.025750
2877.000000	0.025780
2876.000000	0.025799
2875.000000	0.025805
2874.000000	0.025802
2873.000000	0.025793
2872.000000	0.025774
2871.000000	0.025734
2870.000000	0.025670
2869.000000	0.025592
2868.000000	0.025516
2867.000000	0.025456
2866.000000	0.025415
2865.000000	0.025400
2864.000000	0.025416
2863.000000	0.025474
2862.000000	0.025592
2861.000000	0.025791
2860.000000	0.026075
2859.000000	0.026432
2858.000000	0.026837
2857.000000	0.027275
2856.000000	0.027740
2855.000000	0.028222
2854.000000	0.028692
2853.000000	0.029091
2852.000000	0.029342
2851.000000	0.029372
2850.000000	0.029134
2849.000000	0.028626
2848.000000	0.027895
2847.000000	0.027025
2846.000000	0.026113
2845.000000	0.025245
2844.000000	0.024480
2843.000000	0.023839
2842.000000	0.023308
2841.000000	0.022860
2840.000000	0.022470
2839.000000	0.022126
2838.000000	0.021824
2837.000000	0.021563
2836.000000	0.021337
2835.000000	0.021141
2834.000000	0.020974
2833.000000	0.020831
2832.000000	0.020703
2831.000000	0.020575
2830.000000	0.020442
2829.000000	0.020309
2828.000000	0.020186
2827.000000	0.020081
2826.000000	0.019988
2825.000000	0.019896
2824.000000	0.019798
2823.000000	0.019697
2822.000000	0.019600
2821.000000	0.019505
2820.000000	0.019411
2819.000000	0.019316
2818.000000	0.019225
2817.000000	0.019139
2816.000000	0.019057
2815.000000	0.018977
2814.000000	0.018903
2813.000000	0.018844
2812.000000	0.018800
2811.000000	0.018762
2810.000000	0.018718
2809.000000	0.018663
2808.000000	0.018604
2807.000000	0.018555
2806.000000	0.018522
2805.000000	0.018501
2804.000000	0.018478
2803.000000	0.018441
2802.000000	0.018393
2801.000000	0.018345
2800.000000	0.018306
2799.000000	0.018271
2798.000000	0.018226
2797.000000	0.018166
2796.000000	0.018098
2795.000000	0.018039
2794.000000	0.017997
2793.000000	0.017968
2792.000000	0.017946
2791.000000	0.017927
2790.000000	0.017908
2789.000000	0.017883
2788.000000	0.017844
2787.000000	0.017792
2786.000000	0.017737
2785.000000	0.017692
2784.000000	0.017661
2783.000000	0.017636
2782.000000	0.017607
2781.000000	0.017570
2780.000000	0.017528
2779.000000	0.017487
2778.000000	0.017455
2777.000000	0.017429
2776.000000	0.017399
2775.000000	0.017359
2774.000000	0.017313
2773.000000	0.017269
2772.000000	0.017226
2771.000000	0.017183
2770.000000	0.017139
2769.000000	0.017103
2768.000000	0.017083
2767.000000	0.017074
2766.000000	0.017063
2765.000000	0.017041
2764.000000	0.017010
2763.000000	0.016977
2762.000000	0.016947
2761.000000	0.016918
2760.000000	0.016887
2759.000000	0.016852
2758.000000	0.016821
2757.000000	0.016802
2756.000000	0.016792
2755.000000	0.016784
2754.000000	0.016767
2753.000000	0.016738
2752.000000	0.016697
2751.000000	0.016650
2750.000000	0.016606
2749.000000	0.016575
2748.000000	0.016556
2747.000000	0.016541
2746.000000	0.016521
2745.000000	0.016493
2744.000000	0.016457
2743.000000	0.016418
2742.000000	0.016382
2741.000000	0.016354
2740.000000	0.016332
2739.000000	0.016313
2738.000000	0.016292
2737.000000	0.016268
2736.000000	0.016246
2735.000000	0.016230
2734.000000	0.016222
2733.000000	0.016212
2732.000000	0.016183
2731.000000	0.016133
2730.000000	0.016076
2729.000000	0.016033
2728.000000	0.016009
2727.000000	0.015997
2726.000000	0.015987
2725.000000	0.015973
2724.000000	0.015952
2723.000000	0.015923
2722.000000	0.015890
2721.000000	0.015863
2720.000000	0.015841
2719.000000	0.015818
2718.000000	0.015792
2717.000000	0.015769
2716.000000	0.015753
2715.000000	0.015740
2714.000000	0.015723
2713.000000	0.015696
2712.000000	0.015663
2711.000000	0.015631
2710.000000	0.015610
2709.000000	0.015598
2708.000000	0.015589
2707.000000	0.015570
2706.000000	0.015545
2705.000000	0.015521
2704.000000	0.015508
2703.000000	0.015505
2702.000000	0.015508
2701.000000	0.015508
2700.000000	0.015496
2699.000000	0.015467
2698.000000	0.015424
2697.000000	0.015384
2696.000000	0.015362
2695.000000	0.015355
2694.000000	0.015348
2693.000000	0.015331
2692.000000	0.015305
2691.000000	0.015283
2690.000000	0.015272
2689.000000	0.015274
2688.000000	0.015281
2687.000000	0.015281
2686.000000	0.015271
2685.000000	0.015253
2684.000000	0.015231
2683.000000	0.015210
2682.000000	0.015195
2681.000000	0.015194
2680.000000	0.015206
2679.000000	0.015219
2678.000000	0.015221
2677.000000	0.015206
2676.000000	0.015182
2675.000000	0.015157
2674.000000	0.015141
2673.000000	0.015137
2672.000000	0.015141
2671.000000	0.015139
2670.000000	0.015126
2669.000000	0.015104
2668.000000	0.015086
2667.000000	0.015077
2666.000000	0.015077
2665.000000	0.015077
2664.000000	0.015070
2663.000000	0.015059
2662.000000	0.015049
2661.000000	0.015046
2660.000000	0.015047
2659.000000	0.015044
2658.000000	0.015032
2657.000000	0.015013
2656.000000	0.014994
2655.000000	0.014976
2654.000000	0.014960
2653.000000	0.014941
2652.000000	0.014914
2651.000000	0.014877
2650.000000	0.014832
2649.000000	0.014789
2648.000000	0.014748
2647.000000	0.014701
2646.000000	0.014644
2645.000000	0.014584
2644.000000	0.014537
2643.000000	0.014510
2642.000000	0.014496
2641.000000	0.014483
2640.000000	0.014461
2639.000000	0.014428
2638.000000	0.014386
2637.000000	0.014346
2636.000000	0.014318
2635.000000	0.014306
2634.000000	0.014297
2633.000000	0.014272
2632.000000	0.014228
2631.000000	0.014182
2630.000000	0.014155
2629.000000	0.014141
2628.000000	0.014117
2627.000000	0.014068
2626.000000	0.014007
2625.000000	0.013954
2624.000000	0.013918
2623.000000	0.013892
2622.000000	0.013870
2621.000000	0.013851
2620.000000	0.013833
2619.000000	0.013812
2618.000000	0.013787
2617.000000	0.013760
2616.000000	0.013732
2615.000000	0.013704
2614.000000	0.013678
2613.000000	0.013650
2612.000000	0.013614
2611.000000	0.013568
2610.000000	0.013520
2609.000000	0.013486
2608.000000	0.013468
2607.000000	0.013455
2606.000000	0.013440
2605.000000	0.013423
2604.000000	0.013404
2603.000000	0.013384
2602.000000	0.013369
2601.000000	0.013367
2600.000000	0.013373
2599.000000	0.013375
2598.000000	0.013366
2597.000000	0.013351
2596.000000	0.013331
2595.000000	0.013296
2594.000000	0.013243
2593.000000	0.013187
2592.000000	0.013152
2591.000000	0.013144
2590.000000	0.013147
2589.000000	0.013137
2588.000000	0.013098
2587.000000	0.013034
2586.000000	0.012964
2585.000000	0.012910
2584.000000	0.012881
2583.000000	0.012875
2582.000000	0.012881
2581.000000	0.012887
2580.000000	0.012880
2579.000000	0.012848
2578.000000	0.012792
2577.000000	0.012728
2576.000000	0.012681
2575.000000	0.012663
2574.000000	0.012673
2573.000000	0.012696
2572.000000	0.012717
2571.000000	0.012733
2570.000000	0.012741
2569.000000	0.012737
2568.000000	0.012718
2567.000000	0.012685
2566.000000	0.012647
2565.000000	0.012611
2564.000000	0.012583
2563.000000	0.012572
2562.000000	0.012590
2561.000000	0.012636
2560.000000	0.012691
2559.000000	0.012730
2558.000000	0.012742
2557.000000	0.012730
2556.000000	0.012697
2555.000000	0.012649
2554.000000	0.012603
2553.000000	0.012579
2552.000000	0.012582
2551.000000	0.012595
2550.000000	0.012597
2549.000000	0.012578
2548.000000	0.012548
2547.000000	0.012522
2546.000000	0.012506
2545.000000	0.012492
2544.000000	0.012466
2543.000000	0.012423
2542.000000	0.012379
2541.000000	0.012356
2540.000000	0.012359
2539.000000	0.012380
2538.000000	0.012407
2537.000000	0.012432
2536.000000	0.012443
2535.000000	0.012438
2534.000000	0.012423
2533.000000	0.012407
2532.000000	0.012391
2531.000000	0.012374
2530.000000	0.012367
2529.000000	0.012375
2528.000000	0.012388
2527.000000	0.012388
2526.000000	0.012372
2525.000000	0.012352
2524.000000	0.012340
2523.000000	0.012344
2522.000000	0.012364
2521.000000	0.012396
2520.000000	0.012426
2519.000000	0.012441
2518.000000	0.012437
2517.000000	0.012413
2516.000000	0.012374
2515.000000	0.012329
2514.000000	0.012300
2513.000000	0.012296
2512.000000	0.012302
2511.000000	0.012298
2510.000000	0.012286
2509.000000	0.012276
2508.000000	0.012262
2507.000000	0.012230
2506.000000	0.012185
2505.000000	0.012145
2504.000000	0.012124
2503.000000	0.012119
2502.000000	0.012121
2501.000000	0.012126
2500.000000	0.012127
2499.000000	0.012118
2498.000000	0.012110
2497.000000	0.012111
2496.000000	0.012115
2495.000000	0.012106
2494.000000	0.012079
2493.000000	0.012051
2492.000000	0.012039
2491.000000	0.012047
2490.000000	0.012070
2489.000000	0.012091
2488.000000	0.012093
2487.000000	0.012067
2486.000000	0.012031
2485.000000	0.012008
2484.000000	0.012003
2483.000000	0.011996
2482.000000	0.011976
2481.000000	0.011952
2480.000000	0.011932
2479.000000	0.011908
2478.000000	0.011872
2477.000000	0.011835
2476.000000	0.011816
2475.000000	0.011825
2474.000000	0.011857
2473.000000	0.011891
2472.000000	0.011908
2471.000000	0.011903
2470.000000	0.011891
2469.000000	0.011885
2468.000000	0.011885
2467.000000	0.011878
2466.000000	0.011862
2465.000000	0.011844
2464.000000	0.011831
2463.000000	0.011824
2462.000000	0.011819
2461.000000	0.011817
2460.000000	0.011810
2459.000000	0.011792
2458.000000	0.011766
2457.000000	0.011736
2456.000000	0.011700
2455.000000	0.011658
2454.000000	0.011626
2453.000000	0.011622
2452.000000	0.011645
2451.000000	0.011674
2450.000000	0.011689
2449.000000	0.011693
2448.000000	0.011702
2447.000000	0.011725
2446.000000	0.011755
2445.000000	0.011770
2444.000000	0.011754
2443.000000	0.011710
2442.000000	0.011660
2441.000000	0.011621
2440.000000	0.011596
2439.000000	0.011582
2438.000000	0.011587
2437.000000	0.011611
2436.000000	0.011634
2435.000000	0.011630
2434.000000	0.011604
2433.000000	0.011584
2432.000000	0.011582
2431.000000	0.011586
2430.000000	0.011578
2429.000000	0.011552
2428.000000	0.011515
2427.000000	0.011484
2426.000000	0.011476
2425.000000	0.011490
2424.000000	0.011504
2423.000000	0.011491
2422.000000	0.011452
2421.000000	0.011410
2420.000000	0.011390
2419.000000	0.011399
2418.000000	0.011431
2417.000000	0.011469
2416.000000	0.011492
2415.000000	0.011491
2414.000000	0.011481
2413.000000	0.011478
2412.000000	0.011477
2411.000000	0.011466
2410.000000	0.011442
2409.000000	0.011414
2408.000000	0.011385
2407.000000	0.011356
2406.000000	0.011337
2405.000000	0.011337
2404.000000	0.011353
2403.000000	0.011373
2402.000000	0.011397
2401.000000	0.011428
2400.000000	0.011452
2399.000000	0.011450
2398.000000	0.011423
2397.000000	0.011396
2396.000000	0.011385
2395.000000	0.011389
2394.000000	0.011405
2393.000000	0.011433
2392.000000	0.011466
2391.000000	0.011489
2390.000000	0.011495
2389.000000	0.011486
2388.000000	0.011468
2387.000000	0.011444
2386.000000	0.011425
2385.000000	0.011418
2384.000000	0.011414
2383.000000	0.011394
2382.000000	0.011357
2381.000000	0.011316
2380.000000	0.011283
2379.000000	0.011269
2378.000000	0.011284
2377.000000	0.011334
2376.000000	0.011402
2375.000000	0.011464
2374.000000	0.011509
2373.000000	0.011527
2372.000000	0.011496
2371.000000	0.011407
2370.000000	0.011299
2369.000000	0.011224
2368.000000	0.011209
2367.000000	0.011248
2366.000000	0.011327
2365.000000	0.011416
2364.000000	0.011476
2363.000000	0.011501
2362.000000	0.011525
2361.000000	0.011569
2360.000000	0.011620
2359.000000	0.011651
2358.000000	0.011636
2357.000000	0.011579
2356.000000	0.011518
2355.000000	0.011515
2354.000000	0.011537
2353.000000	0.011502
2352.000000	0.011417
2351.000000	0.011383
2350.000000	0.011453
2349.000000	0.011584
2348.000000	0.011691
2347.000000	0.011698
2346.000000	0.011623
2345.000000	0.011579
2344.000000	0.011627
2343.000000	0.011708
2342.000000	0.011730
2341.000000	0.011684
2340.000000	0.011637
2339.000000	0.011639
2338.000000	0.011664
2337.000000	0.011666
2336.000000	0.011640
2335.000000	0.011593
2334.000000	0.011516
2333.000000	0.011407
2332.000000	0.011328
2331.000000	0.011337
2330.000000	0.011435
2329.000000	0.011562
2328.000000	0.011687
2327.000000	0.011797
2326.000000	0.011874
2325.000000	0.011879
2324.000000	0.011807
2323.000000	0.011703
2322.000000	0.011643
2321.000000	0.011668
2320.000000	0.011748
2319.000000	0.011805
2318.000000	0.011800
2317.000000	0.011740
2316.000000	0.011671
2315.000000	0.011620
2314.000000	0.011607
2313.000000	0.011628
2312.000000	0.011658
2311.000000	0.011644
2310.000000	0.011573
2309.000000	0.011473
2308.000000	0.011396
2307.000000	0.011346
2306.000000	0.011307
2305.000000	0.011269
2304.000000	0.011248
2303.000000	0.011248
2302.000000	0.011264
2301.000000	0.011282
2300.000000	0.011293
2299.000000	0.011286
2298.000000	0.011267
2297.000000	0.011243
2296.000000	0.011235
2295.000000	0.011246
2294.000000	0.011279
2293.000000	0.011325
2292.000000	0.011369
2291.000000	0.011393
2290.000000	0.011391
2289.000000	0.011377
2288.000000	0.011369
2287.000000	0.011379
2286.000000	0.011403
2285.000000	0.011423
2284.000000	0.011406
2283.000000	0.011333
2282.000000	0.011227
2281.000000	0.011138
2280.000000	0.011095
2279.000000	0.011082
2278.000000	0.011066
2277.000000	0.011030
2276.000000	0.010972
2275.000000	0.010903
2274.000000	0.010850
2273.000000	0.010836
2272.000000	0.010856
2271.000000	0.010878
2270.000000	0.010891
2269.000000	0.010910
2268.000000	0.010936
2267.000000	0.010941
2266.000000	0.010900
2265.000000	0.010822
2264.000000	0.010745
2263.000000	0.010707
2262.000000	0.010735
2261.000000	0.010816
2260.000000	0.010891
2259.000000	0.010897
2258.000000	0.010829
2257.000000	0.010738
2256.000000	0.010665
2255.000000	0.010603
2254.000000	0.010534
2253.000000	0.010469
2252.000000	0.010440
2251.000000	0.010460
2250.000000	0.010516
2249.000000	0.010577
2248.000000	0.010600
2247.000000	0.010568
2246.000000	0.010506
2245.000000	0.010461
2244.000000	0.010460
2243.000000	0.010492
2242.000000	0.010536
2241.000000	0.010571
2240.000000	0.010575
2239.000000	0.010548
2238.000000	0.010531
2237.000000	0.010564
2236.000000	0.010617
2235.000000	0.010615
2234.000000	0.010523
2233.000000	0.010383
2232.000000	0.010261
2231.000000	0.010203
2230.000000	0.010237
2229.000000	0.010367
2228.000000	0.010545
2227.000000	0.010688
2226.000000	0.010738
2225.000000	0.010693
2224.000000	0.010585
2223.000000	0.010462
2222.000000	0.010381
2221.000000	0.010377
2220.000000	0.010421
2219.000000	0.010460
2218.000000	0.010480
2217.000000	0.010498
2216.000000	0.010507
2215.000000	0.010478
2214.000000	0.010426
2213.000000	0.010403
2212.000000	0.010436
2211.000000	0.010506
2210.000000	0.010594
2209.000000	0.010696
2208.000000	0.010779
2207.000000	0.010781
2206.000000	0.010676
2205.000000	0.010496
2204.000000	0.010304
2203.000000	0.010164
2202.000000	0.010124
2201.000000	0.010176
2200.000000	0.010237
2199.000000	0.010224
2198.000000	0.010146
2197.000000	0.010066
2196.000000	0.010006
2195.000000	0.009954
2194.000000	0.009932
2193.000000	0.009982
2192.000000	0.010089
2191.000000	0.010185
2190.000000	0.010231
2189.000000	0.010229
2188.000000	0.010163
2187.000000	0.010019
2186.000000	0.009839
2185.000000	0.009686
2184.000000	0.009551
2183.000000	0.009386
2182.000000	0.009227
2181.000000	0.009176
2180.000000	0.009268
2179.000000	0.009447
2178.000000	0.009666
2177.000000	0.009905
2176.000000	0.010097
2175.000000	0.010129
2174.000000	0.009967
2173.000000	0.009697
2172.000000	0.009442
2171.000000	0.009296
2170.000000	0.009310
2169.000000	0.009442
2168.000000	0.009536
2167.000000	0.009466
2166.000000	0.009293
2165.000000	0.009195
2164.000000	0.009229
2163.000000	0.009278
2162.000000	0.009220
2161.000000	0.009029
2160.000000	0.008718
2159.000000	0.008345
2158.000000	0.008060
2157.000000	0.007960
2156.000000	0.007933
2155.000000	0.007836
2154.000000	0.007733
2153.000000	0.007805
2152.000000	0.008085
2151.000000	0.008417
2150.000000	0.008673
2149.000000	0.008864
2148.000000	0.009033
2147.000000	0.009169
2146.000000	0.009252
2145.000000	0.009294
2144.000000	0.009297
2143.000000	0.009263
2142.000000	0.009236
2141.000000	0.009266
2140.000000	0.009334
2139.000000	0.009371
2138.000000	0.009359
2137.000000	0.009333
2136.000000	0.009311
2135.000000	0.009281
2134.000000	0.009263
2133.000000	0.009300
2132.000000	0.009390
2131.000000	0.009484
2130.000000	0.009559
2129.000000	0.009624
2128.000000	0.009679
2127.000000	0.009719
2126.000000	0.009773
2125.000000	0.009869
2124.000000	0.009976
2123.000000	0.010040
2122.000000	0.010061
2121.000000	0.010087
2120.000000	0.010139
2119.000000	0.010177
2118.000000	0.010165
2117.000000	0.010102
2116.000000	0.010008
2115.000000	0.009916
2114.000000	0.009872
2113.000000	0.009901
2112.000000	0.009965
2111.000000	0.009999
2110.000000	0.010006
2109.000000	0.010033
2108.000000	0.010088
2107.000000	0.010125
2106.000000	0.010120
2105.000000	0.010103
2104.000000	0.010100
2103.000000	0.010112
2102.000000	0.010147
2101.000000	0.010214
2100.000000	0.010283
2099.000000	0.010302
2098.000000	0.010259
2097.000000	0.010196
2096.000000	0.010142
2095.000000	0.010090
2094.000000	0.010041
2093.000000	0.010009
2092.000000	0.009992
2091.000000	0.009981
2090.000000	0.009989
2089.000000	0.010026
2088.000000	0.010057
2087.000000	0.010047
2086.000000	0.010023
2085.000000	0.010034
2084.000000	0.010061
2083.000000	0.010042
2082.000000	0.009982
2081.000000	0.009956
2080.000000	0.009982
2079.000000	0.010000
2078.000000	0.009962
2077.000000	0.009886
2076.000000	0.009794
2075.000000	0.009679
2074.000000	0.009563
2073.000000	0.009502
2072.000000	0.009516
2071.000000	0.009563
2070.000000	0.009603
2069.000000	0.009616
2068.000000	0.009567
2067.000000	0.009438
2066.000000	0.009292
2065.000000	0.009236
2064.000000	0.009277
2063.000000	0.009314
2062.000000	0.009292
2061.000000	0.009267
2060.000000	0.009299
2059.000000	0.009365
2058.000000	0.009410
2057.000000	0.009413
2056.000000	0.009382
2055.000000	0.009354
2054.000000	0.009398
2053.000000	0.009548
2052.000000	0.009722
2051.000000	0.009775
2050.000000	0.009662
2049.000000	0.009460
2048.000000	0.009250
2047.000000	0.009040
2046.000000	0.008850
2045.000000	0.008750
2044.000000	0.008748
2043.000000	0.008760
2042.000000	0.008719
2041.000000	0.008606
2040.000000	0.008389
2039.000000	0.008050
2038.000000	0.007698
2037.000000	0.007512
2036.000000	0.007521
2035.000000	0.007574
2034.000000	0.007576
2033.000000	0.007592
2032.000000	0.007701
2031.000000	0.007884
2030.000000	0.008095
2029.000000	0.008282
2028.000000	0.008342
2027.000000	0.008211
2026.000000	0.008001
2025.000000	0.007892
2024.000000	0.007885
2023.000000	0.007830
2022.000000	0.007689
2021.000000	0.007591
2020.000000	0.007619
2019.000000	0.007726
2018.000000	0.007869
2017.000000	0.008062
2016.000000	0.008257
2015.000000	0.008352
2014.000000	0.008339
2013.000000	0.008290
2012.000000	0.008225
2011.000000	0.008128
2010.000000	0.008058
2009.000000	0.008093
2008.000000	0.008175
2007.000000	0.008185
2006.000000	0.008154
2005.000000	0.008201
2004.000000	0.008301
2003.000000	0.008314
2002.000000	0.008213
2001.000000	0.008096
2000.000000	0.008001
1999.000000	0.007901
1998.000000	0.007855
1997.000000	0.007967
1996.000000	0.008187
1995.000000	0.008326
1994.000000	0.008292
1993.000000	0.008184
1992.000000	0.008119
1991.000000	0.008106
1990.000000	0.008135
1989.000000	0.008225
1988.000000	0.008346
1987.000000	0.008428
1986.000000	0.008468
1985.000000	0.008523
1984.000000	0.008594
1983.000000	0.008626
1982.000000	0.008617
1981.000000	0.008602
1980.000000	0.008542
1979.000000	0.008378
1978.000000	0.008177
1977.000000	0.008065
1976.000000	0.008002
1975.000000	0.007844
1974.000000	0.007605
1973.000000	0.007439
1972.000000	0.007388
1971.000000	0.007367
1970.000000	0.007354
1969.000000	0.007422
1968.000000	0.007570
1967.000000	0.007704
1966.000000	0.007812
1965.000000	0.007963
1964.000000	0.008132
1963.000000	0.008205
1962.000000	0.008164
1961.000000	0.008109
1960.000000	0.008096
1959.000000	0.008089
1958.000000	0.008082
1957.000000	0.008129
1956.000000	0.008251
1955.000000	0.008417
1954.000000	0.008597
1953.000000	0.008729
1952.000000	0.008700
1951.000000	0.008470
1950.000000	0.008204
1949.000000	0.008123
1948.000000	0.008227
1947.000000	0.008335
1946.000000	0.008360
1945.000000	0.008388
1944.000000	0.008487
1943.000000	0.008588
1942.000000	0.008618
1941.000000	0.008607
1940.000000	0.008594
1939.000000	0.008556
1938.000000	0.008484
1937.000000	0.008430
1936.000000	0.008424
1935.000000	0.008426
1934.000000	0.008391
1933.000000	0.008332
1932.000000	0.008276
1931.000000	0.008238
1930.000000	0.008261
1929.000000	0.008377
1928.000000	0.008523
1927.000000	0.008600
1926.000000	0.008599
1925.000000	0.008616
1924.000000	0.008696
1923.000000	0.008761
1922.000000	0.008739
1921.000000	0.008652
1920.000000	0.008536
1919.000000	0.008399
1918.000000	0.008282
1917.000000	0.008254
1916.000000	0.008315
1915.000000	0.008399
1914.000000	0.008458
1913.000000	0.008495
1912.000000	0.008514
1911.000000	0.008506
1910.000000	0.008496
1909.000000	0.008517
1908.000000	0.008551
1907.000000	0.008567
1906.000000	0.008575
1905.000000	0.008611
1904.000000	0.008639
1903.000000	0.008609
1902.000000	0.008552
1901.000000	0.008537
1900.000000	0.008549
1899.000000	0.008533
1898.000000	0.008504
1897.000000	0.008527
1896.000000	0.008585
1895.000000	0.008583
1894.000000	0.008514
1893.000000	0.008471
1892.000000	0.008501
1891.000000	0.008551
1890.000000	0.008566
1889.000000	0.008537
1888.000000	0.008466
1887.000000	0.008365
1886.000000	0.008285
1885.000000	0.008277
1884.000000	0.008313
1883.000000	0.008327
1882.000000	0.008327
1881.000000	0.008375
1880.000000	0.008462
1879.000000	0.008520
1878.000000	0.008522
1877.000000	0.008514
1876.000000	0.008514
1875.000000	0.008485
1874.000000	0.008408
1873.000000	0.008323
1872.000000	0.008251
1871.000000	0.008182
1870.000000	0.008141
1869.000000	0.008168
1868.000000	0.008209
1867.000000	0.008194
1866.000000	0.008170
1865.000000	0.008205
1864.000000	0.008265
1863.000000	0.008277
1862.000000	0.008247
1861.000000	0.008250
1860.000000	0.008297
1859.000000	0.008327
1858.000000	0.008313
1857.000000	0.008291
1856.000000	0.008270
1855.000000	0.008241
1854.000000	0.008225
1853.000000	0.008248
1852.000000	0.008270
1851.000000	0.008247
1850.000000	0.008204
1849.000000	0.008188
1848.000000	0.008177
1847.000000	0.008108
1846.000000	0.007986
1845.000000	0.007900
1844.000000	0.007904
1843.000000	0.007947
1842.000000	0.008014
1841.000000	0.008111
1840.000000	0.008192
1839.000000	0.008203
1838.000000	0.008160
1837.000000	0.008134
1836.000000	0.008132
1835.000000	0.008111
1834.000000	0.008064
1833.000000	0.008020
1832.000000	0.007988
1831.000000	0.007959
1830.000000	0.007909
1829.000000	0.007837
1828.000000	0.007795
1827.000000	0.007813
1826.000000	0.007872
1825.000000	0.007955
1824.000000	0.008028
1823.000000	0.008059
1822.000000	0.008063
1821.000000	0.008077
1820.000000	0.008117
1819.000000	0.008152
1818.000000	0.008160
1817.000000	0.008177
1816.000000	0.008217
1815.000000	0.008242
1814.000000	0.008240
1813.000000	0.008233
1812.000000	0.008235
1811.000000	0.008203
1810.000000	0.008141
1809.000000	0.008133
1808.000000	0.008192
1807.000000	0.008239
1806.000000	0.008241
1805.000000	0.008255
1804.000000	0.008295
1803.000000	0.008298
1802.000000	0.008232
1801.000000	0.008150
1800.000000	0.008113
1799.000000	0.008115
1798.000000	0.008162
1797.000000	0.008263
1796.000000	0.008345
1795.000000	0.008295
1794.000000	0.008105
1793.000000	0.007913
1792.000000	0.007845
1791.000000	0.007842
1790.000000	0.007855
1789.000000	0.007917
1788.000000	0.008011
1787.000000	0.008066
1786.000000	0.008066
1785.000000	0.008051
1784.000000	0.008034
1783.000000	0.008003
1782.000000	0.007989
1781.000000	0.008005
1780.000000	0.008027
1779.000000	0.008012
1778.000000	0.007975
1777.000000	0.007954
1776.000000	0.007940
1775.000000	0.007892
1774.000000	0.007768
1773.000000	0.007578
1772.000000	0.007391
1771.000000	0.007271
1770.000000	0.007285
1769.000000	0.007432
1768.000000	0.007599
1767.000000	0.007663
1766.000000	0.007639
1765.000000	0.007625
1764.000000	0.007654
1763.000000	0.007677
1762.000000	0.007646
1761.000000	0.007579
1760.000000	0.007552
1759.000000	0.007575
1758.000000	0.007606
1757.000000	0.007600
1756.000000	0.007548
1755.000000	0.007510
1754.000000	0.007521
1753.000000	0.007551
1752.000000	0.007569
1751.000000	0.007607
1750.000000	0.007707
1749.000000	0.007896
1748.000000	0.008136
1747.000000	0.008369
1746.000000	0.008578
1745.000000	0.008776
1744.000000	0.008966
1743.000000	0.009093
1742.000000	0.009123
1741.000000	0.009141
1740.000000	0.009247
1739.000000	0.009406
1738.000000	0.009551
1737.000000	0.009694
1736.000000	0.009802
1735.000000	0.009813
1734.000000	0.009783
1733.000000	0.009730
1732.000000	0.009700
1731.000000	0.009703
1730.000000	0.009683
1729.000000	0.009607
1728.000000	0.009481
1727.000000	0.009339
1726.000000	0.009203
1725.000000	0.009091
1724.000000	0.009008
1723.000000	0.008883
1722.000000	0.008691
1721.000000	0.008509
1720.000000	0.008397
1719.000000	0.008343
1718.000000	0.008349
1717.000000	0.008472
1716.000000	0.008694
1715.000000	0.008939
1714.000000	0.009241
1713.000000	0.009681
1712.000000	0.010210
1711.000000	0.010705
1710.000000	0.011138
1709.000000	0.011568
1708.000000	0.012045
1707.000000	0.012602
1706.000000	0.013287
1705.000000	0.014081
1704.000000	0.014830
1703.000000	0.015421
1702.000000	0.015886
1701.000000	0.016531
1700.000000	0.017611
1699.000000	0.018738
1698.000000	0.019835
1697.000000	0.021153
1696.000000	0.022622
1695.000000	0.023824
1694.000000	0.024710
1693.000000	0.025613
1692.000000	0.026676
1691.000000	0.027804
1690.000000	0.028902
1689.000000	0.029945
1688.000000	0.030903
1687.000000	0.031742
1686.000000	0.032510
1685.000000	0.033552
1684.000000	0.034983
1683.000000	0.036259
1682.000000	0.037423
1681.000000	0.038717
1680.000000	0.040033
1679.000000	0.041147
1678.000000	0.042048
1677.000000	0.042970
1676.000000	0.044153
1675.000000	0.045563
1674.000000	0.046914
1673.000000	0.048108
1672.000000	0.049284
1671.000000	0.050576
1670.000000	0.052083
1669.000000	0.053718
1668.000000	0.055255
1667.000000	0.056570
1666.000000	0.057686
1665.000000	0.058757
1664.000000	0.059971
1663.000000	0.061368
1662.000000	0.062780
1661.000000	0.064056
1660.000000	0.065217
1659.000000	0.066292
1658.000000	0.067223
1657.000000	0.067965
1656.000000	0.068555
1655.000000	0.069151
1654.000000	0.070218
1653.000000	0.071902
1652.000000	0.073101
1651.000000	0.073583
1650.000000	0.073775
1649.000000	0.074094
1648.000000	0.074772
1647.000000	0.075714
1646.000000	0.076533
1645.000000	0.077124
1644.000000	0.077603
1643.000000	0.077998
1642.000000	0.078335
1641.000000	0.078606
1640.000000	0.078751
1639.000000	0.078741
1638.000000	0.078656
1637.000000	0.078682
1636.000000	0.078909
1635.000000	0.079117
1634.000000	0.079145
1633.000000	0.079097
1632.000000	0.078971
1631.000000	0.078682
1630.000000	0.078206
1629.000000	0.077605
1628.000000	0.076917
1627.000000	0.076117
1626.000000	0.075201
1625.000000	0.074181
1624.000000	0.073090
1623.000000	0.071961
1622.000000	0.070816
1621.000000	0.069667
1620.000000	0.068506
1619.000000	0.067295
1618.000000	0.065964
1617.000000	0.064473
1616.000000	0.062868
1615.000000	0.061340
1614.000000	0.060023
1613.000000	0.058812
1612.000000	0.057537
1611.000000	0.056185
1610.000000	0.054885
1609.000000	0.053678
1608.000000	0.052507
1607.000000	0.051375
1606.000000	0.050338
1605.000000	0.049373
1604.000000	0.048439
1603.000000	0.047570
1602.000000	0.046799
1601.000000	0.046086
1600.000000	0.045396
1599.000000	0.044778
1598.000000	0.044274
1597.000000	0.043842
1596.000000	0.043434
1595.000000	0.043075
1594.000000	0.042814
1593.000000	0.042615
1592.000000	0.042427
1591.000000	0.042281
1590.000000	0.042236
1589.000000	0.042258
1588.000000	0.042283
1587.000000	0.042336
1586.000000	0.042477
1585.000000	0.042671
1584.000000	0.042854
1583.000000	0.043083
1582.000000	0.043416
1581.000000	0.043779
1580.000000	0.044079
1579.000000	0.044388
1578.000000	0.044824
1577.000000	0.045387
1576.000000	0.045924
1575.000000	0.046322
1574.000000	0.046682
1573.000000	0.047066
1572.000000	0.047471
1571.000000	0.047961
1570.000000	0.048656
1569.000000	0.049425
1568.000000	0.050082
1567.000000	0.050733
1566.000000	0.051508
1565.000000	0.052369
1564.000000	0.053152
1563.000000	0.053771
1562.000000	0.054192
1561.000000	0.054357
1560.000000	0.054613
1559.000000	0.055743
1558.000000	0.057027
1557.000000	0.058043
1556.000000	0.059048
1555.000000	0.060069
1554.000000	0.061003
1553.000000	0.061740
1552.000000	0.062368
1551.000000	0.063039
1550.000000	0.063740
1549.000000	0.064305
1548.000000	0.064662
1547.000000	0.064925
1546.000000	0.065234
1545.000000	0.065619
1544.000000	0.065939
1543.000000	0.066060
1542.000000	0.066089
1541.000000	0.066369
1540.000000	0.066948
1539.000000	0.067386
1538.000000	0.067563
1537.000000	0.067581
1536.000000	0.067494
1535.000000	0.067372
1534.000000	0.067331
1533.000000	0.067371
1532.000000	0.067366
1531.000000	0.067264
1530.000000	0.067073
1529.000000	0.066852
1528.000000	0.066646
1527.000000	0.066423
1526.000000	0.066113
1525.000000	0.065723
1524.000000	0.065332
1523.000000	0.065004
1522.000000	0.064747
1521.000000	0.064461
1520.000000	0.064031
1519.000000	0.063562
1518.000000	0.063196
1517.000000	0.062943
1516.000000	0.062638
1515.000000	0.062170
1514.000000	0.061590
1513.000000	0.060951
1512.000000	0.060274
1511.000000	0.059535
1510.000000	0.058722
1509.000000	0.057863
1508.000000	0.056991
1507.000000	0.055964
1506.000000	0.054646
1505.000000	0.053559
1504.000000	0.052877
1503.000000	0.052277
1502.000000	0.051542
1501.000000	0.050627
1500.000000	0.049621
1499.000000	0.048639
1498.000000	0.047693
1497.000000	0.046781
1496.000000	0.045908
1495.000000	0.045024
1494.000000	0.044127
1493.000000	0.043265
1492.000000	0.042454
1491.000000	0.041691
1490.000000	0.040991
1489.000000	0.040387
1488.000000	0.039901
1487.000000	0.039473
1486.000000	0.039102
1485.000000	0.038850
1484.000000	0.038703
1483.000000	0.038636
1482.000000	0.038637
1481.000000	0.038726
1480.000000	0.038869
1479.000000	0.039015
1478.000000	0.039191
1477.000000	0.039500
1476.000000	0.039958
1475.000000	0.040462
1474.000000	0.041043
1473.000000	0.041842
1472.000000	0.042813
1471.000000	0.043738
1470.000000	0.044578
1469.000000	0.045379
1468.000000	0.046115
1467.000000	0.046721
1466.000000	0.047260
1465.000000	0.047855
1464.000000	0.048499
1463.000000	0.049071
1462.000000	0.049513
1461.000000	0.049882
1460.000000	0.050278
1459.000000	0.050837
1458.000000	0.051708
1457.000000	0.052836
1456.000000	0.053825
1455.000000	0.054518
1454.000000	0.055052
1453.000000	0.055543
1452.000000	0.055967
1451.000000	0.056228
1450.000000	0.056345
1449.000000	0.056449
1448.000000	0.056609
1447.000000	0.056750
1446.000000	0.056811
1445.000000	0.056804
1444.000000	0.056777
1443.000000	0.056733
1442.000000	0.056640
1441.000000	0.056476
1440.000000	0.056231
1439.000000	0.055897
1438.000000	0.055474
1437.000000	0.055069
1436.000000	0.054760
1435.000000	0.054499
1434.000000	0.054214
1433.000000	0.053878
1432.000000	0.053486
1431.000000	0.053068
1430.000000	0.052660
1429.000000	0.052292
1428.000000	0.051977
1427.000000	0.051706
1426.000000	0.051474
1425.000000	0.051271
1424.000000	0.051091
1423.000000	0.050910
1422.000000	0.050687
1421.000000	0.050428
1420.000000	0.050233
1419.000000	0.050215
1418.000000	0.050228
1417.000000	0.050166
1416.000000	0.050099
1415.000000	0.050038
1414.000000	0.049941
1413.000000	0.049810
1412.000000	0.049710
1411.000000	0.049663
1410.000000	0.049610
1409.000000	0.049513
1408.000000	0.049410
1407.000000	0.049338
1406.000000	0.049309
1405.000000	0.049295
1404.000000	0.049267
1403.000000	0.049204
1402.000000	0.049086
1401.000000	0.048931
1400.000000	0.048794
1399.000000	0.048703
1398.000000	0.048607
1397.000000	0.048482
1396.000000	0.048343
1395.000000	0.048182
1394.000000	0.047954
1393.000000	0.047641
1392.000000	0.047301
1391.000000	0.046963
1390.000000	0.046616
1389.000000	0.046260
1388.000000	0.045928
1387.000000	0.045616
1386.000000	0.045288
1385.000000	0.044940
1384.000000	0.044602
1383.000000	0.044290
1382.000000	0.043990
1381.000000	0.043691
1380.000000	0.043380
1379.000000	0.043034
1378.000000	0.042637
1377.000000	0.042197
1376.000000	0.041745
1375.000000	0.041313
1374.000000	0.040887
1373.000000	0.040433
1372.000000	0.039955
1371.000000	0.039469
1370.000000	0.038966
1369.000000	0.038401
1368.000000	0.037756
1367.000000	0.037076
1366.000000	0.036430
1365.000000	0.035861
1364.000000	0.035368
1363.000000	0.034913
1362.000000	0.034444
1361.000000	0.033973
1360.000000	0.033570
1359.000000	0.033281
1358.000000	0.033103
1357.000000	0.033006
1356.000000	0.032961
1355.000000	0.032955
1354.000000	0.032990
1353.000000	0.033075
1352.000000	0.033218
1351.000000	0.033410
1350.000000	0.033645
1349.000000	0.033904
1348.000000	0.034174
1347.000000	0.034453
1346.000000	0.034742
1345.000000	0.035031
1344.000000	0.035321
1343.000000	0.035633
1342.000000	0.036001
1341.000000	0.036428
1340.000000	0.036856
1339.000000	0.037200
1338.000000	0.037410
1337.000000	0.037502
1336.000000	0.037510
1335.000000	0.037456
1334.000000	0.037348
1333.000000	0.037197
1332.000000	0.037010
1331.000000	0.036796
1330.000000	0.036561
1329.000000	0.036314
1328.000000	0.036061
1327.000000	0.035810
1326.000000	0.035572
1325.000000	0.035345
1324.000000	0.035139
1323.000000	0.034976
1322.000000	0.034877
1321.000000	0.034832
1320.000000	0.034815
1319.000000	0.034789
1318.000000	0.034724
1317.000000	0.034619
1316.000000	0.034507
1315.000000	0.034410
1314.000000	0.034310
1313.000000	0.034166
1312.000000	0.033967
1311.000000	0.033746
1310.000000	0.033529
1309.000000	0.033314
1308.000000	0.033090
1307.000000	0.032861
1306.000000	0.032645
1305.000000	0.032443
1304.000000	0.032250
1303.000000	0.032060
1302.000000	0.031874
1301.000000	0.031688
1300.000000	0.031505
1299.000000	0.031333
1298.000000	0.031178
1297.000000	0.031039
1296.000000	0.030924
1295.000000	0.030850
1294.000000	0.030826
1293.000000	0.030852
1292.000000	0.030924
1291.000000	0.031042
1290.000000	0.031204
1289.000000	0.031399
1288.000000	0.031613
1287.000000	0.031833
1286.000000	0.032050
1285.000000	0.032267
1284.000000	0.032490
1283.000000	0.032716
1282.000000	0.032917
1281.000000	0.033065
1280.000000	0.033155
1279.000000	0.033198
1278.000000	0.033210
1277.000000	0.033206
1276.000000	0.033204
1275.000000	0.033219
1274.000000	0.033252
1273.000000	0.033287
1272.000000	0.033312
1271.000000	0.033330
1270.000000	0.033360
1269.000000	0.033418
1268.000000	0.033511
1267.000000	0.033638
1266.000000	0.033787
1265.000000	0.033953
1264.000000	0.034145
1263.000000	0.034374
1262.000000	0.034635
1261.000000	0.034908
1260.000000	0.035178
1259.000000	0.035450
1258.000000	0.035734
1257.000000	0.036032
1256.000000	0.036340
1255.000000	0.036650
1254.000000	0.036957
1253.000000	0.037269
1252.000000	0.037600
1251.000000	0.037958
1250.000000	0.038336
1249.000000	0.038722
1248.000000	0.039111
1247.000000	0.039507
1246.000000	0.039913
1245.000000	0.040323
1244.000000	0.040730
1243.000000	0.041117
1242.000000	0.041469
1241.000000	0.041772
1240.000000	0.042017
1239.000000	0.042205
1238.000000	0.042347
1237.000000	0.042459
1236.000000	0.042543
1235.000000	0.042584
1234.000000	0.042559
1233.000000	0.042463
1232.000000	0.042305
1231.000000	0.042093
1230.000000	0.041824
1229.000000	0.041491
1228.000000	0.041090
1227.000000	0.040623
1226.000000	0.040087
1225.000000	0.039489
1224.000000	0.038843
1223.000000	0.038167
1222.000000	0.037474
1221.000000	0.036768
1220.000000	0.036067
1219.000000	0.035407
1218.000000	0.034827
1217.000000	0.034352
1216.000000	0.033985
1215.000000	0.033715
1214.000000	0.033522
1213.000000	0.033387
1212.000000	0.033300
1211.000000	0.033261
1210.000000	0.033265
1209.000000	0.033307
1208.000000	0.033375
1207.000000	0.033462
1206.000000	0.033558
1205.000000	0.033655
1204.000000	0.033732
1203.000000	0.033762
1202.000000	0.033721
1201.000000	0.033602
1200.000000	0.033414
1199.000000	0.033164
1198.000000	0.032852
1197.000000	0.032484
1196.000000	0.032077
1195.000000	0.031649
1194.000000	0.031214
1193.000000	0.030782
1192.000000	0.030356
1191.000000	0.029933
1190.000000	0.029504
1189.000000	0.029075
1188.000000	0.028664
1187.000000	0.028286
1186.000000	0.027940
1185.000000	0.027616
1184.000000	0.027312
1183.000000	0.027034
1182.000000	0.026783
1181.000000	0.026570
1180.000000	0.026419
1179.000000	0.026346
1178.000000	0.026333
1177.000000	0.026341
1176.000000	0.026341
1175.000000	0.026333
1174.000000	0.026328
1173.000000	0.026341
1172.000000	0.026375
1171.000000	0.026427
1170.000000	0.026489
1169.000000	0.026562
1168.000000	0.026659
1167.000000	0.026785
1166.000000	0.026929
1165.000000	0.027067
1164.000000	0.027189
1163.000000	0.027295
1162.000000	0.027392
1161.000000	0.027474
1160.000000	0.027525
1159.000000	0.027520
1158.000000	0.027437
1157.000000	0.027272
1156.000000	0.027042
1155.000000	0.026773
1154.000000	0.026480
1153.000000	0.026169
1152.000000	0.025834
1151.000000	0.025475
1150.000000	0.025092
1149.000000	0.024696
1148.000000	0.024305
1147.000000	0.023931
1146.000000	0.023578
1145.000000	0.023242
1144.000000	0.022918
1143.000000	0.022604
1142.000000	0.022304
1141.000000	0.022028
1140.000000	0.021783
1139.000000	0.021572
1138.000000	0.021390
1137.000000	0.021231
1136.000000	0.021089
1135.000000	0.020953
1134.000000	0.020822
1133.000000	0.020713
1132.000000	0.020649
1131.000000	0.020623
1130.000000	0.020608
1129.000000	0.020593
1128.000000	0.020599
1127.000000	0.020638
1126.000000	0.020691
1125.000000	0.020736
1124.000000	0.020780
1123.000000	0.020840
1122.000000	0.020915
1121.000000	0.020991
1120.000000	0.021064
1119.000000	0.021146
1118.000000	0.021244
1117.000000	0.021363
1116.000000	0.021499
1115.000000	0.021639
1114.000000	0.021764
1113.000000	0.021871
1112.000000	0.021978
1111.000000	0.022101
1110.000000	0.022233
1109.000000	0.022363
1108.000000	0.022498
1107.000000	0.022645
1106.000000	0.022794
1105.000000	0.022926
1104.000000	0.023046
1103.000000	0.023169
1102.000000	0.023292
1101.000000	0.023394
1100.000000	0.023471
1099.000000	0.023536
1098.000000	0.023620
1097.000000	0.023751
1096.000000	0.023940
1095.000000	0.024171
1094.000000	0.024425
1093.000000	0.024704
1092.000000	0.025033
1091.000000	0.025432
1090.000000	0.025896
1089.000000	0.026409
1088.000000	0.026959
1087.000000	0.027528
1086.000000	0.028091
1085.000000	0.028617
1084.000000	0.029078
1083.000000	0.029436
1082.000000	0.029664
1081.000000	0.029766
1080.000000	0.029760
1079.000000	0.029659
1078.000000	0.029460
1077.000000	0.029175
1076.000000	0.028833
1075.000000	0.028464
1074.000000	0.028080
1073.000000	0.027698
1072.000000	0.027348
1071.000000	0.027055
1070.000000	0.026826
1069.000000	0.026663
1068.000000	0.026565
1067.000000	0.026523
1066.000000	0.026518
1065.000000	0.026551
1064.000000	0.026642
1063.000000	0.026783
1062.000000	0.026914
1061.000000	0.026974
1060.000000	0.026960
1059.000000	0.026924
1058.000000	0.026909
1057.000000	0.026919
1056.000000	0.026932
1055.000000	0.026933
1054.000000	0.026918
1053.000000	0.026896
1052.000000	0.026881
1051.000000	0.026883
1050.000000	0.026898
1049.000000	0.026917
1048.000000	0.026936
1047.000000	0.026959
1046.000000	0.026978
1045.000000	0.026982
1044.000000	0.026968
1043.000000	0.026950
1042.000000	0.026951
1041.000000	0.027006
1040.000000	0.027144
1039.000000	0.027374
1038.000000	0.027676
1037.000000	0.028016
1036.000000	0.028360
1035.000000	0.028686
1034.000000	0.028983
1033.000000	0.029254
1032.000000	0.029504
1031.000000	0.029726
1030.000000	0.029897
1029.000000	0.030000
1028.000000	0.030041
1027.000000	0.030041
1026.000000	0.030019
1025.000000	0.029985
1024.000000	0.029945
1023.000000	0.029899
1022.000000	0.029853
1021.000000	0.029814
1020.000000	0.029789
1019.000000	0.029763
1018.000000	0.029712
1017.000000	0.029609
1016.000000	0.029429
1015.000000	0.029150
1014.000000	0.028756
1013.000000	0.028262
1012.000000	0.027709
1011.000000	0.027133
1010.000000	0.026552
1009.000000	0.025976
1008.000000	0.025422
1007.000000	0.024894
1006.000000	0.024387
1005.000000	0.023898
1004.000000	0.023447
1003.000000	0.023054
1002.000000	0.022703
1001.000000	0.022358
1000.000000	0.021999
999.000000	0.021636
998.000000	0.021280
997.000000	0.020924
996.000000	0.020557
995.000000	0.020183
994.000000	0.019819
993.000000	0.019482
992.000000	0.019173
991.000000	0.018884
990.000000	0.018603
989.000000	0.018331
988.000000	0.018080
987.000000	0.017855
986.000000	0.017639
985.000000	0.017421
984.000000	0.017220
983.000000	0.017071
982.000000	0.016978
981.000000	0.016908
980.000000	0.016822
979.000000	0.016711
978.000000	0.016589
977.000000	0.016471
976.000000	0.016354
975.000000	0.016225
974.000000	0.016077
973.000000	0.015921
972.000000	0.015776
971.000000	0.015640
970.000000	0.015486
969.000000	0.015280
968.000000	0.015018
967.000000	0.014722
966.000000	0.014424
965.000000	0.014147
964.000000	0.013912
963.000000	0.013719
962.000000	0.013544
961.000000	0.013353
960.000000	0.013132
959.000000	0.012899
958.000000	0.012682
957.000000	0.012487
956.000000	0.012303
955.000000	0.012118
954.000000	0.011937
953.000000	0.011777
952.000000	0.011651
951.000000	0.011549
950.000000	0.011448
949.000000	0.011339
948.000000	0.011245
947.000000	0.011194
946.000000	0.011184
945.000000	0.011191
944.000000	0.011192
943.000000	0.011186
942.000000	0.011187
941.000000	0.011209
940.000000	0.011250
939.000000	0.011290
938.000000	0.011296
937.000000	0.011247
936.000000	0.011153
935.000000	0.011041
934.000000	0.010935
933.000000	0.010839
932.000000	0.010748
931.000000	0.010661
930.000000	0.010593
929.000000	0.010561
928.000000	0.010563
927.000000	0.010571
926.000000	0.010556
925.000000	0.010516
924.000000	0.010474
923.000000	0.010434
922.000000	0.010372
921.000000	0.010267
920.000000	0.010124
919.000000	0.009969
918.000000	0.009819
917.000000	0.009677
916.000000	0.009538
915.000000	0.009392
914.000000	0.009228
913.000000	0.009046
912.000000	0.008864
911.000000	0.008698
910.000000	0.008561
909.000000	0.008460
908.000000	0.008399
907.000000	0.008365
906.000000	0.008328
905.000000	0.008272
904.000000	0.008201
903.000000	0.008121
902.000000	0.008027
901.000000	0.007923
900.000000	0.007832
899.000000	0.007763
898.000000	0.007701
897.000000	0.007635
896.000000	0.007580
895.000000	0.007554
894.000000	0.007542
893.000000	0.007513
892.000000	0.007458
891.000000	0.007397
890.000000	0.007351
889.000000	0.007334
888.000000	0.007376
887.000000	0.007519
886.000000	0.007787
885.000000	0.008170
884.000000	0.008643
883.000000	0.009193
882.000000	0.009844
881.000000	0.010636
880.000000	0.011573
879.000000	0.012568
878.000000	0.013455
877.000000	0.014082
876.000000	0.014372
875.000000	0.014319
874.000000	0.013950
873.000000	0.013325
872.000000	0.012552
871.000000	0.011764
870.000000	0.011058
869.000000	0.010474
868.000000	0.010010
867.000000	0.009648
866.000000	0.009362
865.000000	0.009129
864.000000	0.008939
863.000000	0.008789
862.000000	0.008674
861.000000	0.008589
860.000000	0.008542
859.000000	0.008537
858.000000	0.008559
857.000000	0.008577
856.000000	0.008569
855.000000	0.008538
854.000000	0.008513
853.000000	0.008517
852.000000	0.008560
851.000000	0.008624
850.000000	0.008677
849.000000	0.008695
848.000000	0.008669
847.000000	0.008596
846.000000	0.008475
845.000000	0.008318
844.000000	0.008154
843.000000	0.008018
842.000000	0.007926
841.000000	0.007874
840.000000	0.007847
839.000000	0.007836
838.000000	0.007826
837.000000	0.007803
836.000000	0.007749
835.000000	0.007657
834.000000	0.007542
833.000000	0.007440
832.000000	0.007386
831.000000	0.007386
830.000000	0.007419
829.000000	0.007457
828.000000	0.007477
827.000000	0.007467
826.000000	0.007441
825.000000	0.007432
824.000000	0.007460
823.000000	0.007509
822.000000	0.007547
821.000000	0.007567
820.000000	0.007588
819.000000	0.007616
818.000000	0.007636
817.000000	0.007639
816.000000	0.007633
815.000000	0.007629
814.000000	0.007632
813.000000	0.007642
812.000000	0.007652
811.000000	0.007643
810.000000	0.007600
809.000000	0.007537
808.000000	0.007483
807.000000	0.007449
806.000000	0.007437
805.000000	0.007459
804.000000	0.007520
803.000000	0.007586
802.000000	0.007602
801.000000	0.007551
800.000000	0.007478
799.000000	0.007434
798.000000	0.007436
797.000000	0.007478
796.000000	0.007545
795.000000	0.007611
794.000000	0.007651
793.000000	0.007671
792.000000	0.007700
791.000000	0.007748
790.000000	0.007797
789.000000	0.007836
788.000000	0.007879
787.000000	0.007927
786.000000	0.007961
785.000000	0.007973
784.000000	0.007980
783.000000	0.007987
782.000000	0.007974
781.000000	0.007943
780.000000	0.007933
779.000000	0.007972
778.000000	0.008032
777.000000	0.008069
776.000000	0.008089
775.000000	0.008130
774.000000	0.008203
773.000000	0.008284
772.000000	0.008351
771.000000	0.008399
770.000000	0.008421
769.000000	0.008415
768.000000	0.008397
767.000000	0.008388
766.000000	0.008389
765.000000	0.008391
764.000000	0.008403
763.000000	0.008444
762.000000	0.008509
761.000000	0.008568
760.000000	0.008601
759.000000	0.008624
758.000000	0.008665
757.000000	0.008732
756.000000	0.008810
755.000000	0.008870
754.000000	0.008888
753.000000	0.008870
752.000000	0.008851
751.000000	0.008873
750.000000	0.008943
749.000000	0.009034
748.000000	0.009122
747.000000	0.009195
746.000000	0.009254
745.000000	0.009298
744.000000	0.009341
743.000000	0.009401
742.000000	0.009481
741.000000	0.009566
740.000000	0.009639
739.000000	0.009695
738.000000	0.009737
737.000000	0.009778
736.000000	0.009845
735.000000	0.009966
734.000000	0.010134
733.000000	0.010314
732.000000	0.010478
731.000000	0.010629
730.000000	0.010788
729.000000	0.010963
728.000000	0.011145
727.000000	0.011317
726.000000	0.011480
725.000000	0.011652
724.000000	0.011852
723.000000	0.012085
722.000000	0.012343
721.000000	0.012608
720.000000	0.012854
719.000000	0.013052
718.000000	0.013187
717.000000	0.013278
716.000000	0.013374
715.000000	0.013530
714.000000	0.013752
713.000000	0.013988
712.000000	0.014162
711.000000	0.014246
710.000000	0.014276
709.000000	0.014321
708.000000	0.014421
707.000000	0.014551
706.000000	0.014662
705.000000	0.014740
704.000000	0.014801
703.000000	0.014864
702.000000	0.014934
701.000000	0.015000
700.000000	0.015050
699.000000	0.015067
698.000000	0.015046
697.000000	0.015007
696.000000	0.014987
695.000000	0.015014
694.000000	0.015074
693.000000	0.015124
692.000000	0.015140
691.000000	0.015127
690.000000	0.015109
689.000000	0.015114
688.000000	0.015156
687.000000	0.015224
686.000000	0.015288
685.000000	0.015328
684.000000	0.015380
683.000000	0.015492
682.000000	0.015646
681.000000	0.015772
680.000000	0.015841
679.000000	0.015886
678.000000	0.015938
677.000000	0.016039
676.000000	0.016226
675.000000	0.016483
674.000000	0.016722
673.000000	0.016829
672.000000	0.016723
671.000000	0.016373
670.000000	0.015819
669.000000	0.015267
668.000000	0.015249
667.000000	0.016047
666.000000	0.016803
665.000000	0.017225
664.000000	0.017477
663.000000	0.017615
662.000000	0.017661
661.000000	0.017681
660.000000	0.017720
659.000000	0.017741
658.000000	0.017696
657.000000	0.017648
656.000000	0.017650
655.000000	0.017639
654.000000	0.017575
653.000000	0.017546
652.000000	0.017633
651.000000	0.017795
650.000000	0.017950
649.000000	0.018067
648.000000	0.018115
647.000000	0.018052
646.000000	0.017941
645.000000	0.017904
644.000000	0.017953
643.000000	0.017985
642.000000	0.017950
641.000000	0.017912
640.000000	0.017907
639.000000	0.017867
638.000000	0.017769
637.000000	0.017710
636.000000	0.017764
635.000000	0.017882
634.000000	0.017987
633.000000	0.018058
632.000000	0.018103
631.000000	0.018107
630.000000	0.018098
629.000000	0.018144
628.000000	0.018254
627.000000	0.018351
626.000000	0.018398
625.000000	0.018429
624.000000	0.018442
623.000000	0.018398
622.000000	0.018333
621.000000	0.018353
620.000000	0.018467
619.000000	0.018554
618.000000	0.018528
617.000000	0.018451
616.000000	0.018406
615.000000	0.018380
614.000000	0.018361
613.000000	0.018410
612.000000	0.018547
611.000000	0.018663
610.000000	0.018660
609.000000	0.018588
608.000000	0.018529
607.000000	0.018469
606.000000	0.018375
605.000000	0.018313
604.000000	0.018352
603.000000	0.018444
602.000000	0.018497
601.000000	0.018505
600.000000	0.018523
599.000000	0.018560
598.000000	0.018580
597.000000	0.018572
596.000000	0.018547
595.000000	0.018511
594.000000	0.018479
593.000000	0.018481
592.000000	0.018498
591.000000	0.018458
590.000000	0.018349
589.000000	0.018258
588.000000	0.018253
587.000000	0.018289
586.000000	0.018293
585.000000	0.018285
584.000000	0.018328
583.000000	0.018416
582.000000	0.018474
581.000000	0.018464
580.000000	0.018405
579.000000	0.018344
578.000000	0.018343
577.000000	0.018458
576.000000	0.018680
575.000000	0.018910
574.000000	0.019057
573.000000	0.019137
572.000000	0.019231
571.000000	0.019374
570.000000	0.019548
569.000000	0.019733
568.000000	0.019911
567.000000	0.020037
566.000000	0.020086
565.000000	0.020106
564.000000	0.020182
563.000000	0.020356
562.000000	0.020603
561.000000	0.020860
560.000000	0.021065
559.000000	0.021194
558.000000	0.021286
557.000000	0.021396
556.000000	0.021485
555.000000	0.021443
554.000000	0.021254
553.000000	0.021050
552.000000	0.020939
551.000000	0.020882
550.000000	0.020786
549.000000	0.020641
548.000000	0.020483
547.000000	0.020307
546.000000	0.020103
545.000000	0.019903
544.000000	0.019723
543.000000	0.019536
542.000000	0.019342
541.000000	0.019230
540.000000	0.019283
539.000000	0.019493
538.000000	0.019784
537.000000	0.020080
536.000000	0.020304
535.000000	0.020415
534.000000	0.020473
533.000000	0.020595
532.000000	0.020763
531.000000	0.020818
530.000000	0.020710
529.000000	0.020588
528.000000	0.020557
527.000000	0.020538
526.000000	0.020425
525.000000	0.020238
524.000000	0.020011
523.000000	0.019686
522.000000	0.019274
521.000000	0.018965
520.000000	0.018900
519.000000	0.018950
518.000000	0.018896
517.000000	0.018719
516.000000	0.018516
515.000000	0.018239
514.000000	0.017768
513.000000	0.017180
512.000000	0.016706
511.000000	0.016471
510.000000	0.016403
509.000000	0.016377
508.000000	0.016288
507.000000	0.016079
506.000000	0.015816
505.000000	0.015631
504.000000	0.015519
503.000000	0.015290
502.000000	0.014857
501.000000	0.014418
500.000000	0.014181
499.000000	0.014080
498.000000	0.013944
497.000000	0.013779
496.000000	0.013691
495.000000	0.013661
494.000000	0.013582
493.000000	0.013436
492.000000	0.013241
491.000000	0.012970
490.000000	0.012641
489.000000	0.012424
488.000000	0.012436
487.000000	0.012573
486.000000	0.012683
485.000000	0.012789
484.000000	0.012958
483.000000	0.013077
482.000000	0.012987
481.000000	0.012746
480.000000	0.012554
479.000000	0.012468
478.000000	0.012354
477.000000	0.012124
476.000000	0.011841
475.000000	0.011589
474.000000	0.011390
473.000000	0.011300
472.000000	0.011395
471.000000	0.011648
470.000000	0.011876
469.000000	0.011915
468.000000	0.011760
467.000000	0.011496
466.000000	0.011179
465.000000	0.010855
464.000000	0.010558
463.000000	0.010287
462.000000	0.010025
461.000000	0.009745
460.000000	0.009405
459.000000	0.008938
458.000000	0.008361
457.000000	0.007874
456.000000	0.007670
455.000000	0.007673
454.000000	0.007701
453.000000	0.007736
452.000000	0.007827
451.000000	0.007882
450.000000	0.007702
