PE IR       SUBTECH     SPECTRUM    ASCII       PEDS        4.00        
   -1
3G-H10-C032_1.ASC
22/02/23
15:00:06.00
22/02/23
15:10:46.00
uco
Sample 032 By uco Date Wednesday, February 23 2022
450.000000
#HDR
-1
-1
#GR
cm-1
A
1.0
0.0
4000.000000
-1.000000
3551
8
0.049720
0.004725
#DATA
4000.000000	0.005005
3999.000000	0.005007
3998.000000	0.005010
3997.000000	0.005015
3996.000000	0.005023
3995.000000	0.005034
3994.000000	0.005046
3993.000000	0.005055
3992.000000	0.005059
3991.000000	0.005056
3990.000000	0.005049
3989.000000	0.005048
3988.000000	0.005062
3987.000000	0.005090
3986.000000	0.005124
3985.000000	0.005148
3984.000000	0.005160
3983.000000	0.005164
3982.000000	0.005170
3981.000000	0.005181
3980.000000	0.005188
3979.000000	0.005183
3978.000000	0.005166
3977.000000	0.005147
3976.000000	0.005139
3975.000000	0.005143
3974.000000	0.005151
3973.000000	0.005155
3972.000000	0.005153
3971.000000	0.005154
3970.000000	0.005163
3969.000000	0.005181
3968.000000	0.005200
3967.000000	0.005212
3966.000000	0.005213
3965.000000	0.005202
3964.000000	0.005184
3963.000000	0.005167
3962.000000	0.005160
3961.000000	0.005167
3960.000000	0.005187
3959.000000	0.005215
3958.000000	0.005242
3957.000000	0.005262
3956.000000	0.005270
3955.000000	0.005264
3954.000000	0.005244
3953.000000	0.005218
3952.000000	0.005193
3951.000000	0.005177
3950.000000	0.005169
3949.000000	0.005165
3948.000000	0.005162
3947.000000	0.005162
3946.000000	0.005173
3945.000000	0.005199
3944.000000	0.005234
3943.000000	0.005267
3942.000000	0.005290
3941.000000	0.005305
3940.000000	0.005316
3939.000000	0.005326
3938.000000	0.005328
3937.000000	0.005315
3936.000000	0.005286
3935.000000	0.005254
3934.000000	0.005236
3933.000000	0.005247
3932.000000	0.005283
3931.000000	0.005323
3930.000000	0.005348
3929.000000	0.005351
3928.000000	0.005341
3927.000000	0.005328
3926.000000	0.005312
3925.000000	0.005290
3924.000000	0.005261
3923.000000	0.005237
3922.000000	0.005227
3921.000000	0.005229
3920.000000	0.005233
3919.000000	0.005227
3918.000000	0.005211
3917.000000	0.005192
3916.000000	0.005180
3915.000000	0.005187
3914.000000	0.005213
3913.000000	0.005250
3912.000000	0.005280
3911.000000	0.005291
3910.000000	0.005284
3909.000000	0.005271
3908.000000	0.005266
3907.000000	0.005272
3906.000000	0.005278
3905.000000	0.005267
3904.000000	0.005229
3903.000000	0.005180
3902.000000	0.005148
3901.000000	0.005144
3900.000000	0.005160
3899.000000	0.005183
3898.000000	0.005205
3897.000000	0.005228
3896.000000	0.005248
3895.000000	0.005259
3894.000000	0.005263
3893.000000	0.005270
3892.000000	0.005278
3891.000000	0.005276
3890.000000	0.005261
3889.000000	0.005243
3888.000000	0.005239
3887.000000	0.005247
3886.000000	0.005255
3885.000000	0.005249
3884.000000	0.005239
3883.000000	0.005246
3882.000000	0.005275
3881.000000	0.005305
3880.000000	0.005313
3879.000000	0.005299
3878.000000	0.005284
3877.000000	0.005285
3876.000000	0.005299
3875.000000	0.005310
3874.000000	0.005306
3873.000000	0.005294
3872.000000	0.005288
3871.000000	0.005291
3870.000000	0.005283
3869.000000	0.005252
3868.000000	0.005221
3867.000000	0.005215
3866.000000	0.005238
3865.000000	0.005273
3864.000000	0.005302
3863.000000	0.005320
3862.000000	0.005337
3861.000000	0.005354
3860.000000	0.005367
3859.000000	0.005372
3858.000000	0.005369
3857.000000	0.005359
3856.000000	0.005341
3855.000000	0.005312
3854.000000	0.005260
3853.000000	0.005194
3852.000000	0.005155
3851.000000	0.005170
3850.000000	0.005217
3849.000000	0.005263
3848.000000	0.005288
3847.000000	0.005294
3846.000000	0.005294
3845.000000	0.005296
3844.000000	0.005299
3843.000000	0.005293
3842.000000	0.005277
3841.000000	0.005260
3840.000000	0.005258
3839.000000	0.005273
3838.000000	0.005301
3837.000000	0.005331
3836.000000	0.005356
3835.000000	0.005371
3834.000000	0.005376
3833.000000	0.005369
3832.000000	0.005354
3831.000000	0.005335
3830.000000	0.005322
3829.000000	0.005327
3828.000000	0.005347
3827.000000	0.005365
3826.000000	0.005358
3825.000000	0.005325
3824.000000	0.005286
3823.000000	0.005272
3822.000000	0.005289
3821.000000	0.005307
3820.000000	0.005297
3819.000000	0.005273
3818.000000	0.005265
3817.000000	0.005276
3816.000000	0.005289
3815.000000	0.005292
3814.000000	0.005293
3813.000000	0.005303
3812.000000	0.005314
3811.000000	0.005316
3810.000000	0.005314
3809.000000	0.005317
3808.000000	0.005328
3807.000000	0.005326
3806.000000	0.005298
3805.000000	0.005262
3804.000000	0.005239
3803.000000	0.005238
3802.000000	0.005241
3801.000000	0.005230
3800.000000	0.005212
3799.000000	0.005216
3798.000000	0.005246
3797.000000	0.005285
3796.000000	0.005313
3795.000000	0.005331
3794.000000	0.005345
3793.000000	0.005360
3792.000000	0.005372
3791.000000	0.005375
3790.000000	0.005370
3789.000000	0.005357
3788.000000	0.005342
3787.000000	0.005333
3786.000000	0.005336
3785.000000	0.005348
3784.000000	0.005354
3783.000000	0.005346
3782.000000	0.005332
3781.000000	0.005325
3780.000000	0.005327
3779.000000	0.005332
3778.000000	0.005333
3777.000000	0.005339
3776.000000	0.005352
3775.000000	0.005369
3774.000000	0.005378
3773.000000	0.005377
3772.000000	0.005370
3771.000000	0.005362
3770.000000	0.005351
3769.000000	0.005330
3768.000000	0.005303
3767.000000	0.005282
3766.000000	0.005270
3765.000000	0.005261
3764.000000	0.005248
3763.000000	0.005231
3762.000000	0.005214
3761.000000	0.005201
3760.000000	0.005196
3759.000000	0.005196
3758.000000	0.005197
3757.000000	0.005190
3756.000000	0.005169
3755.000000	0.005130
3754.000000	0.005077
3753.000000	0.005024
3752.000000	0.004999
3751.000000	0.005010
3750.000000	0.005037
3749.000000	0.005058
3748.000000	0.005072
3747.000000	0.005093
3746.000000	0.005132
3745.000000	0.005180
3744.000000	0.005203
3743.000000	0.005198
3742.000000	0.005188
3741.000000	0.005172
3740.000000	0.005136
3739.000000	0.005081
3738.000000	0.005031
3737.000000	0.005003
3736.000000	0.004993
3735.000000	0.004981
3734.000000	0.004963
3733.000000	0.004958
3732.000000	0.004973
3731.000000	0.005001
3730.000000	0.005035
3729.000000	0.005069
3728.000000	0.005094
3727.000000	0.005104
3726.000000	0.005099
3725.000000	0.005091
3724.000000	0.005092
3723.000000	0.005099
3722.000000	0.005101
3721.000000	0.005096
3720.000000	0.005089
3719.000000	0.005083
3718.000000	0.005083
3717.000000	0.005088
3716.000000	0.005094
3715.000000	0.005097
3714.000000	0.005094
3713.000000	0.005089
3712.000000	0.005084
3711.000000	0.005071
3710.000000	0.005055
3709.000000	0.005051
3708.000000	0.005060
3707.000000	0.005076
3706.000000	0.005085
3705.000000	0.005091
3704.000000	0.005104
3703.000000	0.005131
3702.000000	0.005163
3701.000000	0.005184
3700.000000	0.005190
3699.000000	0.005191
3698.000000	0.005195
3697.000000	0.005200
3696.000000	0.005198
3695.000000	0.005182
3694.000000	0.005149
3693.000000	0.005098
3692.000000	0.005033
3691.000000	0.004968
3690.000000	0.004924
3689.000000	0.004918
3688.000000	0.004950
3687.000000	0.005004
3686.000000	0.005062
3685.000000	0.005107
3684.000000	0.005129
3683.000000	0.005131
3682.000000	0.005128
3681.000000	0.005134
3680.000000	0.005153
3679.000000	0.005172
3678.000000	0.005182
3677.000000	0.005184
3676.000000	0.005174
3675.000000	0.005136
3674.000000	0.005076
3673.000000	0.005025
3672.000000	0.005001
3671.000000	0.005014
3670.000000	0.005063
3669.000000	0.005127
3668.000000	0.005193
3667.000000	0.005248
3666.000000	0.005285
3665.000000	0.005308
3664.000000	0.005334
3663.000000	0.005372
3662.000000	0.005413
3661.000000	0.005429
3660.000000	0.005410
3659.000000	0.005370
3658.000000	0.005343
3657.000000	0.005352
3656.000000	0.005379
3655.000000	0.005392
3654.000000	0.005378
3653.000000	0.005341
3652.000000	0.005293
3651.000000	0.005260
3650.000000	0.005271
3649.000000	0.005331
3648.000000	0.005419
3647.000000	0.005499
3646.000000	0.005552
3645.000000	0.005587
3644.000000	0.005625
3643.000000	0.005674
3642.000000	0.005728
3641.000000	0.005773
3640.000000	0.005801
3639.000000	0.005814
3638.000000	0.005819
3637.000000	0.005822
3636.000000	0.005828
3635.000000	0.005839
3634.000000	0.005848
3633.000000	0.005853
3632.000000	0.005861
3631.000000	0.005885
3630.000000	0.005924
3629.000000	0.005956
3628.000000	0.005961
3627.000000	0.005965
3626.000000	0.005994
3625.000000	0.006033
3624.000000	0.006055
3623.000000	0.006051
3622.000000	0.006034
3621.000000	0.006028
3620.000000	0.006049
3619.000000	0.006092
3618.000000	0.006142
3617.000000	0.006195
3616.000000	0.006251
3615.000000	0.006314
3614.000000	0.006376
3613.000000	0.006418
3612.000000	0.006435
3611.000000	0.006443
3610.000000	0.006470
3609.000000	0.006533
3608.000000	0.006613
3607.000000	0.006680
3606.000000	0.006721
3605.000000	0.006749
3604.000000	0.006782
3603.000000	0.006831
3602.000000	0.006893
3601.000000	0.006953
3600.000000	0.006995
3599.000000	0.007010
3598.000000	0.007011
3597.000000	0.007025
3596.000000	0.007066
3595.000000	0.007129
3594.000000	0.007188
3593.000000	0.007224
3592.000000	0.007239
3591.000000	0.007252
3590.000000	0.007281
3589.000000	0.007333
3588.000000	0.007397
3587.000000	0.007446
3586.000000	0.007473
3585.000000	0.007495
3584.000000	0.007531
3583.000000	0.007587
3582.000000	0.007659
3581.000000	0.007736
3580.000000	0.007808
3579.000000	0.007868
3578.000000	0.007918
3577.000000	0.007965
3576.000000	0.008012
3575.000000	0.008056
3574.000000	0.008090
3573.000000	0.008116
3572.000000	0.008137
3571.000000	0.008160
3570.000000	0.008188
3569.000000	0.008221
3568.000000	0.008264
3567.000000	0.008316
3566.000000	0.008375
3565.000000	0.008447
3564.000000	0.008539
3563.000000	0.008645
3562.000000	0.008754
3561.000000	0.008845
3560.000000	0.008907
3559.000000	0.008940
3558.000000	0.008959
3557.000000	0.008980
3556.000000	0.009012
3555.000000	0.009055
3554.000000	0.009105
3553.000000	0.009157
3552.000000	0.009209
3551.000000	0.009257
3550.000000	0.009301
3549.000000	0.009343
3548.000000	0.009390
3547.000000	0.009445
3546.000000	0.009510
3545.000000	0.009586
3544.000000	0.009666
3543.000000	0.009747
3542.000000	0.009823
3541.000000	0.009890
3540.000000	0.009947
3539.000000	0.009998
3538.000000	0.010047
3537.000000	0.010098
3536.000000	0.010151
3535.000000	0.010197
3534.000000	0.010232
3533.000000	0.010259
3532.000000	0.010285
3531.000000	0.010317
3530.000000	0.010354
3529.000000	0.010394
3528.000000	0.010435
3527.000000	0.010483
3526.000000	0.010547
3525.000000	0.010624
3524.000000	0.010706
3523.000000	0.010783
3522.000000	0.010853
3521.000000	0.010923
3520.000000	0.010991
3519.000000	0.011047
3518.000000	0.011083
3517.000000	0.011102
3516.000000	0.011119
3515.000000	0.011140
3514.000000	0.011165
3513.000000	0.011192
3512.000000	0.011226
3511.000000	0.011270
3510.000000	0.011321
3509.000000	0.011373
3508.000000	0.011423
3507.000000	0.011475
3506.000000	0.011532
3505.000000	0.011594
3504.000000	0.011655
3503.000000	0.011708
3502.000000	0.011750
3501.000000	0.011785
3500.000000	0.011821
3499.000000	0.011865
3498.000000	0.011917
3497.000000	0.011971
3496.000000	0.012023
3495.000000	0.012072
3494.000000	0.012122
3493.000000	0.012169
3492.000000	0.012210
3491.000000	0.012241
3490.000000	0.012262
3489.000000	0.012284
3488.000000	0.012316
3487.000000	0.012363
3486.000000	0.012420
3485.000000	0.012479
3484.000000	0.012536
3483.000000	0.012590
3482.000000	0.012644
3481.000000	0.012699
3480.000000	0.012754
3479.000000	0.012803
3478.000000	0.012841
3477.000000	0.012866
3476.000000	0.012882
3475.000000	0.012901
3474.000000	0.012934
3473.000000	0.012982
3472.000000	0.013039
3471.000000	0.013095
3470.000000	0.013144
3469.000000	0.013184
3468.000000	0.013218
3467.000000	0.013244
3466.000000	0.013262
3465.000000	0.013274
3464.000000	0.013290
3463.000000	0.013320
3462.000000	0.013371
3461.000000	0.013435
3460.000000	0.013502
3459.000000	0.013563
3458.000000	0.013618
3457.000000	0.013665
3456.000000	0.013698
3455.000000	0.013711
3454.000000	0.013704
3453.000000	0.013694
3452.000000	0.013699
3451.000000	0.013733
3450.000000	0.013797
3449.000000	0.013881
3448.000000	0.013971
3447.000000	0.014053
3446.000000	0.014119
3445.000000	0.014165
3444.000000	0.014199
3443.000000	0.014233
3442.000000	0.014276
3441.000000	0.014331
3440.000000	0.014393
3439.000000	0.014450
3438.000000	0.014492
3437.000000	0.014517
3436.000000	0.014530
3435.000000	0.014545
3434.000000	0.014572
3433.000000	0.014617
3432.000000	0.014671
3431.000000	0.014717
3430.000000	0.014741
3429.000000	0.014747
3428.000000	0.014756
3427.000000	0.014794
3426.000000	0.014867
3425.000000	0.014950
3424.000000	0.015015
3423.000000	0.015053
3422.000000	0.015079
3421.000000	0.015111
3420.000000	0.015155
3419.000000	0.015207
3418.000000	0.015257
3417.000000	0.015300
3416.000000	0.015334
3415.000000	0.015366
3414.000000	0.015403
3413.000000	0.015444
3412.000000	0.015481
3411.000000	0.015509
3410.000000	0.015529
3409.000000	0.015545
3408.000000	0.015566
3407.000000	0.015603
3406.000000	0.015664
3405.000000	0.015743
3404.000000	0.015821
3403.000000	0.015883
3402.000000	0.015929
3401.000000	0.015967
3400.000000	0.015997
3399.000000	0.016016
3398.000000	0.016027
3397.000000	0.016042
3396.000000	0.016071
3395.000000	0.016114
3394.000000	0.016166
3393.000000	0.016218
3392.000000	0.016270
3391.000000	0.016324
3390.000000	0.016381
3389.000000	0.016438
3388.000000	0.016487
3387.000000	0.016526
3386.000000	0.016551
3385.000000	0.016566
3384.000000	0.016580
3383.000000	0.016604
3382.000000	0.016652
3381.000000	0.016723
3380.000000	0.016799
3379.000000	0.016856
3378.000000	0.016888
3377.000000	0.016903
3376.000000	0.016922
3375.000000	0.016959
3374.000000	0.017017
3373.000000	0.017092
3372.000000	0.017179
3371.000000	0.017272
3370.000000	0.017363
3369.000000	0.017449
3368.000000	0.017531
3367.000000	0.017620
3366.000000	0.017721
3365.000000	0.017825
3364.000000	0.017919
3363.000000	0.017992
3362.000000	0.018049
3361.000000	0.018103
3360.000000	0.018163
3359.000000	0.018234
3358.000000	0.018318
3357.000000	0.018411
3356.000000	0.018511
3355.000000	0.018613
3354.000000	0.018709
3353.000000	0.018792
3352.000000	0.018859
3351.000000	0.018921
3350.000000	0.018992
3349.000000	0.019081
3348.000000	0.019185
3347.000000	0.019291
3346.000000	0.019391
3345.000000	0.019482
3344.000000	0.019571
3343.000000	0.019658
3342.000000	0.019739
3341.000000	0.019810
3340.000000	0.019871
3339.000000	0.019931
3338.000000	0.020001
3337.000000	0.020083
3336.000000	0.020173
3335.000000	0.020267
3334.000000	0.020359
3333.000000	0.020447
3332.000000	0.020528
3331.000000	0.020596
3330.000000	0.020650
3329.000000	0.020691
3328.000000	0.020727
3327.000000	0.020769
3326.000000	0.020829
3325.000000	0.020906
3324.000000	0.020992
3323.000000	0.021070
3322.000000	0.021132
3321.000000	0.021177
3320.000000	0.021213
3319.000000	0.021248
3318.000000	0.021283
3317.000000	0.021310
3316.000000	0.021327
3315.000000	0.021343
3314.000000	0.021376
3313.000000	0.021438
3312.000000	0.021519
3311.000000	0.021595
3310.000000	0.021649
3309.000000	0.021672
3308.000000	0.021675
3307.000000	0.021672
3306.000000	0.021680
3305.000000	0.021706
3304.000000	0.021749
3303.000000	0.021800
3302.000000	0.021847
3301.000000	0.021881
3300.000000	0.021898
3299.000000	0.021906
3298.000000	0.021911
3297.000000	0.021921
3296.000000	0.021934
3295.000000	0.021949
3294.000000	0.021964
3293.000000	0.021979
3292.000000	0.021989
3291.000000	0.021994
3290.000000	0.022002
3289.000000	0.022015
3288.000000	0.022031
3287.000000	0.022045
3286.000000	0.022054
3285.000000	0.022064
3284.000000	0.022076
3283.000000	0.022088
3282.000000	0.022095
3281.000000	0.022093
3280.000000	0.022080
3279.000000	0.022054
3278.000000	0.022017
3277.000000	0.021970
3276.000000	0.021913
3275.000000	0.021846
3274.000000	0.021776
3273.000000	0.021717
3272.000000	0.021680
3271.000000	0.021665
3270.000000	0.021663
3269.000000	0.021656
3268.000000	0.021632
3267.000000	0.021589
3266.000000	0.021535
3265.000000	0.021480
3264.000000	0.021433
3263.000000	0.021395
3262.000000	0.021365
3261.000000	0.021337
3260.000000	0.021305
3259.000000	0.021264
3258.000000	0.021217
3257.000000	0.021165
3256.000000	0.021107
3255.000000	0.021042
3254.000000	0.020971
3253.000000	0.020908
3252.000000	0.020859
3251.000000	0.020820
3250.000000	0.020775
3249.000000	0.020718
3248.000000	0.020658
3247.000000	0.020609
3246.000000	0.020584
3245.000000	0.020579
3244.000000	0.020582
3243.000000	0.020580
3242.000000	0.020562
3241.000000	0.020525
3240.000000	0.020470
3239.000000	0.020404
3238.000000	0.020337
3237.000000	0.020276
3236.000000	0.020224
3235.000000	0.020183
3234.000000	0.020157
3233.000000	0.020141
3232.000000	0.020124
3231.000000	0.020097
3230.000000	0.020058
3229.000000	0.020017
3228.000000	0.019984
3227.000000	0.019961
3226.000000	0.019939
3225.000000	0.019907
3224.000000	0.019863
3223.000000	0.019817
3222.000000	0.019780
3221.000000	0.019758
3220.000000	0.019745
3219.000000	0.019733
3218.000000	0.019713
3217.000000	0.019680
3216.000000	0.019632
3215.000000	0.019576
3214.000000	0.019522
3213.000000	0.019479
3212.000000	0.019445
3211.000000	0.019410
3210.000000	0.019373
3209.000000	0.019335
3208.000000	0.019301
3207.000000	0.019267
3206.000000	0.019230
3205.000000	0.019191
3204.000000	0.019156
3203.000000	0.019129
3202.000000	0.019103
3201.000000	0.019069
3200.000000	0.019025
3199.000000	0.018977
3198.000000	0.018932
3197.000000	0.018890
3196.000000	0.018845
3195.000000	0.018797
3194.000000	0.018745
3193.000000	0.018692
3192.000000	0.018642
3191.000000	0.018597
3190.000000	0.018558
3189.000000	0.018520
3188.000000	0.018475
3187.000000	0.018420
3186.000000	0.018362
3185.000000	0.018311
3184.000000	0.018268
3183.000000	0.018226
3182.000000	0.018175
3181.000000	0.018113
3180.000000	0.018042
3179.000000	0.017971
3178.000000	0.017905
3177.000000	0.017847
3176.000000	0.017797
3175.000000	0.017752
3174.000000	0.017708
3173.000000	0.017661
3172.000000	0.017606
3171.000000	0.017542
3170.000000	0.017473
3169.000000	0.017405
3168.000000	0.017345
3167.000000	0.017295
3166.000000	0.017252
3165.000000	0.017209
3164.000000	0.017164
3163.000000	0.017121
3162.000000	0.017085
3161.000000	0.017056
3160.000000	0.017027
3159.000000	0.016987
3158.000000	0.016934
3157.000000	0.016868
3156.000000	0.016795
3155.000000	0.016719
3154.000000	0.016649
3153.000000	0.016586
3152.000000	0.016525
3151.000000	0.016467
3150.000000	0.016421
3149.000000	0.016397
3148.000000	0.016397
3147.000000	0.016405
3146.000000	0.016401
3145.000000	0.016371
3144.000000	0.016309
3143.000000	0.016225
3142.000000	0.016138
3141.000000	0.016068
3140.000000	0.016023
3139.000000	0.015999
3138.000000	0.015982
3137.000000	0.015965
3136.000000	0.015945
3135.000000	0.015922
3134.000000	0.015893
3133.000000	0.015856
3132.000000	0.015813
3131.000000	0.015768
3130.000000	0.015729
3129.000000	0.015701
3128.000000	0.015683
3127.000000	0.015672
3126.000000	0.015663
3125.000000	0.015648
3124.000000	0.015627
3123.000000	0.015604
3122.000000	0.015582
3121.000000	0.015559
3120.000000	0.015530
3119.000000	0.015492
3118.000000	0.015454
3117.000000	0.015428
3116.000000	0.015418
3115.000000	0.015427
3114.000000	0.015456
3113.000000	0.015501
3112.000000	0.015546
3111.000000	0.015580
3110.000000	0.015600
3109.000000	0.015612
3108.000000	0.015620
3107.000000	0.015627
3106.000000	0.015639
3105.000000	0.015660
3104.000000	0.015687
3103.000000	0.015705
3102.000000	0.015702
3101.000000	0.015685
3100.000000	0.015676
3099.000000	0.015688
3098.000000	0.015722
3097.000000	0.015761
3096.000000	0.015790
3095.000000	0.015805
3094.000000	0.015817
3093.000000	0.015840
3092.000000	0.015877
3091.000000	0.015915
3090.000000	0.015938
3089.000000	0.015942
3088.000000	0.015937
3087.000000	0.015939
3086.000000	0.015958
3085.000000	0.015991
3084.000000	0.016027
3083.000000	0.016052
3082.000000	0.016061
3081.000000	0.016054
3080.000000	0.016035
3079.000000	0.016012
3078.000000	0.015994
3077.000000	0.015991
3076.000000	0.016006
3075.000000	0.016032
3074.000000	0.016060
3073.000000	0.016082
3072.000000	0.016089
3071.000000	0.016076
3070.000000	0.016042
3069.000000	0.015999
3068.000000	0.015959
3067.000000	0.015931
3066.000000	0.015917
3065.000000	0.015918
3064.000000	0.015929
3063.000000	0.015940
3062.000000	0.015939
3061.000000	0.015920
3060.000000	0.015886
3059.000000	0.015844
3058.000000	0.015799
3057.000000	0.015750
3056.000000	0.015698
3055.000000	0.015640
3054.000000	0.015576
3053.000000	0.015513
3052.000000	0.015459
3051.000000	0.015419
3050.000000	0.015389
3049.000000	0.015359
3048.000000	0.015321
3047.000000	0.015274
3046.000000	0.015219
3045.000000	0.015165
3044.000000	0.015112
3043.000000	0.015057
3042.000000	0.014999
3041.000000	0.014938
3040.000000	0.014881
3039.000000	0.014831
3038.000000	0.014784
3037.000000	0.014734
3036.000000	0.014677
3035.000000	0.014618
3034.000000	0.014558
3033.000000	0.014497
3032.000000	0.014437
3031.000000	0.014387
3030.000000	0.014353
3029.000000	0.014329
3028.000000	0.014299
3027.000000	0.014255
3026.000000	0.014202
3025.000000	0.014158
3024.000000	0.014128
3023.000000	0.014100
3022.000000	0.014060
3021.000000	0.014007
3020.000000	0.013953
3019.000000	0.013905
3018.000000	0.013863
3017.000000	0.013822
3016.000000	0.013781
3015.000000	0.013744
3014.000000	0.013713
3013.000000	0.013686
3012.000000	0.013659
3011.000000	0.013635
3010.000000	0.013616
3009.000000	0.013597
3008.000000	0.013572
3007.000000	0.013543
3006.000000	0.013521
3005.000000	0.013514
3004.000000	0.013526
3003.000000	0.013547
3002.000000	0.013561
3001.000000	0.013557
3000.000000	0.013536
2999.000000	0.013509
2998.000000	0.013492
2997.000000	0.013496
2996.000000	0.013526
2995.000000	0.013580
2994.000000	0.013650
2993.000000	0.013724
2992.000000	0.013788
2991.000000	0.013832
2990.000000	0.013860
2989.000000	0.013887
2988.000000	0.013928
2987.000000	0.013985
2986.000000	0.014049
2985.000000	0.014106
2984.000000	0.014152
2983.000000	0.014191
2982.000000	0.014232
2981.000000	0.014277
2980.000000	0.014322
2979.000000	0.014365
2978.000000	0.014405
2977.000000	0.014443
2976.000000	0.014480
2975.000000	0.014514
2974.000000	0.014549
2973.000000	0.014589
2972.000000	0.014634
2971.000000	0.014678
2970.000000	0.014718
2969.000000	0.014758
2968.000000	0.014803
2967.000000	0.014857
2966.000000	0.014912
2965.000000	0.014965
2964.000000	0.015015
2963.000000	0.015062
2962.000000	0.015107
2961.000000	0.015145
2960.000000	0.015178
2959.000000	0.015212
2958.000000	0.015255
2957.000000	0.015303
2956.000000	0.015348
2955.000000	0.015380
2954.000000	0.015395
2953.000000	0.015396
2952.000000	0.015384
2951.000000	0.015368
2950.000000	0.015359
2949.000000	0.015368
2948.000000	0.015394
2947.000000	0.015433
2946.000000	0.015481
2945.000000	0.015534
2944.000000	0.015589
2943.000000	0.015645
2942.000000	0.015706
2941.000000	0.015779
2940.000000	0.015864
2939.000000	0.015952
2938.000000	0.016032
2937.000000	0.016107
2936.000000	0.016186
2935.000000	0.016276
2934.000000	0.016369
2933.000000	0.016456
2932.000000	0.016536
2931.000000	0.016616
2930.000000	0.016708
2929.000000	0.016807
2928.000000	0.016905
2927.000000	0.016995
2926.000000	0.017084
2925.000000	0.017178
2924.000000	0.017272
2923.000000	0.017353
2922.000000	0.017415
2921.000000	0.017458
2920.000000	0.017485
2919.000000	0.017487
2918.000000	0.017450
2917.000000	0.017362
2916.000000	0.017218
2915.000000	0.017023
2914.000000	0.016794
2913.000000	0.016547
2912.000000	0.016303
2911.000000	0.016076
2910.000000	0.015871
2909.000000	0.015685
2908.000000	0.015515
2907.000000	0.015366
2906.000000	0.015247
2905.000000	0.015158
2904.000000	0.015088
2903.000000	0.015020
2902.000000	0.014949
2901.000000	0.014882
2900.000000	0.014819
2899.000000	0.014756
2898.000000	0.014691
2897.000000	0.014631
2896.000000	0.014585
2895.000000	0.014552
2894.000000	0.014524
2893.000000	0.014497
2892.000000	0.014473
2891.000000	0.014455
2890.000000	0.014444
2889.000000	0.014431
2888.000000	0.014412
2887.000000	0.014385
2886.000000	0.014358
2885.000000	0.014339
2884.000000	0.014333
2883.000000	0.014338
2882.000000	0.014350
2881.000000	0.014368
2880.000000	0.014392
2879.000000	0.014416
2878.000000	0.014429
2877.000000	0.014419
2876.000000	0.014383
2875.000000	0.014329
2874.000000	0.014274
2873.000000	0.014230
2872.000000	0.014199
2871.000000	0.014175
2870.000000	0.014149
2869.000000	0.014115
2868.000000	0.014074
2867.000000	0.014032
2866.000000	0.013997
2865.000000	0.013970
2864.000000	0.013948
2863.000000	0.013928
2862.000000	0.013917
2861.000000	0.013927
2860.000000	0.013961
2859.000000	0.014006
2858.000000	0.014050
2857.000000	0.014091
2856.000000	0.014145
2855.000000	0.014227
2854.000000	0.014339
2853.000000	0.014467
2852.000000	0.014583
2851.000000	0.014657
2850.000000	0.014662
2849.000000	0.014587
2848.000000	0.014433
2847.000000	0.014221
2846.000000	0.013981
2845.000000	0.013747
2844.000000	0.013548
2843.000000	0.013394
2842.000000	0.013273
2841.000000	0.013164
2840.000000	0.013053
2839.000000	0.012944
2838.000000	0.012852
2837.000000	0.012787
2836.000000	0.012748
2835.000000	0.012722
2834.000000	0.012696
2833.000000	0.012666
2832.000000	0.012632
2831.000000	0.012592
2830.000000	0.012544
2829.000000	0.012489
2828.000000	0.012438
2827.000000	0.012400
2826.000000	0.012380
2825.000000	0.012371
2824.000000	0.012360
2823.000000	0.012340
2822.000000	0.012308
2821.000000	0.012268
2820.000000	0.012226
2819.000000	0.012191
2818.000000	0.012162
2817.000000	0.012140
2816.000000	0.012120
2815.000000	0.012102
2814.000000	0.012086
2813.000000	0.012074
2812.000000	0.012063
2811.000000	0.012051
2810.000000	0.012035
2809.000000	0.012019
2808.000000	0.012004
2807.000000	0.011993
2806.000000	0.011986
2805.000000	0.011979
2804.000000	0.011967
2803.000000	0.011945
2802.000000	0.011911
2801.000000	0.011873
2800.000000	0.011838
2799.000000	0.011811
2798.000000	0.011788
2797.000000	0.011765
2796.000000	0.011740
2795.000000	0.011712
2794.000000	0.011685
2793.000000	0.011666
2792.000000	0.011660
2791.000000	0.011665
2790.000000	0.011671
2789.000000	0.011664
2788.000000	0.011639
2787.000000	0.011604
2786.000000	0.011572
2785.000000	0.011554
2784.000000	0.011548
2783.000000	0.011544
2782.000000	0.011533
2781.000000	0.011514
2780.000000	0.011491
2779.000000	0.011469
2778.000000	0.011445
2777.000000	0.011418
2776.000000	0.011388
2775.000000	0.011365
2774.000000	0.011353
2773.000000	0.011349
2772.000000	0.011343
2771.000000	0.011328
2770.000000	0.011307
2769.000000	0.011291
2768.000000	0.011285
2767.000000	0.011285
2766.000000	0.011280
2765.000000	0.011264
2764.000000	0.011241
2763.000000	0.011219
2762.000000	0.011204
2761.000000	0.011197
2760.000000	0.011193
2759.000000	0.011183
2758.000000	0.011161
2757.000000	0.011132
2756.000000	0.011104
2755.000000	0.011084
2754.000000	0.011066
2753.000000	0.011042
2752.000000	0.011011
2751.000000	0.010985
2750.000000	0.010975
2749.000000	0.010977
2748.000000	0.010978
2747.000000	0.010971
2746.000000	0.010959
2745.000000	0.010949
2744.000000	0.010944
2743.000000	0.010940
2742.000000	0.010929
2741.000000	0.010909
2740.000000	0.010884
2739.000000	0.010863
2738.000000	0.010849
2737.000000	0.010839
2736.000000	0.010827
2735.000000	0.010814
2734.000000	0.010805
2733.000000	0.010796
2732.000000	0.010776
2731.000000	0.010745
2730.000000	0.010717
2729.000000	0.010708
2728.000000	0.010716
2727.000000	0.010727
2726.000000	0.010726
2725.000000	0.010708
2724.000000	0.010673
2723.000000	0.010630
2722.000000	0.010595
2721.000000	0.010580
2720.000000	0.010581
2719.000000	0.010581
2718.000000	0.010570
2717.000000	0.010556
2716.000000	0.010550
2715.000000	0.010545
2714.000000	0.010527
2713.000000	0.010493
2712.000000	0.010457
2711.000000	0.010435
2710.000000	0.010432
2709.000000	0.010440
2708.000000	0.010446
2707.000000	0.010444
2706.000000	0.010433
2705.000000	0.010418
2704.000000	0.010404
2703.000000	0.010397
2702.000000	0.010400
2701.000000	0.010409
2700.000000	0.010415
2699.000000	0.010408
2698.000000	0.010385
2697.000000	0.010355
2696.000000	0.010327
2695.000000	0.010308
2694.000000	0.010295
2693.000000	0.010286
2692.000000	0.010281
2691.000000	0.010282
2690.000000	0.010283
2689.000000	0.010280
2688.000000	0.010271
2687.000000	0.010262
2686.000000	0.010260
2685.000000	0.010263
2684.000000	0.010262
2683.000000	0.010252
2682.000000	0.010238
2681.000000	0.010232
2680.000000	0.010234
2679.000000	0.010233
2678.000000	0.010216
2677.000000	0.010184
2676.000000	0.010152
2675.000000	0.010137
2674.000000	0.010143
2673.000000	0.010163
2672.000000	0.010181
2671.000000	0.010186
2670.000000	0.010177
2669.000000	0.010162
2668.000000	0.010152
2667.000000	0.010154
2666.000000	0.010166
2665.000000	0.010180
2664.000000	0.010186
2663.000000	0.010175
2662.000000	0.010151
2661.000000	0.010122
2660.000000	0.010100
2659.000000	0.010084
2658.000000	0.010070
2657.000000	0.010052
2656.000000	0.010031
2655.000000	0.010012
2654.000000	0.009996
2653.000000	0.009985
2652.000000	0.009978
2651.000000	0.009977
2650.000000	0.009975
2649.000000	0.009967
2648.000000	0.009942
2647.000000	0.009896
2646.000000	0.009836
2645.000000	0.009785
2644.000000	0.009763
2643.000000	0.009766
2642.000000	0.009769
2641.000000	0.009752
2640.000000	0.009713
2639.000000	0.009671
2638.000000	0.009634
2637.000000	0.009599
2636.000000	0.009564
2635.000000	0.009536
2634.000000	0.009524
2633.000000	0.009519
2632.000000	0.009507
2631.000000	0.009485
2630.000000	0.009460
2629.000000	0.009437
2628.000000	0.009411
2627.000000	0.009383
2626.000000	0.009359
2625.000000	0.009341
2624.000000	0.009321
2623.000000	0.009292
2622.000000	0.009257
2621.000000	0.009220
2620.000000	0.009186
2619.000000	0.009155
2618.000000	0.009135
2617.000000	0.009131
2616.000000	0.009133
2615.000000	0.009130
2614.000000	0.009114
2613.000000	0.009091
2612.000000	0.009065
2611.000000	0.009042
2610.000000	0.009030
2609.000000	0.009035
2608.000000	0.009045
2607.000000	0.009040
2606.000000	0.009012
2605.000000	0.008971
2604.000000	0.008939
2603.000000	0.008929
2602.000000	0.008935
2601.000000	0.008940
2600.000000	0.008931
2599.000000	0.008907
2598.000000	0.008882
2597.000000	0.008865
2596.000000	0.008855
2595.000000	0.008844
2594.000000	0.008830
2593.000000	0.008823
2592.000000	0.008828
2591.000000	0.008841
2590.000000	0.008847
2589.000000	0.008838
2588.000000	0.008813
2587.000000	0.008774
2586.000000	0.008728
2585.000000	0.008685
2584.000000	0.008657
2583.000000	0.008644
2582.000000	0.008635
2581.000000	0.008624
2580.000000	0.008613
2579.000000	0.008609
2578.000000	0.008611
2577.000000	0.008608
2576.000000	0.008596
2575.000000	0.008582
2574.000000	0.008576
2573.000000	0.008574
2572.000000	0.008569
2571.000000	0.008564
2570.000000	0.008565
2569.000000	0.008570
2568.000000	0.008567
2567.000000	0.008553
2566.000000	0.008536
2565.000000	0.008520
2564.000000	0.008501
2563.000000	0.008480
2562.000000	0.008470
2561.000000	0.008479
2560.000000	0.008491
2559.000000	0.008492
2558.000000	0.008482
2557.000000	0.008472
2556.000000	0.008463
2555.000000	0.008446
2554.000000	0.008423
2553.000000	0.008417
2552.000000	0.008438
2551.000000	0.008476
2550.000000	0.008510
2549.000000	0.008522
2548.000000	0.008507
2547.000000	0.008471
2546.000000	0.008428
2545.000000	0.008388
2544.000000	0.008355
2543.000000	0.008329
2542.000000	0.008318
2541.000000	0.008328
2540.000000	0.008356
2539.000000	0.008391
2538.000000	0.008423
2537.000000	0.008447
2536.000000	0.008457
2535.000000	0.008448
2534.000000	0.008418
2533.000000	0.008372
2532.000000	0.008319
2531.000000	0.008276
2530.000000	0.008265
2529.000000	0.008292
2528.000000	0.008334
2527.000000	0.008355
2526.000000	0.008337
2525.000000	0.008295
2524.000000	0.008257
2523.000000	0.008239
2522.000000	0.008242
2521.000000	0.008262
2520.000000	0.008287
2519.000000	0.008304
2518.000000	0.008302
2517.000000	0.008283
2516.000000	0.008254
2515.000000	0.008223
2514.000000	0.008201
2513.000000	0.008192
2512.000000	0.008198
2511.000000	0.008216
2510.000000	0.008242
2509.000000	0.008267
2508.000000	0.008275
2507.000000	0.008258
2506.000000	0.008218
2505.000000	0.008171
2504.000000	0.008125
2503.000000	0.008090
2502.000000	0.008071
2501.000000	0.008075
2500.000000	0.008097
2499.000000	0.008127
2498.000000	0.008149
2497.000000	0.008156
2496.000000	0.008141
2495.000000	0.008109
2494.000000	0.008078
2493.000000	0.008067
2492.000000	0.008082
2491.000000	0.008115
2490.000000	0.008157
2489.000000	0.008195
2488.000000	0.008214
2487.000000	0.008203
2486.000000	0.008171
2485.000000	0.008133
2484.000000	0.008100
2483.000000	0.008073
2482.000000	0.008055
2481.000000	0.008051
2480.000000	0.008051
2479.000000	0.008046
2478.000000	0.008037
2477.000000	0.008045
2476.000000	0.008076
2475.000000	0.008106
2474.000000	0.008103
2473.000000	0.008060
2472.000000	0.008008
2471.000000	0.007979
2470.000000	0.007981
2469.000000	0.008001
2468.000000	0.008026
2467.000000	0.008049
2466.000000	0.008068
2465.000000	0.008075
2464.000000	0.008065
2463.000000	0.008042
2462.000000	0.008025
2461.000000	0.008027
2460.000000	0.008039
2459.000000	0.008036
2458.000000	0.008002
2457.000000	0.007949
2456.000000	0.007908
2455.000000	0.007901
2454.000000	0.007927
2453.000000	0.007966
2452.000000	0.007993
2451.000000	0.007999
2450.000000	0.007991
2449.000000	0.007987
2448.000000	0.007997
2447.000000	0.008017
2446.000000	0.008026
2445.000000	0.008007
2444.000000	0.007966
2443.000000	0.007924
2442.000000	0.007894
2441.000000	0.007869
2440.000000	0.007843
2439.000000	0.007830
2438.000000	0.007843
2437.000000	0.007876
2436.000000	0.007898
2435.000000	0.007896
2434.000000	0.007881
2433.000000	0.007869
2432.000000	0.007860
2431.000000	0.007849
2430.000000	0.007831
2429.000000	0.007809
2428.000000	0.007788
2427.000000	0.007786
2426.000000	0.007820
2425.000000	0.007876
2424.000000	0.007917
2423.000000	0.007916
2422.000000	0.007887
2421.000000	0.007858
2420.000000	0.007845
2419.000000	0.007845
2418.000000	0.007863
2417.000000	0.007895
2416.000000	0.007922
2415.000000	0.007922
2414.000000	0.007896
2413.000000	0.007865
2412.000000	0.007841
2411.000000	0.007822
2410.000000	0.007805
2409.000000	0.007792
2408.000000	0.007779
2407.000000	0.007758
2406.000000	0.007731
2405.000000	0.007709
2404.000000	0.007703
2403.000000	0.007717
2402.000000	0.007749
2401.000000	0.007791
2400.000000	0.007825
2399.000000	0.007833
2398.000000	0.007814
2397.000000	0.007788
2396.000000	0.007766
2395.000000	0.007750
2394.000000	0.007739
2393.000000	0.007735
2392.000000	0.007742
2391.000000	0.007757
2390.000000	0.007768
2389.000000	0.007767
2388.000000	0.007753
2387.000000	0.007736
2386.000000	0.007728
2385.000000	0.007728
2384.000000	0.007724
2383.000000	0.007707
2382.000000	0.007682
2381.000000	0.007657
2380.000000	0.007633
2379.000000	0.007615
2378.000000	0.007623
2377.000000	0.007661
2376.000000	0.007706
2375.000000	0.007729
2374.000000	0.007730
2373.000000	0.007726
2372.000000	0.007719
2371.000000	0.007697
2370.000000	0.007661
2369.000000	0.007628
2368.000000	0.007606
2367.000000	0.007596
2366.000000	0.007604
2365.000000	0.007638
2364.000000	0.007692
2363.000000	0.007754
2362.000000	0.007808
2361.000000	0.007836
2360.000000	0.007826
2359.000000	0.007788
2358.000000	0.007745
2357.000000	0.007718
2356.000000	0.007722
2355.000000	0.007762
2354.000000	0.007790
2353.000000	0.007758
2352.000000	0.007691
2351.000000	0.007667
2350.000000	0.007714
2349.000000	0.007794
2348.000000	0.007849
2347.000000	0.007838
2346.000000	0.007786
2345.000000	0.007767
2344.000000	0.007814
2343.000000	0.007890
2342.000000	0.007937
2341.000000	0.007938
2340.000000	0.007916
2339.000000	0.007895
2338.000000	0.007870
2337.000000	0.007833
2336.000000	0.007793
2335.000000	0.007755
2334.000000	0.007709
2333.000000	0.007654
2332.000000	0.007622
2331.000000	0.007640
2330.000000	0.007702
2329.000000	0.007771
2328.000000	0.007840
2327.000000	0.007916
2326.000000	0.007993
2325.000000	0.008034
2324.000000	0.008015
2323.000000	0.007958
2322.000000	0.007916
2321.000000	0.007932
2320.000000	0.007988
2319.000000	0.008027
2318.000000	0.008014
2317.000000	0.007961
2316.000000	0.007906
2315.000000	0.007875
2314.000000	0.007873
2313.000000	0.007885
2312.000000	0.007888
2311.000000	0.007861
2310.000000	0.007809
2309.000000	0.007759
2308.000000	0.007733
2307.000000	0.007724
2306.000000	0.007719
2305.000000	0.007720
2304.000000	0.007740
2303.000000	0.007778
2302.000000	0.007819
2301.000000	0.007835
2300.000000	0.007812
2299.000000	0.007760
2298.000000	0.007710
2297.000000	0.007689
2296.000000	0.007704
2295.000000	0.007736
2294.000000	0.007770
2293.000000	0.007802
2292.000000	0.007828
2291.000000	0.007839
2290.000000	0.007829
2289.000000	0.007804
2288.000000	0.007783
2287.000000	0.007782
2286.000000	0.007806
2285.000000	0.007833
2284.000000	0.007827
2283.000000	0.007774
2282.000000	0.007708
2281.000000	0.007682
2280.000000	0.007709
2279.000000	0.007748
2278.000000	0.007755
2277.000000	0.007715
2276.000000	0.007644
2275.000000	0.007568
2274.000000	0.007520
2273.000000	0.007517
2272.000000	0.007545
2271.000000	0.007565
2270.000000	0.007554
2269.000000	0.007519
2268.000000	0.007480
2267.000000	0.007439
2266.000000	0.007394
2265.000000	0.007347
2264.000000	0.007305
2263.000000	0.007284
2262.000000	0.007311
2261.000000	0.007394
2260.000000	0.007484
2259.000000	0.007506
2258.000000	0.007443
2257.000000	0.007362
2256.000000	0.007332
2255.000000	0.007345
2254.000000	0.007338
2253.000000	0.007285
2252.000000	0.007225
2251.000000	0.007209
2250.000000	0.007242
2249.000000	0.007280
2248.000000	0.007281
2247.000000	0.007248
2246.000000	0.007234
2245.000000	0.007286
2244.000000	0.007383
2243.000000	0.007458
2242.000000	0.007469
2241.000000	0.007425
2240.000000	0.007366
2239.000000	0.007323
2238.000000	0.007326
2237.000000	0.007381
2236.000000	0.007444
2235.000000	0.007439
2234.000000	0.007342
2233.000000	0.007221
2232.000000	0.007166
2231.000000	0.007194
2230.000000	0.007253
2229.000000	0.007296
2228.000000	0.007325
2227.000000	0.007362
2226.000000	0.007401
2225.000000	0.007415
2224.000000	0.007388
2223.000000	0.007323
2222.000000	0.007239
2221.000000	0.007152
2220.000000	0.007070
2219.000000	0.007011
2218.000000	0.007003
2217.000000	0.007049
2216.000000	0.007114
2215.000000	0.007151
2214.000000	0.007154
2213.000000	0.007155
2212.000000	0.007191
2211.000000	0.007270
2210.000000	0.007379
2209.000000	0.007489
2208.000000	0.007552
2207.000000	0.007532
2206.000000	0.007431
2205.000000	0.007288
2204.000000	0.007146
2203.000000	0.007038
2202.000000	0.006990
2201.000000	0.007008
2200.000000	0.007057
2199.000000	0.007084
2198.000000	0.007070
2197.000000	0.007045
2196.000000	0.007033
2195.000000	0.007030
2194.000000	0.007021
2193.000000	0.007016
2192.000000	0.007049
2191.000000	0.007120
2190.000000	0.007170
2189.000000	0.007115
2188.000000	0.006940
2187.000000	0.006741
2186.000000	0.006645
2185.000000	0.006664
2184.000000	0.006692
2183.000000	0.006643
2182.000000	0.006557
2181.000000	0.006518
2180.000000	0.006550
2179.000000	0.006625
2178.000000	0.006728
2177.000000	0.006841
2176.000000	0.006902
2175.000000	0.006862
2174.000000	0.006742
2173.000000	0.006607
2172.000000	0.006491
2171.000000	0.006421
2170.000000	0.006442
2169.000000	0.006558
2168.000000	0.006671
2167.000000	0.006668
2166.000000	0.006557
2165.000000	0.006439
2164.000000	0.006366
2163.000000	0.006306
2162.000000	0.006227
2161.000000	0.006128
2160.000000	0.005996
2159.000000	0.005845
2158.000000	0.005777
2157.000000	0.005862
2156.000000	0.005996
2155.000000	0.006006
2154.000000	0.005857
2153.000000	0.005668
2152.000000	0.005577
2151.000000	0.005661
2150.000000	0.005919
2149.000000	0.006268
2148.000000	0.006551
2147.000000	0.006654
2146.000000	0.006616
2145.000000	0.006549
2144.000000	0.006508
2143.000000	0.006479
2142.000000	0.006462
2141.000000	0.006477
2140.000000	0.006497
2139.000000	0.006479
2138.000000	0.006435
2137.000000	0.006417
2136.000000	0.006429
2135.000000	0.006426
2134.000000	0.006403
2133.000000	0.006412
2132.000000	0.006476
2131.000000	0.006555
2130.000000	0.006612
2129.000000	0.006658
2128.000000	0.006717
2127.000000	0.006797
2126.000000	0.006880
2125.000000	0.006943
2124.000000	0.006961
2123.000000	0.006938
2122.000000	0.006917
2121.000000	0.006933
2120.000000	0.006963
2119.000000	0.006959
2118.000000	0.006923
2117.000000	0.006901
2116.000000	0.006920
2115.000000	0.006962
2114.000000	0.007006
2113.000000	0.007049
2112.000000	0.007078
2111.000000	0.007069
2110.000000	0.007027
2109.000000	0.006988
2108.000000	0.006966
2107.000000	0.006944
2106.000000	0.006908
2105.000000	0.006872
2104.000000	0.006852
2103.000000	0.006859
2102.000000	0.006927
2101.000000	0.007077
2100.000000	0.007256
2099.000000	0.007351
2098.000000	0.007305
2097.000000	0.007174
2096.000000	0.007051
2095.000000	0.006979
2094.000000	0.006946
2093.000000	0.006930
2092.000000	0.006919
2091.000000	0.006915
2090.000000	0.006944
2089.000000	0.007028
2088.000000	0.007138
2087.000000	0.007197
2086.000000	0.007161
2085.000000	0.007053
2084.000000	0.006930
2083.000000	0.006836
2082.000000	0.006802
2081.000000	0.006837
2080.000000	0.006915
2079.000000	0.006972
2078.000000	0.006973
2077.000000	0.006927
2076.000000	0.006854
2075.000000	0.006769
2074.000000	0.006703
2073.000000	0.006702
2072.000000	0.006765
2071.000000	0.006835
2070.000000	0.006861
2069.000000	0.006834
2068.000000	0.006763
2067.000000	0.006654
2066.000000	0.006550
2065.000000	0.006521
2064.000000	0.006567
2063.000000	0.006585
2062.000000	0.006499
2061.000000	0.006358
2060.000000	0.006279
2059.000000	0.006298
2058.000000	0.006350
2057.000000	0.006377
2056.000000	0.006396
2055.000000	0.006459
2054.000000	0.006578
2053.000000	0.006710
2052.000000	0.006793
2051.000000	0.006782
2050.000000	0.006673
2049.000000	0.006489
2048.000000	0.006287
2047.000000	0.006139
2046.000000	0.006110
2045.000000	0.006195
2044.000000	0.006298
2043.000000	0.006319
2042.000000	0.006266
2041.000000	0.006226
2040.000000	0.006229
2039.000000	0.006207
2038.000000	0.006081
2037.000000	0.005860
2036.000000	0.005611
2035.000000	0.005401
2034.000000	0.005278
2033.000000	0.005273
2032.000000	0.005390
2031.000000	0.005612
2030.000000	0.005894
2029.000000	0.006136
2028.000000	0.006208
2027.000000	0.006084
2026.000000	0.005902
2025.000000	0.005804
2024.000000	0.005759
2023.000000	0.005623
2022.000000	0.005372
2021.000000	0.005155
2020.000000	0.005120
2019.000000	0.005269
2018.000000	0.005499
2017.000000	0.005703
2016.000000	0.005818
2015.000000	0.005832
2014.000000	0.005778
2013.000000	0.005680
2012.000000	0.005552
2011.000000	0.005457
2010.000000	0.005501
2009.000000	0.005707
2008.000000	0.005938
2007.000000	0.006057
2006.000000	0.006089
2005.000000	0.006127
2004.000000	0.006141
2003.000000	0.006036
2002.000000	0.005844
2001.000000	0.005706
2000.000000	0.005672
1999.000000	0.005655
1998.000000	0.005595
1997.000000	0.005540
1996.000000	0.005539
1995.000000	0.005560
1994.000000	0.005567
1993.000000	0.005586
1992.000000	0.005659
1991.000000	0.005766
1990.000000	0.005871
1989.000000	0.005957
1988.000000	0.006016
1987.000000	0.006031
1986.000000	0.006014
1985.000000	0.006002
1984.000000	0.006007
1983.000000	0.006010
1982.000000	0.006002
1981.000000	0.005989
1980.000000	0.005954
1979.000000	0.005884
1978.000000	0.005812
1977.000000	0.005783
1976.000000	0.005772
1975.000000	0.005725
1974.000000	0.005651
1973.000000	0.005577
1972.000000	0.005454
1971.000000	0.005232
1970.000000	0.004989
1969.000000	0.004887
1968.000000	0.004978
1967.000000	0.005154
1966.000000	0.005295
1965.000000	0.005366
1964.000000	0.005372
1963.000000	0.005325
1962.000000	0.005276
1961.000000	0.005299
1960.000000	0.005402
1959.000000	0.005515
1958.000000	0.005580
1957.000000	0.005601
1956.000000	0.005617
1955.000000	0.005668
1954.000000	0.005774
1953.000000	0.005889
1952.000000	0.005911
1951.000000	0.005788
1950.000000	0.005599
1949.000000	0.005484
1948.000000	0.005488
1947.000000	0.005564
1946.000000	0.005675
1945.000000	0.005823
1944.000000	0.005974
1943.000000	0.006055
1942.000000	0.006041
1941.000000	0.005989
1940.000000	0.005947
1939.000000	0.005908
1938.000000	0.005861
1937.000000	0.005829
1936.000000	0.005838
1935.000000	0.005869
1934.000000	0.005885
1933.000000	0.005866
1932.000000	0.005827
1931.000000	0.005805
1930.000000	0.005840
1929.000000	0.005930
1928.000000	0.006010
1927.000000	0.006020
1926.000000	0.005977
1925.000000	0.005945
1924.000000	0.005948
1923.000000	0.005952
1922.000000	0.005926
1921.000000	0.005883
1920.000000	0.005846
1919.000000	0.005823
1918.000000	0.005821
1917.000000	0.005842
1916.000000	0.005866
1915.000000	0.005884
1914.000000	0.005907
1913.000000	0.005935
1912.000000	0.005941
1911.000000	0.005912
1910.000000	0.005876
1909.000000	0.005855
1908.000000	0.005825
1907.000000	0.005774
1906.000000	0.005752
1905.000000	0.005807
1904.000000	0.005896
1903.000000	0.005929
1902.000000	0.005905
1901.000000	0.005898
1900.000000	0.005945
1899.000000	0.006005
1898.000000	0.006028
1897.000000	0.006017
1896.000000	0.005984
1895.000000	0.005933
1894.000000	0.005886
1893.000000	0.005874
1892.000000	0.005895
1891.000000	0.005915
1890.000000	0.005928
1889.000000	0.005954
1888.000000	0.005980
1887.000000	0.005971
1886.000000	0.005918
1885.000000	0.005847
1884.000000	0.005782
1883.000000	0.005740
1882.000000	0.005753
1881.000000	0.005825
1880.000000	0.005902
1879.000000	0.005918
1878.000000	0.005877
1877.000000	0.005842
1876.000000	0.005846
1875.000000	0.005866
1874.000000	0.005875
1873.000000	0.005880
1872.000000	0.005873
1871.000000	0.005823
1870.000000	0.005727
1869.000000	0.005639
1868.000000	0.005600
1867.000000	0.005603
1866.000000	0.005644
1865.000000	0.005718
1864.000000	0.005783
1863.000000	0.005799
1862.000000	0.005785
1861.000000	0.005796
1860.000000	0.005839
1859.000000	0.005863
1858.000000	0.005843
1857.000000	0.005808
1856.000000	0.005787
1855.000000	0.005780
1854.000000	0.005785
1853.000000	0.005805
1852.000000	0.005825
1851.000000	0.005825
1850.000000	0.005812
1849.000000	0.005798
1848.000000	0.005783
1847.000000	0.005754
1846.000000	0.005729
1845.000000	0.005740
1844.000000	0.005783
1843.000000	0.005806
1842.000000	0.005799
1841.000000	0.005794
1840.000000	0.005790
1839.000000	0.005753
1838.000000	0.005688
1837.000000	0.005649
1836.000000	0.005662
1835.000000	0.005694
1834.000000	0.005704
1833.000000	0.005677
1832.000000	0.005620
1831.000000	0.005559
1830.000000	0.005536
1829.000000	0.005561
1828.000000	0.005598
1827.000000	0.005615
1826.000000	0.005625
1825.000000	0.005659
1824.000000	0.005712
1823.000000	0.005739
1822.000000	0.005732
1821.000000	0.005719
1820.000000	0.005718
1819.000000	0.005716
1818.000000	0.005707
1817.000000	0.005719
1816.000000	0.005757
1815.000000	0.005786
1814.000000	0.005784
1813.000000	0.005761
1812.000000	0.005737
1811.000000	0.005701
1810.000000	0.005652
1809.000000	0.005622
1808.000000	0.005625
1807.000000	0.005637
1806.000000	0.005641
1805.000000	0.005651
1804.000000	0.005668
1803.000000	0.005675
1802.000000	0.005666
1801.000000	0.005660
1800.000000	0.005663
1799.000000	0.005652
1798.000000	0.005631
1797.000000	0.005628
1796.000000	0.005640
1795.000000	0.005630
1794.000000	0.005582
1793.000000	0.005533
1792.000000	0.005524
1791.000000	0.005528
1790.000000	0.005517
1789.000000	0.005515
1788.000000	0.005535
1787.000000	0.005553
1786.000000	0.005549
1785.000000	0.005534
1784.000000	0.005515
1783.000000	0.005485
1782.000000	0.005460
1781.000000	0.005465
1780.000000	0.005493
1779.000000	0.005512
1778.000000	0.005505
1777.000000	0.005484
1776.000000	0.005456
1775.000000	0.005415
1774.000000	0.005353
1773.000000	0.005281
1772.000000	0.005233
1771.000000	0.005206
1770.000000	0.005198
1769.000000	0.005229
1768.000000	0.005282
1767.000000	0.005301
1766.000000	0.005268
1765.000000	0.005226
1764.000000	0.005204
1763.000000	0.005192
1762.000000	0.005176
1761.000000	0.005158
1760.000000	0.005145
1759.000000	0.005138
1758.000000	0.005141
1757.000000	0.005152
1756.000000	0.005149
1755.000000	0.005123
1754.000000	0.005091
1753.000000	0.005069
1752.000000	0.005041
1751.000000	0.004989
1750.000000	0.004927
1749.000000	0.004903
1748.000000	0.004941
1747.000000	0.005007
1746.000000	0.005055
1745.000000	0.005071
1744.000000	0.005069
1743.000000	0.005050
1742.000000	0.005014
1741.000000	0.004984
1740.000000	0.004975
1739.000000	0.004965
1738.000000	0.004947
1737.000000	0.004965
1736.000000	0.005027
1735.000000	0.005077
1734.000000	0.005112
1733.000000	0.005116
1732.000000	0.005072
1731.000000	0.005028
1730.000000	0.005025
1729.000000	0.005060
1728.000000	0.005097
1727.000000	0.005105
1726.000000	0.005085
1725.000000	0.005066
1724.000000	0.005064
1723.000000	0.005047
1722.000000	0.004997
1721.000000	0.004949
1720.000000	0.004927
1719.000000	0.004906
1718.000000	0.004892
1717.000000	0.004959
1716.000000	0.005097
1715.000000	0.005252
1714.000000	0.005445
1713.000000	0.005706
1712.000000	0.005998
1711.000000	0.006258
1710.000000	0.006489
1709.000000	0.006745
1708.000000	0.007057
1707.000000	0.007426
1706.000000	0.007863
1705.000000	0.008372
1704.000000	0.008883
1703.000000	0.009359
1702.000000	0.009837
1701.000000	0.010417
1700.000000	0.011113
1699.000000	0.011689
1698.000000	0.012153
1697.000000	0.012756
1696.000000	0.013542
1695.000000	0.014259
1694.000000	0.014762
1693.000000	0.015211
1692.000000	0.015743
1691.000000	0.016333
1690.000000	0.016926
1689.000000	0.017519
1688.000000	0.018124
1687.000000	0.018722
1686.000000	0.019303
1685.000000	0.019966
1684.000000	0.020807
1683.000000	0.021616
1682.000000	0.022305
1681.000000	0.023033
1680.000000	0.023842
1679.000000	0.024650
1678.000000	0.025429
1677.000000	0.026262
1676.000000	0.027216
1675.000000	0.028209
1674.000000	0.029096
1673.000000	0.029882
1672.000000	0.030691
1671.000000	0.031589
1670.000000	0.032599
1669.000000	0.033688
1668.000000	0.034733
1667.000000	0.035646
1666.000000	0.036466
1665.000000	0.037295
1664.000000	0.038194
1663.000000	0.039123
1662.000000	0.039998
1661.000000	0.040784
1660.000000	0.041508
1659.000000	0.042185
1658.000000	0.042809
1657.000000	0.043412
1656.000000	0.044036
1655.000000	0.044650
1654.000000	0.045222
1653.000000	0.045834
1652.000000	0.046272
1651.000000	0.046420
1650.000000	0.046510
1649.000000	0.046707
1648.000000	0.047030
1647.000000	0.047413
1646.000000	0.047765
1645.000000	0.048045
1644.000000	0.048281
1643.000000	0.048492
1642.000000	0.048686
1641.000000	0.048867
1640.000000	0.049032
1639.000000	0.049182
1638.000000	0.049323
1637.000000	0.049460
1636.000000	0.049598
1635.000000	0.049698
1634.000000	0.049720
1633.000000	0.049717
1632.000000	0.049719
1631.000000	0.049669
1630.000000	0.049491
1629.000000	0.049174
1628.000000	0.048756
1627.000000	0.048282
1626.000000	0.047763
1625.000000	0.047162
1624.000000	0.046437
1623.000000	0.045615
1622.000000	0.044796
1621.000000	0.044057
1620.000000	0.043391
1619.000000	0.042709
1618.000000	0.041862
1617.000000	0.040786
1616.000000	0.039629
1615.000000	0.038600
1614.000000	0.037755
1613.000000	0.037001
1612.000000	0.036220
1611.000000	0.035382
1610.000000	0.034546
1609.000000	0.033752
1608.000000	0.032995
1607.000000	0.032279
1606.000000	0.031624
1605.000000	0.031011
1604.000000	0.030420
1603.000000	0.029874
1602.000000	0.029400
1601.000000	0.028973
1600.000000	0.028563
1599.000000	0.028181
1598.000000	0.027847
1597.000000	0.027546
1596.000000	0.027267
1595.000000	0.027037
1594.000000	0.026886
1593.000000	0.026786
1592.000000	0.026694
1591.000000	0.026623
1590.000000	0.026613
1589.000000	0.026661
1588.000000	0.026734
1587.000000	0.026830
1586.000000	0.026964
1585.000000	0.027121
1584.000000	0.027283
1583.000000	0.027484
1582.000000	0.027753
1581.000000	0.028047
1580.000000	0.028330
1579.000000	0.028641
1578.000000	0.029026
1577.000000	0.029450
1576.000000	0.029835
1575.000000	0.030149
1574.000000	0.030449
1573.000000	0.030799
1572.000000	0.031212
1571.000000	0.031679
1570.000000	0.032213
1569.000000	0.032767
1568.000000	0.033268
1567.000000	0.033761
1566.000000	0.034325
1565.000000	0.034954
1564.000000	0.035577
1563.000000	0.036180
1562.000000	0.036785
1561.000000	0.037328
1560.000000	0.037741
1559.000000	0.038288
1558.000000	0.038998
1557.000000	0.039595
1556.000000	0.040133
1555.000000	0.040692
1554.000000	0.041233
1553.000000	0.041684
1552.000000	0.042064
1551.000000	0.042437
1550.000000	0.042812
1549.000000	0.043147
1548.000000	0.043412
1547.000000	0.043624
1546.000000	0.043799
1545.000000	0.043943
1544.000000	0.044056
1543.000000	0.044129
1542.000000	0.044140
1541.000000	0.044109
1540.000000	0.044088
1539.000000	0.044049
1538.000000	0.043943
1537.000000	0.043813
1536.000000	0.043681
1535.000000	0.043481
1534.000000	0.043169
1533.000000	0.042831
1532.000000	0.042550
1531.000000	0.042304
1530.000000	0.042045
1529.000000	0.041766
1528.000000	0.041474
1527.000000	0.041151
1526.000000	0.040790
1525.000000	0.040433
1524.000000	0.040125
1523.000000	0.039824
1522.000000	0.039456
1521.000000	0.039046
1520.000000	0.038658
1519.000000	0.038305
1518.000000	0.037965
1517.000000	0.037621
1516.000000	0.037277
1515.000000	0.036925
1514.000000	0.036544
1513.000000	0.036107
1512.000000	0.035620
1511.000000	0.035127
1510.000000	0.034665
1509.000000	0.034202
1508.000000	0.033622
1507.000000	0.032877
1506.000000	0.032107
1505.000000	0.031487
1504.000000	0.031030
1503.000000	0.030651
1502.000000	0.030258
1501.000000	0.029803
1500.000000	0.029300
1499.000000	0.028781
1498.000000	0.028238
1497.000000	0.027678
1496.000000	0.027138
1495.000000	0.026622
1494.000000	0.026139
1493.000000	0.025707
1492.000000	0.025303
1491.000000	0.024863
1490.000000	0.024396
1489.000000	0.024001
1488.000000	0.023732
1487.000000	0.023536
1486.000000	0.023377
1485.000000	0.023268
1484.000000	0.023203
1483.000000	0.023158
1482.000000	0.023124
1481.000000	0.023136
1480.000000	0.023214
1479.000000	0.023329
1478.000000	0.023458
1477.000000	0.023624
1476.000000	0.023853
1475.000000	0.024119
1474.000000	0.024410
1473.000000	0.024764
1472.000000	0.025183
1471.000000	0.025576
1470.000000	0.025915
1469.000000	0.026248
1468.000000	0.026595
1467.000000	0.026921
1466.000000	0.027222
1465.000000	0.027543
1464.000000	0.027896
1463.000000	0.028233
1462.000000	0.028538
1461.000000	0.028853
1460.000000	0.029218
1459.000000	0.029649
1458.000000	0.030167
1457.000000	0.030772
1456.000000	0.031302
1455.000000	0.031634
1454.000000	0.031870
1453.000000	0.032112
1452.000000	0.032347
1451.000000	0.032517
1450.000000	0.032612
1449.000000	0.032658
1448.000000	0.032667
1447.000000	0.032625
1446.000000	0.032538
1445.000000	0.032430
1444.000000	0.032319
1443.000000	0.032203
1442.000000	0.032070
1441.000000	0.031924
1440.000000	0.031781
1439.000000	0.031628
1438.000000	0.031400
1437.000000	0.031063
1436.000000	0.030684
1435.000000	0.030338
1434.000000	0.030046
1433.000000	0.029792
1432.000000	0.029544
1431.000000	0.029290
1430.000000	0.029044
1429.000000	0.028844
1428.000000	0.028707
1427.000000	0.028617
1426.000000	0.028537
1425.000000	0.028433
1424.000000	0.028326
1423.000000	0.028270
1422.000000	0.028270
1421.000000	0.028272
1420.000000	0.028224
1419.000000	0.028145
1418.000000	0.028067
1417.000000	0.028000
1416.000000	0.027967
1415.000000	0.027968
1414.000000	0.027981
1413.000000	0.028007
1412.000000	0.028067
1411.000000	0.028162
1410.000000	0.028257
1409.000000	0.028337
1408.000000	0.028419
1407.000000	0.028519
1406.000000	0.028629
1405.000000	0.028731
1404.000000	0.028816
1403.000000	0.028884
1402.000000	0.028930
1401.000000	0.028948
1400.000000	0.028930
1399.000000	0.028883
1398.000000	0.028816
1397.000000	0.028738
1396.000000	0.028654
1395.000000	0.028555
1394.000000	0.028424
1393.000000	0.028250
1392.000000	0.028053
1391.000000	0.027865
1390.000000	0.027693
1389.000000	0.027526
1388.000000	0.027350
1387.000000	0.027154
1386.000000	0.026931
1385.000000	0.026687
1384.000000	0.026439
1383.000000	0.026199
1382.000000	0.025974
1381.000000	0.025763
1380.000000	0.025555
1379.000000	0.025327
1378.000000	0.025068
1377.000000	0.024785
1376.000000	0.024493
1375.000000	0.024214
1374.000000	0.023957
1373.000000	0.023704
1372.000000	0.023435
1371.000000	0.023147
1370.000000	0.022843
1369.000000	0.022513
1368.000000	0.022156
1367.000000	0.021792
1366.000000	0.021449
1365.000000	0.021133
1364.000000	0.020838
1363.000000	0.020564
1362.000000	0.020322
1361.000000	0.020112
1360.000000	0.019937
1359.000000	0.019803
1358.000000	0.019717
1357.000000	0.019674
1356.000000	0.019664
1355.000000	0.019690
1354.000000	0.019759
1353.000000	0.019875
1352.000000	0.020032
1351.000000	0.020219
1350.000000	0.020437
1349.000000	0.020675
1348.000000	0.020915
1347.000000	0.021150
1346.000000	0.021387
1345.000000	0.021633
1344.000000	0.021883
1343.000000	0.022128
1342.000000	0.022368
1341.000000	0.022610
1340.000000	0.022850
1339.000000	0.023069
1338.000000	0.023236
1337.000000	0.023332
1336.000000	0.023363
1335.000000	0.023344
1334.000000	0.023281
1333.000000	0.023171
1332.000000	0.023008
1331.000000	0.022807
1330.000000	0.022598
1329.000000	0.022397
1328.000000	0.022203
1327.000000	0.022014
1326.000000	0.021843
1325.000000	0.021707
1324.000000	0.021606
1323.000000	0.021536
1322.000000	0.021497
1321.000000	0.021482
1320.000000	0.021480
1319.000000	0.021471
1318.000000	0.021441
1317.000000	0.021385
1316.000000	0.021307
1315.000000	0.021214
1314.000000	0.021111
1313.000000	0.020996
1312.000000	0.020869
1311.000000	0.020734
1310.000000	0.020592
1309.000000	0.020445
1308.000000	0.020290
1307.000000	0.020134
1306.000000	0.019986
1305.000000	0.019848
1304.000000	0.019711
1303.000000	0.019574
1302.000000	0.019444
1301.000000	0.019333
1300.000000	0.019247
1299.000000	0.019180
1298.000000	0.019123
1297.000000	0.019073
1296.000000	0.019030
1295.000000	0.019009
1294.000000	0.019023
1293.000000	0.019076
1292.000000	0.019162
1291.000000	0.019270
1290.000000	0.019401
1289.000000	0.019559
1288.000000	0.019741
1287.000000	0.019928
1286.000000	0.020097
1285.000000	0.020243
1284.000000	0.020373
1283.000000	0.020495
1282.000000	0.020607
1281.000000	0.020700
1280.000000	0.020758
1279.000000	0.020772
1278.000000	0.020747
1277.000000	0.020696
1276.000000	0.020639
1275.000000	0.020593
1274.000000	0.020562
1273.000000	0.020542
1272.000000	0.020526
1271.000000	0.020512
1270.000000	0.020510
1269.000000	0.020531
1268.000000	0.020575
1267.000000	0.020635
1266.000000	0.020706
1265.000000	0.020794
1264.000000	0.020911
1263.000000	0.021052
1262.000000	0.021198
1261.000000	0.021337
1260.000000	0.021476
1259.000000	0.021632
1258.000000	0.021813
1257.000000	0.022014
1256.000000	0.022222
1255.000000	0.022430
1254.000000	0.022643
1253.000000	0.022866
1252.000000	0.023103
1251.000000	0.023356
1250.000000	0.023632
1249.000000	0.023934
1248.000000	0.024255
1247.000000	0.024573
1246.000000	0.024874
1245.000000	0.025155
1244.000000	0.025416
1243.000000	0.025661
1242.000000	0.025888
1241.000000	0.026098
1240.000000	0.026278
1239.000000	0.026413
1238.000000	0.026500
1237.000000	0.026548
1236.000000	0.026568
1235.000000	0.026556
1234.000000	0.026502
1233.000000	0.026403
1232.000000	0.026255
1231.000000	0.026051
1230.000000	0.025782
1229.000000	0.025451
1228.000000	0.025072
1227.000000	0.024653
1226.000000	0.024196
1225.000000	0.023700
1224.000000	0.023169
1223.000000	0.022619
1222.000000	0.022065
1221.000000	0.021522
1220.000000	0.021002
1219.000000	0.020529
1218.000000	0.020136
1217.000000	0.019846
1216.000000	0.019656
1215.000000	0.019548
1214.000000	0.019501
1213.000000	0.019494
1212.000000	0.019514
1211.000000	0.019553
1210.000000	0.019616
1209.000000	0.019712
1208.000000	0.019840
1207.000000	0.019976
1206.000000	0.020100
1205.000000	0.020205
1204.000000	0.020284
1203.000000	0.020320
1202.000000	0.020294
1201.000000	0.020198
1200.000000	0.020037
1199.000000	0.019823
1198.000000	0.019561
1197.000000	0.019264
1196.000000	0.018947
1195.000000	0.018626
1194.000000	0.018308
1193.000000	0.018001
1192.000000	0.017706
1191.000000	0.017412
1190.000000	0.017105
1189.000000	0.016790
1188.000000	0.016485
1187.000000	0.016208
1186.000000	0.015960
1185.000000	0.015736
1184.000000	0.015535
1183.000000	0.015364
1182.000000	0.015218
1181.000000	0.015094
1180.000000	0.014994
1179.000000	0.014926
1178.000000	0.014888
1177.000000	0.014865
1176.000000	0.014841
1175.000000	0.014814
1174.000000	0.014795
1173.000000	0.014795
1172.000000	0.014811
1171.000000	0.014832
1170.000000	0.014859
1169.000000	0.014903
1168.000000	0.014982
1167.000000	0.015091
1166.000000	0.015209
1165.000000	0.015314
1164.000000	0.015399
1163.000000	0.015464
1162.000000	0.015509
1161.000000	0.015533
1160.000000	0.015530
1159.000000	0.015486
1158.000000	0.015389
1157.000000	0.015246
1156.000000	0.015085
1155.000000	0.014923
1154.000000	0.014755
1153.000000	0.014570
1152.000000	0.014370
1151.000000	0.014168
1150.000000	0.013968
1149.000000	0.013763
1148.000000	0.013557
1147.000000	0.013365
1146.000000	0.013197
1145.000000	0.013050
1144.000000	0.012913
1143.000000	0.012781
1142.000000	0.012650
1141.000000	0.012517
1140.000000	0.012383
1139.000000	0.012259
1138.000000	0.012159
1137.000000	0.012090
1136.000000	0.012043
1135.000000	0.012005
1134.000000	0.011963
1133.000000	0.011924
1132.000000	0.011902
1131.000000	0.011902
1130.000000	0.011915
1129.000000	0.011931
1128.000000	0.011953
1127.000000	0.011988
1126.000000	0.012034
1125.000000	0.012089
1124.000000	0.012148
1123.000000	0.012205
1122.000000	0.012248
1121.000000	0.012268
1120.000000	0.012272
1119.000000	0.012283
1118.000000	0.012321
1117.000000	0.012394
1116.000000	0.012495
1115.000000	0.012606
1114.000000	0.012706
1113.000000	0.012788
1112.000000	0.012861
1111.000000	0.012933
1110.000000	0.013002
1109.000000	0.013060
1108.000000	0.013109
1107.000000	0.013158
1106.000000	0.013211
1105.000000	0.013270
1104.000000	0.013338
1103.000000	0.013419
1102.000000	0.013507
1101.000000	0.013589
1100.000000	0.013657
1099.000000	0.013712
1098.000000	0.013766
1097.000000	0.013835
1096.000000	0.013923
1095.000000	0.014026
1094.000000	0.014136
1093.000000	0.014259
1092.000000	0.014416
1091.000000	0.014623
1090.000000	0.014880
1089.000000	0.015171
1088.000000	0.015482
1087.000000	0.015813
1086.000000	0.016159
1085.000000	0.016497
1084.000000	0.016787
1083.000000	0.016992
1082.000000	0.017109
1081.000000	0.017164
1080.000000	0.017178
1079.000000	0.017140
1078.000000	0.017031
1077.000000	0.016862
1076.000000	0.016672
1075.000000	0.016489
1074.000000	0.016314
1073.000000	0.016143
1072.000000	0.015984
1071.000000	0.015856
1070.000000	0.015767
1069.000000	0.015719
1068.000000	0.015714
1067.000000	0.015744
1066.000000	0.015788
1065.000000	0.015836
1064.000000	0.015900
1063.000000	0.015987
1062.000000	0.016076
1061.000000	0.016138
1060.000000	0.016170
1059.000000	0.016196
1058.000000	0.016223
1057.000000	0.016230
1056.000000	0.016201
1055.000000	0.016152
1054.000000	0.016113
1053.000000	0.016089
1052.000000	0.016063
1051.000000	0.016020
1050.000000	0.015962
1049.000000	0.015902
1048.000000	0.015844
1047.000000	0.015786
1046.000000	0.015721
1045.000000	0.015653
1044.000000	0.015600
1043.000000	0.015589
1042.000000	0.015637
1041.000000	0.015749
1040.000000	0.015917
1039.000000	0.016133
1038.000000	0.016379
1037.000000	0.016635
1036.000000	0.016880
1035.000000	0.017109
1034.000000	0.017317
1033.000000	0.017499
1032.000000	0.017641
1031.000000	0.017733
1030.000000	0.017773
1029.000000	0.017765
1028.000000	0.017718
1027.000000	0.017642
1026.000000	0.017544
1025.000000	0.017432
1024.000000	0.017316
1023.000000	0.017212
1022.000000	0.017130
1021.000000	0.017064
1020.000000	0.017001
1019.000000	0.016936
1018.000000	0.016877
1017.000000	0.016821
1016.000000	0.016742
1015.000000	0.016606
1014.000000	0.016408
1013.000000	0.016173
1012.000000	0.015927
1011.000000	0.015670
1010.000000	0.015391
1009.000000	0.015091
1008.000000	0.014791
1007.000000	0.014516
1006.000000	0.014277
1005.000000	0.014073
1004.000000	0.013896
1003.000000	0.013736
1002.000000	0.013580
1001.000000	0.013417
1000.000000	0.013242
999.000000	0.013057
998.000000	0.012859
997.000000	0.012645
996.000000	0.012419
995.000000	0.012200
994.000000	0.012006
993.000000	0.011836
992.000000	0.011665
991.000000	0.011476
990.000000	0.011279
989.000000	0.011101
988.000000	0.010968
987.000000	0.010874
986.000000	0.010795
985.000000	0.010707
984.000000	0.010611
983.000000	0.010535
982.000000	0.010500
981.000000	0.010501
980.000000	0.010503
979.000000	0.010473
978.000000	0.010403
977.000000	0.010317
976.000000	0.010240
975.000000	0.010188
974.000000	0.010157
973.000000	0.010128
972.000000	0.010074
971.000000	0.009975
970.000000	0.009832
969.000000	0.009660
968.000000	0.009480
967.000000	0.009305
966.000000	0.009146
965.000000	0.009009
964.000000	0.008896
963.000000	0.008802
962.000000	0.008716
961.000000	0.008633
960.000000	0.008548
959.000000	0.008449
958.000000	0.008330
957.000000	0.008192
956.000000	0.008045
955.000000	0.007905
954.000000	0.007785
953.000000	0.007696
952.000000	0.007635
951.000000	0.007591
950.000000	0.007551
949.000000	0.007512
948.000000	0.007483
947.000000	0.007466
946.000000	0.007444
945.000000	0.007401
944.000000	0.007346
943.000000	0.007310
942.000000	0.007319
941.000000	0.007364
940.000000	0.007405
939.000000	0.007406
938.000000	0.007364
937.000000	0.007304
936.000000	0.007243
935.000000	0.007175
934.000000	0.007091
933.000000	0.007007
932.000000	0.006943
931.000000	0.006900
930.000000	0.006861
929.000000	0.006816
928.000000	0.006767
927.000000	0.006714
926.000000	0.006653
925.000000	0.006596
924.000000	0.006560
923.000000	0.006545
922.000000	0.006528
921.000000	0.006492
920.000000	0.006445
919.000000	0.006393
918.000000	0.006331
917.000000	0.006250
916.000000	0.006161
915.000000	0.006077
914.000000	0.005997
913.000000	0.005904
912.000000	0.005794
911.000000	0.005680
910.000000	0.005585
909.000000	0.005516
908.000000	0.005473
907.000000	0.005447
906.000000	0.005430
905.000000	0.005412
904.000000	0.005386
903.000000	0.005348
902.000000	0.005302
901.000000	0.005264
900.000000	0.005242
899.000000	0.005228
898.000000	0.005203
897.000000	0.005167
896.000000	0.005148
895.000000	0.005158
894.000000	0.005170
893.000000	0.005144
892.000000	0.005070
891.000000	0.004971
890.000000	0.004880
889.000000	0.004821
888.000000	0.004818
887.000000	0.004886
886.000000	0.005024
885.000000	0.005201
884.000000	0.005385
883.000000	0.005562
882.000000	0.005756
881.000000	0.006016
880.000000	0.006383
879.000000	0.006850
878.000000	0.007347
877.000000	0.007765
876.000000	0.008012
875.000000	0.008052
874.000000	0.007904
873.000000	0.007628
872.000000	0.007293
871.000000	0.006952
870.000000	0.006636
869.000000	0.006358
868.000000	0.006132
867.000000	0.005967
866.000000	0.005866
865.000000	0.005809
864.000000	0.005767
863.000000	0.005713
862.000000	0.005639
861.000000	0.005558
860.000000	0.005495
859.000000	0.005479
858.000000	0.005518
857.000000	0.005589
856.000000	0.005643
855.000000	0.005647
854.000000	0.005618
853.000000	0.005608
852.000000	0.005650
851.000000	0.005725
850.000000	0.005784
849.000000	0.005799
848.000000	0.005763
847.000000	0.005670
846.000000	0.005524
845.000000	0.005363
844.000000	0.005235
843.000000	0.005165
842.000000	0.005136
841.000000	0.005133
840.000000	0.005151
839.000000	0.005180
838.000000	0.005187
837.000000	0.005156
836.000000	0.005101
835.000000	0.005045
834.000000	0.004994
833.000000	0.004944
832.000000	0.004903
831.000000	0.004886
830.000000	0.004895
829.000000	0.004918
828.000000	0.004941
827.000000	0.004955
826.000000	0.004964
825.000000	0.004986
824.000000	0.005040
823.000000	0.005110
822.000000	0.005152
821.000000	0.005135
820.000000	0.005078
819.000000	0.005027
818.000000	0.005009
817.000000	0.005020
816.000000	0.005042
815.000000	0.005056
814.000000	0.005056
813.000000	0.005050
812.000000	0.005055
811.000000	0.005072
810.000000	0.005078
809.000000	0.005051
808.000000	0.004991
807.000000	0.004921
806.000000	0.004876
805.000000	0.004894
804.000000	0.004982
803.000000	0.005099
802.000000	0.005175
801.000000	0.005173
800.000000	0.005127
799.000000	0.005108
798.000000	0.005148
797.000000	0.005220
796.000000	0.005280
795.000000	0.005302
794.000000	0.005301
793.000000	0.005300
792.000000	0.005309
791.000000	0.005310
790.000000	0.005292
789.000000	0.005273
788.000000	0.005284
787.000000	0.005329
786.000000	0.005387
785.000000	0.005440
784.000000	0.005489
783.000000	0.005529
782.000000	0.005539
781.000000	0.005521
780.000000	0.005503
779.000000	0.005516
778.000000	0.005552
777.000000	0.005595
776.000000	0.005645
775.000000	0.005702
774.000000	0.005750
773.000000	0.005770
772.000000	0.005775
771.000000	0.005793
770.000000	0.005830
769.000000	0.005872
768.000000	0.005910
767.000000	0.005941
766.000000	0.005954
765.000000	0.005938
764.000000	0.005911
763.000000	0.005903
762.000000	0.005921
761.000000	0.005945
760.000000	0.005964
759.000000	0.005994
758.000000	0.006041
757.000000	0.006091
756.000000	0.006129
755.000000	0.006154
754.000000	0.006172
753.000000	0.006184
752.000000	0.006202
751.000000	0.006251
750.000000	0.006342
749.000000	0.006444
748.000000	0.006521
747.000000	0.006562
746.000000	0.006592
745.000000	0.006635
744.000000	0.006694
743.000000	0.006766
742.000000	0.006852
741.000000	0.006956
740.000000	0.007074
739.000000	0.007184
738.000000	0.007264
737.000000	0.007313
736.000000	0.007351
735.000000	0.007396
734.000000	0.007451
733.000000	0.007523
732.000000	0.007637
731.000000	0.007805
730.000000	0.007988
729.000000	0.008123
728.000000	0.008191
727.000000	0.008229
726.000000	0.008291
725.000000	0.008396
724.000000	0.008538
723.000000	0.008711
722.000000	0.008901
721.000000	0.009073
720.000000	0.009196
719.000000	0.009281
718.000000	0.009372
717.000000	0.009493
716.000000	0.009625
715.000000	0.009746
714.000000	0.009860
713.000000	0.009982
712.000000	0.010104
711.000000	0.010207
710.000000	0.010286
709.000000	0.010359
708.000000	0.010443
707.000000	0.010537
706.000000	0.010630
705.000000	0.010721
704.000000	0.010802
703.000000	0.010856
702.000000	0.010877
701.000000	0.010889
700.000000	0.010922
699.000000	0.010977
698.000000	0.011023
697.000000	0.011041
696.000000	0.011053
695.000000	0.011104
694.000000	0.011209
693.000000	0.011326
692.000000	0.011400
691.000000	0.011406
690.000000	0.011367
689.000000	0.011332
688.000000	0.011335
687.000000	0.011386
686.000000	0.011469
685.000000	0.011559
684.000000	0.011647
683.000000	0.011726
682.000000	0.011782
681.000000	0.011819
680.000000	0.011881
679.000000	0.012001
678.000000	0.012155
677.000000	0.012314
676.000000	0.012487
675.000000	0.012679
674.000000	0.012848
673.000000	0.012935
672.000000	0.012911
671.000000	0.012773
670.000000	0.012531
669.000000	0.012264
668.000000	0.012256
667.000000	0.012679
666.000000	0.013077
665.000000	0.013323
664.000000	0.013503
663.000000	0.013636
662.000000	0.013726
661.000000	0.013799
660.000000	0.013852
659.000000	0.013842
658.000000	0.013748
657.000000	0.013643
656.000000	0.013600
655.000000	0.013612
654.000000	0.013652
653.000000	0.013727
652.000000	0.013821
651.000000	0.013865
650.000000	0.013830
649.000000	0.013773
648.000000	0.013756
647.000000	0.013779
646.000000	0.013831
645.000000	0.013911
644.000000	0.013988
643.000000	0.014012
642.000000	0.013970
641.000000	0.013899
640.000000	0.013829
639.000000	0.013763
638.000000	0.013725
637.000000	0.013758
636.000000	0.013845
635.000000	0.013921
634.000000	0.013971
633.000000	0.014029
632.000000	0.014090
631.000000	0.014090
630.000000	0.014012
629.000000	0.013932
628.000000	0.013914
627.000000	0.013945
626.000000	0.013991
625.000000	0.014048
624.000000	0.014101
623.000000	0.014121
622.000000	0.014127
621.000000	0.014180
620.000000	0.014286
619.000000	0.014373
618.000000	0.014392
617.000000	0.014382
616.000000	0.014391
615.000000	0.014396
614.000000	0.014372
613.000000	0.014353
612.000000	0.014373
611.000000	0.014394
610.000000	0.014370
609.000000	0.014330
608.000000	0.014329
607.000000	0.014351
606.000000	0.014339
605.000000	0.014283
604.000000	0.014229
603.000000	0.014205
602.000000	0.014191
601.000000	0.014167
600.000000	0.014149
599.000000	0.014171
598.000000	0.014238
597.000000	0.014314
596.000000	0.014348
595.000000	0.014338
594.000000	0.014354
593.000000	0.014471
592.000000	0.014656
591.000000	0.014782
590.000000	0.014770
589.000000	0.014671
588.000000	0.014578
587.000000	0.014511
586.000000	0.014441
585.000000	0.014361
584.000000	0.014293
583.000000	0.014255
582.000000	0.014249
581.000000	0.014272
580.000000	0.014301
579.000000	0.014295
578.000000	0.014254
577.000000	0.014250
576.000000	0.014362
575.000000	0.014568
574.000000	0.014763
573.000000	0.014871
572.000000	0.014906
571.000000	0.014929
570.000000	0.014988
569.000000	0.015094
568.000000	0.015217
567.000000	0.015294
566.000000	0.015284
565.000000	0.015221
564.000000	0.015200
563.000000	0.015294
562.000000	0.015497
561.000000	0.015737
560.000000	0.015933
559.000000	0.016054
558.000000	0.016112
557.000000	0.016123
556.000000	0.016075
555.000000	0.015961
554.000000	0.015833
553.000000	0.015766
552.000000	0.015763
551.000000	0.015748
550.000000	0.015658
549.000000	0.015517
548.000000	0.015379
547.000000	0.015262
546.000000	0.015149
545.000000	0.015020
544.000000	0.014865
543.000000	0.014692
542.000000	0.014549
541.000000	0.014507
540.000000	0.014589
539.000000	0.014753
538.000000	0.014943
537.000000	0.015122
536.000000	0.015252
535.000000	0.015312
534.000000	0.015344
533.000000	0.015428
532.000000	0.015565
531.000000	0.015667
530.000000	0.015674
529.000000	0.015621
528.000000	0.015549
527.000000	0.015441
526.000000	0.015309
525.000000	0.015212
524.000000	0.015143
523.000000	0.014996
522.000000	0.014733
521.000000	0.014498
520.000000	0.014460
519.000000	0.014585
518.000000	0.014658
517.000000	0.014519
516.000000	0.014182
515.000000	0.013737
514.000000	0.013260
513.000000	0.012826
512.000000	0.012513
511.000000	0.012360
510.000000	0.012337
509.000000	0.012355
508.000000	0.012282
507.000000	0.012037
506.000000	0.011707
505.000000	0.011506
504.000000	0.011541
503.000000	0.011682
502.000000	0.011706
501.000000	0.011544
500.000000	0.011310
499.000000	0.011120
498.000000	0.010996
497.000000	0.010906
496.000000	0.010810
495.000000	0.010655
494.000000	0.010409
493.000000	0.010105
492.000000	0.009834
491.000000	0.009697
490.000000	0.009758
489.000000	0.009982
488.000000	0.010207
487.000000	0.010237
486.000000	0.010019
485.000000	0.009692
484.000000	0.009434
483.000000	0.009312
482.000000	0.009313
481.000000	0.009414
480.000000	0.009564
479.000000	0.009661
478.000000	0.009613
477.000000	0.009434
476.000000	0.009211
475.000000	0.009005
474.000000	0.008846
473.000000	0.008773
472.000000	0.008814
471.000000	0.008954
470.000000	0.009134
469.000000	0.009282
468.000000	0.009303
467.000000	0.009107
466.000000	0.008722
465.000000	0.008318
464.000000	0.008019
463.000000	0.007788
462.000000	0.007550
461.000000	0.007319
460.000000	0.007130
459.000000	0.006877
458.000000	0.006420
457.000000	0.005884
456.000000	0.005607
455.000000	0.005721
454.000000	0.005992
453.000000	0.006048
452.000000	0.005700
451.000000	0.005132
450.000000	0.004725
