PE IR       SUBTECH     SPECTRUM    ASCII       PEDS        4.00        
   -1
3G-H10-F034_1.ASC
22/02/23
15:50:06.00
22/02/23
15:55:22.00
uco
Sample 034 By uco Date Wednesday, February 23 2022
450.000000
#HDR
-1
-1
#GR
cm-1
A
1.0
0.0
4000.000000
-1.000000
3551
8
0.058361
0.006031
#DATA
4000.000000	0.006347
3999.000000	0.006334
3998.000000	0.006332
3997.000000	0.006343
3996.000000	0.006361
3995.000000	0.006375
3994.000000	0.006381
3993.000000	0.006382
3992.000000	0.006382
3991.000000	0.006379
3990.000000	0.006371
3989.000000	0.006364
3988.000000	0.006370
3987.000000	0.006392
3986.000000	0.006423
3985.000000	0.006450
3984.000000	0.006466
3983.000000	0.006474
3982.000000	0.006478
3981.000000	0.006483
3980.000000	0.006485
3979.000000	0.006480
3978.000000	0.006467
3977.000000	0.006449
3976.000000	0.006437
3975.000000	0.006440
3974.000000	0.006458
3973.000000	0.006481
3972.000000	0.006496
3971.000000	0.006499
3970.000000	0.006495
3969.000000	0.006490
3968.000000	0.006487
3967.000000	0.006482
3966.000000	0.006474
3965.000000	0.006466
3964.000000	0.006461
3963.000000	0.006464
3962.000000	0.006475
3961.000000	0.006492
3960.000000	0.006512
3959.000000	0.006528
3958.000000	0.006541
3957.000000	0.006550
3956.000000	0.006560
3955.000000	0.006570
3954.000000	0.006578
3953.000000	0.006578
3952.000000	0.006569
3951.000000	0.006555
3950.000000	0.006540
3949.000000	0.006524
3948.000000	0.006511
3947.000000	0.006508
3946.000000	0.006521
3945.000000	0.006550
3944.000000	0.006584
3943.000000	0.006611
3942.000000	0.006623
3941.000000	0.006628
3940.000000	0.006639
3939.000000	0.006654
3938.000000	0.006664
3937.000000	0.006655
3936.000000	0.006626
3935.000000	0.006592
3934.000000	0.006573
3933.000000	0.006583
3932.000000	0.006619
3931.000000	0.006661
3930.000000	0.006689
3929.000000	0.006699
3928.000000	0.006699
3927.000000	0.006697
3926.000000	0.006692
3925.000000	0.006677
3924.000000	0.006647
3923.000000	0.006613
3922.000000	0.006586
3921.000000	0.006564
3920.000000	0.006540
3919.000000	0.006512
3918.000000	0.006490
3917.000000	0.006488
3916.000000	0.006510
3915.000000	0.006548
3914.000000	0.006594
3913.000000	0.006636
3912.000000	0.006663
3911.000000	0.006669
3910.000000	0.006659
3909.000000	0.006649
3908.000000	0.006654
3907.000000	0.006671
3906.000000	0.006676
3905.000000	0.006639
3904.000000	0.006554
3903.000000	0.006459
3902.000000	0.006411
3901.000000	0.006428
3900.000000	0.006491
3899.000000	0.006560
3898.000000	0.006609
3897.000000	0.006636
3896.000000	0.006648
3895.000000	0.006653
3894.000000	0.006663
3893.000000	0.006682
3892.000000	0.006694
3891.000000	0.006679
3890.000000	0.006633
3889.000000	0.006575
3888.000000	0.006531
3887.000000	0.006522
3886.000000	0.006549
3885.000000	0.006591
3884.000000	0.006631
3883.000000	0.006675
3882.000000	0.006724
3881.000000	0.006749
3880.000000	0.006725
3879.000000	0.006670
3878.000000	0.006627
3877.000000	0.006624
3876.000000	0.006658
3875.000000	0.006701
3874.000000	0.006716
3873.000000	0.006692
3872.000000	0.006651
3871.000000	0.006619
3870.000000	0.006598
3869.000000	0.006581
3868.000000	0.006578
3867.000000	0.006594
3866.000000	0.006630
3865.000000	0.006669
3864.000000	0.006682
3863.000000	0.006667
3862.000000	0.006648
3861.000000	0.006646
3860.000000	0.006672
3859.000000	0.006727
3858.000000	0.006806
3857.000000	0.006890
3856.000000	0.006947
3855.000000	0.006943
3854.000000	0.006840
3853.000000	0.006673
3852.000000	0.006550
3851.000000	0.006517
3850.000000	0.006541
3849.000000	0.006583
3848.000000	0.006622
3847.000000	0.006653
3846.000000	0.006681
3845.000000	0.006706
3844.000000	0.006720
3843.000000	0.006716
3842.000000	0.006691
3841.000000	0.006659
3840.000000	0.006640
3839.000000	0.006641
3838.000000	0.006660
3837.000000	0.006694
3836.000000	0.006732
3835.000000	0.006755
3834.000000	0.006748
3833.000000	0.006714
3832.000000	0.006676
3831.000000	0.006654
3830.000000	0.006660
3829.000000	0.006696
3828.000000	0.006746
3827.000000	0.006784
3826.000000	0.006787
3825.000000	0.006758
3824.000000	0.006723
3823.000000	0.006721
3822.000000	0.006756
3821.000000	0.006771
3820.000000	0.006727
3819.000000	0.006657
3818.000000	0.006613
3817.000000	0.006616
3816.000000	0.006652
3815.000000	0.006694
3814.000000	0.006730
3813.000000	0.006758
3812.000000	0.006771
3811.000000	0.006766
3810.000000	0.006750
3809.000000	0.006738
3808.000000	0.006731
3807.000000	0.006714
3806.000000	0.006677
3805.000000	0.006640
3804.000000	0.006630
3803.000000	0.006661
3802.000000	0.006710
3801.000000	0.006733
3800.000000	0.006726
3799.000000	0.006722
3798.000000	0.006733
3797.000000	0.006750
3796.000000	0.006758
3795.000000	0.006764
3794.000000	0.006783
3793.000000	0.006823
3792.000000	0.006874
3791.000000	0.006917
3790.000000	0.006940
3789.000000	0.006940
3788.000000	0.006932
3787.000000	0.006932
3786.000000	0.006944
3785.000000	0.006958
3784.000000	0.006962
3783.000000	0.006948
3782.000000	0.006925
3781.000000	0.006909
3780.000000	0.006904
3779.000000	0.006901
3778.000000	0.006895
3777.000000	0.006894
3776.000000	0.006902
3775.000000	0.006915
3774.000000	0.006925
3773.000000	0.006928
3772.000000	0.006924
3771.000000	0.006911
3770.000000	0.006887
3769.000000	0.006852
3768.000000	0.006818
3767.000000	0.006797
3766.000000	0.006789
3765.000000	0.006788
3764.000000	0.006788
3763.000000	0.006784
3762.000000	0.006775
3761.000000	0.006771
3760.000000	0.006773
3759.000000	0.006777
3758.000000	0.006783
3757.000000	0.006790
3756.000000	0.006787
3755.000000	0.006759
3754.000000	0.006697
3753.000000	0.006612
3752.000000	0.006537
3751.000000	0.006488
3750.000000	0.006462
3749.000000	0.006450
3748.000000	0.006439
3747.000000	0.006433
3746.000000	0.006450
3745.000000	0.006495
3744.000000	0.006535
3743.000000	0.006547
3742.000000	0.006538
3741.000000	0.006510
3740.000000	0.006464
3739.000000	0.006399
3738.000000	0.006336
3737.000000	0.006298
3736.000000	0.006286
3735.000000	0.006276
3734.000000	0.006260
3733.000000	0.006273
3732.000000	0.006340
3731.000000	0.006438
3730.000000	0.006535
3729.000000	0.006609
3728.000000	0.006658
3727.000000	0.006688
3726.000000	0.006704
3725.000000	0.006711
3724.000000	0.006719
3723.000000	0.006728
3722.000000	0.006727
3721.000000	0.006713
3720.000000	0.006699
3719.000000	0.006694
3718.000000	0.006701
3717.000000	0.006711
3716.000000	0.006710
3715.000000	0.006689
3714.000000	0.006659
3713.000000	0.006640
3712.000000	0.006638
3711.000000	0.006628
3710.000000	0.006605
3709.000000	0.006586
3708.000000	0.006583
3707.000000	0.006594
3706.000000	0.006610
3705.000000	0.006627
3704.000000	0.006645
3703.000000	0.006667
3702.000000	0.006690
3701.000000	0.006710
3700.000000	0.006736
3699.000000	0.006770
3698.000000	0.006802
3697.000000	0.006824
3696.000000	0.006828
3695.000000	0.006818
3694.000000	0.006801
3693.000000	0.006789
3692.000000	0.006776
3691.000000	0.006745
3690.000000	0.006680
3689.000000	0.006604
3688.000000	0.006569
3687.000000	0.006588
3686.000000	0.006630
3685.000000	0.006664
3684.000000	0.006677
3683.000000	0.006679
3682.000000	0.006693
3681.000000	0.006734
3680.000000	0.006795
3679.000000	0.006845
3678.000000	0.006856
3677.000000	0.006834
3676.000000	0.006796
3675.000000	0.006738
3674.000000	0.006669
3673.000000	0.006617
3672.000000	0.006595
3671.000000	0.006620
3670.000000	0.006681
3669.000000	0.006745
3668.000000	0.006803
3667.000000	0.006857
3666.000000	0.006895
3665.000000	0.006918
3664.000000	0.006938
3663.000000	0.006971
3662.000000	0.007013
3661.000000	0.007045
3660.000000	0.007049
3659.000000	0.007032
3658.000000	0.007019
3657.000000	0.007026
3656.000000	0.007044
3655.000000	0.007051
3654.000000	0.007034
3653.000000	0.006995
3652.000000	0.006951
3651.000000	0.006936
3650.000000	0.006969
3649.000000	0.007035
3648.000000	0.007115
3647.000000	0.007194
3646.000000	0.007252
3645.000000	0.007287
3644.000000	0.007318
3643.000000	0.007358
3642.000000	0.007405
3641.000000	0.007440
3640.000000	0.007457
3639.000000	0.007464
3638.000000	0.007471
3637.000000	0.007487
3636.000000	0.007514
3635.000000	0.007552
3634.000000	0.007586
3633.000000	0.007604
3632.000000	0.007610
3631.000000	0.007633
3630.000000	0.007689
3629.000000	0.007740
3628.000000	0.007738
3627.000000	0.007704
3626.000000	0.007687
3625.000000	0.007696
3624.000000	0.007716
3623.000000	0.007739
3622.000000	0.007770
3621.000000	0.007823
3620.000000	0.007900
3619.000000	0.007974
3618.000000	0.008024
3617.000000	0.008055
3616.000000	0.008083
3615.000000	0.008116
3614.000000	0.008150
3613.000000	0.008170
3612.000000	0.008172
3611.000000	0.008170
3610.000000	0.008193
3609.000000	0.008258
3608.000000	0.008350
3607.000000	0.008437
3606.000000	0.008503
3605.000000	0.008557
3604.000000	0.008613
3603.000000	0.008678
3602.000000	0.008744
3601.000000	0.008797
3600.000000	0.008831
3599.000000	0.008851
3598.000000	0.008881
3597.000000	0.008943
3596.000000	0.009035
3595.000000	0.009128
3594.000000	0.009178
3593.000000	0.009170
3592.000000	0.009126
3591.000000	0.009083
3590.000000	0.009078
3589.000000	0.009131
3588.000000	0.009225
3587.000000	0.009317
3586.000000	0.009384
3585.000000	0.009436
3584.000000	0.009496
3583.000000	0.009570
3582.000000	0.009659
3581.000000	0.009754
3580.000000	0.009845
3579.000000	0.009925
3578.000000	0.009990
3577.000000	0.010042
3576.000000	0.010082
3575.000000	0.010110
3574.000000	0.010131
3573.000000	0.010151
3572.000000	0.010169
3571.000000	0.010183
3570.000000	0.010198
3569.000000	0.010238
3568.000000	0.010324
3567.000000	0.010444
3566.000000	0.010567
3565.000000	0.010683
3564.000000	0.010798
3563.000000	0.010913
3562.000000	0.011016
3561.000000	0.011089
3560.000000	0.011126
3559.000000	0.011140
3558.000000	0.011158
3557.000000	0.011203
3556.000000	0.011282
3555.000000	0.011378
3554.000000	0.011469
3553.000000	0.011537
3552.000000	0.011579
3551.000000	0.011600
3550.000000	0.011614
3549.000000	0.011636
3548.000000	0.011681
3547.000000	0.011755
3546.000000	0.011846
3545.000000	0.011934
3544.000000	0.012006
3543.000000	0.012067
3542.000000	0.012127
3541.000000	0.012192
3540.000000	0.012265
3539.000000	0.012346
3538.000000	0.012437
3537.000000	0.012529
3536.000000	0.012610
3535.000000	0.012667
3534.000000	0.012703
3533.000000	0.012732
3532.000000	0.012771
3531.000000	0.012822
3530.000000	0.012879
3529.000000	0.012926
3528.000000	0.012960
3527.000000	0.012989
3526.000000	0.013031
3525.000000	0.013103
3524.000000	0.013203
3523.000000	0.013315
3522.000000	0.013420
3521.000000	0.013506
3520.000000	0.013573
3519.000000	0.013623
3518.000000	0.013658
3517.000000	0.013689
3516.000000	0.013725
3515.000000	0.013769
3514.000000	0.013813
3513.000000	0.013853
3512.000000	0.013896
3511.000000	0.013950
3510.000000	0.014014
3509.000000	0.014074
3508.000000	0.014120
3507.000000	0.014156
3506.000000	0.014193
3505.000000	0.014245
3504.000000	0.014314
3503.000000	0.014390
3502.000000	0.014459
3501.000000	0.014516
3500.000000	0.014571
3499.000000	0.014635
3498.000000	0.014707
3497.000000	0.014770
3496.000000	0.014817
3495.000000	0.014855
3494.000000	0.014904
3493.000000	0.014971
3492.000000	0.015046
3491.000000	0.015112
3490.000000	0.015159
3489.000000	0.015188
3488.000000	0.015211
3487.000000	0.015237
3486.000000	0.015273
3485.000000	0.015316
3484.000000	0.015362
3483.000000	0.015404
3482.000000	0.015442
3481.000000	0.015486
3480.000000	0.015543
3479.000000	0.015614
3478.000000	0.015685
3477.000000	0.015744
3476.000000	0.015790
3475.000000	0.015831
3474.000000	0.015876
3473.000000	0.015926
3472.000000	0.015974
3471.000000	0.016015
3470.000000	0.016055
3469.000000	0.016100
3468.000000	0.016149
3467.000000	0.016195
3466.000000	0.016228
3465.000000	0.016251
3464.000000	0.016278
3463.000000	0.016328
3462.000000	0.016406
3461.000000	0.016498
3460.000000	0.016580
3459.000000	0.016635
3458.000000	0.016665
3457.000000	0.016688
3456.000000	0.016713
3455.000000	0.016744
3454.000000	0.016774
3453.000000	0.016804
3452.000000	0.016840
3451.000000	0.016889
3450.000000	0.016956
3449.000000	0.017034
3448.000000	0.017108
3447.000000	0.017167
3446.000000	0.017211
3445.000000	0.017255
3444.000000	0.017313
3443.000000	0.017382
3442.000000	0.017450
3441.000000	0.017509
3440.000000	0.017559
3439.000000	0.017611
3438.000000	0.017668
3437.000000	0.017727
3436.000000	0.017779
3435.000000	0.017824
3434.000000	0.017870
3433.000000	0.017919
3432.000000	0.017970
3431.000000	0.018016
3430.000000	0.018057
3429.000000	0.018102
3428.000000	0.018166
3427.000000	0.018255
3426.000000	0.018361
3425.000000	0.018463
3424.000000	0.018539
3423.000000	0.018587
3422.000000	0.018621
3421.000000	0.018656
3420.000000	0.018701
3419.000000	0.018753
3418.000000	0.018811
3417.000000	0.018870
3416.000000	0.018930
3415.000000	0.018991
3414.000000	0.019054
3413.000000	0.019115
3412.000000	0.019164
3411.000000	0.019200
3410.000000	0.019231
3409.000000	0.019274
3408.000000	0.019335
3407.000000	0.019410
3406.000000	0.019489
3405.000000	0.019561
3404.000000	0.019623
3403.000000	0.019676
3402.000000	0.019723
3401.000000	0.019764
3400.000000	0.019804
3399.000000	0.019849
3398.000000	0.019903
3397.000000	0.019966
3396.000000	0.020034
3395.000000	0.020100
3394.000000	0.020161
3393.000000	0.020214
3392.000000	0.020263
3391.000000	0.020313
3390.000000	0.020369
3389.000000	0.020431
3388.000000	0.020494
3387.000000	0.020554
3386.000000	0.020608
3385.000000	0.020657
3384.000000	0.020702
3383.000000	0.020746
3382.000000	0.020794
3381.000000	0.020849
3380.000000	0.020908
3379.000000	0.020969
3378.000000	0.021030
3377.000000	0.021089
3376.000000	0.021148
3375.000000	0.021206
3374.000000	0.021265
3373.000000	0.021324
3372.000000	0.021385
3371.000000	0.021449
3370.000000	0.021519
3369.000000	0.021594
3368.000000	0.021674
3367.000000	0.021756
3366.000000	0.021836
3365.000000	0.021914
3364.000000	0.021995
3363.000000	0.022079
3362.000000	0.022162
3361.000000	0.022240
3360.000000	0.022310
3359.000000	0.022377
3358.000000	0.022443
3357.000000	0.022516
3356.000000	0.022601
3355.000000	0.022695
3354.000000	0.022787
3353.000000	0.022867
3352.000000	0.022933
3351.000000	0.022997
3350.000000	0.023072
3349.000000	0.023160
3348.000000	0.023255
3347.000000	0.023354
3346.000000	0.023454
3345.000000	0.023554
3344.000000	0.023649
3343.000000	0.023729
3342.000000	0.023791
3341.000000	0.023838
3340.000000	0.023879
3339.000000	0.023929
3338.000000	0.024000
3337.000000	0.024097
3336.000000	0.024210
3335.000000	0.024321
3334.000000	0.024408
3333.000000	0.024466
3332.000000	0.024507
3331.000000	0.024545
3330.000000	0.024589
3329.000000	0.024638
3328.000000	0.024691
3327.000000	0.024753
3326.000000	0.024831
3325.000000	0.024921
3324.000000	0.025014
3323.000000	0.025100
3322.000000	0.025179
3321.000000	0.025255
3320.000000	0.025327
3319.000000	0.025391
3318.000000	0.025440
3317.000000	0.025471
3316.000000	0.025496
3315.000000	0.025526
3314.000000	0.025566
3313.000000	0.025610
3312.000000	0.025652
3311.000000	0.025688
3310.000000	0.025717
3309.000000	0.025738
3308.000000	0.025750
3307.000000	0.025760
3306.000000	0.025778
3305.000000	0.025815
3304.000000	0.025871
3303.000000	0.025937
3302.000000	0.026005
3301.000000	0.026066
3300.000000	0.026117
3299.000000	0.026158
3298.000000	0.026188
3297.000000	0.026208
3296.000000	0.026222
3295.000000	0.026239
3294.000000	0.026266
3293.000000	0.026300
3292.000000	0.026335
3291.000000	0.026367
3290.000000	0.026396
3289.000000	0.026419
3288.000000	0.026431
3287.000000	0.026430
3286.000000	0.026425
3285.000000	0.026430
3284.000000	0.026447
3283.000000	0.026467
3282.000000	0.026473
3281.000000	0.026459
3280.000000	0.026426
3279.000000	0.026386
3278.000000	0.026346
3277.000000	0.026309
3276.000000	0.026270
3275.000000	0.026223
3274.000000	0.026165
3273.000000	0.026099
3272.000000	0.026040
3271.000000	0.025997
3270.000000	0.025969
3269.000000	0.025945
3268.000000	0.025917
3267.000000	0.025882
3266.000000	0.025842
3265.000000	0.025799
3264.000000	0.025759
3263.000000	0.025723
3262.000000	0.025686
3261.000000	0.025637
3260.000000	0.025569
3259.000000	0.025487
3258.000000	0.025406
3257.000000	0.025341
3256.000000	0.025295
3255.000000	0.025259
3254.000000	0.025215
3253.000000	0.025157
3252.000000	0.025084
3251.000000	0.025004
3250.000000	0.024919
3249.000000	0.024829
3248.000000	0.024739
3247.000000	0.024663
3246.000000	0.024609
3245.000000	0.024579
3244.000000	0.024563
3243.000000	0.024553
3242.000000	0.024541
3241.000000	0.024523
3240.000000	0.024491
3239.000000	0.024440
3238.000000	0.024372
3237.000000	0.024290
3236.000000	0.024203
3235.000000	0.024123
3234.000000	0.024062
3233.000000	0.024020
3232.000000	0.023994
3231.000000	0.023975
3230.000000	0.023961
3229.000000	0.023952
3228.000000	0.023945
3227.000000	0.023928
3226.000000	0.023886
3225.000000	0.023819
3224.000000	0.023741
3223.000000	0.023677
3222.000000	0.023635
3221.000000	0.023607
3220.000000	0.023579
3219.000000	0.023544
3218.000000	0.023502
3217.000000	0.023456
3216.000000	0.023406
3215.000000	0.023351
3214.000000	0.023296
3213.000000	0.023240
3212.000000	0.023182
3211.000000	0.023118
3210.000000	0.023050
3209.000000	0.022988
3208.000000	0.022938
3207.000000	0.022894
3206.000000	0.022851
3205.000000	0.022807
3204.000000	0.022766
3203.000000	0.022727
3202.000000	0.022685
3201.000000	0.022633
3200.000000	0.022575
3199.000000	0.022520
3198.000000	0.022474
3197.000000	0.022430
3196.000000	0.022379
3195.000000	0.022320
3194.000000	0.022258
3193.000000	0.022195
3192.000000	0.022131
3191.000000	0.022063
3190.000000	0.021995
3189.000000	0.021930
3188.000000	0.021864
3187.000000	0.021791
3186.000000	0.021714
3185.000000	0.021641
3184.000000	0.021579
3183.000000	0.021527
3182.000000	0.021474
3181.000000	0.021415
3180.000000	0.021348
3179.000000	0.021274
3178.000000	0.021196
3177.000000	0.021117
3176.000000	0.021040
3175.000000	0.020962
3174.000000	0.020882
3173.000000	0.020801
3172.000000	0.020724
3171.000000	0.020657
3170.000000	0.020600
3169.000000	0.020551
3168.000000	0.020504
3167.000000	0.020452
3166.000000	0.020390
3165.000000	0.020318
3164.000000	0.020243
3163.000000	0.020172
3162.000000	0.020111
3161.000000	0.020059
3160.000000	0.020011
3159.000000	0.019954
3158.000000	0.019882
3157.000000	0.019795
3156.000000	0.019699
3155.000000	0.019600
3154.000000	0.019508
3153.000000	0.019427
3152.000000	0.019362
3151.000000	0.019314
3150.000000	0.019285
3149.000000	0.019268
3148.000000	0.019252
3147.000000	0.019228
3146.000000	0.019191
3145.000000	0.019144
3144.000000	0.019090
3143.000000	0.019025
3142.000000	0.018953
3141.000000	0.018880
3140.000000	0.018818
3139.000000	0.018772
3138.000000	0.018737
3137.000000	0.018700
3136.000000	0.018654
3135.000000	0.018603
3134.000000	0.018557
3133.000000	0.018520
3132.000000	0.018489
3131.000000	0.018461
3130.000000	0.018433
3129.000000	0.018407
3128.000000	0.018384
3127.000000	0.018361
3126.000000	0.018338
3125.000000	0.018317
3124.000000	0.018298
3123.000000	0.018280
3122.000000	0.018258
3121.000000	0.018233
3120.000000	0.018200
3119.000000	0.018157
3118.000000	0.018110
3117.000000	0.018075
3116.000000	0.018066
3115.000000	0.018087
3114.000000	0.018127
3113.000000	0.018170
3112.000000	0.018203
3111.000000	0.018218
3110.000000	0.018224
3109.000000	0.018231
3108.000000	0.018244
3107.000000	0.018261
3106.000000	0.018280
3105.000000	0.018304
3104.000000	0.018329
3103.000000	0.018342
3102.000000	0.018331
3101.000000	0.018305
3100.000000	0.018280
3099.000000	0.018272
3098.000000	0.018281
3097.000000	0.018300
3096.000000	0.018322
3095.000000	0.018344
3094.000000	0.018367
3093.000000	0.018399
3092.000000	0.018440
3091.000000	0.018480
3090.000000	0.018502
3089.000000	0.018499
3088.000000	0.018477
3087.000000	0.018456
3086.000000	0.018447
3085.000000	0.018458
3084.000000	0.018486
3083.000000	0.018523
3082.000000	0.018557
3081.000000	0.018573
3080.000000	0.018570
3079.000000	0.018559
3078.000000	0.018558
3077.000000	0.018574
3076.000000	0.018597
3075.000000	0.018613
3074.000000	0.018616
3073.000000	0.018609
3072.000000	0.018596
3071.000000	0.018576
3070.000000	0.018552
3069.000000	0.018529
3068.000000	0.018513
3067.000000	0.018505
3066.000000	0.018503
3065.000000	0.018506
3064.000000	0.018506
3063.000000	0.018494
3062.000000	0.018463
3061.000000	0.018414
3060.000000	0.018359
3059.000000	0.018309
3058.000000	0.018270
3057.000000	0.018239
3056.000000	0.018208
3055.000000	0.018167
3054.000000	0.018108
3053.000000	0.018031
3052.000000	0.017946
3051.000000	0.017872
3050.000000	0.017822
3049.000000	0.017793
3048.000000	0.017767
3047.000000	0.017721
3046.000000	0.017649
3045.000000	0.017563
3044.000000	0.017480
3043.000000	0.017416
3042.000000	0.017373
3041.000000	0.017341
3040.000000	0.017300
3039.000000	0.017237
3038.000000	0.017153
3037.000000	0.017068
3036.000000	0.017008
3035.000000	0.016976
3034.000000	0.016954
3033.000000	0.016918
3032.000000	0.016862
3031.000000	0.016799
3030.000000	0.016743
3029.000000	0.016698
3028.000000	0.016658
3027.000000	0.016613
3026.000000	0.016560
3025.000000	0.016505
3024.000000	0.016454
3023.000000	0.016407
3022.000000	0.016356
3021.000000	0.016298
3020.000000	0.016236
3019.000000	0.016178
3018.000000	0.016131
3017.000000	0.016100
3016.000000	0.016084
3015.000000	0.016081
3014.000000	0.016082
3013.000000	0.016076
3012.000000	0.016062
3011.000000	0.016049
3010.000000	0.016045
3009.000000	0.016048
3008.000000	0.016052
3007.000000	0.016054
3006.000000	0.016059
3005.000000	0.016076
3004.000000	0.016105
3003.000000	0.016133
3002.000000	0.016149
3001.000000	0.016151
3000.000000	0.016152
2999.000000	0.016167
2998.000000	0.016205
2997.000000	0.016265
2996.000000	0.016338
2995.000000	0.016418
2994.000000	0.016503
2993.000000	0.016593
2992.000000	0.016686
2991.000000	0.016785
2990.000000	0.016897
2989.000000	0.017024
2988.000000	0.017166
2987.000000	0.017319
2986.000000	0.017479
2985.000000	0.017642
2984.000000	0.017801
2983.000000	0.017953
2982.000000	0.018101
2981.000000	0.018253
2980.000000	0.018420
2979.000000	0.018608
2978.000000	0.018812
2977.000000	0.019018
2976.000000	0.019214
2975.000000	0.019399
2974.000000	0.019581
2973.000000	0.019769
2972.000000	0.019971
2971.000000	0.020192
2970.000000	0.020434
2969.000000	0.020693
2968.000000	0.020961
2967.000000	0.021229
2966.000000	0.021484
2965.000000	0.021713
2964.000000	0.021909
2963.000000	0.022076
2962.000000	0.022232
2961.000000	0.022386
2960.000000	0.022535
2959.000000	0.022668
2958.000000	0.022778
2957.000000	0.022870
2956.000000	0.022953
2955.000000	0.023027
2954.000000	0.023089
2953.000000	0.023134
2952.000000	0.023163
2951.000000	0.023187
2950.000000	0.023218
2949.000000	0.023267
2948.000000	0.023337
2947.000000	0.023429
2946.000000	0.023542
2945.000000	0.023676
2944.000000	0.023828
2943.000000	0.024001
2942.000000	0.024203
2941.000000	0.024440
2940.000000	0.024712
2939.000000	0.025014
2938.000000	0.025345
2937.000000	0.025706
2936.000000	0.026098
2935.000000	0.026516
2934.000000	0.026951
2933.000000	0.027396
2932.000000	0.027848
2931.000000	0.028307
2930.000000	0.028774
2929.000000	0.029240
2928.000000	0.029689
2927.000000	0.030111
2926.000000	0.030500
2925.000000	0.030854
2924.000000	0.031166
2923.000000	0.031425
2922.000000	0.031629
2921.000000	0.031773
2920.000000	0.031845
2919.000000	0.031810
2918.000000	0.031626
2917.000000	0.031254
2916.000000	0.030691
2915.000000	0.029966
2914.000000	0.029147
2913.000000	0.028307
2912.000000	0.027507
2911.000000	0.026784
2910.000000	0.026154
2909.000000	0.025610
2908.000000	0.025141
2907.000000	0.024733
2906.000000	0.024382
2905.000000	0.024086
2904.000000	0.023829
2903.000000	0.023592
2902.000000	0.023359
2901.000000	0.023127
2900.000000	0.022898
2899.000000	0.022671
2898.000000	0.022451
2897.000000	0.022241
2896.000000	0.022049
2895.000000	0.021876
2894.000000	0.021727
2893.000000	0.021598
2892.000000	0.021481
2891.000000	0.021366
2890.000000	0.021250
2889.000000	0.021136
2888.000000	0.021024
2887.000000	0.020913
2886.000000	0.020805
2885.000000	0.020709
2884.000000	0.020637
2883.000000	0.020592
2882.000000	0.020569
2881.000000	0.020559
2880.000000	0.020557
2879.000000	0.020558
2878.000000	0.020563
2877.000000	0.020575
2876.000000	0.020593
2875.000000	0.020607
2874.000000	0.020609
2873.000000	0.020597
2872.000000	0.020573
2871.000000	0.020540
2870.000000	0.020493
2869.000000	0.020431
2868.000000	0.020360
2867.000000	0.020295
2866.000000	0.020254
2865.000000	0.020248
2864.000000	0.020281
2863.000000	0.020348
2862.000000	0.020458
2861.000000	0.020630
2860.000000	0.020878
2859.000000	0.021198
2858.000000	0.021574
2857.000000	0.021995
2856.000000	0.022455
2855.000000	0.022944
2854.000000	0.023432
2853.000000	0.023877
2852.000000	0.024221
2851.000000	0.024392
2850.000000	0.024322
2849.000000	0.023976
2848.000000	0.023371
2847.000000	0.022583
2846.000000	0.021722
2845.000000	0.020890
2844.000000	0.020152
2843.000000	0.019529
2842.000000	0.019011
2841.000000	0.018576
2840.000000	0.018198
2839.000000	0.017861
2838.000000	0.017563
2837.000000	0.017311
2836.000000	0.017107
2835.000000	0.016940
2834.000000	0.016795
2833.000000	0.016663
2832.000000	0.016544
2831.000000	0.016434
2830.000000	0.016324
2829.000000	0.016214
2828.000000	0.016109
2827.000000	0.016015
2826.000000	0.015932
2825.000000	0.015851
2824.000000	0.015764
2823.000000	0.015671
2822.000000	0.015579
2821.000000	0.015500
2820.000000	0.015439
2819.000000	0.015387
2818.000000	0.015331
2817.000000	0.015259
2816.000000	0.015177
2815.000000	0.015098
2814.000000	0.015035
2813.000000	0.014993
2812.000000	0.014969
2811.000000	0.014949
2810.000000	0.014922
2809.000000	0.014881
2808.000000	0.014826
2807.000000	0.014766
2806.000000	0.014712
2805.000000	0.014673
2804.000000	0.014645
2803.000000	0.014621
2802.000000	0.014594
2801.000000	0.014567
2800.000000	0.014541
2799.000000	0.014515
2798.000000	0.014488
2797.000000	0.014460
2796.000000	0.014430
2795.000000	0.014396
2794.000000	0.014352
2793.000000	0.014299
2792.000000	0.014248
2791.000000	0.014209
2790.000000	0.014177
2789.000000	0.014146
2788.000000	0.014114
2787.000000	0.014089
2786.000000	0.014074
2785.000000	0.014063
2784.000000	0.014041
2783.000000	0.014002
2782.000000	0.013953
2781.000000	0.013909
2780.000000	0.013882
2779.000000	0.013870
2778.000000	0.013862
2777.000000	0.013847
2776.000000	0.013818
2775.000000	0.013777
2774.000000	0.013729
2773.000000	0.013682
2772.000000	0.013643
2771.000000	0.013615
2770.000000	0.013597
2769.000000	0.013584
2768.000000	0.013575
2767.000000	0.013566
2766.000000	0.013555
2765.000000	0.013541
2764.000000	0.013524
2763.000000	0.013506
2762.000000	0.013488
2761.000000	0.013470
2760.000000	0.013449
2759.000000	0.013425
2758.000000	0.013396
2757.000000	0.013359
2756.000000	0.013316
2755.000000	0.013274
2754.000000	0.013240
2753.000000	0.013215
2752.000000	0.013197
2751.000000	0.013182
2750.000000	0.013173
2749.000000	0.013170
2748.000000	0.013168
2747.000000	0.013161
2746.000000	0.013146
2745.000000	0.013127
2744.000000	0.013103
2743.000000	0.013075
2742.000000	0.013045
2741.000000	0.013018
2740.000000	0.013000
2739.000000	0.012985
2738.000000	0.012964
2737.000000	0.012932
2736.000000	0.012896
2735.000000	0.012868
2734.000000	0.012856
2733.000000	0.012852
2732.000000	0.012838
2731.000000	0.012809
2730.000000	0.012773
2729.000000	0.012744
2728.000000	0.012724
2727.000000	0.012706
2726.000000	0.012683
2725.000000	0.012657
2724.000000	0.012631
2723.000000	0.012609
2722.000000	0.012600
2721.000000	0.012605
2720.000000	0.012617
2719.000000	0.012624
2718.000000	0.012624
2717.000000	0.012622
2716.000000	0.012621
2715.000000	0.012612
2714.000000	0.012584
2713.000000	0.012541
2712.000000	0.012497
2711.000000	0.012463
2710.000000	0.012442
2709.000000	0.012430
2708.000000	0.012420
2707.000000	0.012406
2706.000000	0.012387
2705.000000	0.012367
2704.000000	0.012356
2703.000000	0.012356
2702.000000	0.012362
2701.000000	0.012363
2700.000000	0.012346
2699.000000	0.012312
2698.000000	0.012277
2697.000000	0.012258
2696.000000	0.012261
2695.000000	0.012273
2694.000000	0.012276
2693.000000	0.012260
2692.000000	0.012233
2691.000000	0.012207
2690.000000	0.012192
2689.000000	0.012186
2688.000000	0.012181
2687.000000	0.012175
2686.000000	0.012173
2685.000000	0.012176
2684.000000	0.012175
2683.000000	0.012163
2682.000000	0.012144
2681.000000	0.012132
2680.000000	0.012136
2679.000000	0.012145
2678.000000	0.012143
2677.000000	0.012127
2676.000000	0.012107
2675.000000	0.012097
2674.000000	0.012101
2673.000000	0.012111
2672.000000	0.012115
2671.000000	0.012107
2670.000000	0.012092
2669.000000	0.012078
2668.000000	0.012067
2667.000000	0.012059
2666.000000	0.012054
2665.000000	0.012051
2664.000000	0.012049
2663.000000	0.012044
2662.000000	0.012036
2661.000000	0.012026
2660.000000	0.012016
2659.000000	0.012003
2658.000000	0.011986
2657.000000	0.011966
2656.000000	0.011949
2655.000000	0.011936
2654.000000	0.011932
2653.000000	0.011933
2652.000000	0.011931
2651.000000	0.011918
2650.000000	0.011897
2649.000000	0.011874
2648.000000	0.011846
2647.000000	0.011809
2646.000000	0.011764
2645.000000	0.011727
2644.000000	0.011710
2643.000000	0.011711
2642.000000	0.011714
2641.000000	0.011702
2640.000000	0.011672
2639.000000	0.011632
2638.000000	0.011592
2637.000000	0.011559
2636.000000	0.011538
2635.000000	0.011529
2634.000000	0.011523
2633.000000	0.011508
2632.000000	0.011475
2631.000000	0.011430
2630.000000	0.011389
2629.000000	0.011360
2628.000000	0.011338
2627.000000	0.011315
2626.000000	0.011291
2625.000000	0.011275
2624.000000	0.011261
2623.000000	0.011240
2622.000000	0.011208
2621.000000	0.011175
2620.000000	0.011144
2619.000000	0.011111
2618.000000	0.011077
2617.000000	0.011047
2616.000000	0.011029
2615.000000	0.011023
2614.000000	0.011026
2613.000000	0.011029
2612.000000	0.011020
2611.000000	0.010990
2610.000000	0.010950
2609.000000	0.010920
2608.000000	0.010907
2607.000000	0.010899
2606.000000	0.010879
2605.000000	0.010850
2604.000000	0.010829
2603.000000	0.010825
2602.000000	0.010836
2601.000000	0.010850
2600.000000	0.010852
2599.000000	0.010831
2598.000000	0.010794
2597.000000	0.010753
2596.000000	0.010714
2595.000000	0.010672
2594.000000	0.010629
2593.000000	0.010600
2592.000000	0.010598
2591.000000	0.010617
2590.000000	0.010635
2589.000000	0.010639
2588.000000	0.010626
2587.000000	0.010595
2586.000000	0.010548
2585.000000	0.010497
2584.000000	0.010461
2583.000000	0.010446
2582.000000	0.010449
2581.000000	0.010454
2580.000000	0.010446
2579.000000	0.010416
2578.000000	0.010363
2577.000000	0.010308
2576.000000	0.010279
2575.000000	0.010287
2574.000000	0.010317
2573.000000	0.010345
2572.000000	0.010357
2571.000000	0.010360
2570.000000	0.010362
2569.000000	0.010359
2568.000000	0.010340
2567.000000	0.010302
2566.000000	0.010262
2565.000000	0.010239
2564.000000	0.010236
2563.000000	0.010245
2562.000000	0.010263
2561.000000	0.010288
2560.000000	0.010310
2559.000000	0.010309
2558.000000	0.010277
2557.000000	0.010225
2556.000000	0.010168
2555.000000	0.010118
2554.000000	0.010080
2553.000000	0.010067
2552.000000	0.010090
2551.000000	0.010140
2550.000000	0.010190
2549.000000	0.010214
2548.000000	0.010208
2547.000000	0.010186
2546.000000	0.010167
2545.000000	0.010159
2544.000000	0.010154
2543.000000	0.010140
2542.000000	0.010110
2541.000000	0.010074
2540.000000	0.010052
2539.000000	0.010058
2538.000000	0.010092
2537.000000	0.010139
2536.000000	0.010170
2535.000000	0.010168
2534.000000	0.010143
2533.000000	0.010119
2532.000000	0.010116
2531.000000	0.010128
2530.000000	0.010143
2529.000000	0.010152
2528.000000	0.010144
2527.000000	0.010113
2526.000000	0.010063
2525.000000	0.010018
2524.000000	0.010005
2523.000000	0.010024
2522.000000	0.010050
2521.000000	0.010059
2520.000000	0.010056
2519.000000	0.010058
2518.000000	0.010071
2517.000000	0.010080
2516.000000	0.010069
2515.000000	0.010042
2514.000000	0.010020
2513.000000	0.010014
2512.000000	0.010017
2511.000000	0.010010
2510.000000	0.009993
2509.000000	0.009973
2508.000000	0.009950
2507.000000	0.009917
2506.000000	0.009879
2505.000000	0.009858
2504.000000	0.009872
2503.000000	0.009911
2502.000000	0.009948
2501.000000	0.009958
2500.000000	0.009938
2499.000000	0.009901
2498.000000	0.009864
2497.000000	0.009834
2496.000000	0.009814
2495.000000	0.009802
2494.000000	0.009798
2493.000000	0.009798
2492.000000	0.009799
2491.000000	0.009803
2490.000000	0.009812
2489.000000	0.009819
2488.000000	0.009812
2487.000000	0.009793
2486.000000	0.009773
2485.000000	0.009757
2484.000000	0.009734
2483.000000	0.009705
2482.000000	0.009685
2481.000000	0.009693
2480.000000	0.009718
2479.000000	0.009735
2478.000000	0.009731
2477.000000	0.009712
2476.000000	0.009692
2475.000000	0.009673
2474.000000	0.009654
2473.000000	0.009631
2472.000000	0.009603
2471.000000	0.009576
2470.000000	0.009568
2469.000000	0.009590
2468.000000	0.009628
2467.000000	0.009657
2466.000000	0.009659
2465.000000	0.009640
2464.000000	0.009618
2463.000000	0.009607
2462.000000	0.009612
2461.000000	0.009624
2460.000000	0.009629
2459.000000	0.009614
2458.000000	0.009583
2457.000000	0.009547
2456.000000	0.009512
2455.000000	0.009488
2454.000000	0.009485
2453.000000	0.009507
2452.000000	0.009537
2451.000000	0.009551
2450.000000	0.009538
2449.000000	0.009508
2448.000000	0.009476
2447.000000	0.009455
2446.000000	0.009450
2445.000000	0.009456
2444.000000	0.009457
2443.000000	0.009442
2442.000000	0.009410
2441.000000	0.009374
2440.000000	0.009354
2439.000000	0.009364
2438.000000	0.009415
2437.000000	0.009488
2436.000000	0.009544
2435.000000	0.009553
2434.000000	0.009523
2433.000000	0.009485
2432.000000	0.009455
2431.000000	0.009428
2430.000000	0.009393
2429.000000	0.009353
2428.000000	0.009319
2427.000000	0.009305
2426.000000	0.009323
2425.000000	0.009362
2424.000000	0.009393
2423.000000	0.009391
2422.000000	0.009363
2421.000000	0.009330
2420.000000	0.009310
2419.000000	0.009308
2418.000000	0.009326
2417.000000	0.009362
2416.000000	0.009395
2415.000000	0.009410
2414.000000	0.009409
2413.000000	0.009410
2412.000000	0.009412
2411.000000	0.009403
2410.000000	0.009383
2409.000000	0.009363
2408.000000	0.009347
2407.000000	0.009325
2406.000000	0.009295
2405.000000	0.009270
2404.000000	0.009258
2403.000000	0.009258
2402.000000	0.009269
2401.000000	0.009294
2400.000000	0.009327
2399.000000	0.009351
2398.000000	0.009359
2397.000000	0.009356
2396.000000	0.009341
2395.000000	0.009314
2394.000000	0.009283
2393.000000	0.009270
2392.000000	0.009288
2391.000000	0.009322
2390.000000	0.009345
2389.000000	0.009338
2388.000000	0.009307
2387.000000	0.009272
2386.000000	0.009257
2385.000000	0.009259
2384.000000	0.009257
2383.000000	0.009226
2382.000000	0.009174
2381.000000	0.009127
2380.000000	0.009103
2379.000000	0.009109
2378.000000	0.009146
2377.000000	0.009213
2376.000000	0.009289
2375.000000	0.009345
2374.000000	0.009366
2373.000000	0.009342
2372.000000	0.009266
2371.000000	0.009157
2370.000000	0.009062
2369.000000	0.009021
2368.000000	0.009040
2367.000000	0.009105
2366.000000	0.009199
2365.000000	0.009305
2364.000000	0.009397
2363.000000	0.009471
2362.000000	0.009539
2361.000000	0.009588
2360.000000	0.009589
2359.000000	0.009533
2358.000000	0.009441
2357.000000	0.009349
2356.000000	0.009304
2355.000000	0.009339
2354.000000	0.009388
2353.000000	0.009371
2352.000000	0.009315
2351.000000	0.009318
2350.000000	0.009405
2349.000000	0.009522
2348.000000	0.009594
2347.000000	0.009570
2346.000000	0.009481
2345.000000	0.009424
2344.000000	0.009439
2343.000000	0.009474
2342.000000	0.009473
2341.000000	0.009439
2340.000000	0.009426
2339.000000	0.009459
2338.000000	0.009505
2337.000000	0.009515
2336.000000	0.009488
2335.000000	0.009438
2334.000000	0.009361
2333.000000	0.009254
2332.000000	0.009174
2331.000000	0.009174
2330.000000	0.009255
2329.000000	0.009366
2328.000000	0.009479
2327.000000	0.009576
2326.000000	0.009638
2325.000000	0.009637
2324.000000	0.009579
2323.000000	0.009498
2322.000000	0.009450
2321.000000	0.009473
2320.000000	0.009558
2319.000000	0.009649
2318.000000	0.009690
2317.000000	0.009669
2316.000000	0.009621
2315.000000	0.009575
2314.000000	0.009550
2313.000000	0.009540
2312.000000	0.009531
2311.000000	0.009497
2310.000000	0.009429
2309.000000	0.009344
2308.000000	0.009274
2307.000000	0.009226
2306.000000	0.009191
2305.000000	0.009165
2304.000000	0.009151
2303.000000	0.009143
2302.000000	0.009129
2301.000000	0.009104
2300.000000	0.009082
2299.000000	0.009078
2298.000000	0.009102
2297.000000	0.009149
2296.000000	0.009199
2295.000000	0.009231
2294.000000	0.009242
2293.000000	0.009251
2292.000000	0.009277
2291.000000	0.009313
2290.000000	0.009340
2289.000000	0.009345
2288.000000	0.009328
2287.000000	0.009301
2286.000000	0.009274
2285.000000	0.009246
2284.000000	0.009200
2283.000000	0.009126
2282.000000	0.009045
2281.000000	0.009011
2280.000000	0.009048
2279.000000	0.009123
2278.000000	0.009173
2277.000000	0.009156
2276.000000	0.009072
2275.000000	0.008953
2274.000000	0.008843
2273.000000	0.008779
2272.000000	0.008765
2271.000000	0.008768
2270.000000	0.008766
2269.000000	0.008768
2268.000000	0.008786
2267.000000	0.008803
2266.000000	0.008778
2265.000000	0.008698
2264.000000	0.008598
2263.000000	0.008547
2262.000000	0.008596
2261.000000	0.008728
2260.000000	0.008853
2259.000000	0.008879
2258.000000	0.008808
2257.000000	0.008728
2256.000000	0.008700
2255.000000	0.008685
2254.000000	0.008620
2253.000000	0.008515
2252.000000	0.008449
2251.000000	0.008471
2250.000000	0.008560
2249.000000	0.008663
2248.000000	0.008744
2247.000000	0.008792
2246.000000	0.008816
2245.000000	0.008839
2244.000000	0.008873
2243.000000	0.008903
2242.000000	0.008898
2241.000000	0.008855
2240.000000	0.008816
2239.000000	0.008823
2238.000000	0.008869
2237.000000	0.008900
2236.000000	0.008862
2235.000000	0.008747
2234.000000	0.008592
2233.000000	0.008452
2232.000000	0.008369
2231.000000	0.008356
2230.000000	0.008404
2229.000000	0.008482
2228.000000	0.008566
2227.000000	0.008646
2226.000000	0.008714
2225.000000	0.008735
2224.000000	0.008673
2223.000000	0.008555
2222.000000	0.008469
2221.000000	0.008477
2220.000000	0.008544
2219.000000	0.008586
2218.000000	0.008562
2217.000000	0.008494
2216.000000	0.008421
2215.000000	0.008365
2214.000000	0.008335
2213.000000	0.008319
2212.000000	0.008288
2211.000000	0.008242
2210.000000	0.008234
2209.000000	0.008309
2208.000000	0.008429
2207.000000	0.008515
2206.000000	0.008537
2205.000000	0.008527
2204.000000	0.008507
2203.000000	0.008470
2202.000000	0.008414
2201.000000	0.008347
2200.000000	0.008262
2199.000000	0.008157
2198.000000	0.008086
2197.000000	0.008122
2196.000000	0.008247
2195.000000	0.008345
2194.000000	0.008322
2193.000000	0.008215
2192.000000	0.008140
2191.000000	0.008169
2190.000000	0.008263
2189.000000	0.008310
2188.000000	0.008220
2187.000000	0.008005
2186.000000	0.007762
2185.000000	0.007571
2184.000000	0.007446
2183.000000	0.007381
2182.000000	0.007402
2181.000000	0.007507
2180.000000	0.007617
2179.000000	0.007660
2178.000000	0.007660
2177.000000	0.007674
2176.000000	0.007689
2175.000000	0.007653
2174.000000	0.007584
2173.000000	0.007557
2172.000000	0.007604
2171.000000	0.007713
2170.000000	0.007873
2169.000000	0.008043
2168.000000	0.008113
2167.000000	0.008003
2166.000000	0.007792
2165.000000	0.007643
2164.000000	0.007605
2163.000000	0.007599
2162.000000	0.007564
2161.000000	0.007497
2160.000000	0.007359
2159.000000	0.007102
2158.000000	0.006820
2157.000000	0.006672
2156.000000	0.006656
2155.000000	0.006660
2154.000000	0.006656
2153.000000	0.006716
2152.000000	0.006864
2151.000000	0.007047
2150.000000	0.007230
2149.000000	0.007398
2148.000000	0.007485
2147.000000	0.007430
2146.000000	0.007287
2145.000000	0.007193
2144.000000	0.007205
2143.000000	0.007267
2142.000000	0.007339
2141.000000	0.007435
2140.000000	0.007530
2139.000000	0.007548
2138.000000	0.007470
2137.000000	0.007383
2136.000000	0.007375
2135.000000	0.007442
2134.000000	0.007525
2133.000000	0.007580
2132.000000	0.007592
2131.000000	0.007579
2130.000000	0.007586
2129.000000	0.007649
2128.000000	0.007752
2127.000000	0.007846
2126.000000	0.007916
2125.000000	0.007984
2124.000000	0.008051
2123.000000	0.008092
2122.000000	0.008105
2121.000000	0.008122
2120.000000	0.008164
2119.000000	0.008219
2118.000000	0.008275
2117.000000	0.008333
2116.000000	0.008384
2115.000000	0.008408
2114.000000	0.008399
2113.000000	0.008363
2112.000000	0.008297
2111.000000	0.008209
2110.000000	0.008150
2109.000000	0.008165
2108.000000	0.008220
2107.000000	0.008226
2106.000000	0.008157
2105.000000	0.008085
2104.000000	0.008094
2103.000000	0.008188
2102.000000	0.008315
2101.000000	0.008425
2100.000000	0.008480
2099.000000	0.008463
2098.000000	0.008401
2097.000000	0.008344
2096.000000	0.008322
2095.000000	0.008320
2094.000000	0.008317
2093.000000	0.008309
2092.000000	0.008291
2091.000000	0.008264
2090.000000	0.008252
2089.000000	0.008271
2088.000000	0.008284
2087.000000	0.008232
2086.000000	0.008120
2085.000000	0.008015
2084.000000	0.007967
2083.000000	0.007959
2082.000000	0.007964
2081.000000	0.007979
2080.000000	0.007998
2079.000000	0.007996
2078.000000	0.007970
2077.000000	0.007944
2076.000000	0.007925
2075.000000	0.007889
2074.000000	0.007839
2073.000000	0.007827
2072.000000	0.007886
2071.000000	0.007985
2070.000000	0.008054
2069.000000	0.008047
2068.000000	0.007969
2067.000000	0.007877
2066.000000	0.007852
2065.000000	0.007914
2064.000000	0.007971
2063.000000	0.007908
2062.000000	0.007732
2061.000000	0.007556
2060.000000	0.007474
2059.000000	0.007489
2058.000000	0.007579
2057.000000	0.007729
2056.000000	0.007887
2055.000000	0.007964
2054.000000	0.007923
2053.000000	0.007816
2052.000000	0.007713
2051.000000	0.007624
2050.000000	0.007532
2049.000000	0.007438
2048.000000	0.007362
2047.000000	0.007334
2046.000000	0.007391
2045.000000	0.007524
2044.000000	0.007631
2043.000000	0.007599
2042.000000	0.007446
2041.000000	0.007285
2040.000000	0.007168
2039.000000	0.007042
2038.000000	0.006871
2037.000000	0.006685
2036.000000	0.006493
2035.000000	0.006271
2034.000000	0.006076
2033.000000	0.006031
2032.000000	0.006184
2031.000000	0.006474
2030.000000	0.006836
2029.000000	0.007205
2028.000000	0.007434
2027.000000	0.007386
2026.000000	0.007129
2025.000000	0.006893
2024.000000	0.006798
2023.000000	0.006749
2022.000000	0.006631
2021.000000	0.006480
2020.000000	0.006401
2019.000000	0.006432
2018.000000	0.006529
2017.000000	0.006609
2016.000000	0.006590
2015.000000	0.006469
2014.000000	0.006364
2013.000000	0.006391
2012.000000	0.006514
2011.000000	0.006610
2010.000000	0.006643
2009.000000	0.006668
2008.000000	0.006696
2007.000000	0.006701
2006.000000	0.006719
2005.000000	0.006804
2004.000000	0.006912
2003.000000	0.006945
2002.000000	0.006892
2001.000000	0.006816
2000.000000	0.006736
1999.000000	0.006647
1998.000000	0.006605
1997.000000	0.006652
1996.000000	0.006708
1995.000000	0.006656
1994.000000	0.006536
1993.000000	0.006512
1992.000000	0.006629
1991.000000	0.006743
1990.000000	0.006747
1989.000000	0.006696
1988.000000	0.006693
1987.000000	0.006749
1986.000000	0.006818
1985.000000	0.006860
1984.000000	0.006856
1983.000000	0.006843
1982.000000	0.006913
1981.000000	0.007113
1980.000000	0.007346
1979.000000	0.007473
1978.000000	0.007488
1977.000000	0.007459
1976.000000	0.007341
1975.000000	0.007039
1974.000000	0.006637
1973.000000	0.006345
1972.000000	0.006227
1971.000000	0.006174
1970.000000	0.006120
1969.000000	0.006135
1968.000000	0.006254
1967.000000	0.006402
1966.000000	0.006521
1965.000000	0.006630
1964.000000	0.006735
1963.000000	0.006797
1962.000000	0.006825
1961.000000	0.006878
1960.000000	0.006967
1959.000000	0.007028
1958.000000	0.007023
1957.000000	0.006974
1956.000000	0.006907
1955.000000	0.006852
1954.000000	0.006868
1953.000000	0.006975
1952.000000	0.007079
1951.000000	0.007059
1950.000000	0.006934
1949.000000	0.006823
1948.000000	0.006773
1947.000000	0.006728
1946.000000	0.006682
1945.000000	0.006720
1944.000000	0.006881
1943.000000	0.007077
1942.000000	0.007196
1941.000000	0.007212
1940.000000	0.007149
1939.000000	0.007028
1938.000000	0.006880
1937.000000	0.006755
1936.000000	0.006693
1935.000000	0.006692
1934.000000	0.006741
1933.000000	0.006829
1932.000000	0.006919
1931.000000	0.006963
1930.000000	0.006964
1929.000000	0.006951
1928.000000	0.006930
1927.000000	0.006902
1926.000000	0.006907
1925.000000	0.006982
1924.000000	0.007088
1923.000000	0.007133
1922.000000	0.007095
1921.000000	0.007032
1920.000000	0.006987
1919.000000	0.006957
1918.000000	0.006950
1917.000000	0.006972
1916.000000	0.006985
1915.000000	0.006955
1914.000000	0.006918
1913.000000	0.006924
1912.000000	0.006954
1911.000000	0.006958
1910.000000	0.006949
1909.000000	0.006977
1908.000000	0.007026
1907.000000	0.007039
1906.000000	0.007014
1905.000000	0.006994
1904.000000	0.006968
1903.000000	0.006901
1902.000000	0.006833
1901.000000	0.006843
1900.000000	0.006925
1899.000000	0.007002
1898.000000	0.007040
1897.000000	0.007073
1896.000000	0.007106
1895.000000	0.007100
1894.000000	0.007055
1893.000000	0.007023
1892.000000	0.007009
1891.000000	0.006977
1890.000000	0.006932
1889.000000	0.006929
1888.000000	0.006962
1887.000000	0.006968
1886.000000	0.006932
1885.000000	0.006895
1884.000000	0.006885
1883.000000	0.006892
1882.000000	0.006919
1881.000000	0.006967
1880.000000	0.006991
1879.000000	0.006951
1878.000000	0.006879
1877.000000	0.006848
1876.000000	0.006870
1875.000000	0.006890
1874.000000	0.006881
1873.000000	0.006865
1872.000000	0.006848
1871.000000	0.006802
1870.000000	0.006738
1869.000000	0.006715
1868.000000	0.006740
1867.000000	0.006750
1866.000000	0.006749
1865.000000	0.006784
1864.000000	0.006841
1863.000000	0.006859
1862.000000	0.006838
1861.000000	0.006834
1860.000000	0.006844
1859.000000	0.006811
1858.000000	0.006728
1857.000000	0.006664
1856.000000	0.006651
1855.000000	0.006668
1854.000000	0.006702
1853.000000	0.006761
1852.000000	0.006814
1851.000000	0.006821
1850.000000	0.006785
1849.000000	0.006744
1848.000000	0.006706
1847.000000	0.006659
1846.000000	0.006629
1845.000000	0.006653
1844.000000	0.006703
1843.000000	0.006708
1842.000000	0.006679
1841.000000	0.006677
1840.000000	0.006702
1839.000000	0.006696
1838.000000	0.006643
1837.000000	0.006597
1836.000000	0.006596
1835.000000	0.006615
1834.000000	0.006632
1833.000000	0.006655
1832.000000	0.006686
1831.000000	0.006699
1830.000000	0.006680
1829.000000	0.006667
1828.000000	0.006682
1827.000000	0.006706
1826.000000	0.006720
1825.000000	0.006730
1824.000000	0.006739
1823.000000	0.006719
1822.000000	0.006678
1821.000000	0.006655
1820.000000	0.006660
1819.000000	0.006648
1818.000000	0.006604
1817.000000	0.006584
1816.000000	0.006618
1815.000000	0.006654
1814.000000	0.006654
1813.000000	0.006647
1812.000000	0.006668
1811.000000	0.006689
1810.000000	0.006686
1809.000000	0.006696
1808.000000	0.006727
1807.000000	0.006736
1806.000000	0.006718
1805.000000	0.006726
1804.000000	0.006768
1803.000000	0.006780
1802.000000	0.006728
1801.000000	0.006672
1800.000000	0.006670
1799.000000	0.006690
1798.000000	0.006703
1797.000000	0.006728
1796.000000	0.006760
1795.000000	0.006753
1794.000000	0.006696
1793.000000	0.006633
1792.000000	0.006607
1791.000000	0.006572
1790.000000	0.006513
1789.000000	0.006489
1788.000000	0.006525
1787.000000	0.006569
1786.000000	0.006575
1785.000000	0.006560
1784.000000	0.006544
1783.000000	0.006524
1782.000000	0.006498
1781.000000	0.006474
1780.000000	0.006454
1779.000000	0.006423
1778.000000	0.006392
1777.000000	0.006381
1776.000000	0.006379
1775.000000	0.006366
1774.000000	0.006340
1773.000000	0.006312
1772.000000	0.006309
1771.000000	0.006318
1770.000000	0.006311
1769.000000	0.006316
1768.000000	0.006358
1767.000000	0.006399
1766.000000	0.006403
1765.000000	0.006397
1764.000000	0.006417
1763.000000	0.006443
1762.000000	0.006429
1761.000000	0.006383
1760.000000	0.006355
1759.000000	0.006357
1758.000000	0.006369
1757.000000	0.006365
1756.000000	0.006343
1755.000000	0.006312
1754.000000	0.006276
1753.000000	0.006245
1752.000000	0.006240
1751.000000	0.006283
1750.000000	0.006377
1749.000000	0.006514
1748.000000	0.006681
1747.000000	0.006859
1746.000000	0.007019
1745.000000	0.007159
1744.000000	0.007313
1743.000000	0.007493
1742.000000	0.007678
1741.000000	0.007866
1740.000000	0.008064
1739.000000	0.008240
1738.000000	0.008358
1737.000000	0.008441
1736.000000	0.008519
1735.000000	0.008552
1734.000000	0.008533
1733.000000	0.008506
1732.000000	0.008470
1731.000000	0.008400
1730.000000	0.008296
1729.000000	0.008177
1728.000000	0.008052
1727.000000	0.007917
1726.000000	0.007775
1725.000000	0.007645
1724.000000	0.007531
1723.000000	0.007412
1722.000000	0.007294
1721.000000	0.007214
1720.000000	0.007163
1719.000000	0.007066
1718.000000	0.006942
1717.000000	0.007006
1716.000000	0.007292
1715.000000	0.007592
1714.000000	0.007843
1713.000000	0.008119
1712.000000	0.008428
1711.000000	0.008720
1710.000000	0.009002
1709.000000	0.009350
1708.000000	0.009799
1707.000000	0.010311
1706.000000	0.010874
1705.000000	0.011504
1704.000000	0.012112
1703.000000	0.012631
1702.000000	0.013192
1701.000000	0.013984
1700.000000	0.014922
1699.000000	0.015577
1698.000000	0.015995
1697.000000	0.016623
1696.000000	0.017637
1695.000000	0.018676
1694.000000	0.019446
1693.000000	0.020093
1692.000000	0.020795
1691.000000	0.021572
1690.000000	0.022369
1689.000000	0.023120
1688.000000	0.023774
1687.000000	0.024347
1686.000000	0.025024
1685.000000	0.026047
1684.000000	0.027386
1683.000000	0.028564
1682.000000	0.029388
1681.000000	0.030087
1680.000000	0.030835
1679.000000	0.031610
1678.000000	0.032395
1677.000000	0.033292
1676.000000	0.034376
1675.000000	0.035518
1674.000000	0.036475
1673.000000	0.037236
1672.000000	0.038005
1671.000000	0.038946
1670.000000	0.040100
1669.000000	0.041327
1668.000000	0.042392
1667.000000	0.043219
1666.000000	0.043929
1665.000000	0.044714
1664.000000	0.045681
1663.000000	0.046757
1662.000000	0.047769
1661.000000	0.048614
1660.000000	0.049338
1659.000000	0.050031
1658.000000	0.050695
1657.000000	0.051269
1656.000000	0.051743
1655.000000	0.052290
1654.000000	0.053210
1653.000000	0.054556
1652.000000	0.055513
1651.000000	0.055766
1650.000000	0.055745
1649.000000	0.055812
1648.000000	0.056128
1647.000000	0.056680
1646.000000	0.057253
1645.000000	0.057641
1644.000000	0.057839
1643.000000	0.057922
1642.000000	0.057974
1641.000000	0.058042
1640.000000	0.058089
1639.000000	0.058053
1638.000000	0.057975
1637.000000	0.057999
1636.000000	0.058188
1635.000000	0.058361
1634.000000	0.058266
1633.000000	0.057941
1632.000000	0.057522
1631.000000	0.057074
1630.000000	0.056604
1629.000000	0.056100
1628.000000	0.055523
1627.000000	0.054860
1626.000000	0.054127
1625.000000	0.053340
1624.000000	0.052492
1623.000000	0.051595
1622.000000	0.050682
1621.000000	0.049738
1620.000000	0.048747
1619.000000	0.047722
1618.000000	0.046686
1617.000000	0.045644
1616.000000	0.044607
1615.000000	0.043622
1614.000000	0.042712
1613.000000	0.041823
1612.000000	0.040905
1611.000000	0.039979
1610.000000	0.039108
1609.000000	0.038285
1608.000000	0.037472
1607.000000	0.036702
1606.000000	0.036024
1605.000000	0.035406
1604.000000	0.034800
1603.000000	0.034232
1602.000000	0.033742
1601.000000	0.033303
1600.000000	0.032873
1599.000000	0.032477
1598.000000	0.032145
1597.000000	0.031853
1596.000000	0.031568
1595.000000	0.031325
1594.000000	0.031168
1593.000000	0.031061
1592.000000	0.030948
1591.000000	0.030856
1590.000000	0.030846
1589.000000	0.030901
1588.000000	0.030962
1587.000000	0.031035
1586.000000	0.031163
1585.000000	0.031320
1584.000000	0.031462
1583.000000	0.031631
1582.000000	0.031886
1581.000000	0.032163
1580.000000	0.032356
1579.000000	0.032483
1578.000000	0.032675
1577.000000	0.033026
1576.000000	0.033497
1575.000000	0.033968
1574.000000	0.034354
1573.000000	0.034651
1572.000000	0.034945
1571.000000	0.035350
1570.000000	0.035903
1569.000000	0.036450
1568.000000	0.036843
1567.000000	0.037188
1566.000000	0.037645
1565.000000	0.038205
1564.000000	0.038724
1563.000000	0.039124
1562.000000	0.039470
1561.000000	0.039880
1560.000000	0.040435
1559.000000	0.041355
1558.000000	0.042463
1557.000000	0.043152
1556.000000	0.043541
1555.000000	0.043948
1554.000000	0.044434
1553.000000	0.044886
1552.000000	0.045279
1551.000000	0.045684
1550.000000	0.046124
1549.000000	0.046514
1548.000000	0.046792
1547.000000	0.047020
1546.000000	0.047280
1545.000000	0.047568
1544.000000	0.047812
1543.000000	0.047956
1542.000000	0.048029
1541.000000	0.048162
1540.000000	0.048455
1539.000000	0.048770
1538.000000	0.048889
1537.000000	0.048835
1536.000000	0.048712
1535.000000	0.048601
1534.000000	0.048545
1533.000000	0.048529
1532.000000	0.048450
1531.000000	0.048250
1530.000000	0.048005
1529.000000	0.047806
1528.000000	0.047659
1527.000000	0.047509
1526.000000	0.047301
1525.000000	0.047034
1524.000000	0.046742
1523.000000	0.046472
1522.000000	0.046269
1521.000000	0.046143
1520.000000	0.045979
1519.000000	0.045715
1518.000000	0.045408
1517.000000	0.045125
1516.000000	0.044839
1515.000000	0.044462
1514.000000	0.043985
1513.000000	0.043474
1512.000000	0.042967
1511.000000	0.042423
1510.000000	0.041806
1509.000000	0.041133
1508.000000	0.040449
1507.000000	0.039782
1506.000000	0.039175
1505.000000	0.038583
1504.000000	0.038006
1503.000000	0.037434
1502.000000	0.036845
1501.000000	0.036246
1500.000000	0.035658
1499.000000	0.035046
1498.000000	0.034350
1497.000000	0.033631
1496.000000	0.032996
1495.000000	0.032415
1494.000000	0.031837
1493.000000	0.031295
1492.000000	0.030808
1491.000000	0.030323
1490.000000	0.029815
1489.000000	0.029395
1488.000000	0.029110
1487.000000	0.028860
1486.000000	0.028614
1485.000000	0.028424
1484.000000	0.028311
1483.000000	0.028268
1482.000000	0.028287
1481.000000	0.028386
1480.000000	0.028552
1479.000000	0.028753
1478.000000	0.029001
1477.000000	0.029336
1476.000000	0.029744
1475.000000	0.030169
1474.000000	0.030662
1473.000000	0.031343
1472.000000	0.032163
1471.000000	0.032879
1470.000000	0.033414
1469.000000	0.033892
1468.000000	0.034399
1467.000000	0.034911
1466.000000	0.035404
1465.000000	0.035888
1464.000000	0.036318
1463.000000	0.036615
1462.000000	0.036800
1461.000000	0.036989
1460.000000	0.037280
1459.000000	0.037737
1458.000000	0.038404
1457.000000	0.039231
1456.000000	0.039933
1455.000000	0.040317
1454.000000	0.040515
1453.000000	0.040689
1452.000000	0.040880
1451.000000	0.041035
1450.000000	0.041126
1449.000000	0.041201
1448.000000	0.041295
1447.000000	0.041368
1446.000000	0.041373
1445.000000	0.041327
1444.000000	0.041281
1443.000000	0.041241
1442.000000	0.041174
1441.000000	0.041059
1440.000000	0.040925
1439.000000	0.040810
1438.000000	0.040700
1437.000000	0.040547
1436.000000	0.040331
1435.000000	0.040044
1434.000000	0.039707
1433.000000	0.039377
1432.000000	0.039088
1431.000000	0.038832
1430.000000	0.038581
1429.000000	0.038335
1428.000000	0.038114
1427.000000	0.037920
1426.000000	0.037741
1425.000000	0.037557
1424.000000	0.037386
1423.000000	0.037252
1422.000000	0.037146
1421.000000	0.037069
1420.000000	0.037047
1419.000000	0.037068
1418.000000	0.037027
1417.000000	0.036881
1416.000000	0.036718
1415.000000	0.036593
1414.000000	0.036476
1413.000000	0.036340
1412.000000	0.036218
1411.000000	0.036143
1410.000000	0.036071
1409.000000	0.035965
1408.000000	0.035852
1407.000000	0.035770
1406.000000	0.035723
1405.000000	0.035682
1404.000000	0.035638
1403.000000	0.035584
1402.000000	0.035505
1401.000000	0.035402
1400.000000	0.035295
1399.000000	0.035195
1398.000000	0.035080
1397.000000	0.034945
1396.000000	0.034821
1395.000000	0.034718
1394.000000	0.034574
1393.000000	0.034318
1392.000000	0.033990
1391.000000	0.033668
1390.000000	0.033380
1389.000000	0.033115
1388.000000	0.032865
1387.000000	0.032625
1386.000000	0.032378
1385.000000	0.032105
1384.000000	0.031824
1383.000000	0.031561
1382.000000	0.031321
1381.000000	0.031095
1380.000000	0.030873
1379.000000	0.030639
1378.000000	0.030383
1377.000000	0.030103
1376.000000	0.029812
1375.000000	0.029525
1374.000000	0.029242
1373.000000	0.028931
1372.000000	0.028572
1371.000000	0.028178
1370.000000	0.027774
1369.000000	0.027354
1368.000000	0.026915
1367.000000	0.026485
1366.000000	0.026087
1365.000000	0.025712
1364.000000	0.025338
1363.000000	0.024965
1362.000000	0.024621
1361.000000	0.024324
1360.000000	0.024076
1359.000000	0.023880
1358.000000	0.023744
1357.000000	0.023668
1356.000000	0.023641
1355.000000	0.023651
1354.000000	0.023693
1353.000000	0.023761
1352.000000	0.023856
1351.000000	0.023974
1350.000000	0.024125
1349.000000	0.024302
1348.000000	0.024489
1347.000000	0.024678
1346.000000	0.024869
1345.000000	0.025058
1344.000000	0.025246
1343.000000	0.025440
1342.000000	0.025655
1341.000000	0.025895
1340.000000	0.026137
1339.000000	0.026345
1338.000000	0.026484
1337.000000	0.026544
1336.000000	0.026547
1335.000000	0.026526
1334.000000	0.026489
1333.000000	0.026421
1332.000000	0.026303
1331.000000	0.026144
1330.000000	0.025968
1329.000000	0.025793
1328.000000	0.025627
1327.000000	0.025473
1326.000000	0.025334
1325.000000	0.025207
1324.000000	0.025091
1323.000000	0.025001
1322.000000	0.024939
1321.000000	0.024889
1320.000000	0.024834
1319.000000	0.024775
1318.000000	0.024718
1317.000000	0.024660
1316.000000	0.024602
1315.000000	0.024546
1314.000000	0.024482
1313.000000	0.024397
1312.000000	0.024286
1311.000000	0.024163
1310.000000	0.024036
1309.000000	0.023904
1308.000000	0.023766
1307.000000	0.023632
1306.000000	0.023503
1305.000000	0.023364
1304.000000	0.023214
1303.000000	0.023064
1302.000000	0.022928
1301.000000	0.022802
1300.000000	0.022679
1299.000000	0.022563
1298.000000	0.022455
1297.000000	0.022357
1296.000000	0.022281
1295.000000	0.022244
1294.000000	0.022257
1293.000000	0.022308
1292.000000	0.022378
1291.000000	0.022457
1290.000000	0.022545
1289.000000	0.022642
1288.000000	0.022753
1287.000000	0.022878
1286.000000	0.023012
1285.000000	0.023144
1284.000000	0.023268
1283.000000	0.023387
1282.000000	0.023499
1281.000000	0.023599
1280.000000	0.023679
1279.000000	0.023735
1278.000000	0.023762
1277.000000	0.023766
1276.000000	0.023764
1275.000000	0.023770
1274.000000	0.023784
1273.000000	0.023789
1272.000000	0.023786
1271.000000	0.023793
1270.000000	0.023834
1269.000000	0.023914
1268.000000	0.024017
1267.000000	0.024121
1266.000000	0.024212
1265.000000	0.024301
1264.000000	0.024416
1263.000000	0.024574
1262.000000	0.024756
1261.000000	0.024934
1260.000000	0.025100
1259.000000	0.025276
1258.000000	0.025475
1257.000000	0.025687
1256.000000	0.025900
1255.000000	0.026109
1254.000000	0.026320
1253.000000	0.026530
1252.000000	0.026739
1251.000000	0.026948
1250.000000	0.027163
1249.000000	0.027388
1248.000000	0.027623
1247.000000	0.027869
1246.000000	0.028123
1245.000000	0.028379
1244.000000	0.028626
1243.000000	0.028851
1242.000000	0.029049
1241.000000	0.029218
1240.000000	0.029352
1239.000000	0.029445
1238.000000	0.029497
1237.000000	0.029523
1236.000000	0.029535
1235.000000	0.029527
1234.000000	0.029478
1233.000000	0.029379
1232.000000	0.029239
1231.000000	0.029064
1230.000000	0.028846
1229.000000	0.028576
1228.000000	0.028259
1227.000000	0.027912
1226.000000	0.027543
1225.000000	0.027150
1224.000000	0.026731
1223.000000	0.026284
1222.000000	0.025806
1221.000000	0.025304
1220.000000	0.024809
1219.000000	0.024366
1218.000000	0.024004
1217.000000	0.023726
1216.000000	0.023514
1215.000000	0.023357
1214.000000	0.023243
1213.000000	0.023163
1212.000000	0.023112
1211.000000	0.023085
1210.000000	0.023077
1209.000000	0.023086
1208.000000	0.023121
1207.000000	0.023178
1206.000000	0.023238
1205.000000	0.023279
1204.000000	0.023295
1203.000000	0.023295
1202.000000	0.023274
1201.000000	0.023214
1200.000000	0.023098
1199.000000	0.022926
1198.000000	0.022712
1197.000000	0.022476
1196.000000	0.022236
1195.000000	0.022002
1194.000000	0.021772
1193.000000	0.021534
1192.000000	0.021278
1191.000000	0.021000
1190.000000	0.020709
1189.000000	0.020424
1188.000000	0.020165
1187.000000	0.019931
1186.000000	0.019710
1185.000000	0.019496
1184.000000	0.019303
1183.000000	0.019143
1182.000000	0.019015
1181.000000	0.018913
1180.000000	0.018845
1179.000000	0.018820
1178.000000	0.018822
1177.000000	0.018825
1176.000000	0.018819
1175.000000	0.018819
1174.000000	0.018840
1173.000000	0.018883
1172.000000	0.018938
1171.000000	0.018989
1170.000000	0.019022
1169.000000	0.019046
1168.000000	0.019093
1167.000000	0.019193
1166.000000	0.019332
1165.000000	0.019471
1164.000000	0.019583
1163.000000	0.019667
1162.000000	0.019734
1161.000000	0.019786
1160.000000	0.019814
1159.000000	0.019809
1158.000000	0.019766
1157.000000	0.019688
1156.000000	0.019583
1155.000000	0.019455
1154.000000	0.019293
1153.000000	0.019093
1152.000000	0.018869
1151.000000	0.018640
1150.000000	0.018407
1149.000000	0.018159
1148.000000	0.017897
1147.000000	0.017639
1146.000000	0.017399
1145.000000	0.017178
1144.000000	0.016973
1143.000000	0.016781
1142.000000	0.016588
1141.000000	0.016385
1140.000000	0.016180
1139.000000	0.016005
1138.000000	0.015878
1137.000000	0.015793
1136.000000	0.015725
1135.000000	0.015654
1134.000000	0.015572
1133.000000	0.015493
1132.000000	0.015439
1131.000000	0.015425
1130.000000	0.015441
1129.000000	0.015463
1128.000000	0.015477
1127.000000	0.015482
1126.000000	0.015489
1125.000000	0.015516
1124.000000	0.015583
1123.000000	0.015691
1122.000000	0.015809
1121.000000	0.015897
1120.000000	0.015944
1119.000000	0.015980
1118.000000	0.016037
1117.000000	0.016127
1116.000000	0.016240
1115.000000	0.016357
1114.000000	0.016461
1113.000000	0.016545
1112.000000	0.016618
1111.000000	0.016696
1110.000000	0.016786
1109.000000	0.016885
1108.000000	0.016990
1107.000000	0.017094
1106.000000	0.017186
1105.000000	0.017263
1104.000000	0.017339
1103.000000	0.017428
1102.000000	0.017527
1101.000000	0.017616
1100.000000	0.017686
1099.000000	0.017736
1098.000000	0.017786
1097.000000	0.017855
1096.000000	0.017955
1095.000000	0.018077
1094.000000	0.018206
1093.000000	0.018357
1092.000000	0.018572
1091.000000	0.018879
1090.000000	0.019252
1089.000000	0.019637
1088.000000	0.019998
1087.000000	0.020342
1086.000000	0.020687
1085.000000	0.021030
1084.000000	0.021341
1083.000000	0.021581
1082.000000	0.021733
1081.000000	0.021806
1080.000000	0.021819
1079.000000	0.021767
1078.000000	0.021634
1077.000000	0.021425
1076.000000	0.021175
1075.000000	0.020921
1074.000000	0.020676
1073.000000	0.020439
1072.000000	0.020213
1071.000000	0.020012
1070.000000	0.019849
1069.000000	0.019728
1068.000000	0.019649
1067.000000	0.019608
1066.000000	0.019598
1065.000000	0.019626
1064.000000	0.019703
1063.000000	0.019818
1062.000000	0.019925
1061.000000	0.019985
1060.000000	0.020004
1059.000000	0.020012
1058.000000	0.020033
1057.000000	0.020063
1056.000000	0.020097
1055.000000	0.020134
1054.000000	0.020173
1053.000000	0.020211
1052.000000	0.020252
1051.000000	0.020300
1050.000000	0.020343
1049.000000	0.020363
1048.000000	0.020363
1047.000000	0.020367
1046.000000	0.020397
1045.000000	0.020446
1044.000000	0.020493
1043.000000	0.020528
1042.000000	0.020563
1041.000000	0.020623
1040.000000	0.020728
1039.000000	0.020882
1038.000000	0.021074
1037.000000	0.021290
1036.000000	0.021519
1035.000000	0.021747
1034.000000	0.021958
1033.000000	0.022146
1032.000000	0.022322
1031.000000	0.022490
1030.000000	0.022642
1029.000000	0.022763
1028.000000	0.022846
1027.000000	0.022901
1026.000000	0.022943
1025.000000	0.022988
1024.000000	0.023049
1023.000000	0.023130
1022.000000	0.023233
1021.000000	0.023346
1020.000000	0.023453
1019.000000	0.023528
1018.000000	0.023547
1017.000000	0.023493
1016.000000	0.023358
1015.000000	0.023138
1014.000000	0.022829
1013.000000	0.022442
1012.000000	0.021993
1011.000000	0.021504
1010.000000	0.020997
1009.000000	0.020498
1008.000000	0.020033
1007.000000	0.019606
1006.000000	0.019212
1005.000000	0.018843
1004.000000	0.018505
1003.000000	0.018204
1002.000000	0.017936
1001.000000	0.017686
1000.000000	0.017443
999.000000	0.017198
998.000000	0.016945
997.000000	0.016682
996.000000	0.016413
995.000000	0.016147
994.000000	0.015887
993.000000	0.015632
992.000000	0.015381
991.000000	0.015133
990.000000	0.014889
989.000000	0.014669
988.000000	0.014489
987.000000	0.014340
986.000000	0.014189
985.000000	0.014015
984.000000	0.013837
983.000000	0.013689
982.000000	0.013578
981.000000	0.013481
980.000000	0.013376
979.000000	0.013259
978.000000	0.013135
977.000000	0.013008
976.000000	0.012880
975.000000	0.012757
974.000000	0.012636
973.000000	0.012510
972.000000	0.012375
971.000000	0.012228
970.000000	0.012067
969.000000	0.011896
968.000000	0.011721
967.000000	0.011545
966.000000	0.011358
965.000000	0.011155
964.000000	0.010947
963.000000	0.010751
962.000000	0.010580
961.000000	0.010435
960.000000	0.010308
959.000000	0.010182
958.000000	0.010031
957.000000	0.009846
956.000000	0.009645
955.000000	0.009462
954.000000	0.009322
953.000000	0.009237
952.000000	0.009198
951.000000	0.009179
950.000000	0.009145
949.000000	0.009082
948.000000	0.009008
947.000000	0.008950
946.000000	0.008916
945.000000	0.008899
944.000000	0.008892
943.000000	0.008890
942.000000	0.008884
941.000000	0.008864
940.000000	0.008834
939.000000	0.008799
938.000000	0.008763
937.000000	0.008732
936.000000	0.008716
935.000000	0.008711
934.000000	0.008701
933.000000	0.008677
932.000000	0.008646
931.000000	0.008615
930.000000	0.008575
929.000000	0.008520
928.000000	0.008467
927.000000	0.008434
926.000000	0.008418
925.000000	0.008397
924.000000	0.008368
923.000000	0.008342
922.000000	0.008318
921.000000	0.008282
920.000000	0.008220
919.000000	0.008133
918.000000	0.008024
917.000000	0.007904
916.000000	0.007787
915.000000	0.007678
914.000000	0.007570
913.000000	0.007458
912.000000	0.007345
911.000000	0.007236
910.000000	0.007128
909.000000	0.007029
908.000000	0.006963
907.000000	0.006938
906.000000	0.006927
905.000000	0.006889
904.000000	0.006814
903.000000	0.006723
902.000000	0.006644
901.000000	0.006594
900.000000	0.006578
899.000000	0.006579
898.000000	0.006564
897.000000	0.006517
896.000000	0.006464
895.000000	0.006437
894.000000	0.006428
893.000000	0.006393
892.000000	0.006311
891.000000	0.006210
890.000000	0.006136
889.000000	0.006117
888.000000	0.006171
887.000000	0.006308
886.000000	0.006532
885.000000	0.006828
884.000000	0.007171
883.000000	0.007545
882.000000	0.007968
881.000000	0.008489
880.000000	0.009153
879.000000	0.009922
878.000000	0.010654
877.000000	0.011170
876.000000	0.011358
875.000000	0.011219
874.000000	0.010834
873.000000	0.010313
872.000000	0.009753
871.000000	0.009215
870.000000	0.008720
869.000000	0.008280
868.000000	0.007918
867.000000	0.007649
866.000000	0.007459
865.000000	0.007312
864.000000	0.007184
863.000000	0.007072
862.000000	0.006977
861.000000	0.006907
860.000000	0.006873
859.000000	0.006882
858.000000	0.006922
857.000000	0.006974
856.000000	0.007026
855.000000	0.007072
854.000000	0.007095
853.000000	0.007090
852.000000	0.007082
851.000000	0.007101
850.000000	0.007143
849.000000	0.007171
848.000000	0.007152
847.000000	0.007074
846.000000	0.006942
845.000000	0.006776
844.000000	0.006615
843.000000	0.006500
842.000000	0.006446
841.000000	0.006438
840.000000	0.006457
839.000000	0.006490
838.000000	0.006511
837.000000	0.006493
836.000000	0.006434
835.000000	0.006355
834.000000	0.006286
833.000000	0.006246
832.000000	0.006244
831.000000	0.006282
830.000000	0.006337
829.000000	0.006376
828.000000	0.006375
827.000000	0.006336
826.000000	0.006276
825.000000	0.006225
824.000000	0.006215
823.000000	0.006252
822.000000	0.006307
821.000000	0.006343
820.000000	0.006356
819.000000	0.006362
818.000000	0.006360
817.000000	0.006336
816.000000	0.006297
815.000000	0.006280
814.000000	0.006310
813.000000	0.006375
812.000000	0.006436
811.000000	0.006455
810.000000	0.006421
809.000000	0.006356
808.000000	0.006295
807.000000	0.006258
806.000000	0.006250
805.000000	0.006270
804.000000	0.006314
803.000000	0.006363
802.000000	0.006381
801.000000	0.006357
800.000000	0.006326
799.000000	0.006327
798.000000	0.006362
797.000000	0.006400
796.000000	0.006420
795.000000	0.006416
794.000000	0.006394
793.000000	0.006370
792.000000	0.006365
791.000000	0.006385
790.000000	0.006412
789.000000	0.006435
788.000000	0.006468
787.000000	0.006521
786.000000	0.006569
785.000000	0.006579
784.000000	0.006557
783.000000	0.006535
782.000000	0.006534
781.000000	0.006546
780.000000	0.006568
779.000000	0.006599
778.000000	0.006630
777.000000	0.006649
776.000000	0.006670
775.000000	0.006718
774.000000	0.006798
773.000000	0.006880
772.000000	0.006937
771.000000	0.006955
770.000000	0.006935
769.000000	0.006894
768.000000	0.006863
767.000000	0.006869
766.000000	0.006906
765.000000	0.006946
764.000000	0.006981
763.000000	0.007016
762.000000	0.007040
761.000000	0.007034
760.000000	0.007006
759.000000	0.006992
758.000000	0.007003
757.000000	0.007021
756.000000	0.007035
755.000000	0.007059
754.000000	0.007096
753.000000	0.007121
752.000000	0.007111
751.000000	0.007080
750.000000	0.007059
749.000000	0.007075
748.000000	0.007140
747.000000	0.007245
746.000000	0.007349
745.000000	0.007404
744.000000	0.007414
743.000000	0.007431
742.000000	0.007493
741.000000	0.007587
740.000000	0.007681
739.000000	0.007756
738.000000	0.007806
737.000000	0.007834
736.000000	0.007867
735.000000	0.007940
734.000000	0.008049
733.000000	0.008158
732.000000	0.008260
731.000000	0.008392
730.000000	0.008564
729.000000	0.008727
728.000000	0.008830
727.000000	0.008880
726.000000	0.008926
725.000000	0.009010
724.000000	0.009146
723.000000	0.009340
722.000000	0.009577
721.000000	0.009814
720.000000	0.009996
719.000000	0.010111
718.000000	0.010188
717.000000	0.010261
716.000000	0.010357
715.000000	0.010499
714.000000	0.010682
713.000000	0.010852
712.000000	0.010947
711.000000	0.010949
710.000000	0.010894
709.000000	0.010842
708.000000	0.010839
707.000000	0.010892
706.000000	0.010975
705.000000	0.011040
704.000000	0.011051
703.000000	0.011008
702.000000	0.010950
701.000000	0.010909
700.000000	0.010910
699.000000	0.010952
698.000000	0.011017
697.000000	0.011073
696.000000	0.011092
695.000000	0.011078
694.000000	0.011044
693.000000	0.010995
692.000000	0.010953
691.000000	0.010947
690.000000	0.010990
689.000000	0.011057
688.000000	0.011117
687.000000	0.011172
686.000000	0.011229
685.000000	0.011265
684.000000	0.011277
683.000000	0.011284
682.000000	0.011288
681.000000	0.011275
680.000000	0.011280
679.000000	0.011375
678.000000	0.011560
677.000000	0.011784
676.000000	0.012010
675.000000	0.012231
674.000000	0.012418
673.000000	0.012499
672.000000	0.012389
671.000000	0.012027
670.000000	0.011407
669.000000	0.010700
668.000000	0.010493
667.000000	0.011134
666.000000	0.011782
665.000000	0.012189
664.000000	0.012494
663.000000	0.012719
662.000000	0.012844
661.000000	0.012877
660.000000	0.012839
659.000000	0.012734
658.000000	0.012591
657.000000	0.012501
656.000000	0.012489
655.000000	0.012486
654.000000	0.012483
653.000000	0.012561
652.000000	0.012706
651.000000	0.012790
650.000000	0.012757
649.000000	0.012702
648.000000	0.012694
647.000000	0.012691
646.000000	0.012692
645.000000	0.012761
644.000000	0.012886
643.000000	0.012951
642.000000	0.012894
641.000000	0.012788
640.000000	0.012712
639.000000	0.012653
638.000000	0.012590
637.000000	0.012564
636.000000	0.012589
635.000000	0.012628
634.000000	0.012672
633.000000	0.012747
632.000000	0.012839
631.000000	0.012876
630.000000	0.012845
629.000000	0.012816
628.000000	0.012832
627.000000	0.012858
626.000000	0.012885
625.000000	0.012948
624.000000	0.013025
623.000000	0.013038
622.000000	0.012982
621.000000	0.012961
620.000000	0.013045
619.000000	0.013193
618.000000	0.013322
617.000000	0.013390
616.000000	0.013381
615.000000	0.013286
614.000000	0.013163
613.000000	0.013126
612.000000	0.013208
611.000000	0.013308
610.000000	0.013339
609.000000	0.013325
608.000000	0.013328
607.000000	0.013335
606.000000	0.013313
605.000000	0.013276
604.000000	0.013257
603.000000	0.013235
602.000000	0.013171
601.000000	0.013069
600.000000	0.012978
599.000000	0.012951
598.000000	0.012995
597.000000	0.013047
596.000000	0.013020
595.000000	0.012903
594.000000	0.012811
593.000000	0.012859
592.000000	0.013026
591.000000	0.013187
590.000000	0.013267
589.000000	0.013280
588.000000	0.013243
587.000000	0.013158
586.000000	0.013072
585.000000	0.013057
584.000000	0.013105
583.000000	0.013137
582.000000	0.013121
581.000000	0.013104
580.000000	0.013128
579.000000	0.013186
578.000000	0.013273
577.000000	0.013386
576.000000	0.013470
575.000000	0.013456
574.000000	0.013382
573.000000	0.013384
572.000000	0.013528
571.000000	0.013730
570.000000	0.013871
569.000000	0.013925
568.000000	0.013937
567.000000	0.013941
566.000000	0.013963
565.000000	0.014036
564.000000	0.014148
563.000000	0.014245
562.000000	0.014296
561.000000	0.014328
560.000000	0.014367
559.000000	0.014397
558.000000	0.014397
557.000000	0.014379
556.000000	0.014337
555.000000	0.014252
554.000000	0.014164
553.000000	0.014165
552.000000	0.014267
551.000000	0.014354
550.000000	0.014309
549.000000	0.014137
548.000000	0.013922
547.000000	0.013737
546.000000	0.013625
545.000000	0.013584
544.000000	0.013544
543.000000	0.013435
542.000000	0.013310
541.000000	0.013310
540.000000	0.013467
539.000000	0.013646
538.000000	0.013726
537.000000	0.013741
536.000000	0.013779
535.000000	0.013847
534.000000	0.013912
533.000000	0.014011
532.000000	0.014173
531.000000	0.014325
530.000000	0.014362
529.000000	0.014263
528.000000	0.014044
527.000000	0.013737
526.000000	0.013443
525.000000	0.013295
524.000000	0.013287
523.000000	0.013249
522.000000	0.013069
521.000000	0.012847
520.000000	0.012750
519.000000	0.012801
518.000000	0.012900
517.000000	0.012965
516.000000	0.012944
515.000000	0.012757
514.000000	0.012391
513.000000	0.011998
512.000000	0.011749
511.000000	0.011637
510.000000	0.011519
509.000000	0.011320
508.000000	0.011050
507.000000	0.010751
506.000000	0.010501
505.000000	0.010388
504.000000	0.010396
503.000000	0.010368
502.000000	0.010188
501.000000	0.009968
500.000000	0.009881
499.000000	0.009925
498.000000	0.009938
497.000000	0.009809
496.000000	0.009574
495.000000	0.009326
494.000000	0.009129
493.000000	0.008988
492.000000	0.008837
491.000000	0.008641
490.000000	0.008492
489.000000	0.008539
488.000000	0.008766
487.000000	0.008970
486.000000	0.009004
485.000000	0.008940
484.000000	0.008915
483.000000	0.008943
482.000000	0.008963
481.000000	0.008963
480.000000	0.008958
479.000000	0.008953
478.000000	0.008951
477.000000	0.008979
476.000000	0.009027
475.000000	0.009015
474.000000	0.008896
473.000000	0.008753
472.000000	0.008717
471.000000	0.008818
470.000000	0.008956
469.000000	0.009024
468.000000	0.008964
467.000000	0.008759
466.000000	0.008489
465.000000	0.008347
464.000000	0.008439
463.000000	0.008593
462.000000	0.008517
461.000000	0.008103
460.000000	0.007539
459.000000	0.007099
458.000000	0.006961
457.000000	0.007148
456.000000	0.007470
455.000000	0.007640
454.000000	0.007501
453.000000	0.006376
452.000000	0.006155
451.000000	0.006267
450.000000	0.006407
