PE UV       SUBTECH     SPECTRUM    ASCII       PEDS        4.00        
   -1
3C-XXX-C026.Sample.Raw.asc
23/09/06
08:58:46.00
23/09/06
08:58:46.00
Administrator

250.000000
1
Lambda 750
750N8071901
PerkinElmer UV WinLab 6.0.4.0738 / 1.61.00 Lambda 900

0
0
3350/servo 860.8/2
0
0
UV/VIS
1
1
1
CommonBeamDepol,150mm sphere / downward view
0
0
0
0
Program
Program
3350/servo 860.8/2
3350/0.2 860.8/0.2
3350/0.2 860.8/0.2
0
1
 
 
 
0
 
860.8
319.2
860.8
Front
100
on
 
 
0
0
0
 
0
 
 
 
0
 
 
0
0
0
0
0
 
 
 
 
0
0


0
0
#HDR
-1
-1
#GR
nm
%R
1.0
0.0
2500.000000
-10.000000
226
8
66.224879
13.787573
#DATA
2500.000000	13.787573
2490.000000	13.792117
2480.000000	14.144926
2470.000000	14.754964
2460.000000	15.297674
2450.000000	16.278891
2440.000000	16.939952
2430.000000	16.582914
2420.000000	17.369965
2410.000000	17.424757
2400.000000	16.724533
2390.000000	16.997449
2380.000000	17.602472
2370.000000	17.048663
2360.000000	17.526680
2350.000000	18.165868
2340.000000	17.735365
2330.000000	16.856506
2320.000000	17.001883
2310.000000	16.659399
2300.000000	16.510727
2290.000000	16.506287
2280.000000	16.719469
2270.000000	17.843381
2260.000000	18.963274
2250.000000	19.951682
2240.000000	20.414972
2230.000000	20.090630
2220.000000	19.383137
2210.000000	18.913204
2200.000000	18.380999
2190.000000	18.520488
2180.000000	19.411445
2170.000000	19.945049
2160.000000	20.995156
2150.000000	21.150072
2140.000000	21.707821
2130.000000	21.671059
2120.000000	21.893996
2110.000000	21.809732
2100.000000	21.395243
2090.000000	20.658896
2080.000000	19.649872
2070.000000	18.633795
2060.000000	18.016291
2050.000000	18.331713
2040.000000	18.639741
2030.000000	18.526188
2020.000000	17.963684
2010.000000	17.267023
2000.000000	16.464255
1990.000000	15.808367
1980.000000	15.132095
1970.000000	14.781657
1960.000000	14.537276
1950.000000	14.888248
1940.000000	15.833257
1930.000000	17.647071
1920.000000	20.737083
1910.000000	25.308433
1900.000000	29.855872
1890.000000	34.234769
1880.000000	37.281397
1870.000000	38.451993
1860.000000	38.829658
1850.000000	38.465683
1840.000000	38.124311
1830.000000	37.606684
1820.000000	37.085923
1810.000000	36.623552
1800.000000	36.237808
1790.000000	35.886435
1780.000000	35.419047
1770.000000	35.045992
1760.000000	34.590791
1750.000000	34.270721
1740.000000	34.594949
1730.000000	35.779183
1720.000000	36.553307
1710.000000	36.816240
1700.000000	37.772701
1690.000000	39.772194
1680.000000	41.589285
1670.000000	42.340287
1660.000000	42.407760
1650.000000	41.900887
1640.000000	41.145848
1630.000000	40.284000
1620.000000	39.283462
1610.000000	38.304364
1600.000000	37.494622
1590.000000	36.743752
1580.000000	36.048649
1570.000000	35.622368
1560.000000	34.985043
1550.000000	33.878899
1540.000000	32.878043
1530.000000	32.238839
1520.000000	31.830320
1510.000000	31.510543
1500.000000	31.334367
1490.000000	31.380890
1480.000000	31.536830
1470.000000	31.963489
1460.000000	32.750348
1450.000000	33.979325
1440.000000	35.888774
1430.000000	38.692330
1420.000000	42.384999
1410.000000	46.376016
1400.000000	49.751093
1390.000000	51.885358
1380.000000	53.142234
1370.000000	54.358090
1360.000000	55.598317
1350.000000	56.789180
1340.000000	57.746637
1330.000000	58.507581
1320.000000	59.084347
1310.000000	59.382048
1300.000000	59.357426
1290.000000	59.351380
1280.000000	59.371459
1270.000000	59.437997
1260.000000	59.382345
1250.000000	59.011547
1240.000000	58.658525
1230.000000	58.248311
1220.000000	57.548403
1210.000000	56.958374
1200.000000	56.761645
1190.000000	57.292945
1180.000000	58.483368
1170.000000	59.998891
1160.000000	61.282312
1150.000000	62.340418
1140.000000	63.067331
1130.000000	63.370150
1120.000000	63.517603
1110.000000	63.609504
1100.000000	63.637765
1090.000000	63.594900
1080.000000	63.488904
1070.000000	63.348551
1060.000000	63.216123
1050.000000	63.133527
1040.000000	63.060914
1030.000000	62.997159
1020.000000	63.058833
1010.000000	63.186311
1000.000000	63.323427
990.000000	63.525821
980.000000	63.813440
970.000000	64.139120
960.000000	64.462905
950.000000	64.671263
940.000000	64.798577
930.000000	64.827682
920.000000	64.987178
910.000000	65.168735
900.000000	65.487737
890.000000	65.666563
880.000000	65.798930
870.000000	66.185628
860.000000	66.224879
850.000000	65.072467
840.000000	65.368006
830.000000	65.537932
820.000000	65.257405
810.000000	65.219426
800.000000	65.350691
790.000000	65.153204
780.000000	65.184511
770.000000	65.305813
760.000000	65.400919
750.000000	65.431848
740.000000	65.504512
730.000000	65.341322
720.000000	65.384726
710.000000	65.455563
700.000000	65.408922
690.000000	65.505223
680.000000	65.274714
670.000000	65.253499
660.000000	65.266487
650.000000	65.112954
640.000000	65.112936
630.000000	65.022386
620.000000	64.949883
610.000000	64.775204
600.000000	64.734107
590.000000	64.630714
580.000000	64.445637
570.000000	64.340931
560.000000	64.154812
550.000000	64.006030
540.000000	63.801026
530.000000	63.546182
520.000000	63.347581
510.000000	62.975953
500.000000	62.624905
490.000000	62.192591
480.000000	61.908356
470.000000	61.159410
460.000000	60.221473
450.000000	59.262320
440.000000	57.705614
430.000000	55.787413
420.000000	53.609939
410.000000	51.408505
400.000000	49.488874
390.000000	47.242977
380.000000	44.990159
370.000000	42.428519
360.000000	39.802964
350.000000	37.239244
340.000000	34.729930
330.000000	32.499381
320.000000	31.248210
310.000000	29.256133
300.000000	25.446828
290.000000	21.149541
280.000000	19.749147
270.000000	20.544881
260.000000	21.544857
250.000000	22.845260
