PE UV       SUBTECH     SPECTRUM    ASCII       PEDS        4.00        
   -1
3C-XXX-C066.Sample.Raw.asc
23/09/06
11:14:15.00
23/09/06
11:14:15.00
Administrator

250.000000
1
Lambda 750
750N8071901
PerkinElmer UV WinLab 6.0.4.0738 / 1.61.00 Lambda 900

0
0
3350/servo 860.8/2
0
0
UV/VIS
1
1
1
CommonBeamDepol,150mm sphere / downward view
0
0
0
0
Program
Program
3350/servo 860.8/2
3350/0.2 860.8/0.2
3350/0.2 860.8/0.2
0
1
 
 
 
0
 
860.8
319.2
860.8
Front
100
on
 
 
0
0
0
 
0
 
 
 
0
 
 
0
0
0
0
0
 
 
 
 
0
0


0
0
#HDR
-1
-1
#GR
nm
%R
1.0
0.0
2500.000000
-10.000000
226
8
74.350486
21.598907
#DATA
2500.000000	21.740425
2490.000000	21.598907
2480.000000	22.114771
2470.000000	22.281597
2460.000000	23.343134
2450.000000	24.463810
2440.000000	25.369343
2430.000000	25.362993
2420.000000	25.317930
2410.000000	25.410464
2400.000000	26.191485
2390.000000	25.821354
2380.000000	25.912156
2370.000000	25.727503
2360.000000	25.997847
2350.000000	26.630635
2340.000000	26.388394
2330.000000	26.111865
2320.000000	25.731133
2310.000000	25.250008
2300.000000	24.822347
2290.000000	25.563574
2280.000000	25.494130
2270.000000	26.807784
2260.000000	28.093641
2250.000000	28.984473
2240.000000	29.524050
2230.000000	28.958401
2220.000000	28.359206
2210.000000	27.737625
2200.000000	27.332310
2190.000000	27.525866
2180.000000	28.310493
2170.000000	29.385858
2160.000000	30.148477
2150.000000	30.835457
2140.000000	31.264964
2130.000000	31.322586
2120.000000	31.512862
2110.000000	31.326495
2100.000000	30.997253
2090.000000	30.283869
2080.000000	29.081388
2070.000000	27.790641
2060.000000	27.164584
2050.000000	27.379737
2040.000000	27.901508
2030.000000	27.778292
2020.000000	27.171471
2010.000000	26.324887
2000.000000	25.289304
1990.000000	24.453415
1980.000000	23.591973
1970.000000	23.044673
1960.000000	22.650020
1950.000000	23.213079
1940.000000	24.505747
1930.000000	26.645393
1920.000000	30.390189
1910.000000	35.101277
1900.000000	39.775869
1890.000000	44.198662
1880.000000	47.190624
1870.000000	48.330905
1860.000000	48.632671
1850.000000	48.381157
1840.000000	48.039117
1830.000000	47.475932
1820.000000	47.016268
1810.000000	46.563381
1800.000000	46.247230
1790.000000	45.895672
1780.000000	45.441408
1770.000000	45.096125
1760.000000	44.670979
1750.000000	44.390103
1740.000000	44.750905
1730.000000	45.894073
1720.000000	46.641585
1710.000000	46.873707
1700.000000	47.778665
1690.000000	49.687733
1680.000000	51.422145
1670.000000	52.097548
1660.000000	52.183579
1650.000000	51.738585
1640.000000	51.040344
1630.000000	50.253145
1620.000000	49.307005
1610.000000	48.405947
1600.000000	47.606503
1590.000000	46.898585
1580.000000	46.243718
1570.000000	45.848753
1560.000000	45.265356
1550.000000	44.212496
1540.000000	43.224985
1530.000000	42.630206
1520.000000	42.208153
1510.000000	41.910704
1500.000000	41.794600
1490.000000	41.851847
1480.000000	42.013445
1470.000000	42.434059
1460.000000	43.217520
1450.000000	44.420900
1440.000000	46.212841
1430.000000	48.875983
1420.000000	52.343684
1410.000000	56.031077
1400.000000	59.091520
1390.000000	61.032741
1380.000000	62.183210
1370.000000	63.253767
1360.000000	64.321487
1350.000000	65.378533
1340.000000	66.214929
1330.000000	66.876020
1320.000000	67.367737
1310.000000	67.623717
1300.000000	67.624335
1290.000000	67.629988
1280.000000	67.641640
1270.000000	67.723637
1260.000000	67.676360
1250.000000	67.408453
1240.000000	67.132099
1230.000000	66.791744
1220.000000	66.188900
1210.000000	65.694555
1200.000000	65.528421
1190.000000	66.003883
1180.000000	67.080227
1170.000000	68.396146
1160.000000	69.495103
1150.000000	70.404920
1140.000000	71.055849
1130.000000	71.320715
1120.000000	71.466423
1110.000000	71.570206
1100.000000	71.625272
1090.000000	71.586672
1080.000000	71.523829
1070.000000	71.436912
1060.000000	71.346746
1050.000000	71.294634
1040.000000	71.284291
1030.000000	71.242898
1020.000000	71.296094
1010.000000	71.448448
1000.000000	71.584308
990.000000	71.785963
980.000000	72.069926
970.000000	72.377768
960.000000	72.667123
950.000000	72.839778
940.000000	73.007729
930.000000	73.089659
920.000000	73.242640
910.000000	73.453835
900.000000	73.740054
890.000000	73.792906
880.000000	74.023209
870.000000	74.264803
860.000000	74.350486
850.000000	73.559568
840.000000	73.497700
830.000000	73.564726
820.000000	73.237204
810.000000	73.516620
800.000000	73.375418
790.000000	73.688930
780.000000	73.516264
770.000000	73.815093
760.000000	73.856095
750.000000	73.941552
740.000000	73.912779
730.000000	73.895328
720.000000	74.085842
710.000000	74.101851
700.000000	74.066485
690.000000	74.108263
680.000000	74.076796
670.000000	74.105503
660.000000	74.111262
650.000000	74.025731
640.000000	74.025905
630.000000	74.096767
620.000000	74.072539
610.000000	73.939070
600.000000	73.891910
590.000000	73.904501
580.000000	73.760706
570.000000	73.783765
560.000000	73.670994
550.000000	73.575990
540.000000	73.482449
530.000000	73.278480
520.000000	73.113379
510.000000	72.818578
500.000000	72.751229
490.000000	72.322633
480.000000	72.215589
470.000000	71.673794
460.000000	70.896493
450.000000	70.246782
440.000000	68.951743
430.000000	67.471833
420.000000	65.768690
410.000000	64.024176
400.000000	62.590245
390.000000	60.967465
380.000000	59.309914
370.000000	57.373734
360.000000	55.068145
350.000000	53.051531
340.000000	50.378062
330.000000	48.766913
320.000000	48.149608
310.000000	47.078909
300.000000	40.807062
290.000000	32.748177
280.000000	28.106260
270.000000	28.276592
260.000000	29.310378
250.000000	30.368809
