PE UV       SUBTECH     SPECTRUM    ASCII       PEDS        4.00        
   -1
3C-XXX-C005.Sample.Raw.asc
23/09/05
15:02:49.00
23/09/05
15:02:49.00
Administrator

250.000000
1
Lambda 750
750N8071901
PerkinElmer UV WinLab 6.0.4.0738 / 1.61.00 Lambda 900

0
0
3350/servo 860.8/2
0
0
UV/VIS
1
1
1
CommonBeamDepol,150mm sphere / downward view
0
0
0
0
Program
Program
3350/servo 860.8/2
3350/0.2 860.8/0.2
3350/0.2 860.8/0.2
0
1
 
 
 
0
 
860.8
319.2
860.8
Front
100
on
 
 
0
0
0
 
0
 
 
 
0
 
 
0
0
0
0
0
 
 
 
 
0
0


0
0
#HDR
-1
-1
#GR
nm
%R
1.0
0.0
2500.000000
-10.000000
226
8
66.540284
16.045859
#DATA
2500.000000	16.045859
2490.000000	16.129357
2480.000000	16.830132
2470.000000	17.010855
2460.000000	17.261361
2450.000000	18.100432
2440.000000	18.162366
2430.000000	19.162092
2420.000000	19.224811
2410.000000	19.227783
2400.000000	18.969957
2390.000000	19.087520
2380.000000	19.339185
2370.000000	19.842212
2360.000000	19.723474
2350.000000	19.887519
2340.000000	19.424641
2330.000000	19.241219
2320.000000	19.403736
2310.000000	18.778121
2300.000000	18.345737
2290.000000	18.843648
2280.000000	19.394353
2270.000000	20.264888
2260.000000	21.481552
2250.000000	22.113739
2240.000000	22.233962
2230.000000	21.955684
2220.000000	21.535059
2210.000000	21.277253
2200.000000	20.819457
2190.000000	20.703203
2180.000000	21.395346
2170.000000	21.896180
2160.000000	22.956947
2150.000000	23.793566
2140.000000	23.927384
2130.000000	24.155662
2120.000000	23.996224
2110.000000	24.081009
2100.000000	23.535927
2090.000000	23.078412
2080.000000	21.994794
2070.000000	20.894894
2060.000000	20.361536
2050.000000	20.554781
2040.000000	20.979309
2030.000000	20.853703
2020.000000	20.371509
2010.000000	19.632256
2000.000000	18.787479
1990.000000	18.078439
1980.000000	17.408008
1970.000000	16.939361
1960.000000	16.709064
1950.000000	17.028736
1940.000000	18.042156
1930.000000	19.882203
1920.000000	23.120685
1910.000000	27.471707
1900.000000	32.158084
1890.000000	36.259706
1880.000000	39.056973
1870.000000	40.324083
1860.000000	40.580511
1850.000000	40.330711
1840.000000	39.919405
1830.000000	39.522601
1820.000000	38.981110
1810.000000	38.568105
1800.000000	38.250864
1790.000000	37.833874
1780.000000	37.468679
1770.000000	37.116269
1760.000000	36.673992
1750.000000	36.305603
1740.000000	36.731234
1730.000000	37.848471
1720.000000	38.563570
1710.000000	38.809328
1700.000000	39.674186
1690.000000	41.587761
1680.000000	43.335151
1670.000000	44.017520
1660.000000	44.077936
1650.000000	43.629502
1640.000000	42.956897
1630.000000	42.132101
1620.000000	41.252648
1610.000000	40.301777
1600.000000	39.530356
1590.000000	38.790929
1580.000000	38.141876
1570.000000	37.738118
1560.000000	37.147325
1550.000000	36.102990
1540.000000	35.169150
1530.000000	34.562768
1520.000000	34.146729
1510.000000	33.845796
1500.000000	33.674857
1490.000000	33.684374
1480.000000	33.871024
1470.000000	34.277743
1460.000000	35.015032
1450.000000	36.229823
1440.000000	38.019081
1430.000000	40.644219
1420.000000	44.134162
1410.000000	47.846412
1400.000000	51.001433
1390.000000	53.020726
1380.000000	54.156490
1370.000000	55.287122
1360.000000	56.408198
1350.000000	57.488074
1340.000000	58.351529
1330.000000	59.087622
1320.000000	59.643217
1310.000000	59.967095
1300.000000	59.978982
1290.000000	59.943078
1280.000000	59.962347
1270.000000	60.017807
1260.000000	59.963739
1250.000000	59.654728
1240.000000	59.414997
1230.000000	59.007506
1220.000000	58.422101
1210.000000	57.873682
1200.000000	57.717147
1190.000000	58.182523
1180.000000	59.247347
1170.000000	60.615921
1160.000000	61.814821
1150.000000	62.737944
1140.000000	63.408543
1130.000000	63.686322
1120.000000	63.826145
1110.000000	63.915913
1100.000000	63.949842
1090.000000	63.909394
1080.000000	63.839000
1070.000000	63.693191
1060.000000	63.614700
1050.000000	63.542103
1040.000000	63.487301
1030.000000	63.413704
1020.000000	63.447199
1010.000000	63.599897
1000.000000	63.735370
990.000000	63.942514
980.000000	64.140165
970.000000	64.502993
960.000000	64.777832
950.000000	64.989635
940.000000	65.093813
930.000000	65.223137
920.000000	65.339399
910.000000	65.567883
900.000000	65.942522
890.000000	65.989398
880.000000	66.346756
870.000000	66.396092
860.000000	66.540284
850.000000	65.373550
840.000000	66.050065
830.000000	65.980074
820.000000	65.803556
810.000000	65.924900
800.000000	65.846729
790.000000	65.888085
780.000000	65.896230
770.000000	66.015306
760.000000	66.145439
750.000000	66.142778
740.000000	66.193668
730.000000	66.204225
720.000000	66.219583
710.000000	66.448175
700.000000	66.386379
690.000000	66.419383
680.000000	66.269889
670.000000	66.298526
660.000000	66.363918
650.000000	66.390455
640.000000	66.395326
630.000000	66.344869
620.000000	66.301890
610.000000	66.227471
600.000000	66.190344
590.000000	66.153267
580.000000	66.089136
570.000000	65.953085
560.000000	65.909523
550.000000	65.749240
540.000000	65.612570
530.000000	65.476923
520.000000	65.249106
510.000000	65.093228
500.000000	64.832858
490.000000	64.493664
480.000000	64.366389
470.000000	63.842588
460.000000	63.095933
450.000000	62.279545
440.000000	61.147010
430.000000	59.407466
420.000000	57.583002
410.000000	55.800122
400.000000	53.983050
390.000000	52.222532
380.000000	50.249432
370.000000	48.285204
360.000000	45.484659
350.000000	42.971801
340.000000	40.529761
330.000000	38.987539
320.000000	37.161443
310.000000	35.684465
300.000000	33.115824
290.000000	27.558446
280.000000	24.401432
270.000000	25.126095
260.000000	25.941613
250.000000	27.524990
