PE UV       SUBTECH     SPECTRUM    ASCII       PEDS        4.00        
   -1
3C-XXX-C038.Sample.Raw.asc
23/09/06
09:36:30.00
23/09/06
09:36:30.00
Administrator

250.000000
1
Lambda 750
750N8071901
PerkinElmer UV WinLab 6.0.4.0738 / 1.61.00 Lambda 900

0
0
3350/servo 860.8/2
0
0
UV/VIS
1
1
1
CommonBeamDepol,150mm sphere / downward view
0
0
0
0
Program
Program
3350/servo 860.8/2
3350/0.2 860.8/0.2
3350/0.2 860.8/0.2
0
1
 
 
 
0
 
860.8
319.2
860.8
Front
100
on
 
 
0
0
0
 
0
 
 
 
0
 
 
0
0
0
0
0
 
 
 
 
0
0


0
0
#HDR
-1
-1
#GR
nm
%R
1.0
0.0
2500.000000
-10.000000
226
8
71.695149
23.288818
#DATA
2500.000000	23.651764
2490.000000	23.288818
2480.000000	23.829466
2470.000000	23.930857
2460.000000	24.055418
2450.000000	25.944346
2440.000000	26.096594
2430.000000	26.635168
2420.000000	26.988698
2410.000000	26.900108
2400.000000	26.637810
2390.000000	27.108386
2380.000000	27.191009
2370.000000	27.510198
2360.000000	27.783655
2350.000000	27.772543
2340.000000	27.824075
2330.000000	27.109234
2320.000000	26.681863
2310.000000	26.471841
2300.000000	26.372874
2290.000000	26.369094
2280.000000	26.876061
2270.000000	27.838386
2260.000000	29.380848
2250.000000	30.198737
2240.000000	30.739519
2230.000000	30.128457
2220.000000	29.683527
2210.000000	29.191572
2200.000000	28.429082
2190.000000	28.704714
2180.000000	29.529448
2170.000000	30.321242
2160.000000	31.277308
2150.000000	31.937749
2140.000000	32.419169
2130.000000	32.582002
2120.000000	32.678622
2110.000000	32.425005
2100.000000	32.146831
2090.000000	31.351406
2080.000000	30.323579
2070.000000	29.249790
2060.000000	28.486066
2050.000000	28.735907
2040.000000	29.120063
2030.000000	29.034638
2020.000000	28.360487
2010.000000	27.564644
2000.000000	26.529140
1990.000000	25.691550
1980.000000	24.922504
1970.000000	24.255692
1960.000000	24.017076
1950.000000	24.441701
1940.000000	25.818238
1930.000000	27.930999
1920.000000	31.515766
1910.000000	36.185689
1900.000000	40.567758
1890.000000	44.671822
1880.000000	47.309512
1870.000000	48.270330
1860.000000	48.551548
1850.000000	48.296164
1840.000000	47.952043
1830.000000	47.475424
1820.000000	47.041746
1810.000000	46.639560
1800.000000	46.361801
1790.000000	46.100200
1780.000000	45.665837
1770.000000	45.341983
1760.000000	44.951978
1750.000000	44.710148
1740.000000	45.021990
1730.000000	46.049830
1720.000000	46.739092
1710.000000	46.936516
1700.000000	47.795106
1690.000000	49.537719
1680.000000	51.091231
1670.000000	51.680597
1660.000000	51.758285
1650.000000	51.338217
1640.000000	50.708936
1630.000000	50.029917
1620.000000	49.172634
1610.000000	48.356215
1600.000000	47.661352
1590.000000	47.048470
1580.000000	46.444056
1570.000000	46.072944
1560.000000	45.490024
1550.000000	44.569864
1540.000000	43.652641
1530.000000	43.151989
1520.000000	42.782545
1510.000000	42.498469
1500.000000	42.411489
1490.000000	42.490303
1480.000000	42.632216
1470.000000	43.046106
1460.000000	43.778423
1450.000000	44.915053
1440.000000	46.561033
1430.000000	49.031721
1420.000000	52.118329
1410.000000	55.407454
1400.000000	58.106169
1390.000000	59.760256
1380.000000	60.774700
1370.000000	61.722107
1360.000000	62.694327
1350.000000	63.593891
1340.000000	64.352078
1330.000000	64.982739
1320.000000	65.414053
1310.000000	65.663649
1300.000000	65.667425
1290.000000	65.678558
1280.000000	65.680447
1270.000000	65.734694
1260.000000	65.696232
1250.000000	65.440935
1240.000000	65.201194
1230.000000	64.902420
1220.000000	64.382480
1210.000000	63.930782
1200.000000	63.814127
1190.000000	64.274188
1180.000000	65.160316
1170.000000	66.350707
1160.000000	67.333603
1150.000000	68.133187
1140.000000	68.705800
1130.000000	68.953040
1120.000000	69.056223
1110.000000	69.146030
1100.000000	69.195505
1090.000000	69.180254
1080.000000	69.096328
1070.000000	69.013845
1060.000000	68.907668
1050.000000	68.859887
1040.000000	68.850008
1030.000000	68.801886
1020.000000	68.851674
1010.000000	69.008754
1000.000000	69.109347
990.000000	69.302211
980.000000	69.535404
970.000000	69.832298
960.000000	70.123320
950.000000	70.281838
940.000000	70.364647
930.000000	70.461270
920.000000	70.633502
910.000000	70.764231
900.000000	71.079411
890.000000	71.259721
880.000000	71.421125
870.000000	71.688509
860.000000	71.568690
850.000000	71.166735
840.000000	71.215750
830.000000	71.256471
820.000000	71.129600
810.000000	71.026042
800.000000	71.279939
790.000000	71.146794
780.000000	71.372502
770.000000	71.366119
760.000000	71.463679
750.000000	71.316695
740.000000	71.578143
730.000000	71.439527
720.000000	71.635288
710.000000	71.477679
700.000000	71.637331
690.000000	71.695149
680.000000	71.634894
670.000000	71.585561
660.000000	71.633478
650.000000	71.570232
640.000000	71.564038
630.000000	71.620424
620.000000	71.642360
610.000000	71.560083
600.000000	71.545065
590.000000	71.543935
580.000000	71.449340
570.000000	71.399865
560.000000	71.335181
550.000000	71.298509
540.000000	71.209377
530.000000	71.025554
520.000000	70.897790
510.000000	70.752959
500.000000	70.628389
490.000000	70.382061
480.000000	70.216672
470.000000	69.821792
460.000000	69.168530
450.000000	68.634330
440.000000	67.508471
430.000000	66.215696
420.000000	64.758466
410.000000	63.226573
400.000000	62.037557
390.000000	60.611248
380.000000	59.059949
370.000000	57.320602
360.000000	54.974828
350.000000	52.680786
340.000000	50.270251
330.000000	48.292737
320.000000	47.381310
310.000000	45.872359
300.000000	40.482020
290.000000	32.450713
280.000000	27.501935
270.000000	27.626177
260.000000	28.465027
250.000000	29.405086
