PE UV       SUBTECH     SPECTRUM    ASCII       PEDS        4.00        
   -1
3C-XXX-C022.Sample.Raw.asc
23/09/06
08:47:31.00
23/09/06
08:47:31.00
Administrator

250.000000
1
Lambda 750
750N8071901
PerkinElmer UV WinLab 6.0.4.0738 / 1.61.00 Lambda 900

0
0
3350/servo 860.8/2
0
0
UV/VIS
1
1
1
CommonBeamDepol,150mm sphere / downward view
0
0
0
0
Program
Program
3350/servo 860.8/2
3350/0.2 860.8/0.2
3350/0.2 860.8/0.2
0
1
 
 
 
0
 
860.8
319.2
860.8
Front
100
on
 
 
0
0
0
 
0
 
 
 
0
 
 
0
0
0
0
0
 
 
 
 
0
0


0
0
#HDR
-1
-1
#GR
nm
%R
1.0
0.0
2500.000000
-10.000000
226
8
64.428653
18.233218
#DATA
2500.000000	18.233218
2490.000000	18.958949
2480.000000	18.526253
2470.000000	18.803110
2460.000000	19.444829
2450.000000	21.036841
2440.000000	20.725270
2430.000000	21.492019
2420.000000	21.361273
2410.000000	22.125204
2400.000000	21.525387
2390.000000	21.785765
2380.000000	21.986177
2370.000000	22.284612
2360.000000	22.092686
2350.000000	22.053593
2340.000000	22.154677
2330.000000	22.008812
2320.000000	21.397926
2310.000000	21.140506
2300.000000	20.789443
2290.000000	21.053249
2280.000000	21.613059
2270.000000	22.193317
2260.000000	23.697663
2250.000000	24.406839
2240.000000	24.773425
2230.000000	24.673459
2220.000000	24.032004
2210.000000	23.315910
2200.000000	23.248811
2190.000000	23.305336
2180.000000	23.938320
2170.000000	24.465480
2160.000000	25.267280
2150.000000	25.794578
2140.000000	26.294787
2130.000000	26.282478
2120.000000	26.489664
2110.000000	26.246254
2100.000000	26.102806
2090.000000	25.409883
2080.000000	24.272732
2070.000000	23.350638
2060.000000	22.773383
2050.000000	22.831955
2040.000000	23.249750
2030.000000	23.194824
2020.000000	22.647702
2010.000000	21.844964
2000.000000	21.040138
1990.000000	20.314554
1980.000000	19.612814
1970.000000	19.136876
1960.000000	18.936077
1950.000000	19.250563
1940.000000	20.385903
1930.000000	22.154361
1920.000000	25.428035
1910.000000	29.706831
1900.000000	33.947438
1890.000000	37.898301
1880.000000	40.491165
1870.000000	41.572744
1860.000000	41.845611
1850.000000	41.521385
1840.000000	41.211004
1830.000000	40.707551
1820.000000	40.298251
1810.000000	39.822999
1800.000000	39.573502
1790.000000	39.236884
1780.000000	38.866734
1770.000000	38.497208
1760.000000	38.087688
1750.000000	37.863555
1740.000000	38.131746
1730.000000	39.172085
1720.000000	39.856786
1710.000000	40.082499
1700.000000	40.891740
1690.000000	42.653982
1680.000000	44.193244
1670.000000	44.802947
1660.000000	44.872090
1650.000000	44.438010
1640.000000	43.784870
1630.000000	43.039905
1620.000000	42.174939
1610.000000	41.324730
1600.000000	40.619820
1590.000000	39.973064
1580.000000	39.360553
1570.000000	38.975932
1560.000000	38.380865
1550.000000	37.437491
1540.000000	36.562358
1530.000000	36.003286
1520.000000	35.647931
1510.000000	35.368157
1500.000000	35.235086
1490.000000	35.275693
1480.000000	35.386801
1470.000000	35.772292
1460.000000	36.483834
1450.000000	37.610841
1440.000000	39.276147
1430.000000	41.723730
1420.000000	44.900041
1410.000000	48.276835
1400.000000	51.081616
1390.000000	52.849984
1380.000000	53.905887
1370.000000	54.895360
1360.000000	55.889718
1350.000000	56.878615
1340.000000	57.636391
1330.000000	58.221005
1320.000000	58.651784
1310.000000	58.839490
1300.000000	58.806605
1290.000000	58.788932
1280.000000	58.790459
1270.000000	58.842754
1260.000000	58.790314
1250.000000	58.481062
1240.000000	58.212104
1230.000000	57.869130
1220.000000	57.303762
1210.000000	56.798554
1200.000000	56.643773
1190.000000	57.054942
1180.000000	58.037478
1170.000000	59.301690
1160.000000	60.321903
1150.000000	61.159097
1140.000000	61.757126
1130.000000	61.996459
1120.000000	62.122351
1110.000000	62.184183
1100.000000	62.201320
1090.000000	62.174074
1080.000000	62.086226
1070.000000	61.976885
1060.000000	61.906913
1050.000000	61.828724
1040.000000	61.810716
1030.000000	61.747850
1020.000000	61.805798
1010.000000	61.925757
1000.000000	62.019000
990.000000	62.189898
980.000000	62.433457
970.000000	62.708290
960.000000	62.960172
950.000000	63.137117
940.000000	63.255007
930.000000	63.300424
920.000000	63.402588
910.000000	63.604030
900.000000	63.864654
890.000000	64.003065
880.000000	64.155746
870.000000	64.360924
860.000000	64.428653
850.000000	62.973291
840.000000	63.062260
830.000000	62.968022
820.000000	62.828073
810.000000	62.889510
800.000000	62.894882
790.000000	62.908238
780.000000	62.901402
770.000000	62.963747
760.000000	62.921530
750.000000	62.981511
740.000000	63.037664
730.000000	62.888015
720.000000	62.924528
710.000000	62.875267
700.000000	62.946658
690.000000	62.977400
680.000000	62.792363
670.000000	62.701490
660.000000	62.629091
650.000000	62.566486
640.000000	62.534644
630.000000	62.514009
620.000000	62.492454
610.000000	62.303723
600.000000	62.252095
590.000000	62.137456
580.000000	61.983952
570.000000	61.909080
560.000000	61.781480
550.000000	61.629390
540.000000	61.464900
530.000000	61.241819
520.000000	61.071832
510.000000	60.828883
500.000000	60.575037
490.000000	60.213886
480.000000	60.132923
470.000000	59.497849
460.000000	58.760983
450.000000	58.043849
440.000000	56.927551
430.000000	55.542490
420.000000	53.879970
410.000000	52.275323
400.000000	50.842446
390.000000	49.237436
380.000000	47.549085
370.000000	45.624837
360.000000	43.420809
350.000000	41.536359
340.000000	39.286794
330.000000	37.427880
320.000000	36.509417
310.000000	35.407590
300.000000	30.751334
290.000000	25.038232
280.000000	22.168502
270.000000	22.691483
260.000000	23.473359
250.000000	24.753275
