PE UV       SUBTECH     SPECTRUM    ASCII       PEDS        4.00        
   -1
3C-XXX-F039.Sample.Raw.asc
23/09/06
15:51:43.00
23/09/06
15:51:43.00
Administrator

250.000000
1
Lambda 750
750N8071901
PerkinElmer UV WinLab 6.0.4.0738 / 1.61.00 Lambda 900

0
0
3350/servo 860.8/2
0
0
UV/VIS
1
1
1
CommonBeamDepol,150mm sphere / downward view
0
0
0
0
Program
Program
3350/servo 860.8/2
3350/0.2 860.8/0.2
3350/0.2 860.8/0.2
0
1
 
 
 
0
 
860.8
319.2
860.8
Front
100
on
 
 
0
0
0
 
0
 
 
 
0
 
 
0
0
0
0
0
 
 
 
 
0
0


0
0
#HDR
-1
-1
#GR
nm
%R
1.0
0.0
2500.000000
-10.000000
226
8
68.457713
13.793920
#DATA
2500.000000	14.798808
2490.000000	15.058260
2480.000000	15.314684
2470.000000	16.509083
2460.000000	16.270356
2450.000000	17.456764
2440.000000	17.835377
2430.000000	17.664495
2420.000000	19.348556
2410.000000	18.053527
2400.000000	18.304779
2390.000000	18.199976
2380.000000	18.613174
2370.000000	18.619634
2360.000000	18.343200
2350.000000	18.828792
2340.000000	18.252456
2330.000000	18.336844
2320.000000	18.483976
2310.000000	17.894195
2300.000000	17.215406
2290.000000	17.944594
2280.000000	18.069845
2270.000000	19.010473
2260.000000	20.388939
2250.000000	21.350041
2240.000000	21.382029
2230.000000	20.975108
2220.000000	20.813811
2210.000000	20.245458
2200.000000	19.792300
2190.000000	19.891897
2180.000000	20.544914
2170.000000	21.324349
2160.000000	22.059212
2150.000000	22.733444
2140.000000	23.197846
2130.000000	23.202810
2120.000000	23.301128
2110.000000	23.303684
2100.000000	22.982041
2090.000000	22.309706
2080.000000	21.381249
2070.000000	20.087696
2060.000000	19.591980
2050.000000	19.810129
2040.000000	20.391216
2030.000000	20.266309
2020.000000	19.722548
2010.000000	18.912806
2000.000000	18.115117
1990.000000	17.283862
1980.000000	16.692140
1970.000000	16.086156
1960.000000	15.829289
1950.000000	16.206351
1940.000000	17.236984
1930.000000	19.195917
1920.000000	22.322712
1910.000000	27.109742
1900.000000	31.809266
1890.000000	36.469667
1880.000000	39.748954
1870.000000	41.003607
1860.000000	41.312958
1850.000000	41.132143
1840.000000	40.601349
1830.000000	40.061519
1820.000000	39.531043
1810.000000	39.086857
1800.000000	38.643226
1790.000000	38.252328
1780.000000	37.747767
1770.000000	37.331960
1760.000000	36.876855
1750.000000	36.440286
1740.000000	36.836151
1730.000000	38.101727
1720.000000	38.891941
1710.000000	39.223758
1700.000000	40.184631
1690.000000	42.282340
1680.000000	44.321129
1670.000000	45.093355
1660.000000	45.179691
1650.000000	44.725404
1640.000000	43.956404
1630.000000	43.086526
1620.000000	42.044892
1610.000000	41.002033
1600.000000	40.116007
1590.000000	39.358167
1580.000000	38.641374
1570.000000	38.204274
1560.000000	37.579932
1550.000000	36.453741
1540.000000	35.389118
1530.000000	34.742163
1520.000000	34.302518
1510.000000	33.948819
1500.000000	33.815114
1490.000000	33.883986
1480.000000	34.085613
1470.000000	34.503918
1460.000000	35.292810
1450.000000	36.510228
1440.000000	38.402963
1430.000000	41.219032
1420.000000	44.999587
1410.000000	49.058876
1400.000000	52.504593
1390.000000	54.725566
1380.000000	55.980032
1370.000000	57.235455
1360.000000	58.430841
1350.000000	59.631041
1340.000000	60.573295
1330.000000	61.368609
1320.000000	61.921873
1310.000000	62.180904
1300.000000	62.169477
1290.000000	62.101194
1280.000000	62.139796
1270.000000	62.202924
1260.000000	62.146075
1250.000000	61.832905
1240.000000	61.470445
1230.000000	61.049883
1220.000000	60.344312
1210.000000	59.740176
1200.000000	59.505965
1190.000000	60.021907
1180.000000	61.213627
1170.000000	62.676323
1160.000000	63.995694
1150.000000	65.025873
1140.000000	65.777677
1130.000000	66.071229
1120.000000	66.201060
1110.000000	66.329766
1100.000000	66.355255
1090.000000	66.326511
1080.000000	66.226771
1070.000000	66.060575
1060.000000	65.934982
1050.000000	65.850371
1040.000000	65.767057
1030.000000	65.723099
1020.000000	65.766628
1010.000000	65.878922
1000.000000	66.028108
990.000000	66.243743
980.000000	66.480553
970.000000	66.779434
960.000000	67.092139
950.000000	67.255584
940.000000	67.336857
930.000000	67.446342
920.000000	67.492932
910.000000	67.670983
900.000000	67.915866
890.000000	68.065796
880.000000	68.254355
870.000000	68.339848
860.000000	68.457713
850.000000	67.066322
840.000000	67.428993
830.000000	67.328684
820.000000	67.279497
810.000000	67.230259
800.000000	67.207653
790.000000	67.343734
780.000000	67.256269
770.000000	67.140548
760.000000	67.057677
750.000000	67.209670
740.000000	67.227126
730.000000	67.112076
720.000000	67.100283
710.000000	66.992960
700.000000	66.833243
690.000000	66.842259
680.000000	66.659995
670.000000	66.681392
660.000000	66.581399
650.000000	66.393332
640.000000	66.227752
630.000000	66.136103
620.000000	65.976263
610.000000	65.735561
600.000000	65.581056
590.000000	65.340276
580.000000	65.107311
570.000000	64.843115
560.000000	64.548297
550.000000	64.161257
540.000000	63.874968
530.000000	63.438035
520.000000	63.019244
510.000000	62.547731
500.000000	62.011965
490.000000	61.431255
480.000000	60.979258
470.000000	60.021022
460.000000	59.048414
450.000000	57.714093
440.000000	56.068968
430.000000	53.938000
420.000000	51.529107
410.000000	49.172137
400.000000	46.818985
390.000000	44.261916
380.000000	41.582638
370.000000	38.741802
360.000000	35.692881
350.000000	33.127472
340.000000	30.260986
330.000000	27.783875
320.000000	25.755116
310.000000	23.808158
300.000000	20.778134
290.000000	16.108015
280.000000	14.000868
270.000000	13.793920
260.000000	13.888134
250.000000	14.000692
