PE UV       SUBTECH     SPECTRUM    ASCII       PEDS        4.00        
   -1
3C-XXX-C009.Sample.Raw.asc
23/09/05
15:27:27.00
23/09/05
15:27:27.00
Administrator

250.000000
1
Lambda 750
750N8071901
PerkinElmer UV WinLab 6.0.4.0738 / 1.61.00 Lambda 900

0
0
3350/servo 860.8/2
0
0
UV/VIS
1
1
1
CommonBeamDepol,150mm sphere / downward view
0
0
0
0
Program
Program
3350/servo 860.8/2
3350/0.2 860.8/0.2
3350/0.2 860.8/0.2
0
1
 
 
 
0
 
860.8
319.2
860.8
Front
100
on
 
 
0
0
0
 
0
 
 
 
0
 
 
0
0
0
0
0
 
 
 
 
0
0


0
0
#HDR
-1
-1
#GR
nm
%R
1.0
0.0
2500.000000
-10.000000
226
8
66.478024
18.338985
#DATA
2500.000000	18.338985
2490.000000	18.769387
2480.000000	18.437386
2470.000000	18.735068
2460.000000	18.998582
2450.000000	20.763179
2440.000000	20.406095
2430.000000	21.225682
2420.000000	20.895508
2410.000000	21.836362
2400.000000	21.340050
2390.000000	21.526915
2380.000000	21.470915
2370.000000	21.853369
2360.000000	21.929999
2350.000000	21.693699
2340.000000	22.104545
2330.000000	21.881442
2320.000000	21.450491
2310.000000	21.028892
2300.000000	20.842802
2290.000000	21.009725
2280.000000	21.366008
2270.000000	22.436071
2260.000000	23.723552
2250.000000	24.145207
2240.000000	24.484091
2230.000000	24.352790
2220.000000	23.598762
2210.000000	23.429447
2200.000000	22.701223
2190.000000	22.883496
2180.000000	23.471097
2170.000000	24.161281
2160.000000	25.276533
2150.000000	25.869746
2140.000000	26.231082
2130.000000	26.252339
2120.000000	26.253194
2110.000000	26.176165
2100.000000	25.656114
2090.000000	24.995594
2080.000000	24.096180
2070.000000	23.012711
2060.000000	22.527223
2050.000000	22.677861
2040.000000	23.109450
2030.000000	22.999016
2020.000000	22.331711
2010.000000	21.621635
2000.000000	20.844638
1990.000000	20.045340
1980.000000	19.353696
1970.000000	18.678070
1960.000000	18.579394
1950.000000	18.983756
1940.000000	20.097031
1930.000000	21.935497
1920.000000	25.170072
1910.000000	29.514129
1900.000000	33.927180
1890.000000	38.067812
1880.000000	40.755697
1870.000000	41.952635
1860.000000	42.149689
1850.000000	41.887216
1840.000000	41.528044
1830.000000	41.072377
1820.000000	40.579626
1810.000000	40.205377
1800.000000	39.862476
1790.000000	39.526237
1780.000000	39.149566
1770.000000	38.789996
1760.000000	38.393910
1750.000000	38.062438
1740.000000	38.416849
1730.000000	39.506583
1720.000000	40.207869
1710.000000	40.403377
1700.000000	41.243281
1690.000000	43.030399
1680.000000	44.718007
1670.000000	45.383410
1660.000000	45.433942
1650.000000	45.007824
1640.000000	44.361327
1630.000000	43.567557
1620.000000	42.693482
1610.000000	41.789940
1600.000000	41.068338
1590.000000	40.361975
1580.000000	39.738166
1570.000000	39.362850
1560.000000	38.780505
1550.000000	37.772484
1540.000000	36.859528
1530.000000	36.302300
1520.000000	35.878653
1510.000000	35.586152
1500.000000	35.433841
1490.000000	35.467945
1480.000000	35.612520
1470.000000	36.008639
1460.000000	36.720885
1450.000000	37.876175
1440.000000	39.576335
1430.000000	42.081644
1420.000000	45.398902
1410.000000	48.966404
1400.000000	51.973004
1390.000000	53.857434
1380.000000	54.957759
1370.000000	56.030445
1360.000000	57.085040
1350.000000	58.107690
1340.000000	58.937344
1330.000000	59.611933
1320.000000	60.057155
1310.000000	60.304913
1300.000000	60.283513
1290.000000	60.250399
1280.000000	60.264775
1270.000000	60.310120
1260.000000	60.257789
1250.000000	59.967845
1240.000000	59.690520
1230.000000	59.334165
1220.000000	58.754427
1210.000000	58.216966
1200.000000	58.031241
1190.000000	58.496786
1180.000000	59.517705
1170.000000	60.792100
1160.000000	61.945059
1150.000000	62.851909
1140.000000	63.491889
1130.000000	63.762530
1120.000000	63.889232
1110.000000	63.954467
1100.000000	63.991944
1090.000000	63.967323
1080.000000	63.892026
1070.000000	63.768116
1060.000000	63.694763
1050.000000	63.636454
1040.000000	63.609562
1030.000000	63.566171
1020.000000	63.585420
1010.000000	63.713775
1000.000000	63.847626
990.000000	64.044482
980.000000	64.263419
970.000000	64.553054
960.000000	64.829079
950.000000	64.980151
940.000000	65.109043
930.000000	65.219202
920.000000	65.305009
910.000000	65.508286
900.000000	65.893338
890.000000	65.921268
880.000000	66.166723
870.000000	66.220054
860.000000	66.478024
850.000000	65.119894
840.000000	65.576019
830.000000	65.218627
820.000000	65.090732
810.000000	65.131154
800.000000	65.221608
790.000000	65.265322
780.000000	65.137588
770.000000	65.433481
760.000000	65.369635
750.000000	65.359198
740.000000	65.257889
730.000000	65.389946
720.000000	65.494640
710.000000	65.481256
700.000000	65.504232
690.000000	65.600044
680.000000	65.397321
670.000000	65.348748
660.000000	65.407772
650.000000	65.299906
640.000000	65.311414
630.000000	65.344764
620.000000	65.278396
610.000000	65.123444
600.000000	65.116547
590.000000	65.018643
580.000000	64.937318
570.000000	64.805711
560.000000	64.711452
550.000000	64.569296
540.000000	64.414518
530.000000	64.294565
520.000000	64.074208
510.000000	63.851373
500.000000	63.646199
490.000000	63.302281
480.000000	63.101651
470.000000	62.621305
460.000000	61.861135
450.000000	61.148343
440.000000	59.985546
430.000000	58.345736
420.000000	56.651895
410.000000	55.058399
400.000000	53.305911
390.000000	51.679967
380.000000	49.910201
370.000000	48.205652
360.000000	45.787229
350.000000	43.487405
340.000000	41.013497
330.000000	39.344697
320.000000	38.126617
310.000000	36.825194
300.000000	32.004149
290.000000	26.538771
280.000000	23.602670
270.000000	24.113104
260.000000	24.999417
250.000000	26.464620
