PE UV       SUBTECH     SPECTRUM    ASCII       PEDS        4.00        
   -1
3C-XXX-F09.Sample.Raw.asc
23/09/06
14:15:16.00
23/09/06
14:15:16.00
Administrator

250.000000
1
Lambda 750
750N8071901
PerkinElmer UV WinLab 6.0.4.0738 / 1.61.00 Lambda 900

0
0
3350/servo 860.8/2
0
0
UV/VIS
1
1
1
CommonBeamDepol,150mm sphere / downward view
0
0
0
0
Program
Program
3350/servo 860.8/2
3350/0.2 860.8/0.2
3350/0.2 860.8/0.2
0
1
 
 
 
0
 
860.8
319.2
860.8
Front
100
on
 
 
0
0
0
 
0
 
 
 
0
 
 
0
0
0
0
0
 
 
 
 
0
0


0
0
#HDR
-1
-1
#GR
nm
%R
1.0
0.0
2500.000000
-10.000000
226
8
67.194704
12.813729
#DATA
2500.000000	12.813729
2490.000000	13.773617
2480.000000	14.625117
2470.000000	15.127406
2460.000000	15.101215
2450.000000	15.255643
2440.000000	16.313050
2430.000000	15.770600
2420.000000	16.787654
2410.000000	16.626515
2400.000000	16.395629
2390.000000	16.533731
2380.000000	16.621584
2370.000000	16.738240
2360.000000	16.460668
2350.000000	16.530135
2340.000000	17.107523
2330.000000	16.511734
2320.000000	16.571332
2310.000000	16.031514
2300.000000	15.880339
2290.000000	16.325694
2280.000000	16.261118
2270.000000	17.216263
2260.000000	18.548396
2250.000000	19.276953
2240.000000	19.104357
2230.000000	19.223385
2220.000000	18.903973
2210.000000	18.403817
2200.000000	17.896065
2190.000000	18.014641
2180.000000	18.764885
2170.000000	19.488254
2160.000000	19.755501
2150.000000	20.738761
2140.000000	20.827917
2130.000000	21.019076
2120.000000	20.990122
2110.000000	21.016032
2100.000000	20.771597
2090.000000	20.052792
2080.000000	19.259057
2070.000000	18.287789
2060.000000	17.767576
2050.000000	17.840496
2040.000000	18.376396
2030.000000	18.321925
2020.000000	17.758510
2010.000000	17.138612
2000.000000	16.442283
1990.000000	15.819106
1980.000000	15.220824
1970.000000	14.709573
1960.000000	14.622929
1950.000000	14.878389
1940.000000	15.749298
1930.000000	17.659054
1920.000000	20.273847
1910.000000	24.570099
1900.000000	29.183739
1890.000000	33.791645
1880.000000	36.771291
1870.000000	38.030222
1860.000000	38.346107
1850.000000	38.138278
1840.000000	37.633131
1830.000000	37.120523
1820.000000	36.571870
1810.000000	36.162335
1800.000000	35.720314
1790.000000	35.300891
1780.000000	34.891537
1770.000000	34.434833
1760.000000	33.971859
1750.000000	33.583068
1740.000000	33.974818
1730.000000	35.184057
1720.000000	36.006548
1710.000000	36.324423
1700.000000	37.299697
1690.000000	39.413378
1680.000000	41.450456
1670.000000	42.200153
1660.000000	42.258159
1650.000000	41.780420
1640.000000	41.047818
1630.000000	40.118507
1620.000000	39.071829
1610.000000	38.031441
1600.000000	37.185962
1590.000000	36.403558
1580.000000	35.699404
1570.000000	35.236458
1560.000000	34.588809
1550.000000	33.516802
1540.000000	32.481616
1530.000000	31.850466
1520.000000	31.425478
1510.000000	31.094893
1500.000000	30.948094
1490.000000	30.985704
1480.000000	31.186554
1470.000000	31.564498
1460.000000	32.357921
1450.000000	33.587423
1440.000000	35.459057
1430.000000	38.323640
1420.000000	42.170682
1410.000000	46.340520
1400.000000	49.925039
1390.000000	52.265424
1380.000000	53.606990
1370.000000	54.905216
1360.000000	56.222081
1350.000000	57.538334
1340.000000	58.555771
1330.000000	59.429152
1320.000000	60.055131
1310.000000	60.347600
1300.000000	60.346567
1290.000000	60.274555
1280.000000	60.272259
1270.000000	60.360712
1260.000000	60.319486
1250.000000	59.966080
1240.000000	59.542134
1230.000000	59.068683
1220.000000	58.296278
1210.000000	57.639695
1200.000000	57.435043
1190.000000	58.017465
1180.000000	59.317073
1170.000000	60.935748
1160.000000	62.390547
1150.000000	63.552601
1140.000000	64.345616
1130.000000	64.695695
1120.000000	64.854285
1110.000000	64.951921
1100.000000	64.992526
1090.000000	64.917456
1080.000000	64.803816
1070.000000	64.645488
1060.000000	64.506133
1050.000000	64.393415
1040.000000	64.308775
1030.000000	64.222410
1020.000000	64.235381
1010.000000	64.362709
1000.000000	64.541552
990.000000	64.734142
980.000000	65.010367
970.000000	65.363043
960.000000	65.694523
950.000000	65.881940
940.000000	65.963694
930.000000	66.054952
920.000000	66.124932
910.000000	66.397985
900.000000	66.541868
890.000000	66.820802
880.000000	66.893809
870.000000	67.130214
860.000000	67.194704
850.000000	66.177832
840.000000	66.640440
830.000000	66.622747
820.000000	66.636393
810.000000	66.488909
800.000000	66.553417
790.000000	66.485736
780.000000	66.503095
770.000000	66.442624
760.000000	66.385752
750.000000	66.584443
740.000000	66.354408
730.000000	66.355869
720.000000	66.291235
710.000000	66.315604
700.000000	66.245016
690.000000	66.057390
680.000000	65.946723
670.000000	65.923785
660.000000	65.768921
650.000000	65.643246
640.000000	65.506032
630.000000	65.274421
620.000000	65.136884
610.000000	64.922828
600.000000	64.737318
590.000000	64.478265
580.000000	64.219075
570.000000	63.926569
560.000000	63.585240
550.000000	63.178971
540.000000	62.836476
530.000000	62.413887
520.000000	61.963090
510.000000	61.425538
500.000000	60.852071
490.000000	60.309810
480.000000	59.766069
470.000000	58.753710
460.000000	57.770409
450.000000	56.439516
440.000000	54.616662
430.000000	52.522574
420.000000	50.013948
410.000000	47.646569
400.000000	45.298583
390.000000	42.599205
380.000000	39.991513
370.000000	37.118870
360.000000	34.157996
350.000000	31.482251
340.000000	28.864388
330.000000	26.727638
320.000000	24.512891
310.000000	23.216649
300.000000	20.371368
290.000000	16.511672
280.000000	14.794904
270.000000	14.469165
260.000000	14.509098
250.000000	14.472132
