PE UV       SUBTECH     SPECTRUM    ASCII       PEDS        4.00        
   -1
017-4C-XXX-NR005-F001.Sample.asc
24/01/17
15:00:09.00
24/01/17
15:00:09.00
Administrator

250.000000
1
Lambda 750
750N8071901
PerkinElmer UV WinLab 6.0.4.0738 / 1.61.00 Lambda 900

0
0
3350/servo 860.8/2
0
0
UV/VIS
1
1
1
CommonBeamDepol,150mm sphere / downward view
0
0
0
0
Program
Program
3350/servo 860.8/2
3350/0.2 860.8/0.2
3350/0.2 860.8/0.2
0
1
 
 
 
0
 
860.8
319.2
860.8
Front
100
on
 
 
0
0
0
 
0
 
 
 
0
 
 
0
0
0
0
0
 
 
 
 
0
0


0
0
#HDR
-1
-1
#GR
nm
%R
1.0
0.0
2500.000000
-10.000000
226
8
65.191855
4.194953
#DATA
2500.000000	8.354855
2490.000000	4.194953
2480.000000	6.277979
2470.000000	8.899252
2460.000000	7.797614
2450.000000	6.105012
2440.000000	9.455106
2430.000000	10.243946
2420.000000	12.794804
2410.000000	9.907860
2400.000000	7.991612
2390.000000	11.710529
2380.000000	9.550514
2370.000000	11.942020
2360.000000	10.169436
2350.000000	11.646326
2340.000000	9.527780
2330.000000	11.527142
2320.000000	9.402893
2310.000000	8.054441
2300.000000	10.424549
2290.000000	9.370086
2280.000000	10.017276
2270.000000	11.141825
2260.000000	14.388201
2250.000000	13.941041
2240.000000	14.696575
2230.000000	13.598400
2220.000000	13.005809
2210.000000	12.238554
2200.000000	12.366479
2190.000000	11.825947
2180.000000	12.146483
2170.000000	13.535511
2160.000000	15.944505
2150.000000	16.021498
2140.000000	16.696097
2130.000000	17.432308
2120.000000	16.664217
2110.000000	17.406950
2100.000000	17.275622
2090.000000	16.287343
2080.000000	15.202529
2070.000000	13.988222
2060.000000	13.122614
2050.000000	13.488055
2040.000000	14.457374
2030.000000	14.562666
2020.000000	13.614408
2010.000000	12.947066
2000.000000	12.089478
1990.000000	10.861643
1980.000000	10.225290
1970.000000	9.508604
1960.000000	9.432661
1950.000000	10.125108
1940.000000	11.807275
1930.000000	14.715527
1920.000000	19.529689
1910.000000	25.765511
1900.000000	31.740154
1890.000000	36.191293
1880.000000	38.903154
1870.000000	39.666444
1860.000000	39.912398
1850.000000	39.434839
1840.000000	39.100953
1830.000000	38.365316
1820.000000	37.608751
1810.000000	37.199121
1800.000000	36.699377
1790.000000	36.155204
1780.000000	35.347844
1770.000000	34.548039
1760.000000	33.670441
1750.000000	33.134923
1740.000000	33.617800
1730.000000	35.184870
1720.000000	35.988917
1710.000000	36.263522
1700.000000	37.794076
1690.000000	40.543388
1680.000000	43.154059
1670.000000	44.098639
1660.000000	44.078784
1650.000000	43.594162
1640.000000	42.832302
1630.000000	41.829119
1620.000000	40.568562
1610.000000	39.525037
1600.000000	38.608011
1590.000000	37.699219
1580.000000	37.018194
1570.000000	36.623414
1560.000000	35.988015
1550.000000	34.646911
1540.000000	33.446275
1530.000000	32.684542
1520.000000	32.217698
1510.000000	32.167166
1500.000000	32.429880
1490.000000	33.095058
1480.000000	33.708423
1470.000000	34.540873
1460.000000	35.636420
1450.000000	37.205406
1440.000000	39.456902
1430.000000	42.390016
1420.000000	45.933644
1410.000000	49.538518
1400.000000	52.454523
1390.000000	54.324074
1380.000000	55.489210
1370.000000	56.571298
1360.000000	57.790033
1350.000000	59.010206
1340.000000	60.243768
1330.000000	61.053077
1320.000000	61.256283
1310.000000	61.142232
1300.000000	60.905867
1290.000000	60.685074
1280.000000	60.803409
1270.000000	60.994281
1260.000000	60.948074
1250.000000	60.683245
1240.000000	60.303230
1230.000000	59.771392
1220.000000	59.074025
1210.000000	58.291086
1200.000000	58.115082
1190.000000	58.762328
1180.000000	59.901908
1170.000000	61.347597
1160.000000	62.396544
1150.000000	63.193872
1140.000000	63.979308
1130.000000	64.129183
1120.000000	64.274945
1110.000000	64.416384
1100.000000	64.429762
1090.000000	64.288276
1080.000000	64.167291
1070.000000	63.997843
1060.000000	63.855525
1050.000000	63.709617
1040.000000	63.592883
1030.000000	63.592704
1020.000000	63.637418
1010.000000	63.738836
1000.000000	63.939846
990.000000	64.153999
980.000000	64.263313
970.000000	64.387135
960.000000	64.578546
950.000000	64.653326
940.000000	64.595263
930.000000	64.624598
920.000000	64.728258
910.000000	64.788495
900.000000	64.759119
890.000000	65.176164
880.000000	64.972428
870.000000	64.899842
860.000000	65.191855
850.000000	65.132534
840.000000	65.015408
830.000000	65.014510
820.000000	64.721021
810.000000	64.450523
800.000000	64.715763
790.000000	64.791714
780.000000	64.531800
770.000000	64.112682
760.000000	64.236608
750.000000	64.188059
740.000000	64.017051
730.000000	63.791941
720.000000	63.664180
710.000000	63.320858
700.000000	63.007763
690.000000	62.613612
680.000000	62.272216
670.000000	61.659841
660.000000	61.201543
650.000000	60.722250
640.000000	59.927996
630.000000	59.280313
620.000000	58.461332
610.000000	57.966405
600.000000	57.422054
590.000000	56.837556
580.000000	56.191289
570.000000	55.462907
560.000000	54.743597
550.000000	54.112020
540.000000	53.249354
530.000000	52.327629
520.000000	51.347369
510.000000	50.257006
500.000000	48.886246
490.000000	47.392899
480.000000	45.757305
470.000000	43.661603
460.000000	41.437710
450.000000	38.930671
440.000000	35.963513
430.000000	32.880982
420.000000	29.490628
410.000000	26.997868
400.000000	25.760473
390.000000	24.677183
380.000000	23.294540
370.000000	21.583287
360.000000	20.067330
350.000000	18.186899
340.000000	16.928576
330.000000	14.947612
320.000000	13.949735
310.000000	13.344614
300.000000	11.618195
290.000000	8.528306
280.000000	7.663753
270.000000	8.124636
260.000000	8.991977
250.000000	8.988144
