PE UV       SUBTECH     SPECTRUM    ASCII       PEDS        4.00        
   -1
017-2S-XXX-NR005-F001.Sample.asc
24/01/17
15:14:49.00
24/01/17
15:14:49.00
Administrator

250.000000
1
Lambda 750
750N8071901
PerkinElmer UV WinLab 6.0.4.0738 / 1.61.00 Lambda 900

0
0
3350/servo 860.8/2
0
0
UV/VIS
1
1
1
CommonBeamDepol,150mm sphere / downward view
0
0
0
0
Program
Program
3350/servo 860.8/2
3350/0.2 860.8/0.2
3350/0.2 860.8/0.2
0
1
 
 
 
0
 
860.8
319.2
860.8
Front
100
on
 
 
0
0
0
 
0
 
 
 
0
 
 
0
0
0
0
0
 
 
 
 
0
0


0
0
#HDR
-1
-1
#GR
nm
%R
1.0
0.0
2500.000000
-10.000000
226
8
66.901839
11.064644
#DATA
2500.000000	15.651360
2490.000000	15.337565
2480.000000	16.982840
2470.000000	17.973281
2460.000000	15.580987
2450.000000	17.504156
2440.000000	19.488486
2430.000000	20.165385
2420.000000	19.982949
2410.000000	20.482568
2400.000000	19.256116
2390.000000	20.708341
2380.000000	18.688383
2370.000000	21.211583
2360.000000	20.794424
2350.000000	21.857711
2340.000000	19.386271
2330.000000	19.829504
2320.000000	18.556254
2310.000000	17.395801
2300.000000	18.101628
2290.000000	17.886510
2280.000000	17.990786
2270.000000	20.838547
2260.000000	24.002189
2250.000000	24.391579
2240.000000	24.731711
2230.000000	24.464170
2220.000000	22.732657
2210.000000	22.402676
2200.000000	21.230182
2190.000000	21.103883
2180.000000	21.911956
2170.000000	23.768971
2160.000000	26.051773
2150.000000	27.002823
2140.000000	28.402973
2130.000000	28.440355
2120.000000	28.259568
2110.000000	28.452176
2100.000000	28.527607
2090.000000	27.031857
2080.000000	25.547665
2070.000000	23.685247
2060.000000	22.818081
2050.000000	23.661179
2040.000000	24.944199
2030.000000	25.032667
2020.000000	24.131211
2010.000000	23.154882
2000.000000	21.727721
1990.000000	20.278667
1980.000000	19.181977
1970.000000	17.939063
1960.000000	17.514514
1950.000000	18.229788
1940.000000	20.752131
1930.000000	24.717219
1920.000000	30.455149
1910.000000	36.842606
1900.000000	43.018818
1890.000000	47.074898
1880.000000	49.582939
1870.000000	50.463950
1860.000000	50.393346
1850.000000	50.109471
1840.000000	49.691834
1830.000000	49.283797
1820.000000	48.733921
1810.000000	48.332133
1800.000000	47.842685
1790.000000	47.181688
1780.000000	46.643174
1770.000000	46.018571
1760.000000	45.190807
1750.000000	44.700466
1740.000000	45.270779
1730.000000	46.524415
1720.000000	47.178285
1710.000000	47.512185
1700.000000	48.649941
1690.000000	50.767585
1680.000000	52.639487
1670.000000	53.367222
1660.000000	53.485638
1650.000000	53.102061
1640.000000	52.529831
1630.000000	51.816679
1620.000000	50.889286
1610.000000	50.067740
1600.000000	49.344189
1590.000000	48.655984
1580.000000	48.135260
1570.000000	47.750897
1560.000000	47.268867
1550.000000	46.135432
1540.000000	45.087017
1530.000000	44.366549
1520.000000	43.968823
1510.000000	43.929976
1500.000000	44.175850
1490.000000	44.771894
1480.000000	45.347103
1470.000000	46.103017
1460.000000	47.073823
1450.000000	48.325379
1440.000000	50.044902
1430.000000	52.216732
1420.000000	54.704686
1410.000000	57.203489
1400.000000	59.101898
1390.000000	60.320230
1380.000000	60.919457
1370.000000	61.516500
1360.000000	62.277148
1350.000000	63.272911
1340.000000	63.890461
1330.000000	64.186912
1320.000000	64.126347
1310.000000	63.934174
1300.000000	63.705307
1290.000000	63.711783
1280.000000	63.800115
1270.000000	63.909825
1260.000000	63.870121
1250.000000	63.713060
1240.000000	63.472917
1230.000000	63.303575
1220.000000	62.969827
1210.000000	62.553744
1200.000000	62.352557
1190.000000	62.624420
1180.000000	63.409423
1170.000000	64.106949
1160.000000	64.700822
1150.000000	65.102547
1140.000000	65.414221
1130.000000	65.619836
1120.000000	65.673770
1110.000000	65.801214
1100.000000	65.749314
1090.000000	65.606424
1080.000000	65.564513
1070.000000	65.515552
1060.000000	65.414047
1050.000000	65.425470
1040.000000	65.381172
1030.000000	65.292437
1020.000000	65.340935
1010.000000	65.478284
1000.000000	65.578909
990.000000	65.692461
980.000000	65.746633
970.000000	65.912664
960.000000	65.971270
950.000000	66.114271
940.000000	66.111893
930.000000	66.160159
920.000000	66.251744
910.000000	66.399262
900.000000	66.482073
890.000000	66.659284
880.000000	66.401867
870.000000	66.398966
860.000000	66.901839
850.000000	65.965543
840.000000	66.420173
830.000000	66.333392
820.000000	66.331075
810.000000	65.896335
800.000000	66.255676
790.000000	66.177220
780.000000	66.218718
770.000000	66.076186
760.000000	66.302573
750.000000	66.406902
740.000000	66.344819
730.000000	66.355036
720.000000	66.480332
710.000000	66.337483
700.000000	66.408929
690.000000	66.311125
680.000000	66.527589
670.000000	66.347333
660.000000	66.379082
650.000000	66.382233
640.000000	66.301562
630.000000	66.339783
620.000000	66.224191
610.000000	66.193393
600.000000	66.161262
590.000000	66.133507
580.000000	66.049512
570.000000	65.837113
560.000000	65.646735
550.000000	65.510301
540.000000	65.226558
530.000000	65.015669
520.000000	64.627701
510.000000	64.270853
500.000000	63.887269
490.000000	63.254396
480.000000	62.785678
470.000000	62.038095
460.000000	61.283525
450.000000	60.214867
440.000000	59.016107
430.000000	57.459274
420.000000	55.517835
410.000000	53.118188
400.000000	50.340657
390.000000	47.349014
380.000000	44.014779
370.000000	40.694086
360.000000	36.738636
350.000000	33.963135
340.000000	30.306848
330.000000	25.039128
320.000000	20.632828
310.000000	18.295831
300.000000	16.983863
290.000000	12.763233
280.000000	11.064644
270.000000	11.775444
260.000000	12.969291
250.000000	13.918549
