PE IR       SUBTECH     SPECTRUM    ASCII       PEDS        4.00        
   -1
3C-H10-C002_1.ASC
22/02/24
11:29:16.00
22/02/24
11:45:28.00
uco
Sample 011 By uco Date Thursday, February 24 2022
450.000000
#HDR
-1
-1
#GR
cm-1
A
1.0
0.0
4000.000000
-1.000000
3551
8
0.038939
0.006354
#DATA
4000.000000	0.006999
3999.000000	0.007013
3998.000000	0.007034
3997.000000	0.007048
3996.000000	0.007047
3995.000000	0.007034
3994.000000	0.007018
3993.000000	0.007008
3992.000000	0.007011
3991.000000	0.007023
3990.000000	0.007033
3989.000000	0.007033
3988.000000	0.007022
3987.000000	0.007007
3986.000000	0.006997
3985.000000	0.007001
3984.000000	0.007016
3983.000000	0.007038
3982.000000	0.007058
3981.000000	0.007075
3980.000000	0.007093
3979.000000	0.007117
3978.000000	0.007144
3977.000000	0.007167
3976.000000	0.007172
3975.000000	0.007154
3974.000000	0.007118
3973.000000	0.007078
3972.000000	0.007047
3971.000000	0.007033
3970.000000	0.007036
3969.000000	0.007055
3968.000000	0.007086
3967.000000	0.007122
3966.000000	0.007151
3965.000000	0.007166
3964.000000	0.007169
3963.000000	0.007166
3962.000000	0.007162
3961.000000	0.007155
3960.000000	0.007141
3959.000000	0.007119
3958.000000	0.007094
3957.000000	0.007078
3956.000000	0.007075
3955.000000	0.007085
3954.000000	0.007099
3953.000000	0.007113
3952.000000	0.007125
3951.000000	0.007138
3950.000000	0.007153
3949.000000	0.007160
3948.000000	0.007152
3947.000000	0.007131
3946.000000	0.007107
3945.000000	0.007095
3944.000000	0.007103
3943.000000	0.007133
3942.000000	0.007175
3941.000000	0.007213
3940.000000	0.007231
3939.000000	0.007226
3938.000000	0.007205
3937.000000	0.007182
3936.000000	0.007167
3935.000000	0.007159
3934.000000	0.007154
3933.000000	0.007145
3932.000000	0.007134
3931.000000	0.007129
3930.000000	0.007128
3929.000000	0.007128
3928.000000	0.007122
3927.000000	0.007111
3926.000000	0.007103
3925.000000	0.007104
3924.000000	0.007117
3923.000000	0.007138
3922.000000	0.007158
3921.000000	0.007167
3920.000000	0.007162
3919.000000	0.007149
3918.000000	0.007138
3917.000000	0.007132
3916.000000	0.007130
3915.000000	0.007128
3914.000000	0.007123
3913.000000	0.007116
3912.000000	0.007113
3911.000000	0.007116
3910.000000	0.007126
3909.000000	0.007137
3908.000000	0.007140
3907.000000	0.007134
3906.000000	0.007123
3905.000000	0.007115
3904.000000	0.007120
3903.000000	0.007139
3902.000000	0.007164
3901.000000	0.007183
3900.000000	0.007191
3899.000000	0.007193
3898.000000	0.007201
3897.000000	0.007212
3896.000000	0.007221
3895.000000	0.007220
3894.000000	0.007204
3893.000000	0.007180
3892.000000	0.007160
3891.000000	0.007155
3890.000000	0.007166
3889.000000	0.007182
3888.000000	0.007196
3887.000000	0.007205
3886.000000	0.007203
3885.000000	0.007193
3884.000000	0.007186
3883.000000	0.007183
3882.000000	0.007183
3881.000000	0.007189
3880.000000	0.007206
3879.000000	0.007228
3878.000000	0.007237
3877.000000	0.007223
3876.000000	0.007193
3875.000000	0.007159
3874.000000	0.007137
3873.000000	0.007131
3872.000000	0.007139
3871.000000	0.007149
3870.000000	0.007153
3869.000000	0.007158
3868.000000	0.007172
3867.000000	0.007196
3866.000000	0.007224
3865.000000	0.007243
3864.000000	0.007247
3863.000000	0.007240
3862.000000	0.007231
3861.000000	0.007219
3860.000000	0.007201
3859.000000	0.007171
3858.000000	0.007129
3857.000000	0.007086
3856.000000	0.007061
3855.000000	0.007057
3854.000000	0.007069
3853.000000	0.007108
3852.000000	0.007165
3851.000000	0.007208
3850.000000	0.007225
3849.000000	0.007223
3848.000000	0.007214
3847.000000	0.007202
3846.000000	0.007194
3845.000000	0.007195
3844.000000	0.007207
3843.000000	0.007223
3842.000000	0.007234
3841.000000	0.007234
3840.000000	0.007221
3839.000000	0.007200
3838.000000	0.007177
3837.000000	0.007156
3836.000000	0.007133
3835.000000	0.007115
3834.000000	0.007114
3833.000000	0.007135
3832.000000	0.007173
3831.000000	0.007216
3830.000000	0.007252
3829.000000	0.007269
3828.000000	0.007266
3827.000000	0.007249
3826.000000	0.007232
3825.000000	0.007228
3824.000000	0.007242
3823.000000	0.007264
3822.000000	0.007270
3821.000000	0.007255
3820.000000	0.007236
3819.000000	0.007221
3818.000000	0.007211
3817.000000	0.007204
3816.000000	0.007190
3815.000000	0.007169
3814.000000	0.007149
3813.000000	0.007139
3812.000000	0.007148
3811.000000	0.007168
3810.000000	0.007187
3809.000000	0.007200
3808.000000	0.007210
3807.000000	0.007225
3806.000000	0.007248
3805.000000	0.007269
3804.000000	0.007280
3803.000000	0.007274
3802.000000	0.007248
3801.000000	0.007217
3800.000000	0.007194
3799.000000	0.007168
3798.000000	0.007131
3797.000000	0.007087
3796.000000	0.007049
3795.000000	0.007030
3794.000000	0.007031
3793.000000	0.007048
3792.000000	0.007074
3791.000000	0.007100
3790.000000	0.007120
3789.000000	0.007128
3788.000000	0.007121
3787.000000	0.007104
3786.000000	0.007087
3785.000000	0.007079
3784.000000	0.007087
3783.000000	0.007110
3782.000000	0.007140
3781.000000	0.007159
3780.000000	0.007156
3779.000000	0.007136
3778.000000	0.007114
3777.000000	0.007100
3776.000000	0.007088
3775.000000	0.007073
3774.000000	0.007051
3773.000000	0.007029
3772.000000	0.007017
3771.000000	0.007022
3770.000000	0.007045
3769.000000	0.007078
3768.000000	0.007104
3767.000000	0.007107
3766.000000	0.007091
3765.000000	0.007072
3764.000000	0.007064
3763.000000	0.007069
3762.000000	0.007074
3761.000000	0.007069
3760.000000	0.007060
3759.000000	0.007066
3758.000000	0.007096
3757.000000	0.007132
3756.000000	0.007152
3755.000000	0.007151
3754.000000	0.007137
3753.000000	0.007120
3752.000000	0.007116
3751.000000	0.007147
3750.000000	0.007211
3749.000000	0.007263
3748.000000	0.007272
3747.000000	0.007256
3746.000000	0.007253
3745.000000	0.007273
3744.000000	0.007295
3743.000000	0.007285
3742.000000	0.007232
3741.000000	0.007166
3740.000000	0.007121
3739.000000	0.007120
3738.000000	0.007156
3737.000000	0.007194
3736.000000	0.007184
3735.000000	0.007117
3734.000000	0.007039
3733.000000	0.006999
3732.000000	0.007005
3731.000000	0.007029
3730.000000	0.007045
3729.000000	0.007049
3728.000000	0.007053
3727.000000	0.007067
3726.000000	0.007086
3725.000000	0.007105
3724.000000	0.007111
3723.000000	0.007096
3722.000000	0.007066
3721.000000	0.007033
3720.000000	0.007009
3719.000000	0.006998
3718.000000	0.007000
3717.000000	0.007012
3716.000000	0.007028
3715.000000	0.007048
3714.000000	0.007079
3713.000000	0.007123
3712.000000	0.007172
3711.000000	0.007211
3710.000000	0.007224
3709.000000	0.007208
3708.000000	0.007177
3707.000000	0.007145
3706.000000	0.007121
3705.000000	0.007098
3704.000000	0.007067
3703.000000	0.007022
3702.000000	0.006971
3701.000000	0.006939
3700.000000	0.006939
3699.000000	0.006970
3698.000000	0.007016
3697.000000	0.007060
3696.000000	0.007088
3695.000000	0.007102
3694.000000	0.007105
3693.000000	0.007090
3692.000000	0.007053
3691.000000	0.007006
3690.000000	0.006981
3689.000000	0.007011
3688.000000	0.007081
3687.000000	0.007142
3686.000000	0.007167
3685.000000	0.007164
3684.000000	0.007153
3683.000000	0.007148
3682.000000	0.007155
3681.000000	0.007179
3680.000000	0.007231
3679.000000	0.007321
3678.000000	0.007443
3677.000000	0.007551
3676.000000	0.007586
3675.000000	0.007548
3674.000000	0.007491
3673.000000	0.007446
3672.000000	0.007423
3671.000000	0.007408
3670.000000	0.007389
3669.000000	0.007375
3668.000000	0.007366
3667.000000	0.007353
3666.000000	0.007332
3665.000000	0.007309
3664.000000	0.007285
3663.000000	0.007263
3662.000000	0.007244
3661.000000	0.007229
3660.000000	0.007219
3659.000000	0.007209
3658.000000	0.007203
3657.000000	0.007207
3656.000000	0.007236
3655.000000	0.007295
3654.000000	0.007374
3653.000000	0.007459
3652.000000	0.007532
3651.000000	0.007565
3650.000000	0.007544
3649.000000	0.007500
3648.000000	0.007469
3647.000000	0.007462
3646.000000	0.007472
3645.000000	0.007495
3644.000000	0.007526
3643.000000	0.007562
3642.000000	0.007600
3641.000000	0.007634
3640.000000	0.007658
3639.000000	0.007671
3638.000000	0.007677
3637.000000	0.007686
3636.000000	0.007702
3635.000000	0.007719
3634.000000	0.007734
3633.000000	0.007752
3632.000000	0.007786
3631.000000	0.007836
3630.000000	0.007882
3629.000000	0.007901
3628.000000	0.007901
3627.000000	0.007894
3626.000000	0.007880
3625.000000	0.007869
3624.000000	0.007868
3623.000000	0.007870
3622.000000	0.007869
3621.000000	0.007868
3620.000000	0.007884
3619.000000	0.007932
3618.000000	0.008006
3617.000000	0.008079
3616.000000	0.008131
3615.000000	0.008159
3614.000000	0.008173
3613.000000	0.008188
3612.000000	0.008222
3611.000000	0.008281
3610.000000	0.008356
3609.000000	0.008416
3608.000000	0.008436
3607.000000	0.008420
3606.000000	0.008392
3605.000000	0.008376
3604.000000	0.008380
3603.000000	0.008399
3602.000000	0.008424
3601.000000	0.008447
3600.000000	0.008469
3599.000000	0.008496
3598.000000	0.008535
3597.000000	0.008583
3596.000000	0.008631
3595.000000	0.008663
3594.000000	0.008675
3593.000000	0.008678
3592.000000	0.008690
3591.000000	0.008722
3590.000000	0.008762
3589.000000	0.008787
3588.000000	0.008789
3587.000000	0.008792
3586.000000	0.008821
3585.000000	0.008876
3584.000000	0.008940
3583.000000	0.009004
3582.000000	0.009059
3581.000000	0.009100
3580.000000	0.009128
3579.000000	0.009151
3578.000000	0.009183
3577.000000	0.009231
3576.000000	0.009294
3575.000000	0.009363
3574.000000	0.009427
3573.000000	0.009477
3572.000000	0.009514
3571.000000	0.009549
3570.000000	0.009595
3569.000000	0.009651
3568.000000	0.009702
3567.000000	0.009736
3566.000000	0.009759
3565.000000	0.009777
3564.000000	0.009791
3563.000000	0.009803
3562.000000	0.009815
3561.000000	0.009828
3560.000000	0.009851
3559.000000	0.009890
3558.000000	0.009948
3557.000000	0.010018
3556.000000	0.010087
3555.000000	0.010146
3554.000000	0.010197
3553.000000	0.010241
3552.000000	0.010274
3551.000000	0.010293
3550.000000	0.010306
3549.000000	0.010329
3548.000000	0.010370
3547.000000	0.010425
3546.000000	0.010480
3545.000000	0.010525
3544.000000	0.010563
3543.000000	0.010604
3542.000000	0.010650
3541.000000	0.010694
3540.000000	0.010725
3539.000000	0.010736
3538.000000	0.010738
3537.000000	0.010748
3536.000000	0.010776
3535.000000	0.010818
3534.000000	0.010859
3533.000000	0.010891
3532.000000	0.010916
3531.000000	0.010949
3530.000000	0.011005
3529.000000	0.011085
3528.000000	0.011174
3527.000000	0.011253
3526.000000	0.011307
3525.000000	0.011337
3524.000000	0.011349
3523.000000	0.011354
3522.000000	0.011363
3521.000000	0.011389
3520.000000	0.011437
3519.000000	0.011495
3518.000000	0.011546
3517.000000	0.011579
3516.000000	0.011597
3515.000000	0.011611
3514.000000	0.011632
3513.000000	0.011662
3512.000000	0.011701
3511.000000	0.011750
3510.000000	0.011811
3509.000000	0.011882
3508.000000	0.011953
3507.000000	0.012012
3506.000000	0.012054
3505.000000	0.012080
3504.000000	0.012100
3503.000000	0.012118
3502.000000	0.012137
3501.000000	0.012153
3500.000000	0.012165
3499.000000	0.012174
3498.000000	0.012181
3497.000000	0.012192
3496.000000	0.012214
3495.000000	0.012253
3494.000000	0.012312
3493.000000	0.012386
3492.000000	0.012460
3491.000000	0.012518
3490.000000	0.012553
3489.000000	0.012564
3488.000000	0.012564
3487.000000	0.012569
3486.000000	0.012593
3485.000000	0.012641
3484.000000	0.012702
3483.000000	0.012761
3482.000000	0.012809
3481.000000	0.012852
3480.000000	0.012895
3479.000000	0.012936
3478.000000	0.012966
3477.000000	0.012982
3476.000000	0.012991
3475.000000	0.013011
3474.000000	0.013052
3473.000000	0.013113
3472.000000	0.013177
3471.000000	0.013229
3470.000000	0.013263
3469.000000	0.013288
3468.000000	0.013314
3467.000000	0.013347
3466.000000	0.013382
3465.000000	0.013412
3464.000000	0.013436
3463.000000	0.013459
3462.000000	0.013483
3461.000000	0.013506
3460.000000	0.013523
3459.000000	0.013542
3458.000000	0.013580
3457.000000	0.013642
3456.000000	0.013717
3455.000000	0.013783
3454.000000	0.013827
3453.000000	0.013848
3452.000000	0.013853
3451.000000	0.013852
3450.000000	0.013856
3449.000000	0.013882
3448.000000	0.013938
3447.000000	0.014019
3446.000000	0.014111
3445.000000	0.014194
3444.000000	0.014253
3443.000000	0.014279
3442.000000	0.014282
3441.000000	0.014280
3440.000000	0.014291
3439.000000	0.014318
3438.000000	0.014354
3437.000000	0.014390
3436.000000	0.014425
3435.000000	0.014463
3434.000000	0.014505
3433.000000	0.014549
3432.000000	0.014593
3431.000000	0.014638
3430.000000	0.014690
3429.000000	0.014751
3428.000000	0.014812
3427.000000	0.014861
3426.000000	0.014895
3425.000000	0.014923
3424.000000	0.014958
3423.000000	0.015000
3422.000000	0.015039
3421.000000	0.015070
3420.000000	0.015093
3419.000000	0.015115
3418.000000	0.015136
3417.000000	0.015159
3416.000000	0.015184
3415.000000	0.015212
3414.000000	0.015240
3413.000000	0.015267
3412.000000	0.015297
3411.000000	0.015337
3410.000000	0.015386
3409.000000	0.015440
3408.000000	0.015490
3407.000000	0.015534
3406.000000	0.015572
3405.000000	0.015606
3404.000000	0.015640
3403.000000	0.015676
3402.000000	0.015713
3401.000000	0.015749
3400.000000	0.015786
3399.000000	0.015824
3398.000000	0.015865
3397.000000	0.015908
3396.000000	0.015949
3395.000000	0.015988
3394.000000	0.016026
3393.000000	0.016063
3392.000000	0.016099
3391.000000	0.016131
3390.000000	0.016154
3389.000000	0.016167
3388.000000	0.016178
3387.000000	0.016200
3386.000000	0.016240
3385.000000	0.016294
3384.000000	0.016355
3383.000000	0.016410
3382.000000	0.016450
3381.000000	0.016468
3380.000000	0.016475
3379.000000	0.016488
3378.000000	0.016525
3377.000000	0.016587
3376.000000	0.016656
3375.000000	0.016713
3374.000000	0.016754
3373.000000	0.016789
3372.000000	0.016832
3371.000000	0.016888
3370.000000	0.016948
3369.000000	0.017002
3368.000000	0.017047
3367.000000	0.017090
3366.000000	0.017134
3365.000000	0.017180
3364.000000	0.017223
3363.000000	0.017267
3362.000000	0.017317
3361.000000	0.017375
3360.000000	0.017434
3359.000000	0.017484
3358.000000	0.017521
3357.000000	0.017552
3356.000000	0.017588
3355.000000	0.017632
3354.000000	0.017682
3353.000000	0.017733
3352.000000	0.017783
3351.000000	0.017834
3350.000000	0.017890
3349.000000	0.017955
3348.000000	0.018032
3347.000000	0.018115
3346.000000	0.018191
3345.000000	0.018246
3344.000000	0.018280
3343.000000	0.018309
3342.000000	0.018350
3341.000000	0.018405
3340.000000	0.018463
3339.000000	0.018517
3338.000000	0.018563
3337.000000	0.018601
3336.000000	0.018636
3335.000000	0.018675
3334.000000	0.018724
3333.000000	0.018783
3332.000000	0.018843
3331.000000	0.018891
3330.000000	0.018919
3329.000000	0.018929
3328.000000	0.018932
3327.000000	0.018945
3326.000000	0.018983
3325.000000	0.019046
3324.000000	0.019116
3323.000000	0.019178
3322.000000	0.019225
3321.000000	0.019264
3320.000000	0.019305
3319.000000	0.019356
3318.000000	0.019422
3317.000000	0.019500
3316.000000	0.019582
3315.000000	0.019658
3314.000000	0.019718
3313.000000	0.019759
3312.000000	0.019782
3311.000000	0.019795
3310.000000	0.019801
3309.000000	0.019800
3308.000000	0.019790
3307.000000	0.019783
3306.000000	0.019799
3305.000000	0.019852
3304.000000	0.019931
3303.000000	0.020015
3302.000000	0.020082
3301.000000	0.020124
3300.000000	0.020143
3299.000000	0.020142
3298.000000	0.020128
3297.000000	0.020112
3296.000000	0.020110
3295.000000	0.020130
3294.000000	0.020171
3293.000000	0.020224
3292.000000	0.020274
3291.000000	0.020309
3290.000000	0.020326
3289.000000	0.020333
3288.000000	0.020342
3287.000000	0.020355
3286.000000	0.020368
3285.000000	0.020375
3284.000000	0.020375
3283.000000	0.020372
3282.000000	0.020369
3281.000000	0.020365
3280.000000	0.020355
3279.000000	0.020339
3278.000000	0.020323
3277.000000	0.020307
3276.000000	0.020287
3275.000000	0.020253
3274.000000	0.020201
3273.000000	0.020138
3272.000000	0.020076
3271.000000	0.020034
3270.000000	0.020021
3269.000000	0.020034
3268.000000	0.020053
3267.000000	0.020056
3266.000000	0.020029
3265.000000	0.019979
3264.000000	0.019924
3263.000000	0.019881
3262.000000	0.019854
3261.000000	0.019835
3260.000000	0.019806
3259.000000	0.019764
3258.000000	0.019715
3257.000000	0.019669
3256.000000	0.019630
3255.000000	0.019591
3254.000000	0.019544
3253.000000	0.019490
3252.000000	0.019435
3251.000000	0.019384
3250.000000	0.019339
3249.000000	0.019297
3248.000000	0.019254
3247.000000	0.019210
3246.000000	0.019166
3245.000000	0.019123
3244.000000	0.019082
3243.000000	0.019038
3242.000000	0.018990
3241.000000	0.018946
3240.000000	0.018910
3239.000000	0.018882
3238.000000	0.018850
3237.000000	0.018811
3236.000000	0.018772
3235.000000	0.018747
3234.000000	0.018737
3233.000000	0.018729
3232.000000	0.018705
3231.000000	0.018658
3230.000000	0.018599
3229.000000	0.018547
3228.000000	0.018516
3227.000000	0.018502
3226.000000	0.018493
3225.000000	0.018472
3224.000000	0.018437
3223.000000	0.018393
3222.000000	0.018350
3221.000000	0.018312
3220.000000	0.018279
3219.000000	0.018255
3218.000000	0.018241
3217.000000	0.018235
3216.000000	0.018226
3215.000000	0.018205
3214.000000	0.018172
3213.000000	0.018136
3212.000000	0.018106
3211.000000	0.018081
3210.000000	0.018054
3209.000000	0.018021
3208.000000	0.017985
3207.000000	0.017953
3206.000000	0.017930
3205.000000	0.017914
3204.000000	0.017900
3203.000000	0.017884
3202.000000	0.017867
3201.000000	0.017856
3200.000000	0.017847
3199.000000	0.017831
3198.000000	0.017794
3197.000000	0.017738
3196.000000	0.017676
3195.000000	0.017629
3194.000000	0.017602
3193.000000	0.017590
3192.000000	0.017582
3191.000000	0.017563
3190.000000	0.017529
3189.000000	0.017485
3188.000000	0.017440
3187.000000	0.017401
3186.000000	0.017363
3185.000000	0.017317
3184.000000	0.017264
3183.000000	0.017212
3182.000000	0.017169
3181.000000	0.017134
3180.000000	0.017103
3179.000000	0.017068
3178.000000	0.017021
3177.000000	0.016952
3176.000000	0.016869
3175.000000	0.016797
3174.000000	0.016758
3173.000000	0.016752
3172.000000	0.016755
3171.000000	0.016744
3170.000000	0.016715
3169.000000	0.016675
3168.000000	0.016630
3167.000000	0.016579
3166.000000	0.016519
3165.000000	0.016453
3164.000000	0.016391
3163.000000	0.016342
3162.000000	0.016312
3161.000000	0.016298
3160.000000	0.016292
3159.000000	0.016282
3158.000000	0.016261
3157.000000	0.016223
3156.000000	0.016170
3155.000000	0.016111
3154.000000	0.016059
3153.000000	0.016023
3152.000000	0.016005
3151.000000	0.015996
3150.000000	0.015976
3149.000000	0.015934
3148.000000	0.015873
3147.000000	0.015809
3146.000000	0.015756
3145.000000	0.015718
3144.000000	0.015693
3143.000000	0.015675
3142.000000	0.015660
3141.000000	0.015647
3140.000000	0.015633
3139.000000	0.015619
3138.000000	0.015600
3137.000000	0.015572
3136.000000	0.015531
3135.000000	0.015481
3134.000000	0.015431
3133.000000	0.015386
3132.000000	0.015348
3131.000000	0.015321
3130.000000	0.015308
3129.000000	0.015309
3128.000000	0.015315
3127.000000	0.015315
3126.000000	0.015302
3125.000000	0.015274
3124.000000	0.015234
3123.000000	0.015186
3122.000000	0.015140
3121.000000	0.015106
3120.000000	0.015090
3119.000000	0.015095
3118.000000	0.015110
3117.000000	0.015121
3116.000000	0.015123
3115.000000	0.015120
3114.000000	0.015118
3113.000000	0.015114
3112.000000	0.015101
3111.000000	0.015081
3110.000000	0.015065
3109.000000	0.015063
3108.000000	0.015073
3107.000000	0.015085
3106.000000	0.015093
3105.000000	0.015095
3104.000000	0.015092
3103.000000	0.015081
3102.000000	0.015061
3101.000000	0.015037
3100.000000	0.015018
3099.000000	0.015021
3098.000000	0.015054
3097.000000	0.015112
3096.000000	0.015171
3095.000000	0.015211
3094.000000	0.015219
3093.000000	0.015199
3092.000000	0.015168
3091.000000	0.015146
3090.000000	0.015147
3089.000000	0.015174
3088.000000	0.015213
3087.000000	0.015245
3086.000000	0.015255
3085.000000	0.015240
3084.000000	0.015214
3083.000000	0.015196
3082.000000	0.015193
3081.000000	0.015201
3080.000000	0.015209
3079.000000	0.015212
3078.000000	0.015211
3077.000000	0.015212
3076.000000	0.015214
3075.000000	0.015214
3074.000000	0.015212
3073.000000	0.015210
3072.000000	0.015214
3071.000000	0.015223
3070.000000	0.015227
3069.000000	0.015218
3068.000000	0.015194
3067.000000	0.015166
3066.000000	0.015148
3065.000000	0.015144
3064.000000	0.015151
3063.000000	0.015159
3062.000000	0.015159
3061.000000	0.015144
3060.000000	0.015111
3059.000000	0.015067
3058.000000	0.015020
3057.000000	0.014979
3056.000000	0.014950
3055.000000	0.014935
3054.000000	0.014928
3053.000000	0.014917
3052.000000	0.014890
3051.000000	0.014848
3050.000000	0.014804
3049.000000	0.014768
3048.000000	0.014739
3047.000000	0.014711
3046.000000	0.014680
3045.000000	0.014648
3044.000000	0.014617
3043.000000	0.014585
3042.000000	0.014550
3041.000000	0.014516
3040.000000	0.014486
3039.000000	0.014465
3038.000000	0.014454
3037.000000	0.014448
3036.000000	0.014438
3035.000000	0.014414
3034.000000	0.014374
3033.000000	0.014322
3032.000000	0.014270
3031.000000	0.014232
3030.000000	0.014211
3029.000000	0.014201
3028.000000	0.014185
3027.000000	0.014158
3026.000000	0.014121
3025.000000	0.014080
3024.000000	0.014036
3023.000000	0.013994
3022.000000	0.013961
3021.000000	0.013939
3020.000000	0.013926
3019.000000	0.013915
3018.000000	0.013899
3017.000000	0.013878
3016.000000	0.013855
3015.000000	0.013835
3014.000000	0.013823
3013.000000	0.013817
3012.000000	0.013809
3011.000000	0.013790
3010.000000	0.013762
3009.000000	0.013737
3008.000000	0.013729
3007.000000	0.013741
3006.000000	0.013762
3005.000000	0.013779
3004.000000	0.013785
3003.000000	0.013785
3002.000000	0.013783
3001.000000	0.013782
3000.000000	0.013778
2999.000000	0.013770
2998.000000	0.013758
2997.000000	0.013751
2996.000000	0.013756
2995.000000	0.013779
2994.000000	0.013815
2993.000000	0.013857
2992.000000	0.013897
2991.000000	0.013934
2990.000000	0.013979
2989.000000	0.014035
2988.000000	0.014099
2987.000000	0.014157
2986.000000	0.014207
2985.000000	0.014259
2984.000000	0.014325
2983.000000	0.014408
2982.000000	0.014498
2981.000000	0.014583
2980.000000	0.014665
2979.000000	0.014750
2978.000000	0.014844
2977.000000	0.014945
2976.000000	0.015049
2975.000000	0.015152
2974.000000	0.015256
2973.000000	0.015366
2972.000000	0.015484
2971.000000	0.015617
2970.000000	0.015772
2969.000000	0.015951
2968.000000	0.016150
2967.000000	0.016362
2966.000000	0.016577
2965.000000	0.016790
2964.000000	0.016995
2963.000000	0.017185
2962.000000	0.017355
2961.000000	0.017501
2960.000000	0.017625
2959.000000	0.017735
2958.000000	0.017839
2957.000000	0.017934
2956.000000	0.018011
2955.000000	0.018054
2954.000000	0.018057
2953.000000	0.018028
2952.000000	0.017984
2951.000000	0.017944
2950.000000	0.017918
2949.000000	0.017910
2948.000000	0.017920
2947.000000	0.017953
2946.000000	0.018012
2945.000000	0.018102
2944.000000	0.018228
2943.000000	0.018392
2942.000000	0.018593
2941.000000	0.018829
2940.000000	0.019096
2939.000000	0.019389
2938.000000	0.019705
2937.000000	0.020037
2936.000000	0.020382
2935.000000	0.020742
2934.000000	0.021125
2933.000000	0.021539
2932.000000	0.021982
2931.000000	0.022441
2930.000000	0.022891
2929.000000	0.023311
2928.000000	0.023697
2927.000000	0.024067
2926.000000	0.024439
2925.000000	0.024812
2924.000000	0.025163
2923.000000	0.025467
2922.000000	0.025707
2921.000000	0.025880
2920.000000	0.025978
2919.000000	0.025992
2918.000000	0.025893
2917.000000	0.025649
2916.000000	0.025238
2915.000000	0.024678
2914.000000	0.024020
2913.000000	0.023329
2912.000000	0.022664
2911.000000	0.022062
2910.000000	0.021545
2909.000000	0.021111
2908.000000	0.020739
2907.000000	0.020400
2906.000000	0.020081
2905.000000	0.019785
2904.000000	0.019524
2903.000000	0.019302
2902.000000	0.019110
2901.000000	0.018933
2900.000000	0.018761
2899.000000	0.018595
2898.000000	0.018441
2897.000000	0.018300
2896.000000	0.018168
2895.000000	0.018036
2894.000000	0.017903
2893.000000	0.017773
2892.000000	0.017645
2891.000000	0.017519
2890.000000	0.017394
2889.000000	0.017270
2888.000000	0.017156
2887.000000	0.017057
2886.000000	0.016976
2885.000000	0.016907
2884.000000	0.016846
2883.000000	0.016790
2882.000000	0.016747
2881.000000	0.016722
2880.000000	0.016718
2879.000000	0.016732
2878.000000	0.016759
2877.000000	0.016799
2876.000000	0.016848
2875.000000	0.016896
2874.000000	0.016933
2873.000000	0.016950
2872.000000	0.016949
2871.000000	0.016933
2870.000000	0.016910
2869.000000	0.016891
2868.000000	0.016887
2867.000000	0.016905
2866.000000	0.016945
2865.000000	0.017009
2864.000000	0.017102
2863.000000	0.017235
2862.000000	0.017418
2861.000000	0.017651
2860.000000	0.017925
2859.000000	0.018227
2858.000000	0.018548
2857.000000	0.018886
2856.000000	0.019240
2855.000000	0.019606
2854.000000	0.019970
2853.000000	0.020309
2852.000000	0.020584
2851.000000	0.020736
2850.000000	0.020703
2849.000000	0.020451
2848.000000	0.019996
2847.000000	0.019398
2846.000000	0.018734
2845.000000	0.018073
2844.000000	0.017465
2843.000000	0.016933
2842.000000	0.016482
2841.000000	0.016112
2840.000000	0.015815
2839.000000	0.015578
2838.000000	0.015375
2837.000000	0.015185
2836.000000	0.015007
2835.000000	0.014852
2834.000000	0.014728
2833.000000	0.014632
2832.000000	0.014556
2831.000000	0.014494
2830.000000	0.014440
2829.000000	0.014382
2828.000000	0.014310
2827.000000	0.014224
2826.000000	0.014136
2825.000000	0.014058
2824.000000	0.013994
2823.000000	0.013939
2822.000000	0.013884
2821.000000	0.013820
2820.000000	0.013753
2819.000000	0.013692
2818.000000	0.013645
2817.000000	0.013608
2816.000000	0.013576
2815.000000	0.013544
2814.000000	0.013505
2813.000000	0.013454
2812.000000	0.013394
2811.000000	0.013337
2810.000000	0.013293
2809.000000	0.013261
2808.000000	0.013237
2807.000000	0.013215
2806.000000	0.013195
2805.000000	0.013176
2804.000000	0.013157
2803.000000	0.013136
2802.000000	0.013109
2801.000000	0.013073
2800.000000	0.013035
2799.000000	0.013008
2798.000000	0.012998
2797.000000	0.012997
2796.000000	0.012988
2795.000000	0.012964
2794.000000	0.012930
2793.000000	0.012894
2792.000000	0.012861
2791.000000	0.012836
2790.000000	0.012820
2789.000000	0.012807
2788.000000	0.012789
2787.000000	0.012768
2786.000000	0.012751
2785.000000	0.012737
2784.000000	0.012720
2783.000000	0.012692
2782.000000	0.012659
2781.000000	0.012631
2780.000000	0.012613
2779.000000	0.012602
2778.000000	0.012590
2777.000000	0.012570
2776.000000	0.012544
2775.000000	0.012522
2774.000000	0.012513
2773.000000	0.012511
2772.000000	0.012503
2771.000000	0.012479
2770.000000	0.012441
2769.000000	0.012401
2768.000000	0.012373
2767.000000	0.012361
2766.000000	0.012359
2765.000000	0.012354
2764.000000	0.012341
2763.000000	0.012325
2762.000000	0.012314
2761.000000	0.012305
2760.000000	0.012287
2759.000000	0.012263
2758.000000	0.012245
2757.000000	0.012239
2756.000000	0.012235
2755.000000	0.012222
2754.000000	0.012202
2753.000000	0.012187
2752.000000	0.012188
2751.000000	0.012199
2750.000000	0.012207
2749.000000	0.012203
2748.000000	0.012184
2747.000000	0.012155
2746.000000	0.012121
2745.000000	0.012086
2744.000000	0.012054
2743.000000	0.012033
2742.000000	0.012024
2741.000000	0.012026
2740.000000	0.012034
2739.000000	0.012039
2738.000000	0.012037
2737.000000	0.012026
2736.000000	0.012012
2735.000000	0.011998
2734.000000	0.011987
2733.000000	0.011976
2732.000000	0.011965
2731.000000	0.011956
2730.000000	0.011953
2729.000000	0.011951
2728.000000	0.011947
2727.000000	0.011937
2726.000000	0.011920
2725.000000	0.011898
2724.000000	0.011875
2723.000000	0.011854
2722.000000	0.011834
2721.000000	0.011814
2720.000000	0.011795
2719.000000	0.011782
2718.000000	0.011775
2717.000000	0.011765
2716.000000	0.011745
2715.000000	0.011723
2714.000000	0.011706
2713.000000	0.011697
2712.000000	0.011689
2711.000000	0.011681
2710.000000	0.011678
2709.000000	0.011677
2708.000000	0.011666
2707.000000	0.011640
2706.000000	0.011610
2705.000000	0.011591
2704.000000	0.011593
2703.000000	0.011610
2702.000000	0.011634
2701.000000	0.011652
2700.000000	0.011652
2699.000000	0.011638
2698.000000	0.011621
2697.000000	0.011608
2696.000000	0.011595
2695.000000	0.011575
2694.000000	0.011549
2693.000000	0.011527
2692.000000	0.011516
2691.000000	0.011515
2690.000000	0.011522
2689.000000	0.011536
2688.000000	0.011553
2687.000000	0.011560
2686.000000	0.011554
2685.000000	0.011541
2684.000000	0.011531
2683.000000	0.011528
2682.000000	0.011526
2681.000000	0.011515
2680.000000	0.011496
2679.000000	0.011479
2678.000000	0.011474
2677.000000	0.011480
2676.000000	0.011488
2675.000000	0.011484
2674.000000	0.011465
2673.000000	0.011434
2672.000000	0.011401
2671.000000	0.011376
2670.000000	0.011370
2669.000000	0.011381
2668.000000	0.011397
2667.000000	0.011410
2666.000000	0.011415
2665.000000	0.011411
2664.000000	0.011402
2663.000000	0.011389
2662.000000	0.011375
2661.000000	0.011360
2660.000000	0.011341
2659.000000	0.011321
2658.000000	0.011304
2657.000000	0.011294
2656.000000	0.011282
2655.000000	0.011264
2654.000000	0.011244
2653.000000	0.011227
2652.000000	0.011217
2651.000000	0.011208
2650.000000	0.011196
2649.000000	0.011182
2648.000000	0.011167
2647.000000	0.011145
2646.000000	0.011109
2645.000000	0.011061
2644.000000	0.011015
2643.000000	0.010982
2642.000000	0.010963
2641.000000	0.010949
2640.000000	0.010932
2639.000000	0.010915
2638.000000	0.010900
2637.000000	0.010885
2636.000000	0.010864
2635.000000	0.010840
2634.000000	0.010822
2633.000000	0.010811
2632.000000	0.010799
2631.000000	0.010780
2630.000000	0.010757
2629.000000	0.010740
2628.000000	0.010735
2627.000000	0.010738
2626.000000	0.010740
2625.000000	0.010735
2624.000000	0.010717
2623.000000	0.010685
2622.000000	0.010645
2621.000000	0.010605
2620.000000	0.010576
2619.000000	0.010562
2618.000000	0.010562
2617.000000	0.010566
2616.000000	0.010561
2615.000000	0.010543
2614.000000	0.010518
2613.000000	0.010494
2612.000000	0.010473
2611.000000	0.010450
2610.000000	0.010425
2609.000000	0.010401
2608.000000	0.010387
2607.000000	0.010390
2606.000000	0.010411
2605.000000	0.010438
2604.000000	0.010451
2603.000000	0.010440
2602.000000	0.010406
2601.000000	0.010365
2600.000000	0.010329
2599.000000	0.010305
2598.000000	0.010296
2597.000000	0.010292
2596.000000	0.010284
2595.000000	0.010268
2594.000000	0.010248
2593.000000	0.010229
2592.000000	0.010211
2591.000000	0.010195
2590.000000	0.010187
2589.000000	0.010190
2588.000000	0.010198
2587.000000	0.010195
2586.000000	0.010175
2585.000000	0.010142
2584.000000	0.010108
2583.000000	0.010088
2582.000000	0.010085
2581.000000	0.010087
2580.000000	0.010079
2579.000000	0.010056
2578.000000	0.010033
2577.000000	0.010022
2576.000000	0.010020
2575.000000	0.010009
2574.000000	0.009977
2573.000000	0.009934
2572.000000	0.009903
2571.000000	0.009902
2570.000000	0.009930
2569.000000	0.009963
2568.000000	0.009977
2567.000000	0.009967
2566.000000	0.009943
2565.000000	0.009921
2564.000000	0.009909
2563.000000	0.009911
2562.000000	0.009921
2561.000000	0.009929
2560.000000	0.009928
2559.000000	0.009929
2558.000000	0.009951
2557.000000	0.009989
2556.000000	0.010019
2555.000000	0.010016
2554.000000	0.009983
2553.000000	0.009940
2552.000000	0.009901
2551.000000	0.009863
2550.000000	0.009820
2549.000000	0.009777
2548.000000	0.009749
2547.000000	0.009747
2546.000000	0.009761
2545.000000	0.009771
2544.000000	0.009760
2543.000000	0.009734
2542.000000	0.009718
2541.000000	0.009724
2540.000000	0.009744
2539.000000	0.009766
2538.000000	0.009788
2537.000000	0.009808
2536.000000	0.009819
2535.000000	0.009812
2534.000000	0.009798
2533.000000	0.009791
2532.000000	0.009791
2531.000000	0.009786
2530.000000	0.009767
2529.000000	0.009743
2528.000000	0.009731
2527.000000	0.009740
2526.000000	0.009764
2525.000000	0.009783
2524.000000	0.009785
2523.000000	0.009779
2522.000000	0.009777
2521.000000	0.009780
2520.000000	0.009771
2519.000000	0.009744
2518.000000	0.009714
2517.000000	0.009696
2516.000000	0.009688
2515.000000	0.009680
2514.000000	0.009670
2513.000000	0.009659
2512.000000	0.009651
2511.000000	0.009646
2510.000000	0.009651
2509.000000	0.009667
2508.000000	0.009685
2507.000000	0.009692
2506.000000	0.009685
2505.000000	0.009672
2504.000000	0.009662
2503.000000	0.009661
2502.000000	0.009673
2501.000000	0.009687
2500.000000	0.009686
2499.000000	0.009670
2498.000000	0.009651
2497.000000	0.009632
2496.000000	0.009600
2495.000000	0.009546
2494.000000	0.009490
2493.000000	0.009466
2492.000000	0.009478
2491.000000	0.009506
2490.000000	0.009535
2489.000000	0.009566
2488.000000	0.009596
2487.000000	0.009606
2486.000000	0.009579
2485.000000	0.009522
2484.000000	0.009467
2483.000000	0.009435
2482.000000	0.009430
2481.000000	0.009436
2480.000000	0.009438
2479.000000	0.009434
2478.000000	0.009434
2477.000000	0.009448
2476.000000	0.009470
2475.000000	0.009488
2474.000000	0.009497
2473.000000	0.009499
2472.000000	0.009500
2471.000000	0.009497
2470.000000	0.009485
2469.000000	0.009462
2468.000000	0.009433
2467.000000	0.009404
2466.000000	0.009384
2465.000000	0.009379
2464.000000	0.009392
2463.000000	0.009418
2462.000000	0.009449
2461.000000	0.009471
2460.000000	0.009471
2459.000000	0.009456
2458.000000	0.009445
2457.000000	0.009451
2456.000000	0.009461
2455.000000	0.009446
2454.000000	0.009402
2453.000000	0.009352
2452.000000	0.009326
2451.000000	0.009333
2450.000000	0.009353
2449.000000	0.009369
2448.000000	0.009378
2447.000000	0.009390
2446.000000	0.009407
2445.000000	0.009415
2444.000000	0.009399
2443.000000	0.009364
2442.000000	0.009335
2441.000000	0.009338
2440.000000	0.009367
2439.000000	0.009391
2438.000000	0.009385
2437.000000	0.009350
2436.000000	0.009312
2435.000000	0.009293
2434.000000	0.009291
2433.000000	0.009288
2432.000000	0.009278
2431.000000	0.009274
2430.000000	0.009285
2429.000000	0.009300
2428.000000	0.009297
2427.000000	0.009266
2426.000000	0.009220
2425.000000	0.009178
2424.000000	0.009152
2423.000000	0.009147
2422.000000	0.009169
2421.000000	0.009217
2420.000000	0.009275
2419.000000	0.009320
2418.000000	0.009337
2417.000000	0.009321
2416.000000	0.009277
2415.000000	0.009224
2414.000000	0.009185
2413.000000	0.009175
2412.000000	0.009190
2411.000000	0.009215
2410.000000	0.009240
2409.000000	0.009261
2408.000000	0.009280
2407.000000	0.009299
2406.000000	0.009311
2405.000000	0.009301
2404.000000	0.009263
2403.000000	0.009211
2402.000000	0.009172
2401.000000	0.009161
2400.000000	0.009168
2399.000000	0.009174
2398.000000	0.009166
2397.000000	0.009147
2396.000000	0.009135
2395.000000	0.009151
2394.000000	0.009204
2393.000000	0.009272
2392.000000	0.009316
2391.000000	0.009316
2390.000000	0.009280
2389.000000	0.009236
2388.000000	0.009210
2387.000000	0.009211
2386.000000	0.009234
2385.000000	0.009257
2384.000000	0.009262
2383.000000	0.009237
2382.000000	0.009187
2381.000000	0.009116
2380.000000	0.009039
2379.000000	0.008996
2378.000000	0.009027
2377.000000	0.009127
2376.000000	0.009238
2375.000000	0.009304
2374.000000	0.009312
2373.000000	0.009275
2372.000000	0.009201
2371.000000	0.009101
2370.000000	0.009010
2369.000000	0.008954
2368.000000	0.008943
2367.000000	0.008981
2366.000000	0.009062
2365.000000	0.009153
2364.000000	0.009217
2363.000000	0.009268
2362.000000	0.009340
2361.000000	0.009417
2360.000000	0.009447
2359.000000	0.009414
2358.000000	0.009350
2357.000000	0.009286
2356.000000	0.009259
2355.000000	0.009292
2354.000000	0.009323
2353.000000	0.009276
2352.000000	0.009194
2351.000000	0.009191
2350.000000	0.009294
2349.000000	0.009433
2348.000000	0.009510
2347.000000	0.009470
2346.000000	0.009364
2345.000000	0.009321
2344.000000	0.009381
2343.000000	0.009457
2342.000000	0.009465
2341.000000	0.009404
2340.000000	0.009343
2339.000000	0.009332
2338.000000	0.009358
2337.000000	0.009374
2336.000000	0.009358
2335.000000	0.009311
2334.000000	0.009222
2333.000000	0.009095
2332.000000	0.008991
2331.000000	0.008976
2330.000000	0.009056
2329.000000	0.009176
2328.000000	0.009294
2327.000000	0.009387
2326.000000	0.009439
2325.000000	0.009439
2324.000000	0.009397
2323.000000	0.009338
2322.000000	0.009307
2321.000000	0.009343
2320.000000	0.009459
2319.000000	0.009609
2318.000000	0.009727
2317.000000	0.009766
2316.000000	0.009722
2315.000000	0.009614
2314.000000	0.009475
2313.000000	0.009342
2312.000000	0.009243
2311.000000	0.009179
2310.000000	0.009142
2309.000000	0.009126
2308.000000	0.009129
2307.000000	0.009130
2306.000000	0.009109
2305.000000	0.009071
2304.000000	0.009043
2303.000000	0.009034
2302.000000	0.009028
2301.000000	0.009008
2300.000000	0.008984
2299.000000	0.008974
2298.000000	0.008985
2297.000000	0.009004
2296.000000	0.009012
2295.000000	0.009005
2294.000000	0.008986
2293.000000	0.008965
2292.000000	0.008946
2291.000000	0.008926
2290.000000	0.008905
2289.000000	0.008903
2288.000000	0.008945
2287.000000	0.009030
2286.000000	0.009117
2285.000000	0.009157
2284.000000	0.009134
2283.000000	0.009077
2282.000000	0.009021
2281.000000	0.008980
2280.000000	0.008944
2279.000000	0.008908
2278.000000	0.008872
2277.000000	0.008838
2276.000000	0.008799
2275.000000	0.008755
2274.000000	0.008713
2273.000000	0.008681
2272.000000	0.008659
2271.000000	0.008644
2270.000000	0.008642
2269.000000	0.008659
2268.000000	0.008694
2267.000000	0.008734
2266.000000	0.008760
2265.000000	0.008754
2264.000000	0.008708
2263.000000	0.008639
2262.000000	0.008582
2261.000000	0.008559
2260.000000	0.008552
2259.000000	0.008526
2258.000000	0.008473
2257.000000	0.008422
2256.000000	0.008397
2255.000000	0.008394
2254.000000	0.008398
2253.000000	0.008413
2252.000000	0.008444
2251.000000	0.008469
2250.000000	0.008447
2249.000000	0.008364
2248.000000	0.008266
2247.000000	0.008223
2246.000000	0.008260
2245.000000	0.008344
2244.000000	0.008407
2243.000000	0.008407
2242.000000	0.008343
2241.000000	0.008246
2240.000000	0.008163
2239.000000	0.008143
2238.000000	0.008213
2237.000000	0.008345
2236.000000	0.008465
2235.000000	0.008506
2234.000000	0.008463
2233.000000	0.008377
2232.000000	0.008298
2231.000000	0.008250
2230.000000	0.008230
2229.000000	0.008226
2228.000000	0.008214
2227.000000	0.008182
2226.000000	0.008145
2225.000000	0.008133
2224.000000	0.008165
2223.000000	0.008234
2222.000000	0.008311
2221.000000	0.008365
2220.000000	0.008373
2219.000000	0.008330
2218.000000	0.008250
2217.000000	0.008167
2216.000000	0.008129
2215.000000	0.008168
2214.000000	0.008265
2213.000000	0.008355
2212.000000	0.008375
2211.000000	0.008319
2210.000000	0.008227
2209.000000	0.008126
2208.000000	0.008026
2207.000000	0.007966
2206.000000	0.008011
2205.000000	0.008172
2204.000000	0.008342
2203.000000	0.008379
2202.000000	0.008239
2201.000000	0.008017
2200.000000	0.007851
2199.000000	0.007802
2198.000000	0.007839
2197.000000	0.007902
2196.000000	0.007973
2195.000000	0.008082
2194.000000	0.008245
2193.000000	0.008397
2192.000000	0.008444
2191.000000	0.008358
2190.000000	0.008205
2189.000000	0.008061
2188.000000	0.007930
2187.000000	0.007790
2186.000000	0.007656
2185.000000	0.007574
2184.000000	0.007551
2183.000000	0.007569
2182.000000	0.007626
2181.000000	0.007735
2180.000000	0.007864
2179.000000	0.007951
2178.000000	0.007970
2177.000000	0.007945
2176.000000	0.007907
2175.000000	0.007877
2174.000000	0.007878
2173.000000	0.007937
2172.000000	0.008045
2171.000000	0.008157
2170.000000	0.008221
2169.000000	0.008205
2168.000000	0.008091
2167.000000	0.007900
2166.000000	0.007710
2165.000000	0.007622
2164.000000	0.007678
2163.000000	0.007828
2162.000000	0.007969
2161.000000	0.007983
2160.000000	0.007776
2159.000000	0.007370
2158.000000	0.006951
2157.000000	0.006729
2156.000000	0.006742
2155.000000	0.006871
2154.000000	0.006996
2153.000000	0.007089
2152.000000	0.007174
2151.000000	0.007281
2150.000000	0.007421
2149.000000	0.007589
2148.000000	0.007751
2147.000000	0.007861
2146.000000	0.007892
2145.000000	0.007863
2144.000000	0.007831
2143.000000	0.007839
2142.000000	0.007879
2141.000000	0.007898
2140.000000	0.007847
2139.000000	0.007738
2138.000000	0.007625
2137.000000	0.007549
2136.000000	0.007511
2135.000000	0.007515
2134.000000	0.007591
2133.000000	0.007754
2132.000000	0.007957
2131.000000	0.008122
2130.000000	0.008209
2129.000000	0.008232
2128.000000	0.008217
2127.000000	0.008181
2126.000000	0.008131
2125.000000	0.008088
2124.000000	0.008086
2123.000000	0.008149
2122.000000	0.008262
2121.000000	0.008369
2120.000000	0.008413
2119.000000	0.008392
2118.000000	0.008356
2117.000000	0.008343
2116.000000	0.008343
2115.000000	0.008328
2114.000000	0.008302
2113.000000	0.008296
2112.000000	0.008317
2111.000000	0.008336
2110.000000	0.008321
2109.000000	0.008267
2108.000000	0.008206
2107.000000	0.008183
2106.000000	0.008240
2105.000000	0.008368
2104.000000	0.008502
2103.000000	0.008557
2102.000000	0.008502
2101.000000	0.008391
2100.000000	0.008306
2099.000000	0.008292
2098.000000	0.008320
2097.000000	0.008321
2096.000000	0.008254
2095.000000	0.008144
2094.000000	0.008062
2093.000000	0.008054
2092.000000	0.008113
2091.000000	0.008201
2090.000000	0.008288
2089.000000	0.008349
2088.000000	0.008361
2087.000000	0.008314
2086.000000	0.008228
2085.000000	0.008134
2084.000000	0.008058
2083.000000	0.008022
2082.000000	0.008054
2081.000000	0.008162
2080.000000	0.008317
2079.000000	0.008451
2078.000000	0.008504
2077.000000	0.008456
2076.000000	0.008341
2075.000000	0.008231
2074.000000	0.008187
2073.000000	0.008208
2072.000000	0.008239
2071.000000	0.008242
2070.000000	0.008234
2069.000000	0.008242
2068.000000	0.008248
2067.000000	0.008205
2066.000000	0.008110
2065.000000	0.008008
2064.000000	0.007942
2063.000000	0.007910
2062.000000	0.007889
2061.000000	0.007880
2060.000000	0.007900
2059.000000	0.007954
2058.000000	0.008012
2057.000000	0.008023
2056.000000	0.007969
2055.000000	0.007891
2054.000000	0.007841
2053.000000	0.007811
2052.000000	0.007756
2051.000000	0.007683
2050.000000	0.007664
2049.000000	0.007730
2048.000000	0.007807
2047.000000	0.007807
2046.000000	0.007744
2045.000000	0.007681
2044.000000	0.007631
2043.000000	0.007565
2042.000000	0.007486
2041.000000	0.007411
2040.000000	0.007326
2039.000000	0.007222
2038.000000	0.007154
2037.000000	0.007173
2036.000000	0.007235
2035.000000	0.007236
2034.000000	0.007148
2033.000000	0.007029
2032.000000	0.006937
2031.000000	0.006902
2030.000000	0.006964
2029.000000	0.007125
2028.000000	0.007291
2027.000000	0.007335
2026.000000	0.007232
2025.000000	0.007064
2024.000000	0.006923
2023.000000	0.006864
2022.000000	0.006906
2021.000000	0.007007
2020.000000	0.007060
2019.000000	0.007017
2018.000000	0.006972
2017.000000	0.007040
2016.000000	0.007192
2015.000000	0.007299
2014.000000	0.007321
2013.000000	0.007326
2012.000000	0.007351
2011.000000	0.007343
2010.000000	0.007257
2009.000000	0.007112
2008.000000	0.006948
2007.000000	0.006791
2006.000000	0.006703
2005.000000	0.006766
2004.000000	0.006982
2003.000000	0.007255
2002.000000	0.007471
2001.000000	0.007575
2000.000000	0.007577
1999.000000	0.007529
1998.000000	0.007502
1997.000000	0.007541
1996.000000	0.007636
1995.000000	0.007762
1994.000000	0.007917
1993.000000	0.008076
1992.000000	0.008147
1991.000000	0.008055
1990.000000	0.007850
1989.000000	0.007671
1988.000000	0.007610
1987.000000	0.007657
1986.000000	0.007760
1985.000000	0.007880
1984.000000	0.007982
1983.000000	0.008052
1982.000000	0.008137
1981.000000	0.008298
1980.000000	0.008511
1979.000000	0.008645
1978.000000	0.008586
1977.000000	0.008354
1976.000000	0.008079
1975.000000	0.007876
1974.000000	0.007775
1973.000000	0.007718
1972.000000	0.007617
1971.000000	0.007444
1970.000000	0.007266
1969.000000	0.007174
1968.000000	0.007189
1967.000000	0.007283
1966.000000	0.007433
1965.000000	0.007606
1964.000000	0.007735
1963.000000	0.007766
1962.000000	0.007718
1961.000000	0.007644
1960.000000	0.007557
1959.000000	0.007445
1958.000000	0.007345
1957.000000	0.007310
1956.000000	0.007331
1955.000000	0.007353
1954.000000	0.007358
1953.000000	0.007379
1952.000000	0.007434
1951.000000	0.007498
1950.000000	0.007550
1949.000000	0.007594
1948.000000	0.007634
1947.000000	0.007658
1946.000000	0.007666
1945.000000	0.007670
1944.000000	0.007676
1943.000000	0.007689
1942.000000	0.007730
1941.000000	0.007803
1940.000000	0.007865
1939.000000	0.007873
1938.000000	0.007848
1937.000000	0.007845
1936.000000	0.007880
1935.000000	0.007914
1934.000000	0.007913
1933.000000	0.007883
1932.000000	0.007843
1931.000000	0.007791
1930.000000	0.007728
1929.000000	0.007685
1928.000000	0.007689
1927.000000	0.007733
1926.000000	0.007775
1925.000000	0.007777
1924.000000	0.007738
1923.000000	0.007698
1922.000000	0.007697
1921.000000	0.007734
1920.000000	0.007763
1919.000000	0.007744
1918.000000	0.007685
1917.000000	0.007622
1916.000000	0.007573
1915.000000	0.007540
1914.000000	0.007539
1913.000000	0.007597
1912.000000	0.007703
1911.000000	0.007807
1910.000000	0.007864
1909.000000	0.007868
1908.000000	0.007835
1907.000000	0.007796
1906.000000	0.007776
1905.000000	0.007794
1904.000000	0.007842
1903.000000	0.007887
1902.000000	0.007895
1901.000000	0.007853
1900.000000	0.007774
1899.000000	0.007694
1898.000000	0.007661
1897.000000	0.007693
1896.000000	0.007753
1895.000000	0.007782
1894.000000	0.007769
1893.000000	0.007748
1892.000000	0.007746
1891.000000	0.007746
1890.000000	0.007722
1889.000000	0.007689
1888.000000	0.007684
1887.000000	0.007705
1886.000000	0.007713
1885.000000	0.007685
1884.000000	0.007643
1883.000000	0.007624
1882.000000	0.007645
1881.000000	0.007690
1880.000000	0.007723
1879.000000	0.007727
1878.000000	0.007711
1877.000000	0.007694
1876.000000	0.007695
1875.000000	0.007724
1874.000000	0.007764
1873.000000	0.007777
1872.000000	0.007738
1871.000000	0.007658
1870.000000	0.007568
1869.000000	0.007492
1868.000000	0.007453
1867.000000	0.007475
1866.000000	0.007551
1865.000000	0.007652
1864.000000	0.007743
1863.000000	0.007798
1862.000000	0.007810
1861.000000	0.007786
1860.000000	0.007742
1859.000000	0.007700
1858.000000	0.007679
1857.000000	0.007675
1856.000000	0.007661
1855.000000	0.007622
1854.000000	0.007574
1853.000000	0.007545
1852.000000	0.007535
1851.000000	0.007538
1850.000000	0.007554
1849.000000	0.007562
1848.000000	0.007527
1847.000000	0.007456
1846.000000	0.007417
1845.000000	0.007456
1844.000000	0.007524
1843.000000	0.007541
1842.000000	0.007512
1841.000000	0.007498
1840.000000	0.007520
1839.000000	0.007544
1838.000000	0.007528
1837.000000	0.007487
1836.000000	0.007465
1835.000000	0.007465
1834.000000	0.007458
1833.000000	0.007437
1832.000000	0.007415
1831.000000	0.007408
1830.000000	0.007414
1829.000000	0.007426
1828.000000	0.007441
1827.000000	0.007461
1826.000000	0.007498
1825.000000	0.007540
1824.000000	0.007554
1823.000000	0.007532
1822.000000	0.007496
1821.000000	0.007474
1820.000000	0.007463
1819.000000	0.007453
1818.000000	0.007441
1817.000000	0.007433
1816.000000	0.007433
1815.000000	0.007438
1814.000000	0.007456
1813.000000	0.007481
1812.000000	0.007484
1811.000000	0.007452
1810.000000	0.007402
1809.000000	0.007377
1808.000000	0.007390
1807.000000	0.007424
1806.000000	0.007447
1805.000000	0.007443
1804.000000	0.007418
1803.000000	0.007394
1802.000000	0.007396
1801.000000	0.007422
1800.000000	0.007451
1799.000000	0.007467
1798.000000	0.007463
1797.000000	0.007436
1796.000000	0.007392
1795.000000	0.007354
1794.000000	0.007360
1793.000000	0.007400
1792.000000	0.007417
1791.000000	0.007400
1790.000000	0.007384
1789.000000	0.007387
1788.000000	0.007400
1787.000000	0.007405
1786.000000	0.007393
1785.000000	0.007371
1784.000000	0.007351
1783.000000	0.007327
1782.000000	0.007309
1781.000000	0.007293
1780.000000	0.007268
1779.000000	0.007247
1778.000000	0.007243
1777.000000	0.007239
1776.000000	0.007183
1775.000000	0.007065
1774.000000	0.006960
1773.000000	0.006930
1772.000000	0.006936
1771.000000	0.006931
1770.000000	0.006934
1769.000000	0.006979
1768.000000	0.007062
1767.000000	0.007123
1766.000000	0.007131
1765.000000	0.007113
1764.000000	0.007112
1763.000000	0.007130
1762.000000	0.007145
1761.000000	0.007156
1760.000000	0.007183
1759.000000	0.007242
1758.000000	0.007360
1757.000000	0.007541
1756.000000	0.007722
1755.000000	0.007851
1754.000000	0.007960
1753.000000	0.008128
1752.000000	0.008365
1751.000000	0.008583
1750.000000	0.008724
1749.000000	0.008841
1748.000000	0.008972
1747.000000	0.009096
1746.000000	0.009212
1745.000000	0.009328
1744.000000	0.009421
1743.000000	0.009455
1742.000000	0.009456
1741.000000	0.009495
1740.000000	0.009576
1739.000000	0.009602
1738.000000	0.009507
1737.000000	0.009344
1736.000000	0.009226
1735.000000	0.009198
1734.000000	0.009183
1733.000000	0.009157
1732.000000	0.009157
1731.000000	0.009157
1730.000000	0.009142
1729.000000	0.009123
1728.000000	0.009100
1727.000000	0.009058
1726.000000	0.009012
1725.000000	0.008984
1724.000000	0.008978
1723.000000	0.008972
1722.000000	0.008939
1721.000000	0.008884
1720.000000	0.008823
1719.000000	0.008756
1718.000000	0.008669
1717.000000	0.008624
1716.000000	0.008707
1715.000000	0.008886
1714.000000	0.009077
1713.000000	0.009249
1712.000000	0.009412
1711.000000	0.009571
1710.000000	0.009733
1709.000000	0.009908
1708.000000	0.010090
1707.000000	0.010285
1706.000000	0.010499
1705.000000	0.010706
1704.000000	0.010865
1703.000000	0.011000
1702.000000	0.011285
1701.000000	0.011845
1700.000000	0.012412
1699.000000	0.012702
1698.000000	0.012855
1697.000000	0.013165
1696.000000	0.013767
1695.000000	0.014501
1694.000000	0.015137
1693.000000	0.015644
1692.000000	0.016121
1691.000000	0.016613
1690.000000	0.017088
1689.000000	0.017499
1688.000000	0.017802
1687.000000	0.018043
1686.000000	0.018398
1685.000000	0.019013
1684.000000	0.019750
1683.000000	0.020405
1682.000000	0.020968
1681.000000	0.021508
1680.000000	0.022071
1679.000000	0.022592
1678.000000	0.023068
1677.000000	0.023617
1676.000000	0.024328
1675.000000	0.025063
1674.000000	0.025647
1673.000000	0.026106
1672.000000	0.026590
1671.000000	0.027193
1670.000000	0.027898
1669.000000	0.028638
1668.000000	0.029333
1667.000000	0.029913
1666.000000	0.030410
1665.000000	0.030936
1664.000000	0.031575
1663.000000	0.032269
1662.000000	0.032918
1661.000000	0.033510
1660.000000	0.034078
1659.000000	0.034619
1658.000000	0.035087
1657.000000	0.035419
1656.000000	0.035620
1655.000000	0.035852
1654.000000	0.036291
1653.000000	0.036889
1652.000000	0.037494
1651.000000	0.037915
1650.000000	0.038137
1649.000000	0.038319
1648.000000	0.038482
1647.000000	0.038590
1646.000000	0.038663
1645.000000	0.038771
1644.000000	0.038882
1643.000000	0.038939
1642.000000	0.038934
1641.000000	0.038883
1640.000000	0.038773
1639.000000	0.038593
1638.000000	0.038365
1637.000000	0.038160
1636.000000	0.037990
1635.000000	0.037845
1634.000000	0.037705
1633.000000	0.037526
1632.000000	0.037314
1631.000000	0.037069
1630.000000	0.036767
1629.000000	0.036389
1628.000000	0.035940
1627.000000	0.035451
1626.000000	0.034963
1625.000000	0.034485
1624.000000	0.033987
1623.000000	0.033427
1622.000000	0.032835
1621.000000	0.032264
1620.000000	0.031706
1619.000000	0.031129
1618.000000	0.030513
1617.000000	0.029874
1616.000000	0.029307
1615.000000	0.028880
1614.000000	0.028528
1613.000000	0.028175
1612.000000	0.027799
1611.000000	0.027390
1610.000000	0.026950
1609.000000	0.026506
1608.000000	0.026097
1607.000000	0.025747
1606.000000	0.025448
1605.000000	0.025178
1604.000000	0.024907
1603.000000	0.024636
1602.000000	0.024392
1601.000000	0.024202
1600.000000	0.024073
1599.000000	0.023981
1598.000000	0.023890
1597.000000	0.023773
1596.000000	0.023635
1595.000000	0.023505
1594.000000	0.023400
1593.000000	0.023319
1592.000000	0.023253
1591.000000	0.023195
1590.000000	0.023141
1589.000000	0.023093
1588.000000	0.023064
1587.000000	0.023071
1586.000000	0.023121
1585.000000	0.023214
1584.000000	0.023341
1583.000000	0.023497
1582.000000	0.023674
1581.000000	0.023830
1580.000000	0.023914
1579.000000	0.023924
1578.000000	0.023929
1577.000000	0.024004
1576.000000	0.024177
1575.000000	0.024411
1574.000000	0.024626
1573.000000	0.024783
1572.000000	0.024930
1571.000000	0.025138
1570.000000	0.025397
1569.000000	0.025660
1568.000000	0.025909
1567.000000	0.026155
1566.000000	0.026430
1565.000000	0.026731
1564.000000	0.026979
1563.000000	0.027106
1562.000000	0.027158
1561.000000	0.027328
1560.000000	0.027782
1559.000000	0.028300
1558.000000	0.028779
1557.000000	0.029282
1556.000000	0.029719
1555.000000	0.030177
1554.000000	0.030671
1553.000000	0.031139
1552.000000	0.031546
1551.000000	0.031941
1550.000000	0.032339
1549.000000	0.032719
1548.000000	0.033067
1547.000000	0.033407
1546.000000	0.033752
1545.000000	0.034051
1544.000000	0.034252
1543.000000	0.034408
1542.000000	0.034598
1541.000000	0.034825
1540.000000	0.035042
1539.000000	0.035251
1538.000000	0.035377
1537.000000	0.035326
1536.000000	0.035147
1535.000000	0.034886
1534.000000	0.034540
1533.000000	0.034117
1532.000000	0.033728
1531.000000	0.033433
1530.000000	0.033184
1529.000000	0.032924
1528.000000	0.032619
1527.000000	0.032277
1526.000000	0.031934
1525.000000	0.031594
1524.000000	0.031244
1523.000000	0.030906
1522.000000	0.030606
1521.000000	0.030372
1520.000000	0.030228
1519.000000	0.030138
1518.000000	0.030055
1517.000000	0.029940
1516.000000	0.029779
1515.000000	0.029590
1514.000000	0.029378
1513.000000	0.029121
1512.000000	0.028784
1511.000000	0.028347
1510.000000	0.027843
1509.000000	0.027317
1508.000000	0.026766
1507.000000	0.026171
1506.000000	0.025749
1505.000000	0.025574
1504.000000	0.025416
1503.000000	0.025196
1502.000000	0.024923
1501.000000	0.024610
1500.000000	0.024255
1499.000000	0.023858
1498.000000	0.023447
1497.000000	0.023069
1496.000000	0.022764
1495.000000	0.022525
1494.000000	0.022313
1493.000000	0.022112
1492.000000	0.021908
1491.000000	0.021660
1490.000000	0.021346
1489.000000	0.021049
1488.000000	0.020862
1487.000000	0.020774
1486.000000	0.020732
1485.000000	0.020719
1484.000000	0.020728
1483.000000	0.020752
1482.000000	0.020787
1481.000000	0.020838
1480.000000	0.020914
1479.000000	0.021036
1478.000000	0.021217
1477.000000	0.021428
1476.000000	0.021623
1475.000000	0.021814
1474.000000	0.022112
1473.000000	0.022594
1472.000000	0.023194
1471.000000	0.023784
1470.000000	0.024292
1469.000000	0.024719
1468.000000	0.025083
1467.000000	0.025383
1466.000000	0.025636
1465.000000	0.025859
1464.000000	0.026051
1463.000000	0.026223
1462.000000	0.026383
1461.000000	0.026532
1460.000000	0.026647
1459.000000	0.026748
1458.000000	0.026920
1457.000000	0.027229
1456.000000	0.027606
1455.000000	0.027902
1454.000000	0.028092
1453.000000	0.028229
1452.000000	0.028314
1451.000000	0.028329
1450.000000	0.028301
1449.000000	0.028279
1448.000000	0.028268
1447.000000	0.028242
1446.000000	0.028212
1445.000000	0.028192
1444.000000	0.028170
1443.000000	0.028141
1442.000000	0.028099
1441.000000	0.028035
1440.000000	0.027933
1439.000000	0.027813
1438.000000	0.027723
1437.000000	0.027662
1436.000000	0.027567
1435.000000	0.027437
1434.000000	0.027317
1433.000000	0.027234
1432.000000	0.027177
1431.000000	0.027112
1430.000000	0.027037
1429.000000	0.026981
1428.000000	0.026955
1427.000000	0.026936
1426.000000	0.026934
1425.000000	0.026962
1424.000000	0.026979
1423.000000	0.026942
1422.000000	0.026875
1421.000000	0.026869
1420.000000	0.026972
1419.000000	0.027108
1418.000000	0.027214
1417.000000	0.027302
1416.000000	0.027377
1415.000000	0.027437
1414.000000	0.027491
1413.000000	0.027538
1412.000000	0.027558
1411.000000	0.027535
1410.000000	0.027485
1409.000000	0.027436
1408.000000	0.027391
1407.000000	0.027328
1406.000000	0.027243
1405.000000	0.027152
1404.000000	0.027062
1403.000000	0.026972
1402.000000	0.026892
1401.000000	0.026841
1400.000000	0.026788
1399.000000	0.026661
1398.000000	0.026442
1397.000000	0.026182
1396.000000	0.025927
1395.000000	0.025690
1394.000000	0.025477
1393.000000	0.025280
1392.000000	0.025064
1391.000000	0.024808
1390.000000	0.024535
1389.000000	0.024279
1388.000000	0.024053
1387.000000	0.023841
1386.000000	0.023633
1385.000000	0.023430
1384.000000	0.023223
1383.000000	0.023007
1382.000000	0.022788
1381.000000	0.022577
1380.000000	0.022374
1379.000000	0.022166
1378.000000	0.021939
1377.000000	0.021697
1376.000000	0.021447
1375.000000	0.021190
1374.000000	0.020941
1373.000000	0.020721
1372.000000	0.020537
1371.000000	0.020366
1370.000000	0.020194
1369.000000	0.020014
1368.000000	0.019823
1367.000000	0.019620
1366.000000	0.019408
1365.000000	0.019201
1364.000000	0.019004
1363.000000	0.018821
1362.000000	0.018665
1361.000000	0.018556
1360.000000	0.018491
1359.000000	0.018451
1358.000000	0.018409
1357.000000	0.018348
1356.000000	0.018273
1355.000000	0.018209
1354.000000	0.018177
1353.000000	0.018184
1352.000000	0.018222
1351.000000	0.018280
1350.000000	0.018346
1349.000000	0.018418
1348.000000	0.018497
1347.000000	0.018584
1346.000000	0.018676
1345.000000	0.018780
1344.000000	0.018901
1343.000000	0.019031
1342.000000	0.019141
1341.000000	0.019205
1340.000000	0.019214
1339.000000	0.019195
1338.000000	0.019181
1337.000000	0.019185
1336.000000	0.019195
1335.000000	0.019190
1334.000000	0.019154
1333.000000	0.019088
1332.000000	0.019009
1331.000000	0.018932
1330.000000	0.018858
1329.000000	0.018781
1328.000000	0.018697
1327.000000	0.018614
1326.000000	0.018545
1325.000000	0.018502
1324.000000	0.018487
1323.000000	0.018489
1322.000000	0.018491
1321.000000	0.018484
1320.000000	0.018464
1319.000000	0.018426
1318.000000	0.018371
1317.000000	0.018311
1316.000000	0.018263
1315.000000	0.018229
1314.000000	0.018200
1313.000000	0.018163
1312.000000	0.018113
1311.000000	0.018054
1310.000000	0.017985
1309.000000	0.017906
1308.000000	0.017821
1307.000000	0.017743
1306.000000	0.017678
1305.000000	0.017627
1304.000000	0.017583
1303.000000	0.017543
1302.000000	0.017506
1301.000000	0.017474
1300.000000	0.017439
1299.000000	0.017399
1298.000000	0.017358
1297.000000	0.017327
1296.000000	0.017312
1295.000000	0.017307
1294.000000	0.017307
1293.000000	0.017312
1292.000000	0.017329
1291.000000	0.017361
1290.000000	0.017403
1289.000000	0.017455
1288.000000	0.017513
1287.000000	0.017569
1286.000000	0.017615
1285.000000	0.017652
1284.000000	0.017694
1283.000000	0.017750
1282.000000	0.017812
1281.000000	0.017863
1280.000000	0.017894
1279.000000	0.017919
1278.000000	0.017962
1277.000000	0.018035
1276.000000	0.018123
1275.000000	0.018196
1274.000000	0.018240
1273.000000	0.018265
1272.000000	0.018291
1271.000000	0.018335
1270.000000	0.018406
1269.000000	0.018509
1268.000000	0.018640
1267.000000	0.018780
1266.000000	0.018909
1265.000000	0.019026
1264.000000	0.019144
1263.000000	0.019272
1262.000000	0.019399
1261.000000	0.019512
1260.000000	0.019609
1259.000000	0.019698
1258.000000	0.019791
1257.000000	0.019890
1256.000000	0.019987
1255.000000	0.020073
1254.000000	0.020149
1253.000000	0.020223
1252.000000	0.020307
1251.000000	0.020399
1250.000000	0.020494
1249.000000	0.020585
1248.000000	0.020674
1247.000000	0.020770
1246.000000	0.020877
1245.000000	0.020987
1244.000000	0.021079
1243.000000	0.021137
1242.000000	0.021164
1241.000000	0.021184
1240.000000	0.021209
1239.000000	0.021226
1238.000000	0.021207
1237.000000	0.021138
1236.000000	0.021027
1235.000000	0.020893
1234.000000	0.020739
1233.000000	0.020563
1232.000000	0.020361
1231.000000	0.020146
1230.000000	0.019930
1229.000000	0.019718
1228.000000	0.019499
1227.000000	0.019264
1226.000000	0.019022
1225.000000	0.018785
1224.000000	0.018553
1223.000000	0.018317
1222.000000	0.018061
1221.000000	0.017777
1220.000000	0.017469
1219.000000	0.017164
1218.000000	0.016903
1217.000000	0.016719
1216.000000	0.016609
1215.000000	0.016541
1214.000000	0.016478
1213.000000	0.016402
1212.000000	0.016312
1211.000000	0.016223
1210.000000	0.016154
1209.000000	0.016116
1208.000000	0.016106
1207.000000	0.016111
1206.000000	0.016122
1205.000000	0.016136
1204.000000	0.016146
1203.000000	0.016140
1202.000000	0.016102
1201.000000	0.016027
1200.000000	0.015924
1199.000000	0.015811
1198.000000	0.015704
1197.000000	0.015615
1196.000000	0.015539
1195.000000	0.015464
1194.000000	0.015377
1193.000000	0.015278
1192.000000	0.015177
1191.000000	0.015077
1190.000000	0.014977
1189.000000	0.014879
1188.000000	0.014790
1187.000000	0.014718
1186.000000	0.014664
1185.000000	0.014619
1184.000000	0.014578
1183.000000	0.014544
1182.000000	0.014525
1181.000000	0.014529
1180.000000	0.014562
1179.000000	0.014620
1178.000000	0.014695
1177.000000	0.014776
1176.000000	0.014851
1175.000000	0.014914
1174.000000	0.014965
1173.000000	0.015013
1172.000000	0.015069
1171.000000	0.015136
1170.000000	0.015207
1169.000000	0.015277
1168.000000	0.015348
1167.000000	0.015433
1166.000000	0.015535
1165.000000	0.015643
1164.000000	0.015745
1163.000000	0.015835
1162.000000	0.015914
1161.000000	0.015974
1160.000000	0.016000
1159.000000	0.015991
1158.000000	0.015962
1157.000000	0.015933
1156.000000	0.015900
1155.000000	0.015856
1154.000000	0.015799
1153.000000	0.015737
1152.000000	0.015669
1151.000000	0.015583
1150.000000	0.015479
1149.000000	0.015375
1148.000000	0.015288
1147.000000	0.015218
1146.000000	0.015149
1145.000000	0.015067
1144.000000	0.014965
1143.000000	0.014851
1142.000000	0.014746
1141.000000	0.014670
1140.000000	0.014623
1139.000000	0.014587
1138.000000	0.014543
1137.000000	0.014494
1136.000000	0.014460
1135.000000	0.014457
1134.000000	0.014487
1133.000000	0.014545
1132.000000	0.014624
1131.000000	0.014719
1130.000000	0.014824
1129.000000	0.014937
1128.000000	0.015051
1127.000000	0.015157
1126.000000	0.015253
1125.000000	0.015350
1124.000000	0.015458
1123.000000	0.015572
1122.000000	0.015681
1121.000000	0.015787
1120.000000	0.015904
1119.000000	0.016035
1118.000000	0.016161
1117.000000	0.016267
1116.000000	0.016350
1115.000000	0.016420
1114.000000	0.016484
1113.000000	0.016544
1112.000000	0.016600
1111.000000	0.016648
1110.000000	0.016686
1109.000000	0.016714
1108.000000	0.016742
1107.000000	0.016779
1106.000000	0.016821
1105.000000	0.016854
1104.000000	0.016867
1103.000000	0.016872
1102.000000	0.016893
1101.000000	0.016945
1100.000000	0.017018
1099.000000	0.017094
1098.000000	0.017163
1097.000000	0.017222
1096.000000	0.017273
1095.000000	0.017322
1094.000000	0.017378
1093.000000	0.017455
1092.000000	0.017553
1091.000000	0.017667
1090.000000	0.017789
1089.000000	0.017918
1088.000000	0.018047
1087.000000	0.018169
1086.000000	0.018292
1085.000000	0.018429
1084.000000	0.018582
1083.000000	0.018731
1082.000000	0.018851
1081.000000	0.018939
1080.000000	0.018997
1079.000000	0.019021
1078.000000	0.019000
1077.000000	0.018931
1076.000000	0.018825
1075.000000	0.018695
1074.000000	0.018546
1073.000000	0.018386
1072.000000	0.018227
1071.000000	0.018086
1070.000000	0.017979
1069.000000	0.017909
1068.000000	0.017862
1067.000000	0.017821
1066.000000	0.017789
1065.000000	0.017790
1064.000000	0.017847
1063.000000	0.017960
1062.000000	0.018102
1061.000000	0.018230
1060.000000	0.018308
1059.000000	0.018326
1058.000000	0.018315
1057.000000	0.018321
1056.000000	0.018375
1055.000000	0.018471
1054.000000	0.018583
1053.000000	0.018697
1052.000000	0.018812
1051.000000	0.018928
1050.000000	0.019046
1049.000000	0.019166
1048.000000	0.019285
1047.000000	0.019388
1046.000000	0.019459
1045.000000	0.019494
1044.000000	0.019498
1043.000000	0.019482
1042.000000	0.019462
1041.000000	0.019464
1040.000000	0.019507
1039.000000	0.019595
1038.000000	0.019720
1037.000000	0.019874
1036.000000	0.020048
1035.000000	0.020226
1034.000000	0.020396
1033.000000	0.020563
1032.000000	0.020746
1031.000000	0.020946
1030.000000	0.021141
1029.000000	0.021309
1028.000000	0.021454
1027.000000	0.021602
1026.000000	0.021782
1025.000000	0.022010
1024.000000	0.022291
1023.000000	0.022619
1022.000000	0.022983
1021.000000	0.023368
1020.000000	0.023744
1019.000000	0.024062
1018.000000	0.024260
1017.000000	0.024287
1016.000000	0.024125
1015.000000	0.023792
1014.000000	0.023329
1013.000000	0.022779
1012.000000	0.022175
1011.000000	0.021555
1010.000000	0.020955
1009.000000	0.020399
1008.000000	0.019884
1007.000000	0.019402
1006.000000	0.018951
1005.000000	0.018543
1004.000000	0.018182
1003.000000	0.017863
1002.000000	0.017572
1001.000000	0.017292
1000.000000	0.017014
999.000000	0.016745
998.000000	0.016503
997.000000	0.016296
996.000000	0.016106
995.000000	0.015907
994.000000	0.015687
993.000000	0.015454
992.000000	0.015218
991.000000	0.014976
990.000000	0.014726
989.000000	0.014482
988.000000	0.014275
987.000000	0.014115
986.000000	0.013981
985.000000	0.013841
984.000000	0.013680
983.000000	0.013510
982.000000	0.013343
981.000000	0.013175
980.000000	0.012993
979.000000	0.012809
978.000000	0.012646
977.000000	0.012510
976.000000	0.012382
975.000000	0.012242
974.000000	0.012095
973.000000	0.011962
972.000000	0.011845
971.000000	0.011730
970.000000	0.011610
969.000000	0.011493
968.000000	0.011382
967.000000	0.011263
966.000000	0.011121
965.000000	0.010964
964.000000	0.010808
963.000000	0.010660
962.000000	0.010516
961.000000	0.010380
960.000000	0.010261
959.000000	0.010165
958.000000	0.010081
957.000000	0.009991
956.000000	0.009887
955.000000	0.009770
954.000000	0.009651
953.000000	0.009545
952.000000	0.009464
951.000000	0.009403
950.000000	0.009340
949.000000	0.009257
948.000000	0.009157
947.000000	0.009062
946.000000	0.008998
945.000000	0.008972
944.000000	0.008975
943.000000	0.008989
942.000000	0.009003
941.000000	0.009004
940.000000	0.008983
939.000000	0.008941
938.000000	0.008892
937.000000	0.008851
936.000000	0.008817
935.000000	0.008780
934.000000	0.008738
933.000000	0.008700
932.000000	0.008671
931.000000	0.008631
930.000000	0.008570
929.000000	0.008504
928.000000	0.008466
927.000000	0.008468
926.000000	0.008491
925.000000	0.008508
924.000000	0.008505
923.000000	0.008479
922.000000	0.008431
921.000000	0.008367
920.000000	0.008299
919.000000	0.008236
918.000000	0.008178
917.000000	0.008119
916.000000	0.008058
915.000000	0.007984
914.000000	0.007892
913.000000	0.007787
912.000000	0.007687
911.000000	0.007603
910.000000	0.007539
909.000000	0.007498
908.000000	0.007493
907.000000	0.007521
906.000000	0.007553
905.000000	0.007554
904.000000	0.007519
903.000000	0.007469
902.000000	0.007423
901.000000	0.007380
900.000000	0.007330
899.000000	0.007269
898.000000	0.007201
897.000000	0.007139
896.000000	0.007099
895.000000	0.007079
894.000000	0.007055
893.000000	0.007013
892.000000	0.006964
891.000000	0.006927
890.000000	0.006913
889.000000	0.006921
888.000000	0.006958
887.000000	0.007031
886.000000	0.007135
885.000000	0.007261
884.000000	0.007421
883.000000	0.007648
882.000000	0.007973
881.000000	0.008405
880.000000	0.008928
879.000000	0.009495
878.000000	0.010023
877.000000	0.010411
876.000000	0.010597
875.000000	0.010580
874.000000	0.010393
873.000000	0.010069
872.000000	0.009635
871.000000	0.009138
870.000000	0.008649
869.000000	0.008230
868.000000	0.007917
867.000000	0.007717
866.000000	0.007615
865.000000	0.007577
864.000000	0.007555
863.000000	0.007519
862.000000	0.007464
861.000000	0.007402
860.000000	0.007347
859.000000	0.007306
858.000000	0.007283
857.000000	0.007274
856.000000	0.007265
855.000000	0.007248
854.000000	0.007230
853.000000	0.007231
852.000000	0.007257
851.000000	0.007292
850.000000	0.007319
849.000000	0.007332
848.000000	0.007320
847.000000	0.007272
846.000000	0.007189
845.000000	0.007104
844.000000	0.007067
843.000000	0.007095
842.000000	0.007168
841.000000	0.007241
840.000000	0.007274
839.000000	0.007248
838.000000	0.007176
837.000000	0.007100
836.000000	0.007046
835.000000	0.007007
834.000000	0.006967
833.000000	0.006938
832.000000	0.006947
831.000000	0.006989
830.000000	0.007020
829.000000	0.007013
828.000000	0.006990
827.000000	0.006977
826.000000	0.006969
825.000000	0.006959
824.000000	0.006966
823.000000	0.007016
822.000000	0.007091
821.000000	0.007147
820.000000	0.007164
819.000000	0.007149
818.000000	0.007114
817.000000	0.007063
816.000000	0.007016
815.000000	0.006998
814.000000	0.007013
813.000000	0.007041
812.000000	0.007066
811.000000	0.007086
810.000000	0.007103
809.000000	0.007109
808.000000	0.007094
807.000000	0.007057
806.000000	0.007004
805.000000	0.006945
804.000000	0.006899
803.000000	0.006886
802.000000	0.006917
801.000000	0.006993
800.000000	0.007102
799.000000	0.007218
798.000000	0.007307
797.000000	0.007354
796.000000	0.007375
795.000000	0.007388
794.000000	0.007393
793.000000	0.007383
792.000000	0.007374
791.000000	0.007392
790.000000	0.007427
789.000000	0.007442
788.000000	0.007416
787.000000	0.007379
786.000000	0.007369
785.000000	0.007390
784.000000	0.007415
783.000000	0.007428
782.000000	0.007444
781.000000	0.007478
780.000000	0.007519
779.000000	0.007533
778.000000	0.007502
777.000000	0.007441
776.000000	0.007393
775.000000	0.007388
774.000000	0.007418
773.000000	0.007452
772.000000	0.007459
771.000000	0.007441
770.000000	0.007434
769.000000	0.007478
768.000000	0.007569
767.000000	0.007651
766.000000	0.007656
765.000000	0.007577
764.000000	0.007470
763.000000	0.007394
762.000000	0.007362
761.000000	0.007356
760.000000	0.007367
759.000000	0.007394
758.000000	0.007429
757.000000	0.007465
756.000000	0.007510
755.000000	0.007569
754.000000	0.007621
753.000000	0.007636
752.000000	0.007625
751.000000	0.007628
750.000000	0.007666
749.000000	0.007713
748.000000	0.007734
747.000000	0.007733
746.000000	0.007744
745.000000	0.007794
744.000000	0.007877
743.000000	0.007965
742.000000	0.008030
741.000000	0.008072
740.000000	0.008110
739.000000	0.008157
738.000000	0.008215
737.000000	0.008297
736.000000	0.008423
735.000000	0.008583
734.000000	0.008733
733.000000	0.008835
732.000000	0.008906
731.000000	0.008976
730.000000	0.009051
729.000000	0.009128
728.000000	0.009234
727.000000	0.009393
726.000000	0.009589
725.000000	0.009790
724.000000	0.009984
723.000000	0.010174
722.000000	0.010344
721.000000	0.010459
720.000000	0.010493
719.000000	0.010454
718.000000	0.010369
717.000000	0.010283
716.000000	0.010253
715.000000	0.010301
714.000000	0.010377
713.000000	0.010405
712.000000	0.010368
711.000000	0.010315
710.000000	0.010287
709.000000	0.010292
708.000000	0.010322
707.000000	0.010367
706.000000	0.010411
705.000000	0.010455
704.000000	0.010509
703.000000	0.010573
702.000000	0.010607
701.000000	0.010573
700.000000	0.010512
699.000000	0.010495
698.000000	0.010524
697.000000	0.010534
696.000000	0.010487
695.000000	0.010428
694.000000	0.010392
693.000000	0.010347
692.000000	0.010272
691.000000	0.010210
690.000000	0.010208
689.000000	0.010253
688.000000	0.010301
687.000000	0.010355
686.000000	0.010419
685.000000	0.010456
684.000000	0.010455
683.000000	0.010451
682.000000	0.010467
681.000000	0.010489
680.000000	0.010527
679.000000	0.010618
678.000000	0.010735
677.000000	0.010829
676.000000	0.010905
675.000000	0.011007
674.000000	0.011135
673.000000	0.011230
672.000000	0.011233
671.000000	0.011105
670.000000	0.010792
669.000000	0.010305
668.000000	0.010056
667.000000	0.010457
666.000000	0.010902
665.000000	0.011231
664.000000	0.011515
663.000000	0.011681
662.000000	0.011668
661.000000	0.011515
660.000000	0.011299
659.000000	0.011060
658.000000	0.010837
657.000000	0.010723
656.000000	0.010738
655.000000	0.010763
654.000000	0.010708
653.000000	0.010620
652.000000	0.010556
651.000000	0.010506
650.000000	0.010472
649.000000	0.010512
648.000000	0.010618
647.000000	0.010691
646.000000	0.010699
645.000000	0.010706
644.000000	0.010742
643.000000	0.010755
642.000000	0.010719
641.000000	0.010697
640.000000	0.010743
639.000000	0.010812
638.000000	0.010835
637.000000	0.010804
636.000000	0.010734
635.000000	0.010632
634.000000	0.010545
633.000000	0.010541
632.000000	0.010627
631.000000	0.010724
630.000000	0.010773
629.000000	0.010800
628.000000	0.010844
627.000000	0.010886
626.000000	0.010906
625.000000	0.010929
624.000000	0.010991
623.000000	0.011091
622.000000	0.011193
621.000000	0.011251
620.000000	0.011231
619.000000	0.011156
618.000000	0.011111
617.000000	0.011162
616.000000	0.011277
615.000000	0.011362
614.000000	0.011388
613.000000	0.011393
612.000000	0.011388
611.000000	0.011349
610.000000	0.011287
609.000000	0.011249
608.000000	0.011230
607.000000	0.011167
606.000000	0.011061
605.000000	0.010993
604.000000	0.010987
603.000000	0.010960
602.000000	0.010836
601.000000	0.010640
600.000000	0.010452
599.000000	0.010310
598.000000	0.010210
597.000000	0.010142
596.000000	0.010087
595.000000	0.010009
594.000000	0.009917
593.000000	0.009900
592.000000	0.010032
591.000000	0.010271
590.000000	0.010473
589.000000	0.010528
588.000000	0.010428
587.000000	0.010245
586.000000	0.010073
585.000000	0.009986
584.000000	0.010011
583.000000	0.010130
582.000000	0.010294
581.000000	0.010441
580.000000	0.010504
579.000000	0.010457
578.000000	0.010350
577.000000	0.010253
576.000000	0.010181
575.000000	0.010109
574.000000	0.010062
573.000000	0.010107
572.000000	0.010252
571.000000	0.010411
570.000000	0.010513
569.000000	0.010568
568.000000	0.010597
567.000000	0.010576
566.000000	0.010504
565.000000	0.010468
564.000000	0.010550
563.000000	0.010708
562.000000	0.010822
561.000000	0.010841
560.000000	0.010815
559.000000	0.010802
558.000000	0.010796
557.000000	0.010751
556.000000	0.010649
555.000000	0.010527
554.000000	0.010426
553.000000	0.010347
552.000000	0.010253
551.000000	0.010141
550.000000	0.010061
549.000000	0.010052
548.000000	0.010075
547.000000	0.010069
546.000000	0.010044
545.000000	0.010067
544.000000	0.010148
543.000000	0.010237
542.000000	0.010311
541.000000	0.010397
540.000000	0.010486
539.000000	0.010498
538.000000	0.010393
537.000000	0.010260
536.000000	0.010231
535.000000	0.010348
534.000000	0.010534
533.000000	0.010661
532.000000	0.010644
531.000000	0.010487
530.000000	0.010272
529.000000	0.010083
528.000000	0.009959
527.000000	0.009900
526.000000	0.009895
525.000000	0.009896
524.000000	0.009814
523.000000	0.009625
522.000000	0.009410
521.000000	0.009248
520.000000	0.009088
519.000000	0.008831
518.000000	0.008527
517.000000	0.008352
516.000000	0.008372
515.000000	0.008479
514.000000	0.008547
513.000000	0.008541
512.000000	0.008454
511.000000	0.008280
510.000000	0.008093
509.000000	0.008032
508.000000	0.008149
507.000000	0.008332
506.000000	0.008437
505.000000	0.008424
504.000000	0.008330
503.000000	0.008184
502.000000	0.008023
501.000000	0.007911
500.000000	0.007870
499.000000	0.007839
498.000000	0.007765
497.000000	0.007649
496.000000	0.007515
495.000000	0.007391
494.000000	0.007337
493.000000	0.007400
492.000000	0.007507
491.000000	0.007476
490.000000	0.007230
489.000000	0.006910
488.000000	0.006712
487.000000	0.006698
486.000000	0.006802
485.000000	0.006948
484.000000	0.007080
483.000000	0.007147
482.000000	0.007167
481.000000	0.007232
480.000000	0.007365
479.000000	0.007441
478.000000	0.007347
477.000000	0.007155
476.000000	0.007040
475.000000	0.007075
474.000000	0.007231
473.000000	0.007478
472.000000	0.007785
471.000000	0.008056
470.000000	0.008254
469.000000	0.008493
468.000000	0.008861
467.000000	0.009235
466.000000	0.009412
465.000000	0.009359
464.000000	0.009172
463.000000	0.008885
462.000000	0.008467
461.000000	0.007969
460.000000	0.007483
459.000000	0.007022
458.000000	0.006595
457.000000	0.006354
456.000000	0.006430
455.000000	0.006730
454.000000	0.007047
453.000000	0.007287
452.000000	0.007448
451.000000	0.007442
450.000000	0.007087
