PE IR       SUBTECH     SPECTRUM    ASCII       PEDS        4.00        
   -1
3C-H10-F005_1.ASC
22/02/11
11:41:36.00
22/02/11
11:54:14.00
uco
Sample 005 By uco Date Friday, February 11 2022
450.000000
#HDR
-1
-1
#GR
cm-1
A
1.0
0.0
4000.000000
-1.000000
3551
8
0.007596
-0.001323
#DATA
4000.000000	-0.000858
3999.000000	-0.000867
3998.000000	-0.000881
3997.000000	-0.000896
3996.000000	-0.000905
3995.000000	-0.000906
3994.000000	-0.000904
3993.000000	-0.000903
3992.000000	-0.000903
3991.000000	-0.000898
3990.000000	-0.000885
3989.000000	-0.000862
3988.000000	-0.000838
3987.000000	-0.000820
3986.000000	-0.000813
3985.000000	-0.000814
3984.000000	-0.000817
3983.000000	-0.000815
3982.000000	-0.000810
3981.000000	-0.000802
3980.000000	-0.000793
3979.000000	-0.000784
3978.000000	-0.000780
3977.000000	-0.000788
3976.000000	-0.000809
3975.000000	-0.000839
3974.000000	-0.000867
3973.000000	-0.000887
3972.000000	-0.000900
3971.000000	-0.000909
3970.000000	-0.000912
3969.000000	-0.000905
3968.000000	-0.000883
3967.000000	-0.000853
3966.000000	-0.000826
3965.000000	-0.000812
3964.000000	-0.000812
3963.000000	-0.000819
3962.000000	-0.000822
3961.000000	-0.000815
3960.000000	-0.000799
3959.000000	-0.000782
3958.000000	-0.000769
3957.000000	-0.000765
3956.000000	-0.000770
3955.000000	-0.000784
3954.000000	-0.000802
3953.000000	-0.000817
3952.000000	-0.000824
3951.000000	-0.000820
3950.000000	-0.000810
3949.000000	-0.000808
3948.000000	-0.000819
3947.000000	-0.000838
3946.000000	-0.000845
3945.000000	-0.000824
3944.000000	-0.000775
3943.000000	-0.000719
3942.000000	-0.000686
3941.000000	-0.000687
3940.000000	-0.000711
3939.000000	-0.000739
3938.000000	-0.000759
3937.000000	-0.000771
3936.000000	-0.000785
3935.000000	-0.000801
3934.000000	-0.000811
3933.000000	-0.000801
3932.000000	-0.000769
3931.000000	-0.000728
3930.000000	-0.000692
3929.000000	-0.000672
3928.000000	-0.000667
3927.000000	-0.000673
3926.000000	-0.000688
3925.000000	-0.000705
3924.000000	-0.000718
3923.000000	-0.000721
3922.000000	-0.000713
3921.000000	-0.000700
3920.000000	-0.000689
3919.000000	-0.000686
3918.000000	-0.000690
3917.000000	-0.000697
3916.000000	-0.000707
3915.000000	-0.000718
3914.000000	-0.000729
3913.000000	-0.000737
3912.000000	-0.000742
3911.000000	-0.000749
3910.000000	-0.000760
3909.000000	-0.000775
3908.000000	-0.000786
3907.000000	-0.000784
3906.000000	-0.000770
3905.000000	-0.000751
3904.000000	-0.000739
3903.000000	-0.000735
3902.000000	-0.000728
3901.000000	-0.000709
3900.000000	-0.000688
3899.000000	-0.000681
3898.000000	-0.000694
3897.000000	-0.000716
3896.000000	-0.000728
3895.000000	-0.000720
3894.000000	-0.000699
3893.000000	-0.000681
3892.000000	-0.000680
3891.000000	-0.000694
3890.000000	-0.000704
3889.000000	-0.000701
3888.000000	-0.000691
3887.000000	-0.000693
3886.000000	-0.000716
3885.000000	-0.000746
3884.000000	-0.000759
3883.000000	-0.000742
3882.000000	-0.000704
3881.000000	-0.000667
3880.000000	-0.000651
3879.000000	-0.000656
3878.000000	-0.000671
3877.000000	-0.000688
3876.000000	-0.000705
3875.000000	-0.000724
3874.000000	-0.000742
3873.000000	-0.000751
3872.000000	-0.000745
3871.000000	-0.000728
3870.000000	-0.000716
3869.000000	-0.000719
3868.000000	-0.000735
3867.000000	-0.000758
3866.000000	-0.000780
3865.000000	-0.000798
3864.000000	-0.000806
3863.000000	-0.000806
3862.000000	-0.000802
3861.000000	-0.000798
3860.000000	-0.000791
3859.000000	-0.000777
3858.000000	-0.000763
3857.000000	-0.000756
3856.000000	-0.000762
3855.000000	-0.000777
3854.000000	-0.000800
3853.000000	-0.000823
3852.000000	-0.000830
3851.000000	-0.000815
3850.000000	-0.000791
3849.000000	-0.000770
3848.000000	-0.000758
3847.000000	-0.000756
3846.000000	-0.000762
3845.000000	-0.000774
3844.000000	-0.000787
3843.000000	-0.000798
3842.000000	-0.000803
3841.000000	-0.000802
3840.000000	-0.000794
3839.000000	-0.000782
3838.000000	-0.000768
3837.000000	-0.000755
3836.000000	-0.000743
3835.000000	-0.000732
3834.000000	-0.000720
3833.000000	-0.000709
3832.000000	-0.000704
3831.000000	-0.000711
3830.000000	-0.000728
3829.000000	-0.000746
3828.000000	-0.000756
3827.000000	-0.000762
3826.000000	-0.000772
3825.000000	-0.000788
3824.000000	-0.000805
3823.000000	-0.000814
3822.000000	-0.000814
3821.000000	-0.000813
3820.000000	-0.000816
3819.000000	-0.000821
3818.000000	-0.000821
3817.000000	-0.000816
3816.000000	-0.000813
3815.000000	-0.000813
3814.000000	-0.000812
3813.000000	-0.000808
3812.000000	-0.000803
3811.000000	-0.000800
3810.000000	-0.000803
3809.000000	-0.000807
3808.000000	-0.000811
3807.000000	-0.000816
3806.000000	-0.000824
3805.000000	-0.000836
3804.000000	-0.000851
3803.000000	-0.000864
3802.000000	-0.000869
3801.000000	-0.000865
3800.000000	-0.000856
3799.000000	-0.000840
3798.000000	-0.000820
3797.000000	-0.000794
3796.000000	-0.000761
3795.000000	-0.000724
3794.000000	-0.000686
3793.000000	-0.000657
3792.000000	-0.000646
3791.000000	-0.000653
3790.000000	-0.000673
3789.000000	-0.000692
3788.000000	-0.000697
3787.000000	-0.000687
3786.000000	-0.000671
3785.000000	-0.000662
3784.000000	-0.000664
3783.000000	-0.000672
3782.000000	-0.000680
3781.000000	-0.000685
3780.000000	-0.000690
3779.000000	-0.000695
3778.000000	-0.000695
3777.000000	-0.000686
3776.000000	-0.000668
3775.000000	-0.000649
3774.000000	-0.000636
3773.000000	-0.000630
3772.000000	-0.000627
3771.000000	-0.000627
3770.000000	-0.000638
3769.000000	-0.000665
3768.000000	-0.000699
3767.000000	-0.000722
3766.000000	-0.000725
3765.000000	-0.000713
3764.000000	-0.000702
3763.000000	-0.000702
3762.000000	-0.000717
3761.000000	-0.000740
3760.000000	-0.000763
3759.000000	-0.000776
3758.000000	-0.000775
3757.000000	-0.000768
3756.000000	-0.000769
3755.000000	-0.000786
3754.000000	-0.000819
3753.000000	-0.000849
3752.000000	-0.000858
3751.000000	-0.000845
3750.000000	-0.000835
3749.000000	-0.000844
3748.000000	-0.000864
3747.000000	-0.000872
3746.000000	-0.000850
3745.000000	-0.000803
3744.000000	-0.000766
3743.000000	-0.000753
3742.000000	-0.000752
3741.000000	-0.000755
3740.000000	-0.000769
3739.000000	-0.000798
3738.000000	-0.000839
3737.000000	-0.000882
3736.000000	-0.000916
3735.000000	-0.000931
3734.000000	-0.000927
3733.000000	-0.000909
3732.000000	-0.000883
3731.000000	-0.000854
3730.000000	-0.000823
3729.000000	-0.000791
3728.000000	-0.000761
3727.000000	-0.000735
3726.000000	-0.000718
3725.000000	-0.000714
3724.000000	-0.000719
3723.000000	-0.000727
3722.000000	-0.000738
3721.000000	-0.000758
3720.000000	-0.000786
3719.000000	-0.000813
3718.000000	-0.000832
3717.000000	-0.000841
3716.000000	-0.000847
3715.000000	-0.000857
3714.000000	-0.000866
3713.000000	-0.000864
3712.000000	-0.000847
3711.000000	-0.000826
3710.000000	-0.000814
3709.000000	-0.000814
3708.000000	-0.000819
3707.000000	-0.000819
3706.000000	-0.000811
3705.000000	-0.000801
3704.000000	-0.000795
3703.000000	-0.000797
3702.000000	-0.000805
3701.000000	-0.000811
3700.000000	-0.000808
3699.000000	-0.000799
3698.000000	-0.000792
3697.000000	-0.000795
3696.000000	-0.000806
3695.000000	-0.000821
3694.000000	-0.000833
3693.000000	-0.000844
3692.000000	-0.000861
3691.000000	-0.000887
3690.000000	-0.000913
3689.000000	-0.000928
3688.000000	-0.000922
3687.000000	-0.000894
3686.000000	-0.000854
3685.000000	-0.000818
3684.000000	-0.000798
3683.000000	-0.000795
3682.000000	-0.000803
3681.000000	-0.000819
3680.000000	-0.000846
3679.000000	-0.000881
3678.000000	-0.000909
3677.000000	-0.000910
3676.000000	-0.000879
3675.000000	-0.000846
3674.000000	-0.000838
3673.000000	-0.000847
3672.000000	-0.000852
3671.000000	-0.000839
3670.000000	-0.000813
3669.000000	-0.000788
3668.000000	-0.000771
3667.000000	-0.000760
3666.000000	-0.000755
3665.000000	-0.000756
3664.000000	-0.000765
3663.000000	-0.000782
3662.000000	-0.000803
3661.000000	-0.000817
3660.000000	-0.000816
3659.000000	-0.000801
3658.000000	-0.000785
3657.000000	-0.000787
3656.000000	-0.000811
3655.000000	-0.000837
3654.000000	-0.000842
3653.000000	-0.000817
3652.000000	-0.000771
3651.000000	-0.000725
3650.000000	-0.000698
3649.000000	-0.000696
3648.000000	-0.000704
3647.000000	-0.000711
3646.000000	-0.000715
3645.000000	-0.000722
3644.000000	-0.000732
3643.000000	-0.000746
3642.000000	-0.000761
3641.000000	-0.000770
3640.000000	-0.000768
3639.000000	-0.000754
3638.000000	-0.000737
3637.000000	-0.000726
3636.000000	-0.000726
3635.000000	-0.000733
3634.000000	-0.000738
3633.000000	-0.000738
3632.000000	-0.000729
3631.000000	-0.000707
3630.000000	-0.000673
3629.000000	-0.000642
3628.000000	-0.000631
3627.000000	-0.000640
3626.000000	-0.000657
3625.000000	-0.000674
3624.000000	-0.000686
3623.000000	-0.000690
3622.000000	-0.000686
3621.000000	-0.000675
3620.000000	-0.000659
3619.000000	-0.000640
3618.000000	-0.000622
3617.000000	-0.000608
3616.000000	-0.000601
3615.000000	-0.000597
3614.000000	-0.000590
3613.000000	-0.000575
3612.000000	-0.000556
3611.000000	-0.000535
3610.000000	-0.000517
3609.000000	-0.000502
3608.000000	-0.000493
3607.000000	-0.000493
3606.000000	-0.000505
3605.000000	-0.000526
3604.000000	-0.000546
3603.000000	-0.000553
3602.000000	-0.000542
3601.000000	-0.000515
3600.000000	-0.000482
3599.000000	-0.000452
3598.000000	-0.000431
3597.000000	-0.000417
3596.000000	-0.000403
3595.000000	-0.000386
3594.000000	-0.000371
3593.000000	-0.000362
3592.000000	-0.000357
3591.000000	-0.000352
3590.000000	-0.000344
3589.000000	-0.000340
3588.000000	-0.000350
3587.000000	-0.000373
3586.000000	-0.000397
3585.000000	-0.000406
3584.000000	-0.000397
3583.000000	-0.000379
3582.000000	-0.000361
3581.000000	-0.000343
3580.000000	-0.000326
3579.000000	-0.000310
3578.000000	-0.000301
3577.000000	-0.000298
3576.000000	-0.000294
3575.000000	-0.000288
3574.000000	-0.000283
3573.000000	-0.000287
3572.000000	-0.000297
3571.000000	-0.000301
3570.000000	-0.000284
3569.000000	-0.000242
3568.000000	-0.000183
3567.000000	-0.000131
3566.000000	-0.000106
3565.000000	-0.000107
3564.000000	-0.000124
3563.000000	-0.000140
3562.000000	-0.000151
3561.000000	-0.000155
3560.000000	-0.000155
3559.000000	-0.000152
3558.000000	-0.000148
3557.000000	-0.000147
3556.000000	-0.000146
3555.000000	-0.000145
3554.000000	-0.000144
3553.000000	-0.000144
3552.000000	-0.000140
3551.000000	-0.000124
3550.000000	-0.000095
3549.000000	-0.000064
3548.000000	-0.000041
3547.000000	-0.000032
3546.000000	-0.000032
3545.000000	-0.000030
3544.000000	-0.000023
3543.000000	-0.000013
3542.000000	-0.000003
3541.000000	0.000008
3540.000000	0.000029
3539.000000	0.000061
3538.000000	0.000100
3537.000000	0.000135
3536.000000	0.000152
3535.000000	0.000147
3534.000000	0.000125
3533.000000	0.000098
3532.000000	0.000080
3531.000000	0.000080
3530.000000	0.000099
3529.000000	0.000128
3528.000000	0.000159
3527.000000	0.000185
3526.000000	0.000204
3525.000000	0.000218
3524.000000	0.000225
3523.000000	0.000230
3522.000000	0.000235
3521.000000	0.000248
3520.000000	0.000272
3519.000000	0.000301
3518.000000	0.000323
3517.000000	0.000325
3516.000000	0.000312
3515.000000	0.000293
3514.000000	0.000282
3513.000000	0.000282
3512.000000	0.000294
3511.000000	0.000312
3510.000000	0.000333
3509.000000	0.000355
3508.000000	0.000377
3507.000000	0.000397
3506.000000	0.000407
3505.000000	0.000399
3504.000000	0.000379
3503.000000	0.000362
3502.000000	0.000363
3501.000000	0.000385
3500.000000	0.000413
3499.000000	0.000433
3498.000000	0.000436
3497.000000	0.000427
3496.000000	0.000422
3495.000000	0.000428
3494.000000	0.000445
3493.000000	0.000459
3492.000000	0.000467
3491.000000	0.000471
3490.000000	0.000477
3489.000000	0.000482
3488.000000	0.000481
3487.000000	0.000478
3486.000000	0.000485
3485.000000	0.000516
3484.000000	0.000561
3483.000000	0.000598
3482.000000	0.000606
3481.000000	0.000587
3480.000000	0.000561
3479.000000	0.000552
3478.000000	0.000565
3477.000000	0.000589
3476.000000	0.000610
3475.000000	0.000623
3474.000000	0.000635
3473.000000	0.000651
3472.000000	0.000667
3471.000000	0.000678
3470.000000	0.000680
3469.000000	0.000670
3468.000000	0.000651
3467.000000	0.000630
3466.000000	0.000619
3465.000000	0.000626
3464.000000	0.000649
3463.000000	0.000674
3462.000000	0.000694
3461.000000	0.000710
3460.000000	0.000732
3459.000000	0.000762
3458.000000	0.000788
3457.000000	0.000795
3456.000000	0.000782
3455.000000	0.000757
3454.000000	0.000733
3453.000000	0.000719
3452.000000	0.000720
3451.000000	0.000734
3450.000000	0.000758
3449.000000	0.000780
3448.000000	0.000790
3447.000000	0.000783
3446.000000	0.000767
3445.000000	0.000756
3444.000000	0.000765
3443.000000	0.000796
3442.000000	0.000840
3441.000000	0.000878
3440.000000	0.000894
3439.000000	0.000885
3438.000000	0.000864
3437.000000	0.000845
3436.000000	0.000837
3435.000000	0.000841
3434.000000	0.000850
3433.000000	0.000856
3432.000000	0.000856
3431.000000	0.000849
3430.000000	0.000843
3429.000000	0.000847
3428.000000	0.000861
3427.000000	0.000880
3426.000000	0.000897
3425.000000	0.000908
3424.000000	0.000919
3423.000000	0.000933
3422.000000	0.000949
3421.000000	0.000957
3420.000000	0.000952
3419.000000	0.000941
3418.000000	0.000940
3417.000000	0.000959
3416.000000	0.000995
3415.000000	0.001032
3414.000000	0.001058
3413.000000	0.001069
3412.000000	0.001071
3411.000000	0.001069
3410.000000	0.001066
3409.000000	0.001059
3408.000000	0.001049
3407.000000	0.001040
3406.000000	0.001038
3405.000000	0.001048
3404.000000	0.001067
3403.000000	0.001085
3402.000000	0.001093
3401.000000	0.001084
3400.000000	0.001057
3399.000000	0.001024
3398.000000	0.001001
3397.000000	0.001003
3396.000000	0.001031
3395.000000	0.001073
3394.000000	0.001111
3393.000000	0.001139
3392.000000	0.001160
3391.000000	0.001179
3390.000000	0.001195
3389.000000	0.001204
3388.000000	0.001209
3387.000000	0.001217
3386.000000	0.001232
3385.000000	0.001247
3384.000000	0.001251
3383.000000	0.001244
3382.000000	0.001237
3381.000000	0.001242
3380.000000	0.001262
3379.000000	0.001286
3378.000000	0.001304
3377.000000	0.001311
3376.000000	0.001313
3375.000000	0.001317
3374.000000	0.001329
3373.000000	0.001348
3372.000000	0.001364
3371.000000	0.001371
3370.000000	0.001366
3369.000000	0.001358
3368.000000	0.001362
3367.000000	0.001386
3366.000000	0.001426
3365.000000	0.001469
3364.000000	0.001498
3363.000000	0.001510
3362.000000	0.001510
3361.000000	0.001507
3360.000000	0.001506
3359.000000	0.001508
3358.000000	0.001511
3357.000000	0.001513
3356.000000	0.001515
3355.000000	0.001514
3354.000000	0.001512
3353.000000	0.001514
3352.000000	0.001528
3351.000000	0.001556
3350.000000	0.001589
3349.000000	0.001616
3348.000000	0.001635
3347.000000	0.001657
3346.000000	0.001690
3345.000000	0.001732
3344.000000	0.001766
3343.000000	0.001775
3342.000000	0.001762
3341.000000	0.001738
3340.000000	0.001719
3339.000000	0.001709
3338.000000	0.001711
3337.000000	0.001731
3336.000000	0.001770
3335.000000	0.001817
3334.000000	0.001855
3333.000000	0.001875
3332.000000	0.001883
3331.000000	0.001892
3330.000000	0.001909
3329.000000	0.001930
3328.000000	0.001949
3327.000000	0.001964
3326.000000	0.001981
3325.000000	0.002003
3324.000000	0.002025
3323.000000	0.002044
3322.000000	0.002053
3321.000000	0.002054
3320.000000	0.002053
3319.000000	0.002058
3318.000000	0.002071
3317.000000	0.002084
3316.000000	0.002083
3315.000000	0.002066
3314.000000	0.002044
3313.000000	0.002037
3312.000000	0.002053
3311.000000	0.002084
3310.000000	0.002113
3309.000000	0.002130
3308.000000	0.002134
3307.000000	0.002131
3306.000000	0.002125
3305.000000	0.002120
3304.000000	0.002117
3303.000000	0.002116
3302.000000	0.002116
3301.000000	0.002116
3300.000000	0.002117
3299.000000	0.002121
3298.000000	0.002130
3297.000000	0.002142
3296.000000	0.002150
3295.000000	0.002146
3294.000000	0.002128
3293.000000	0.002104
3292.000000	0.002092
3291.000000	0.002104
3290.000000	0.002136
3289.000000	0.002174
3288.000000	0.002202
3287.000000	0.002214
3286.000000	0.002217
3285.000000	0.002218
3284.000000	0.002218
3283.000000	0.002211
3282.000000	0.002190
3281.000000	0.002158
3280.000000	0.002126
3279.000000	0.002105
3278.000000	0.002094
3277.000000	0.002090
3276.000000	0.002086
3275.000000	0.002079
3274.000000	0.002069
3273.000000	0.002062
3272.000000	0.002064
3271.000000	0.002076
3270.000000	0.002093
3269.000000	0.002111
3268.000000	0.002127
3267.000000	0.002140
3266.000000	0.002148
3265.000000	0.002155
3264.000000	0.002162
3263.000000	0.002168
3262.000000	0.002163
3261.000000	0.002138
3260.000000	0.002101
3259.000000	0.002070
3258.000000	0.002061
3257.000000	0.002071
3256.000000	0.002085
3255.000000	0.002091
3254.000000	0.002085
3253.000000	0.002070
3252.000000	0.002051
3251.000000	0.002029
3250.000000	0.002005
3249.000000	0.001983
3248.000000	0.001967
3247.000000	0.001964
3246.000000	0.001976
3245.000000	0.001992
3244.000000	0.002000
3243.000000	0.001993
3242.000000	0.001977
3241.000000	0.001963
3240.000000	0.001954
3239.000000	0.001943
3238.000000	0.001927
3237.000000	0.001907
3236.000000	0.001889
3235.000000	0.001882
3234.000000	0.001887
3233.000000	0.001900
3232.000000	0.001917
3231.000000	0.001932
3230.000000	0.001947
3229.000000	0.001960
3228.000000	0.001971
3227.000000	0.001977
3226.000000	0.001975
3225.000000	0.001968
3224.000000	0.001957
3223.000000	0.001942
3222.000000	0.001925
3221.000000	0.001909
3220.000000	0.001898
3219.000000	0.001893
3218.000000	0.001891
3217.000000	0.001886
3216.000000	0.001879
3215.000000	0.001873
3214.000000	0.001867
3213.000000	0.001862
3212.000000	0.001855
3211.000000	0.001850
3210.000000	0.001852
3209.000000	0.001861
3208.000000	0.001872
3207.000000	0.001879
3206.000000	0.001880
3205.000000	0.001879
3204.000000	0.001880
3203.000000	0.001882
3202.000000	0.001878
3201.000000	0.001860
3200.000000	0.001834
3199.000000	0.001814
3198.000000	0.001811
3197.000000	0.001822
3196.000000	0.001833
3195.000000	0.001830
3194.000000	0.001813
3193.000000	0.001792
3192.000000	0.001779
3191.000000	0.001781
3190.000000	0.001793
3189.000000	0.001799
3188.000000	0.001787
3187.000000	0.001755
3186.000000	0.001715
3185.000000	0.001685
3184.000000	0.001675
3183.000000	0.001677
3182.000000	0.001675
3181.000000	0.001660
3180.000000	0.001636
3179.000000	0.001610
3178.000000	0.001592
3177.000000	0.001580
3176.000000	0.001574
3175.000000	0.001571
3174.000000	0.001573
3173.000000	0.001580
3172.000000	0.001589
3171.000000	0.001595
3170.000000	0.001593
3169.000000	0.001584
3168.000000	0.001572
3167.000000	0.001564
3166.000000	0.001562
3165.000000	0.001566
3164.000000	0.001574
3163.000000	0.001585
3162.000000	0.001592
3161.000000	0.001588
3160.000000	0.001571
3159.000000	0.001551
3158.000000	0.001534
3157.000000	0.001521
3156.000000	0.001510
3155.000000	0.001498
3154.000000	0.001485
3153.000000	0.001470
3152.000000	0.001450
3151.000000	0.001428
3150.000000	0.001408
3149.000000	0.001397
3148.000000	0.001395
3147.000000	0.001393
3146.000000	0.001385
3145.000000	0.001367
3144.000000	0.001344
3143.000000	0.001325
3142.000000	0.001317
3141.000000	0.001316
3140.000000	0.001315
3139.000000	0.001310
3138.000000	0.001300
3137.000000	0.001292
3136.000000	0.001288
3135.000000	0.001287
3134.000000	0.001281
3133.000000	0.001269
3132.000000	0.001251
3131.000000	0.001238
3130.000000	0.001235
3129.000000	0.001240
3128.000000	0.001244
3127.000000	0.001241
3126.000000	0.001233
3125.000000	0.001226
3124.000000	0.001218
3123.000000	0.001203
3122.000000	0.001184
3121.000000	0.001168
3120.000000	0.001161
3119.000000	0.001163
3118.000000	0.001169
3117.000000	0.001178
3116.000000	0.001190
3115.000000	0.001203
3114.000000	0.001213
3113.000000	0.001215
3112.000000	0.001210
3111.000000	0.001204
3110.000000	0.001206
3109.000000	0.001224
3108.000000	0.001256
3107.000000	0.001293
3106.000000	0.001323
3105.000000	0.001337
3104.000000	0.001333
3103.000000	0.001318
3102.000000	0.001300
3101.000000	0.001290
3100.000000	0.001295
3099.000000	0.001315
3098.000000	0.001339
3097.000000	0.001354
3096.000000	0.001352
3095.000000	0.001334
3094.000000	0.001309
3093.000000	0.001287
3092.000000	0.001272
3091.000000	0.001267
3090.000000	0.001272
3089.000000	0.001288
3088.000000	0.001311
3087.000000	0.001329
3086.000000	0.001334
3085.000000	0.001324
3084.000000	0.001305
3083.000000	0.001289
3082.000000	0.001289
3081.000000	0.001308
3080.000000	0.001342
3079.000000	0.001377
3078.000000	0.001407
3077.000000	0.001429
3076.000000	0.001442
3075.000000	0.001442
3074.000000	0.001429
3073.000000	0.001412
3072.000000	0.001399
3071.000000	0.001393
3070.000000	0.001392
3069.000000	0.001392
3068.000000	0.001395
3067.000000	0.001403
3066.000000	0.001416
3065.000000	0.001431
3064.000000	0.001442
3063.000000	0.001443
3062.000000	0.001433
3061.000000	0.001414
3060.000000	0.001391
3059.000000	0.001371
3058.000000	0.001357
3057.000000	0.001353
3056.000000	0.001361
3055.000000	0.001373
3054.000000	0.001376
3053.000000	0.001363
3052.000000	0.001340
3051.000000	0.001317
3050.000000	0.001304
3049.000000	0.001301
3048.000000	0.001301
3047.000000	0.001294
3046.000000	0.001275
3045.000000	0.001250
3044.000000	0.001230
3043.000000	0.001224
3042.000000	0.001226
3041.000000	0.001228
3040.000000	0.001229
3039.000000	0.001230
3038.000000	0.001229
3037.000000	0.001219
3036.000000	0.001196
3035.000000	0.001164
3034.000000	0.001132
3033.000000	0.001107
3032.000000	0.001098
3031.000000	0.001107
3030.000000	0.001129
3029.000000	0.001153
3028.000000	0.001164
3027.000000	0.001156
3026.000000	0.001129
3025.000000	0.001089
3024.000000	0.001046
3023.000000	0.001014
3022.000000	0.000998
3021.000000	0.000996
3020.000000	0.001002
3019.000000	0.001013
3018.000000	0.001030
3017.000000	0.001047
3016.000000	0.001058
3015.000000	0.001059
3014.000000	0.001059
3013.000000	0.001067
3012.000000	0.001086
3011.000000	0.001108
3010.000000	0.001123
3009.000000	0.001127
3008.000000	0.001118
3007.000000	0.001100
3006.000000	0.001080
3005.000000	0.001068
3004.000000	0.001071
3003.000000	0.001089
3002.000000	0.001116
3001.000000	0.001139
3000.000000	0.001149
2999.000000	0.001147
2998.000000	0.001139
2997.000000	0.001132
2996.000000	0.001128
2995.000000	0.001125
2994.000000	0.001123
2993.000000	0.001121
2992.000000	0.001120
2991.000000	0.001122
2990.000000	0.001127
2989.000000	0.001136
2988.000000	0.001144
2987.000000	0.001153
2986.000000	0.001166
2985.000000	0.001187
2984.000000	0.001210
2983.000000	0.001226
2982.000000	0.001228
2981.000000	0.001220
2980.000000	0.001211
2979.000000	0.001211
2978.000000	0.001228
2977.000000	0.001257
2976.000000	0.001285
2975.000000	0.001299
2974.000000	0.001300
2973.000000	0.001300
2972.000000	0.001317
2971.000000	0.001355
2970.000000	0.001411
2969.000000	0.001471
2968.000000	0.001525
2967.000000	0.001568
2966.000000	0.001608
2965.000000	0.001658
2964.000000	0.001722
2963.000000	0.001790
2962.000000	0.001851
2961.000000	0.001904
2960.000000	0.001955
2959.000000	0.002002
2958.000000	0.002031
2957.000000	0.002034
2956.000000	0.002020
2955.000000	0.002008
2954.000000	0.002011
2953.000000	0.002026
2952.000000	0.002045
2951.000000	0.002062
2950.000000	0.002069
2949.000000	0.002065
2948.000000	0.002051
2947.000000	0.002038
2946.000000	0.002041
2945.000000	0.002067
2944.000000	0.002115
2943.000000	0.002182
2942.000000	0.002262
2941.000000	0.002355
2940.000000	0.002460
2939.000000	0.002567
2938.000000	0.002665
2937.000000	0.002747
2936.000000	0.002826
2935.000000	0.002919
2934.000000	0.003031
2933.000000	0.003154
2932.000000	0.003271
2931.000000	0.003377
2930.000000	0.003476
2929.000000	0.003568
2928.000000	0.003651
2927.000000	0.003723
2926.000000	0.003786
2925.000000	0.003837
2924.000000	0.003873
2923.000000	0.003900
2922.000000	0.003918
2921.000000	0.003920
2920.000000	0.003886
2919.000000	0.003801
2918.000000	0.003671
2917.000000	0.003520
2916.000000	0.003375
2915.000000	0.003249
2914.000000	0.003139
2913.000000	0.003037
2912.000000	0.002943
2911.000000	0.002861
2910.000000	0.002793
2909.000000	0.002734
2908.000000	0.002674
2907.000000	0.002608
2906.000000	0.002543
2905.000000	0.002486
2904.000000	0.002440
2903.000000	0.002404
2902.000000	0.002372
2901.000000	0.002339
2900.000000	0.002297
2899.000000	0.002245
2898.000000	0.002190
2897.000000	0.002143
2896.000000	0.002112
2895.000000	0.002099
2894.000000	0.002097
2893.000000	0.002099
2892.000000	0.002093
2891.000000	0.002072
2890.000000	0.002036
2889.000000	0.001993
2888.000000	0.001952
2887.000000	0.001919
2886.000000	0.001894
2885.000000	0.001874
2884.000000	0.001856
2883.000000	0.001836
2882.000000	0.001811
2881.000000	0.001788
2880.000000	0.001771
2879.000000	0.001766
2878.000000	0.001774
2877.000000	0.001791
2876.000000	0.001813
2875.000000	0.001836
2874.000000	0.001855
2873.000000	0.001870
2872.000000	0.001885
2871.000000	0.001904
2870.000000	0.001928
2869.000000	0.001945
2868.000000	0.001946
2867.000000	0.001933
2866.000000	0.001930
2865.000000	0.001955
2864.000000	0.002010
2863.000000	0.002081
2862.000000	0.002154
2861.000000	0.002226
2860.000000	0.002303
2859.000000	0.002388
2858.000000	0.002478
2857.000000	0.002571
2856.000000	0.002664
2855.000000	0.002747
2854.000000	0.002803
2853.000000	0.002820
2852.000000	0.002794
2851.000000	0.002735
2850.000000	0.002652
2849.000000	0.002553
2848.000000	0.002444
2847.000000	0.002330
2846.000000	0.002215
2845.000000	0.002102
2844.000000	0.001992
2843.000000	0.001890
2842.000000	0.001801
2841.000000	0.001730
2840.000000	0.001675
2839.000000	0.001632
2838.000000	0.001591
2837.000000	0.001547
2836.000000	0.001503
2835.000000	0.001469
2834.000000	0.001453
2833.000000	0.001449
2832.000000	0.001447
2831.000000	0.001441
2830.000000	0.001430
2829.000000	0.001412
2828.000000	0.001384
2827.000000	0.001351
2826.000000	0.001324
2825.000000	0.001310
2824.000000	0.001306
2823.000000	0.001297
2822.000000	0.001274
2821.000000	0.001241
2820.000000	0.001214
2819.000000	0.001204
2818.000000	0.001205
2817.000000	0.001202
2816.000000	0.001180
2815.000000	0.001144
2814.000000	0.001113
2813.000000	0.001102
2812.000000	0.001112
2811.000000	0.001131
2810.000000	0.001151
2809.000000	0.001170
2808.000000	0.001189
2807.000000	0.001200
2806.000000	0.001199
2805.000000	0.001188
2804.000000	0.001172
2803.000000	0.001159
2802.000000	0.001153
2801.000000	0.001153
2800.000000	0.001156
2799.000000	0.001158
2798.000000	0.001158
2797.000000	0.001153
2796.000000	0.001143
2795.000000	0.001130
2794.000000	0.001118
2793.000000	0.001109
2792.000000	0.001106
2791.000000	0.001106
2790.000000	0.001108
2789.000000	0.001109
2788.000000	0.001101
2787.000000	0.001085
2786.000000	0.001067
2785.000000	0.001055
2784.000000	0.001049
2783.000000	0.001042
2782.000000	0.001031
2781.000000	0.001019
2780.000000	0.001013
2779.000000	0.001009
2778.000000	0.001004
2777.000000	0.000996
2776.000000	0.000990
2775.000000	0.000990
2774.000000	0.000997
2773.000000	0.001007
2772.000000	0.001010
2771.000000	0.001003
2770.000000	0.000992
2769.000000	0.000988
2768.000000	0.000996
2767.000000	0.001008
2766.000000	0.001012
2765.000000	0.001003
2764.000000	0.000987
2763.000000	0.000968
2762.000000	0.000953
2761.000000	0.000944
2760.000000	0.000944
2759.000000	0.000949
2758.000000	0.000955
2757.000000	0.000957
2756.000000	0.000955
2755.000000	0.000952
2754.000000	0.000948
2753.000000	0.000945
2752.000000	0.000941
2751.000000	0.000937
2750.000000	0.000936
2749.000000	0.000943
2748.000000	0.000960
2747.000000	0.000980
2746.000000	0.000992
2745.000000	0.000985
2744.000000	0.000955
2743.000000	0.000916
2742.000000	0.000884
2741.000000	0.000871
2740.000000	0.000871
2739.000000	0.000870
2738.000000	0.000855
2737.000000	0.000834
2736.000000	0.000823
2735.000000	0.000832
2734.000000	0.000856
2733.000000	0.000880
2732.000000	0.000895
2731.000000	0.000898
2730.000000	0.000895
2729.000000	0.000890
2728.000000	0.000890
2727.000000	0.000894
2726.000000	0.000898
2725.000000	0.000897
2724.000000	0.000893
2723.000000	0.000888
2722.000000	0.000884
2721.000000	0.000873
2720.000000	0.000849
2719.000000	0.000817
2718.000000	0.000791
2717.000000	0.000784
2716.000000	0.000797
2715.000000	0.000816
2714.000000	0.000827
2713.000000	0.000824
2712.000000	0.000814
2711.000000	0.000806
2710.000000	0.000807
2709.000000	0.000816
2708.000000	0.000827
2707.000000	0.000831
2706.000000	0.000825
2705.000000	0.000814
2704.000000	0.000803
2703.000000	0.000794
2702.000000	0.000789
2701.000000	0.000787
2700.000000	0.000788
2699.000000	0.000790
2698.000000	0.000788
2697.000000	0.000783
2696.000000	0.000778
2695.000000	0.000775
2694.000000	0.000778
2693.000000	0.000782
2692.000000	0.000785
2691.000000	0.000785
2690.000000	0.000784
2689.000000	0.000783
2688.000000	0.000779
2687.000000	0.000773
2686.000000	0.000770
2685.000000	0.000778
2684.000000	0.000792
2683.000000	0.000800
2682.000000	0.000796
2681.000000	0.000785
2680.000000	0.000775
2679.000000	0.000774
2678.000000	0.000777
2677.000000	0.000780
2676.000000	0.000779
2675.000000	0.000773
2674.000000	0.000762
2673.000000	0.000753
2672.000000	0.000753
2671.000000	0.000763
2670.000000	0.000776
2669.000000	0.000784
2668.000000	0.000786
2667.000000	0.000785
2666.000000	0.000782
2665.000000	0.000781
2664.000000	0.000784
2663.000000	0.000795
2662.000000	0.000813
2661.000000	0.000832
2660.000000	0.000849
2659.000000	0.000860
2658.000000	0.000861
2657.000000	0.000852
2656.000000	0.000835
2655.000000	0.000815
2654.000000	0.000798
2653.000000	0.000780
2652.000000	0.000755
2651.000000	0.000729
2650.000000	0.000711
2649.000000	0.000705
2648.000000	0.000701
2647.000000	0.000692
2646.000000	0.000682
2645.000000	0.000682
2644.000000	0.000691
2643.000000	0.000696
2642.000000	0.000691
2641.000000	0.000683
2640.000000	0.000686
2639.000000	0.000700
2638.000000	0.000715
2637.000000	0.000723
2636.000000	0.000727
2635.000000	0.000730
2634.000000	0.000732
2633.000000	0.000724
2632.000000	0.000702
2631.000000	0.000668
2630.000000	0.000633
2629.000000	0.000611
2628.000000	0.000605
2627.000000	0.000608
2626.000000	0.000610
2625.000000	0.000604
2624.000000	0.000586
2623.000000	0.000563
2622.000000	0.000544
2621.000000	0.000541
2620.000000	0.000553
2619.000000	0.000566
2618.000000	0.000566
2617.000000	0.000552
2616.000000	0.000531
2615.000000	0.000513
2614.000000	0.000501
2613.000000	0.000498
2612.000000	0.000507
2611.000000	0.000523
2610.000000	0.000535
2609.000000	0.000530
2608.000000	0.000504
2607.000000	0.000472
2606.000000	0.000453
2605.000000	0.000461
2604.000000	0.000491
2603.000000	0.000519
2602.000000	0.000534
2601.000000	0.000540
2600.000000	0.000551
2599.000000	0.000567
2598.000000	0.000567
2597.000000	0.000540
2596.000000	0.000497
2595.000000	0.000466
2594.000000	0.000461
2593.000000	0.000475
2592.000000	0.000490
2591.000000	0.000495
2590.000000	0.000492
2589.000000	0.000481
2588.000000	0.000463
2587.000000	0.000437
2586.000000	0.000407
2585.000000	0.000385
2584.000000	0.000376
2583.000000	0.000375
2582.000000	0.000371
2581.000000	0.000364
2580.000000	0.000356
2579.000000	0.000355
2578.000000	0.000361
2577.000000	0.000369
2576.000000	0.000376
2575.000000	0.000378
2574.000000	0.000376
2573.000000	0.000374
2572.000000	0.000376
2571.000000	0.000379
2570.000000	0.000377
2569.000000	0.000368
2568.000000	0.000353
2567.000000	0.000341
2566.000000	0.000335
2565.000000	0.000333
2564.000000	0.000329
2563.000000	0.000319
2562.000000	0.000313
2561.000000	0.000317
2560.000000	0.000326
2559.000000	0.000325
2558.000000	0.000309
2557.000000	0.000294
2556.000000	0.000293
2555.000000	0.000295
2554.000000	0.000281
2553.000000	0.000250
2552.000000	0.000223
2551.000000	0.000221
2550.000000	0.000243
2549.000000	0.000270
2548.000000	0.000289
2547.000000	0.000298
2546.000000	0.000305
2545.000000	0.000318
2544.000000	0.000342
2543.000000	0.000373
2542.000000	0.000398
2541.000000	0.000409
2540.000000	0.000410
2539.000000	0.000410
2538.000000	0.000415
2537.000000	0.000423
2536.000000	0.000430
2535.000000	0.000431
2534.000000	0.000415
2533.000000	0.000379
2532.000000	0.000329
2531.000000	0.000279
2530.000000	0.000241
2529.000000	0.000224
2528.000000	0.000232
2527.000000	0.000266
2526.000000	0.000318
2525.000000	0.000367
2524.000000	0.000390
2523.000000	0.000376
2522.000000	0.000332
2521.000000	0.000285
2520.000000	0.000263
2519.000000	0.000280
2518.000000	0.000323
2517.000000	0.000365
2516.000000	0.000381
2515.000000	0.000367
2514.000000	0.000334
2513.000000	0.000295
2512.000000	0.000266
2511.000000	0.000261
2510.000000	0.000283
2509.000000	0.000322
2508.000000	0.000362
2507.000000	0.000393
2506.000000	0.000415
2505.000000	0.000429
2504.000000	0.000434
2503.000000	0.000426
2502.000000	0.000405
2501.000000	0.000379
2500.000000	0.000356
2499.000000	0.000340
2498.000000	0.000333
2497.000000	0.000331
2496.000000	0.000332
2495.000000	0.000337
2494.000000	0.000348
2493.000000	0.000362
2492.000000	0.000370
2491.000000	0.000364
2490.000000	0.000346
2489.000000	0.000323
2488.000000	0.000295
2487.000000	0.000266
2486.000000	0.000240
2485.000000	0.000227
2484.000000	0.000225
2483.000000	0.000225
2482.000000	0.000221
2481.000000	0.000218
2480.000000	0.000224
2479.000000	0.000237
2478.000000	0.000249
2477.000000	0.000254
2476.000000	0.000255
2475.000000	0.000254
2474.000000	0.000249
2473.000000	0.000237
2472.000000	0.000221
2471.000000	0.000214
2470.000000	0.000229
2469.000000	0.000269
2468.000000	0.000314
2467.000000	0.000336
2466.000000	0.000318
2465.000000	0.000271
2464.000000	0.000228
2463.000000	0.000221
2462.000000	0.000259
2461.000000	0.000318
2460.000000	0.000368
2459.000000	0.000393
2458.000000	0.000399
2457.000000	0.000400
2456.000000	0.000398
2455.000000	0.000391
2454.000000	0.000383
2453.000000	0.000381
2452.000000	0.000384
2451.000000	0.000378
2450.000000	0.000358
2449.000000	0.000331
2448.000000	0.000308
2447.000000	0.000287
2446.000000	0.000258
2445.000000	0.000217
2444.000000	0.000174
2443.000000	0.000144
2442.000000	0.000139
2441.000000	0.000159
2440.000000	0.000191
2439.000000	0.000219
2438.000000	0.000238
2437.000000	0.000252
2436.000000	0.000263
2435.000000	0.000264
2434.000000	0.000244
2433.000000	0.000206
2432.000000	0.000166
2431.000000	0.000140
2430.000000	0.000126
2429.000000	0.000107
2428.000000	0.000077
2427.000000	0.000053
2426.000000	0.000060
2425.000000	0.000100
2424.000000	0.000153
2423.000000	0.000196
2422.000000	0.000223
2421.000000	0.000236
2420.000000	0.000230
2419.000000	0.000202
2418.000000	0.000168
2417.000000	0.000157
2416.000000	0.000181
2415.000000	0.000224
2414.000000	0.000262
2413.000000	0.000280
2412.000000	0.000274
2411.000000	0.000243
2410.000000	0.000202
2409.000000	0.000178
2408.000000	0.000186
2407.000000	0.000212
2406.000000	0.000232
2405.000000	0.000234
2404.000000	0.000230
2403.000000	0.000229
2402.000000	0.000227
2401.000000	0.000219
2400.000000	0.000212
2399.000000	0.000219
2398.000000	0.000244
2397.000000	0.000270
2396.000000	0.000276
2395.000000	0.000257
2394.000000	0.000226
2393.000000	0.000201
2392.000000	0.000197
2391.000000	0.000216
2390.000000	0.000251
2389.000000	0.000288
2388.000000	0.000312
2387.000000	0.000314
2386.000000	0.000297
2385.000000	0.000269
2384.000000	0.000237
2383.000000	0.000199
2382.000000	0.000150
2381.000000	0.000089
2380.000000	0.000030
2379.000000	-0.000004
2378.000000	0.000001
2377.000000	0.000046
2376.000000	0.000110
2375.000000	0.000169
2374.000000	0.000208
2373.000000	0.000222
2372.000000	0.000211
2371.000000	0.000178
2370.000000	0.000149
2369.000000	0.000147
2368.000000	0.000178
2367.000000	0.000218
2366.000000	0.000236
2365.000000	0.000224
2364.000000	0.000201
2363.000000	0.000190
2362.000000	0.000194
2361.000000	0.000207
2360.000000	0.000227
2359.000000	0.000254
2358.000000	0.000272
2357.000000	0.000266
2356.000000	0.000247
2355.000000	0.000246
2354.000000	0.000252
2353.000000	0.000232
2352.000000	0.000192
2351.000000	0.000177
2350.000000	0.000201
2349.000000	0.000243
2348.000000	0.000272
2347.000000	0.000276
2346.000000	0.000272
2345.000000	0.000289
2344.000000	0.000329
2343.000000	0.000361
2342.000000	0.000362
2341.000000	0.000339
2340.000000	0.000314
2339.000000	0.000304
2338.000000	0.000306
2337.000000	0.000309
2336.000000	0.000307
2335.000000	0.000295
2334.000000	0.000266
2333.000000	0.000219
2332.000000	0.000180
2331.000000	0.000183
2330.000000	0.000233
2329.000000	0.000304
2328.000000	0.000367
2327.000000	0.000404
2326.000000	0.000413
2325.000000	0.000397
2324.000000	0.000363
2323.000000	0.000322
2322.000000	0.000289
2321.000000	0.000283
2320.000000	0.000317
2319.000000	0.000380
2318.000000	0.000445
2317.000000	0.000479
2316.000000	0.000468
2315.000000	0.000419
2314.000000	0.000354
2313.000000	0.000290
2312.000000	0.000232
2311.000000	0.000175
2310.000000	0.000127
2309.000000	0.000098
2308.000000	0.000089
2307.000000	0.000087
2306.000000	0.000084
2305.000000	0.000088
2304.000000	0.000105
2303.000000	0.000125
2302.000000	0.000131
2301.000000	0.000119
2300.000000	0.000099
2299.000000	0.000087
2298.000000	0.000091
2297.000000	0.000113
2296.000000	0.000147
2295.000000	0.000178
2294.000000	0.000194
2293.000000	0.000195
2292.000000	0.000192
2291.000000	0.000192
2290.000000	0.000205
2289.000000	0.000249
2288.000000	0.000331
2287.000000	0.000424
2286.000000	0.000475
2285.000000	0.000458
2284.000000	0.000395
2283.000000	0.000336
2282.000000	0.000311
2281.000000	0.000312
2280.000000	0.000317
2279.000000	0.000303
2278.000000	0.000265
2277.000000	0.000207
2276.000000	0.000140
2275.000000	0.000075
2274.000000	0.000033
2273.000000	0.000036
2272.000000	0.000089
2271.000000	0.000157
2270.000000	0.000188
2269.000000	0.000167
2268.000000	0.000135
2267.000000	0.000146
2266.000000	0.000198
2265.000000	0.000234
2264.000000	0.000216
2263.000000	0.000165
2262.000000	0.000135
2261.000000	0.000147
2260.000000	0.000176
2259.000000	0.000179
2258.000000	0.000139
2257.000000	0.000075
2256.000000	0.000028
2255.000000	0.000030
2254.000000	0.000081
2253.000000	0.000140
2252.000000	0.000167
2251.000000	0.000166
2250.000000	0.000170
2249.000000	0.000182
2248.000000	0.000168
2247.000000	0.000107
2246.000000	0.000026
2245.000000	-0.000032
2244.000000	-0.000047
2243.000000	-0.000020
2242.000000	0.000050
2241.000000	0.000150
2240.000000	0.000227
2239.000000	0.000222
2238.000000	0.000140
2237.000000	0.000053
2236.000000	0.000026
2235.000000	0.000070
2234.000000	0.000145
2233.000000	0.000202
2232.000000	0.000202
2231.000000	0.000139
2230.000000	0.000048
2229.000000	-0.000027
2228.000000	-0.000075
2227.000000	-0.000114
2226.000000	-0.000145
2225.000000	-0.000149
2224.000000	-0.000135
2223.000000	-0.000144
2222.000000	-0.000184
2221.000000	-0.000193
2220.000000	-0.000121
2219.000000	-0.000008
2218.000000	0.000050
2217.000000	0.000005
2216.000000	-0.000099
2215.000000	-0.000174
2214.000000	-0.000155
2213.000000	-0.000036
2212.000000	0.000129
2211.000000	0.000251
2210.000000	0.000269
2209.000000	0.000197
2208.000000	0.000100
2207.000000	0.000033
2206.000000	0.000010
2205.000000	0.000026
2204.000000	0.000087
2203.000000	0.000199
2202.000000	0.000331
2201.000000	0.000412
2200.000000	0.000378
2199.000000	0.000244
2198.000000	0.000106
2197.000000	0.000058
2196.000000	0.000102
2195.000000	0.000155
2194.000000	0.000146
2193.000000	0.000075
2192.000000	-0.000011
2191.000000	-0.000072
2190.000000	-0.000082
2189.000000	-0.000014
2188.000000	0.000137
2187.000000	0.000344
2186.000000	0.000549
2185.000000	0.000680
2184.000000	0.000674
2183.000000	0.000525
2182.000000	0.000323
2181.000000	0.000193
2180.000000	0.000157
2179.000000	0.000103
2178.000000	-0.000078
2177.000000	-0.000345
2176.000000	-0.000534
2175.000000	-0.000527
2174.000000	-0.000351
2173.000000	-0.000150
2172.000000	-0.000061
2171.000000	-0.000122
2170.000000	-0.000253
2169.000000	-0.000332
2168.000000	-0.000322
2167.000000	-0.000301
2166.000000	-0.000351
2165.000000	-0.000442
2164.000000	-0.000466
2163.000000	-0.000363
2162.000000	-0.000179
2161.000000	-0.000016
2160.000000	0.000040
2159.000000	-0.000047
2158.000000	-0.000228
2157.000000	-0.000400
2156.000000	-0.000510
2155.000000	-0.000596
2154.000000	-0.000708
2153.000000	-0.000809
2152.000000	-0.000815
2151.000000	-0.000712
2150.000000	-0.000573
2149.000000	-0.000470
2148.000000	-0.000389
2147.000000	-0.000267
2146.000000	-0.000089
2145.000000	0.000078
2144.000000	0.000152
2143.000000	0.000104
2142.000000	-0.000026
2141.000000	-0.000159
2140.000000	-0.000220
2139.000000	-0.000177
2138.000000	-0.000068
2137.000000	0.000014
2136.000000	-0.000016
2135.000000	-0.000158
2134.000000	-0.000324
2133.000000	-0.000416
2132.000000	-0.000408
2131.000000	-0.000341
2130.000000	-0.000267
2129.000000	-0.000212
2128.000000	-0.000182
2127.000000	-0.000170
2126.000000	-0.000154
2125.000000	-0.000106
2124.000000	-0.000024
2123.000000	0.000058
2122.000000	0.000094
2121.000000	0.000061
2120.000000	-0.000030
2119.000000	-0.000139
2118.000000	-0.000218
2117.000000	-0.000228
2116.000000	-0.000168
2115.000000	-0.000070
2114.000000	0.000027
2113.000000	0.000098
2112.000000	0.000137
2111.000000	0.000158
2110.000000	0.000180
2109.000000	0.000209
2108.000000	0.000227
2107.000000	0.000208
2106.000000	0.000152
2105.000000	0.000093
2104.000000	0.000065
2103.000000	0.000075
2102.000000	0.000101
2101.000000	0.000111
2100.000000	0.000083
2099.000000	0.000022
2098.000000	-0.000040
2097.000000	-0.000064
2096.000000	-0.000043
2095.000000	-0.000019
2094.000000	-0.000043
2093.000000	-0.000125
2092.000000	-0.000230
2091.000000	-0.000296
2090.000000	-0.000279
2089.000000	-0.000178
2088.000000	-0.000043
2087.000000	0.000057
2086.000000	0.000091
2085.000000	0.000077
2084.000000	0.000055
2083.000000	0.000048
2082.000000	0.000044
2081.000000	0.000012
2080.000000	-0.000070
2079.000000	-0.000180
2078.000000	-0.000260
2077.000000	-0.000256
2076.000000	-0.000168
2075.000000	-0.000044
2074.000000	0.000066
2073.000000	0.000130
2072.000000	0.000127
2071.000000	0.000061
2070.000000	-0.000015
2069.000000	-0.000043
2068.000000	-0.000025
2067.000000	-0.000026
2066.000000	-0.000077
2065.000000	-0.000116
2064.000000	-0.000068
2063.000000	0.000035
2062.000000	0.000085
2061.000000	0.000014
2060.000000	-0.000128
2059.000000	-0.000234
2058.000000	-0.000246
2057.000000	-0.000181
2056.000000	-0.000107
2055.000000	-0.000086
2054.000000	-0.000139
2053.000000	-0.000231
2052.000000	-0.000288
2051.000000	-0.000249
2050.000000	-0.000129
2049.000000	-0.000034
2048.000000	-0.000064
2047.000000	-0.000185
2046.000000	-0.000248
2045.000000	-0.000158
2044.000000	0.000017
2043.000000	0.000149
2042.000000	0.000204
2041.000000	0.000229
2040.000000	0.000219
2039.000000	0.000106
2038.000000	-0.000098
2037.000000	-0.000269
2036.000000	-0.000319
2035.000000	-0.000311
2034.000000	-0.000351
2033.000000	-0.000449
2032.000000	-0.000541
2031.000000	-0.000596
2030.000000	-0.000611
2029.000000	-0.000558
2028.000000	-0.000426
2027.000000	-0.000282
2026.000000	-0.000218
2025.000000	-0.000243
2024.000000	-0.000292
2023.000000	-0.000306
2022.000000	-0.000269
2021.000000	-0.000188
2020.000000	-0.000093
2019.000000	-0.000049
2018.000000	-0.000100
2017.000000	-0.000210
2016.000000	-0.000299
2015.000000	-0.000345
2014.000000	-0.000396
2013.000000	-0.000491
2012.000000	-0.000590
2011.000000	-0.000605
2010.000000	-0.000481
2009.000000	-0.000254
2008.000000	-0.000051
2007.000000	0.000000
2006.000000	-0.000130
2005.000000	-0.000362
2004.000000	-0.000585
2003.000000	-0.000720
2002.000000	-0.000743
2001.000000	-0.000683
2000.000000	-0.000618
1999.000000	-0.000624
1998.000000	-0.000698
1997.000000	-0.000754
1996.000000	-0.000708
1995.000000	-0.000550
1994.000000	-0.000349
1993.000000	-0.000203
1992.000000	-0.000178
1991.000000	-0.000248
1990.000000	-0.000314
1989.000000	-0.000305
1988.000000	-0.000252
1987.000000	-0.000236
1986.000000	-0.000262
1985.000000	-0.000261
1984.000000	-0.000206
1983.000000	-0.000156
1982.000000	-0.000163
1981.000000	-0.000203
1980.000000	-0.000251
1979.000000	-0.000347
1978.000000	-0.000519
1977.000000	-0.000696
1976.000000	-0.000786
1975.000000	-0.000813
1974.000000	-0.000856
1973.000000	-0.000930
1972.000000	-0.000988
1971.000000	-0.001015
1970.000000	-0.001016
1969.000000	-0.000957
1968.000000	-0.000810
1967.000000	-0.000622
1966.000000	-0.000482
1965.000000	-0.000397
1964.000000	-0.000316
1963.000000	-0.000236
1962.000000	-0.000236
1961.000000	-0.000359
1960.000000	-0.000533
1959.000000	-0.000648
1958.000000	-0.000656
1957.000000	-0.000592
1956.000000	-0.000514
1955.000000	-0.000469
1954.000000	-0.000472
1953.000000	-0.000495
1952.000000	-0.000491
1951.000000	-0.000445
1950.000000	-0.000401
1949.000000	-0.000409
1948.000000	-0.000474
1947.000000	-0.000551
1946.000000	-0.000594
1945.000000	-0.000580
1944.000000	-0.000522
1943.000000	-0.000457
1942.000000	-0.000423
1941.000000	-0.000433
1940.000000	-0.000454
1939.000000	-0.000439
1938.000000	-0.000363
1937.000000	-0.000246
1936.000000	-0.000132
1935.000000	-0.000068
1934.000000	-0.000089
1933.000000	-0.000202
1932.000000	-0.000364
1931.000000	-0.000486
1930.000000	-0.000498
1929.000000	-0.000410
1928.000000	-0.000313
1927.000000	-0.000277
1926.000000	-0.000293
1925.000000	-0.000312
1924.000000	-0.000324
1923.000000	-0.000364
1922.000000	-0.000431
1921.000000	-0.000472
1920.000000	-0.000445
1919.000000	-0.000380
1918.000000	-0.000332
1917.000000	-0.000313
1916.000000	-0.000292
1915.000000	-0.000252
1914.000000	-0.000220
1913.000000	-0.000227
1912.000000	-0.000266
1911.000000	-0.000305
1910.000000	-0.000315
1909.000000	-0.000297
1908.000000	-0.000265
1907.000000	-0.000233
1906.000000	-0.000213
1905.000000	-0.000221
1904.000000	-0.000269
1903.000000	-0.000346
1902.000000	-0.000417
1901.000000	-0.000463
1900.000000	-0.000499
1899.000000	-0.000548
1898.000000	-0.000596
1897.000000	-0.000605
1896.000000	-0.000555
1895.000000	-0.000470
1894.000000	-0.000395
1893.000000	-0.000356
1892.000000	-0.000362
1891.000000	-0.000406
1890.000000	-0.000465
1889.000000	-0.000511
1888.000000	-0.000526
1887.000000	-0.000516
1886.000000	-0.000495
1885.000000	-0.000471
1884.000000	-0.000456
1883.000000	-0.000456
1882.000000	-0.000476
1881.000000	-0.000517
1880.000000	-0.000571
1879.000000	-0.000617
1878.000000	-0.000625
1877.000000	-0.000590
1876.000000	-0.000549
1875.000000	-0.000542
1874.000000	-0.000565
1873.000000	-0.000572
1872.000000	-0.000540
1871.000000	-0.000489
1870.000000	-0.000458
1869.000000	-0.000461
1868.000000	-0.000481
1867.000000	-0.000499
1866.000000	-0.000510
1865.000000	-0.000534
1864.000000	-0.000588
1863.000000	-0.000664
1862.000000	-0.000721
1861.000000	-0.000724
1860.000000	-0.000677
1859.000000	-0.000614
1858.000000	-0.000560
1857.000000	-0.000516
1856.000000	-0.000491
1855.000000	-0.000496
1854.000000	-0.000522
1853.000000	-0.000545
1852.000000	-0.000561
1851.000000	-0.000585
1850.000000	-0.000627
1849.000000	-0.000676
1848.000000	-0.000711
1847.000000	-0.000713
1846.000000	-0.000669
1845.000000	-0.000590
1844.000000	-0.000528
1843.000000	-0.000533
1842.000000	-0.000588
1841.000000	-0.000634
1840.000000	-0.000641
1839.000000	-0.000628
1838.000000	-0.000622
1837.000000	-0.000625
1836.000000	-0.000620
1835.000000	-0.000613
1834.000000	-0.000623
1833.000000	-0.000666
1832.000000	-0.000732
1831.000000	-0.000788
1830.000000	-0.000810
1829.000000	-0.000807
1828.000000	-0.000804
1827.000000	-0.000810
1826.000000	-0.000816
1825.000000	-0.000806
1824.000000	-0.000788
1823.000000	-0.000781
1822.000000	-0.000783
1821.000000	-0.000770
1820.000000	-0.000728
1819.000000	-0.000681
1818.000000	-0.000656
1817.000000	-0.000655
1816.000000	-0.000658
1815.000000	-0.000665
1814.000000	-0.000682
1813.000000	-0.000708
1812.000000	-0.000731
1811.000000	-0.000750
1810.000000	-0.000764
1809.000000	-0.000757
1808.000000	-0.000719
1807.000000	-0.000674
1806.000000	-0.000657
1805.000000	-0.000683
1804.000000	-0.000738
1803.000000	-0.000800
1802.000000	-0.000846
1801.000000	-0.000857
1800.000000	-0.000822
1799.000000	-0.000757
1798.000000	-0.000699
1797.000000	-0.000674
1796.000000	-0.000687
1795.000000	-0.000716
1794.000000	-0.000733
1793.000000	-0.000723
1792.000000	-0.000705
1791.000000	-0.000713
1790.000000	-0.000749
1789.000000	-0.000786
1788.000000	-0.000804
1787.000000	-0.000805
1786.000000	-0.000798
1785.000000	-0.000793
1784.000000	-0.000800
1783.000000	-0.000816
1782.000000	-0.000825
1781.000000	-0.000819
1780.000000	-0.000808
1779.000000	-0.000809
1778.000000	-0.000823
1777.000000	-0.000848
1776.000000	-0.000877
1775.000000	-0.000898
1774.000000	-0.000897
1773.000000	-0.000878
1772.000000	-0.000868
1771.000000	-0.000886
1770.000000	-0.000909
1769.000000	-0.000907
1768.000000	-0.000880
1767.000000	-0.000855
1766.000000	-0.000844
1765.000000	-0.000837
1764.000000	-0.000821
1763.000000	-0.000798
1762.000000	-0.000775
1761.000000	-0.000759
1760.000000	-0.000746
1759.000000	-0.000727
1758.000000	-0.000686
1757.000000	-0.000610
1756.000000	-0.000511
1755.000000	-0.000409
1754.000000	-0.000314
1753.000000	-0.000218
1752.000000	-0.000120
1751.000000	-0.000022
1750.000000	0.000062
1749.000000	0.000127
1748.000000	0.000169
1747.000000	0.000192
1746.000000	0.000204
1745.000000	0.000214
1744.000000	0.000222
1743.000000	0.000215
1742.000000	0.000183
1741.000000	0.000125
1740.000000	0.000040
1739.000000	-0.000071
1738.000000	-0.000183
1737.000000	-0.000257
1736.000000	-0.000283
1735.000000	-0.000291
1734.000000	-0.000312
1733.000000	-0.000359
1732.000000	-0.000415
1731.000000	-0.000457
1730.000000	-0.000492
1729.000000	-0.000533
1728.000000	-0.000590
1727.000000	-0.000654
1726.000000	-0.000716
1725.000000	-0.000764
1724.000000	-0.000790
1723.000000	-0.000809
1722.000000	-0.000832
1721.000000	-0.000852
1720.000000	-0.000854
1719.000000	-0.000846
1718.000000	-0.000853
1717.000000	-0.000870
1716.000000	-0.000877
1715.000000	-0.000870
1714.000000	-0.000860
1713.000000	-0.000848
1712.000000	-0.000837
1711.000000	-0.000829
1710.000000	-0.000818
1709.000000	-0.000796
1708.000000	-0.000758
1707.000000	-0.000701
1706.000000	-0.000631
1705.000000	-0.000559
1704.000000	-0.000504
1703.000000	-0.000463
1702.000000	-0.000423
1701.000000	-0.000351
1700.000000	-0.000220
1699.000000	-0.000087
1698.000000	0.000041
1697.000000	0.000212
1696.000000	0.000409
1695.000000	0.000562
1694.000000	0.000656
1693.000000	0.000751
1692.000000	0.000877
1691.000000	0.001012
1690.000000	0.001130
1689.000000	0.001231
1688.000000	0.001332
1687.000000	0.001443
1686.000000	0.001557
1685.000000	0.001690
1684.000000	0.001843
1683.000000	0.001979
1682.000000	0.002128
1681.000000	0.002314
1680.000000	0.002506
1679.000000	0.002660
1678.000000	0.002778
1677.000000	0.002901
1676.000000	0.003062
1675.000000	0.003258
1674.000000	0.003456
1673.000000	0.003642
1672.000000	0.003832
1671.000000	0.004031
1670.000000	0.004245
1669.000000	0.004467
1668.000000	0.004683
1667.000000	0.004884
1666.000000	0.005071
1665.000000	0.005251
1664.000000	0.005428
1663.000000	0.005593
1662.000000	0.005750
1661.000000	0.005909
1660.000000	0.006075
1659.000000	0.006230
1658.000000	0.006360
1657.000000	0.006470
1656.000000	0.006588
1655.000000	0.006723
1654.000000	0.006863
1653.000000	0.006986
1652.000000	0.007034
1651.000000	0.007032
1650.000000	0.007034
1649.000000	0.007083
1648.000000	0.007172
1647.000000	0.007251
1646.000000	0.007286
1645.000000	0.007309
1644.000000	0.007351
1643.000000	0.007405
1642.000000	0.007462
1641.000000	0.007509
1640.000000	0.007539
1639.000000	0.007552
1638.000000	0.007556
1637.000000	0.007560
1636.000000	0.007566
1635.000000	0.007574
1634.000000	0.007580
1633.000000	0.007591
1632.000000	0.007596
1631.000000	0.007579
1630.000000	0.007537
1629.000000	0.007480
1628.000000	0.007414
1627.000000	0.007329
1626.000000	0.007219
1625.000000	0.007080
1624.000000	0.006912
1623.000000	0.006727
1622.000000	0.006547
1621.000000	0.006386
1620.000000	0.006243
1619.000000	0.006106
1618.000000	0.005948
1617.000000	0.005749
1616.000000	0.005517
1615.000000	0.005294
1614.000000	0.005112
1613.000000	0.004958
1612.000000	0.004803
1611.000000	0.004635
1610.000000	0.004469
1609.000000	0.004311
1608.000000	0.004159
1607.000000	0.004021
1606.000000	0.003919
1605.000000	0.003842
1604.000000	0.003762
1603.000000	0.003669
1602.000000	0.003574
1601.000000	0.003491
1600.000000	0.003419
1599.000000	0.003361
1598.000000	0.003314
1597.000000	0.003272
1596.000000	0.003227
1595.000000	0.003179
1594.000000	0.003139
1593.000000	0.003111
1592.000000	0.003089
1591.000000	0.003067
1590.000000	0.003049
1589.000000	0.003039
1588.000000	0.003043
1587.000000	0.003070
1586.000000	0.003122
1585.000000	0.003183
1584.000000	0.003230
1583.000000	0.003265
1582.000000	0.003301
1581.000000	0.003335
1580.000000	0.003371
1579.000000	0.003428
1578.000000	0.003521
1577.000000	0.003634
1576.000000	0.003725
1575.000000	0.003779
1574.000000	0.003822
1573.000000	0.003875
1572.000000	0.003938
1571.000000	0.004011
1570.000000	0.004109
1569.000000	0.004221
1568.000000	0.004324
1567.000000	0.004427
1566.000000	0.004545
1565.000000	0.004674
1564.000000	0.004795
1563.000000	0.004910
1562.000000	0.005028
1561.000000	0.005136
1560.000000	0.005217
1559.000000	0.005308
1558.000000	0.005370
1557.000000	0.005438
1556.000000	0.005545
1555.000000	0.005673
1554.000000	0.005792
1553.000000	0.005886
1552.000000	0.005965
1551.000000	0.006037
1550.000000	0.006092
1549.000000	0.006134
1548.000000	0.006177
1547.000000	0.006227
1546.000000	0.006271
1545.000000	0.006299
1544.000000	0.006312
1543.000000	0.006315
1542.000000	0.006310
1541.000000	0.006301
1540.000000	0.006279
1539.000000	0.006231
1538.000000	0.006181
1537.000000	0.006144
1536.000000	0.006112
1535.000000	0.006062
1534.000000	0.005984
1533.000000	0.005903
1532.000000	0.005849
1531.000000	0.005809
1530.000000	0.005752
1529.000000	0.005674
1528.000000	0.005591
1527.000000	0.005507
1526.000000	0.005408
1525.000000	0.005302
1524.000000	0.005212
1523.000000	0.005139
1522.000000	0.005061
1521.000000	0.004971
1520.000000	0.004889
1519.000000	0.004832
1518.000000	0.004791
1517.000000	0.004743
1516.000000	0.004671
1515.000000	0.004581
1514.000000	0.004491
1513.000000	0.004405
1512.000000	0.004327
1511.000000	0.004256
1510.000000	0.004186
1509.000000	0.004114
1508.000000	0.004033
1507.000000	0.003917
1506.000000	0.003761
1505.000000	0.003636
1504.000000	0.003559
1503.000000	0.003498
1502.000000	0.003433
1501.000000	0.003356
1500.000000	0.003277
1499.000000	0.003210
1498.000000	0.003148
1497.000000	0.003074
1496.000000	0.002981
1495.000000	0.002870
1494.000000	0.002757
1493.000000	0.002658
1492.000000	0.002572
1491.000000	0.002482
1490.000000	0.002386
1489.000000	0.002308
1488.000000	0.002270
1487.000000	0.002257
1486.000000	0.002255
1485.000000	0.002264
1484.000000	0.002280
1483.000000	0.002296
1482.000000	0.002302
1481.000000	0.002305
1480.000000	0.002315
1479.000000	0.002330
1478.000000	0.002349
1477.000000	0.002379
1476.000000	0.002429
1475.000000	0.002488
1474.000000	0.002556
1473.000000	0.002646
1472.000000	0.002766
1471.000000	0.002899
1470.000000	0.003029
1469.000000	0.003152
1468.000000	0.003265
1467.000000	0.003357
1466.000000	0.003429
1465.000000	0.003499
1464.000000	0.003579
1463.000000	0.003663
1462.000000	0.003733
1461.000000	0.003784
1460.000000	0.003830
1459.000000	0.003891
1458.000000	0.003977
1457.000000	0.004069
1456.000000	0.004130
1455.000000	0.004160
1454.000000	0.004188
1453.000000	0.004228
1452.000000	0.004271
1451.000000	0.004295
1450.000000	0.004297
1449.000000	0.004293
1448.000000	0.004294
1447.000000	0.004292
1446.000000	0.004275
1445.000000	0.004239
1444.000000	0.004194
1443.000000	0.004147
1442.000000	0.004101
1441.000000	0.004056
1440.000000	0.004015
1439.000000	0.003970
1438.000000	0.003892
1437.000000	0.003771
1436.000000	0.003647
1435.000000	0.003566
1434.000000	0.003525
1433.000000	0.003500
1432.000000	0.003472
1431.000000	0.003438
1430.000000	0.003399
1429.000000	0.003356
1428.000000	0.003313
1427.000000	0.003277
1426.000000	0.003252
1425.000000	0.003237
1424.000000	0.003232
1423.000000	0.003241
1422.000000	0.003256
1421.000000	0.003258
1420.000000	0.003234
1419.000000	0.003201
1418.000000	0.003174
1417.000000	0.003169
1416.000000	0.003197
1415.000000	0.003241
1414.000000	0.003271
1413.000000	0.003276
1412.000000	0.003273
1411.000000	0.003282
1410.000000	0.003300
1409.000000	0.003318
1408.000000	0.003336
1407.000000	0.003357
1406.000000	0.003385
1405.000000	0.003412
1404.000000	0.003432
1403.000000	0.003447
1402.000000	0.003456
1401.000000	0.003452
1400.000000	0.003430
1399.000000	0.003396
1398.000000	0.003358
1397.000000	0.003326
1396.000000	0.003300
1395.000000	0.003267
1394.000000	0.003223
1393.000000	0.003175
1392.000000	0.003143
1391.000000	0.003134
1390.000000	0.003137
1389.000000	0.003132
1388.000000	0.003112
1387.000000	0.003081
1386.000000	0.003046
1385.000000	0.003013
1384.000000	0.002974
1383.000000	0.002926
1382.000000	0.002874
1381.000000	0.002833
1380.000000	0.002805
1379.000000	0.002779
1378.000000	0.002744
1377.000000	0.002706
1376.000000	0.002671
1375.000000	0.002636
1374.000000	0.002583
1373.000000	0.002509
1372.000000	0.002434
1371.000000	0.002372
1370.000000	0.002328
1369.000000	0.002287
1368.000000	0.002238
1367.000000	0.002180
1366.000000	0.002121
1365.000000	0.002069
1364.000000	0.002024
1363.000000	0.001982
1362.000000	0.001937
1361.000000	0.001899
1360.000000	0.001881
1359.000000	0.001881
1358.000000	0.001887
1357.000000	0.001885
1356.000000	0.001876
1355.000000	0.001871
1354.000000	0.001880
1353.000000	0.001906
1352.000000	0.001947
1351.000000	0.001992
1350.000000	0.002041
1349.000000	0.002096
1348.000000	0.002159
1347.000000	0.002219
1346.000000	0.002265
1345.000000	0.002294
1344.000000	0.002314
1343.000000	0.002335
1342.000000	0.002364
1341.000000	0.002406
1340.000000	0.002463
1339.000000	0.002522
1338.000000	0.002564
1337.000000	0.002577
1336.000000	0.002567
1335.000000	0.002546
1334.000000	0.002524
1333.000000	0.002502
1332.000000	0.002482
1331.000000	0.002461
1330.000000	0.002430
1329.000000	0.002382
1328.000000	0.002324
1327.000000	0.002271
1326.000000	0.002235
1325.000000	0.002213
1324.000000	0.002200
1323.000000	0.002192
1322.000000	0.002187
1321.000000	0.002182
1320.000000	0.002179
1319.000000	0.002181
1318.000000	0.002186
1317.000000	0.002188
1316.000000	0.002182
1315.000000	0.002171
1314.000000	0.002158
1313.000000	0.002135
1312.000000	0.002097
1311.000000	0.002053
1310.000000	0.002017
1309.000000	0.002000
1308.000000	0.001998
1307.000000	0.001997
1306.000000	0.001982
1305.000000	0.001955
1304.000000	0.001926
1303.000000	0.001907
1302.000000	0.001898
1301.000000	0.001884
1300.000000	0.001861
1299.000000	0.001836
1298.000000	0.001819
1297.000000	0.001813
1296.000000	0.001812
1295.000000	0.001816
1294.000000	0.001830
1293.000000	0.001852
1292.000000	0.001880
1291.000000	0.001908
1290.000000	0.001935
1289.000000	0.001961
1288.000000	0.001991
1287.000000	0.002025
1286.000000	0.002062
1285.000000	0.002095
1284.000000	0.002122
1283.000000	0.002149
1282.000000	0.002180
1281.000000	0.002208
1280.000000	0.002223
1279.000000	0.002217
1278.000000	0.002201
1277.000000	0.002186
1276.000000	0.002176
1275.000000	0.002162
1274.000000	0.002139
1273.000000	0.002117
1272.000000	0.002106
1271.000000	0.002112
1270.000000	0.002126
1269.000000	0.002144
1268.000000	0.002165
1267.000000	0.002193
1266.000000	0.002223
1265.000000	0.002247
1264.000000	0.002265
1263.000000	0.002286
1262.000000	0.002317
1261.000000	0.002352
1260.000000	0.002383
1259.000000	0.002411
1258.000000	0.002450
1257.000000	0.002505
1256.000000	0.002563
1255.000000	0.002605
1254.000000	0.002631
1253.000000	0.002664
1252.000000	0.002721
1251.000000	0.002796
1250.000000	0.002867
1249.000000	0.002925
1248.000000	0.002977
1247.000000	0.003035
1246.000000	0.003104
1245.000000	0.003180
1244.000000	0.003257
1243.000000	0.003329
1242.000000	0.003390
1241.000000	0.003434
1240.000000	0.003461
1239.000000	0.003469
1238.000000	0.003462
1237.000000	0.003441
1236.000000	0.003415
1235.000000	0.003393
1234.000000	0.003377
1233.000000	0.003361
1232.000000	0.003332
1231.000000	0.003281
1230.000000	0.003211
1229.000000	0.003132
1228.000000	0.003054
1227.000000	0.002982
1226.000000	0.002911
1225.000000	0.002835
1224.000000	0.002750
1223.000000	0.002655
1222.000000	0.002548
1221.000000	0.002429
1220.000000	0.002312
1219.000000	0.002213
1218.000000	0.002146
1217.000000	0.002113
1216.000000	0.002106
1215.000000	0.002110
1214.000000	0.002112
1213.000000	0.002104
1212.000000	0.002091
1211.000000	0.002081
1210.000000	0.002075
1209.000000	0.002075
1208.000000	0.002082
1207.000000	0.002098
1206.000000	0.002118
1205.000000	0.002133
1204.000000	0.002141
1203.000000	0.002148
1202.000000	0.002159
1201.000000	0.002165
1200.000000	0.002151
1199.000000	0.002110
1198.000000	0.002052
1197.000000	0.001995
1196.000000	0.001953
1195.000000	0.001925
1194.000000	0.001903
1193.000000	0.001875
1192.000000	0.001833
1191.000000	0.001777
1190.000000	0.001720
1189.000000	0.001674
1188.000000	0.001645
1187.000000	0.001628
1186.000000	0.001616
1185.000000	0.001606
1184.000000	0.001600
1183.000000	0.001600
1182.000000	0.001603
1181.000000	0.001604
1180.000000	0.001600
1179.000000	0.001598
1178.000000	0.001610
1177.000000	0.001644
1176.000000	0.001691
1175.000000	0.001727
1174.000000	0.001738
1173.000000	0.001727
1172.000000	0.001713
1171.000000	0.001708
1170.000000	0.001707
1169.000000	0.001708
1168.000000	0.001720
1167.000000	0.001751
1166.000000	0.001793
1165.000000	0.001823
1164.000000	0.001830
1163.000000	0.001829
1162.000000	0.001839
1161.000000	0.001861
1160.000000	0.001874
1159.000000	0.001862
1158.000000	0.001832
1157.000000	0.001799
1156.000000	0.001775
1155.000000	0.001757
1154.000000	0.001737
1153.000000	0.001705
1152.000000	0.001659
1151.000000	0.001610
1150.000000	0.001568
1149.000000	0.001536
1148.000000	0.001500
1147.000000	0.001451
1146.000000	0.001398
1145.000000	0.001363
1144.000000	0.001354
1143.000000	0.001356
1142.000000	0.001346
1141.000000	0.001317
1140.000000	0.001273
1139.000000	0.001223
1138.000000	0.001170
1137.000000	0.001114
1136.000000	0.001055
1135.000000	0.001002
1134.000000	0.000965
1133.000000	0.000947
1132.000000	0.000936
1131.000000	0.000921
1130.000000	0.000906
1129.000000	0.000905
1128.000000	0.000926
1127.000000	0.000957
1126.000000	0.000986
1125.000000	0.001011
1124.000000	0.001028
1123.000000	0.001021
1122.000000	0.000988
1121.000000	0.000950
1120.000000	0.000944
1119.000000	0.000981
1118.000000	0.001037
1117.000000	0.001077
1116.000000	0.001086
1115.000000	0.001070
1114.000000	0.001042
1113.000000	0.001013
1112.000000	0.000993
1111.000000	0.000992
1110.000000	0.001014
1109.000000	0.001051
1108.000000	0.001086
1107.000000	0.001100
1106.000000	0.001091
1105.000000	0.001071
1104.000000	0.001063
1103.000000	0.001079
1102.000000	0.001113
1101.000000	0.001150
1100.000000	0.001181
1099.000000	0.001202
1098.000000	0.001211
1097.000000	0.001208
1096.000000	0.001193
1095.000000	0.001176
1094.000000	0.001166
1093.000000	0.001174
1092.000000	0.001204
1091.000000	0.001262
1090.000000	0.001350
1089.000000	0.001453
1088.000000	0.001543
1087.000000	0.001598
1086.000000	0.001623
1085.000000	0.001648
1084.000000	0.001688
1083.000000	0.001727
1082.000000	0.001739
1081.000000	0.001727
1080.000000	0.001716
1079.000000	0.001723
1078.000000	0.001730
1077.000000	0.001709
1076.000000	0.001651
1075.000000	0.001573
1074.000000	0.001498
1073.000000	0.001437
1072.000000	0.001388
1071.000000	0.001354
1070.000000	0.001335
1069.000000	0.001332
1068.000000	0.001337
1067.000000	0.001341
1066.000000	0.001345
1065.000000	0.001351
1064.000000	0.001362
1063.000000	0.001372
1062.000000	0.001375
1061.000000	0.001364
1060.000000	0.001338
1059.000000	0.001307
1058.000000	0.001286
1057.000000	0.001287
1056.000000	0.001308
1055.000000	0.001333
1054.000000	0.001352
1053.000000	0.001365
1052.000000	0.001368
1051.000000	0.001356
1050.000000	0.001328
1049.000000	0.001295
1048.000000	0.001274
1047.000000	0.001269
1046.000000	0.001278
1045.000000	0.001294
1044.000000	0.001315
1043.000000	0.001336
1042.000000	0.001351
1041.000000	0.001364
1040.000000	0.001378
1039.000000	0.001391
1038.000000	0.001395
1037.000000	0.001385
1036.000000	0.001370
1035.000000	0.001360
1034.000000	0.001363
1033.000000	0.001375
1032.000000	0.001389
1031.000000	0.001402
1030.000000	0.001417
1029.000000	0.001435
1028.000000	0.001449
1027.000000	0.001442
1026.000000	0.001412
1025.000000	0.001372
1024.000000	0.001338
1023.000000	0.001318
1022.000000	0.001317
1021.000000	0.001331
1020.000000	0.001341
1019.000000	0.001320
1018.000000	0.001258
1017.000000	0.001184
1016.000000	0.001139
1015.000000	0.001134
1014.000000	0.001152
1013.000000	0.001164
1012.000000	0.001158
1011.000000	0.001129
1010.000000	0.001075
1009.000000	0.001003
1008.000000	0.000936
1007.000000	0.000888
1006.000000	0.000858
1005.000000	0.000828
1004.000000	0.000787
1003.000000	0.000735
1002.000000	0.000676
1001.000000	0.000617
1000.000000	0.000563
999.000000	0.000521
998.000000	0.000490
997.000000	0.000460
996.000000	0.000421
995.000000	0.000372
994.000000	0.000325
993.000000	0.000296
992.000000	0.000286
991.000000	0.000284
990.000000	0.000276
989.000000	0.000256
988.000000	0.000227
987.000000	0.000194
986.000000	0.000169
985.000000	0.000159
984.000000	0.000166
983.000000	0.000182
982.000000	0.000200
981.000000	0.000212
980.000000	0.000207
979.000000	0.000177
978.000000	0.000125
977.000000	0.000074
976.000000	0.000039
975.000000	0.000022
974.000000	0.000012
973.000000	0.000009
972.000000	0.000017
971.000000	0.000031
970.000000	0.000042
969.000000	0.000051
968.000000	0.000062
967.000000	0.000069
966.000000	0.000057
965.000000	0.000014
964.000000	-0.000046
963.000000	-0.000102
962.000000	-0.000142
961.000000	-0.000163
960.000000	-0.000170
959.000000	-0.000178
958.000000	-0.000200
957.000000	-0.000238
956.000000	-0.000279
955.000000	-0.000306
954.000000	-0.000317
953.000000	-0.000316
952.000000	-0.000313
951.000000	-0.000313
950.000000	-0.000325
949.000000	-0.000352
948.000000	-0.000390
947.000000	-0.000425
946.000000	-0.000439
945.000000	-0.000422
944.000000	-0.000385
943.000000	-0.000357
942.000000	-0.000360
941.000000	-0.000393
940.000000	-0.000436
939.000000	-0.000466
938.000000	-0.000475
937.000000	-0.000465
936.000000	-0.000447
935.000000	-0.000435
934.000000	-0.000438
933.000000	-0.000451
932.000000	-0.000463
931.000000	-0.000472
930.000000	-0.000486
929.000000	-0.000506
928.000000	-0.000525
927.000000	-0.000535
926.000000	-0.000539
925.000000	-0.000537
924.000000	-0.000525
923.000000	-0.000499
922.000000	-0.000469
921.000000	-0.000447
920.000000	-0.000439
919.000000	-0.000445
918.000000	-0.000464
917.000000	-0.000494
916.000000	-0.000524
915.000000	-0.000550
914.000000	-0.000578
913.000000	-0.000620
912.000000	-0.000673
911.000000	-0.000719
910.000000	-0.000749
909.000000	-0.000768
908.000000	-0.000788
907.000000	-0.000807
906.000000	-0.000814
905.000000	-0.000801
904.000000	-0.000774
903.000000	-0.000745
902.000000	-0.000727
901.000000	-0.000724
900.000000	-0.000737
899.000000	-0.000763
898.000000	-0.000789
897.000000	-0.000801
896.000000	-0.000798
895.000000	-0.000793
894.000000	-0.000803
893.000000	-0.000829
892.000000	-0.000859
891.000000	-0.000877
890.000000	-0.000881
889.000000	-0.000873
888.000000	-0.000859
887.000000	-0.000839
886.000000	-0.000812
885.000000	-0.000771
884.000000	-0.000716
883.000000	-0.000662
882.000000	-0.000633
881.000000	-0.000635
880.000000	-0.000643
879.000000	-0.000625
878.000000	-0.000581
877.000000	-0.000535
876.000000	-0.000511
875.000000	-0.000500
874.000000	-0.000478
873.000000	-0.000450
872.000000	-0.000441
871.000000	-0.000475
870.000000	-0.000537
869.000000	-0.000596
868.000000	-0.000633
867.000000	-0.000658
866.000000	-0.000686
865.000000	-0.000713
864.000000	-0.000733
863.000000	-0.000743
862.000000	-0.000749
861.000000	-0.000751
860.000000	-0.000741
859.000000	-0.000722
858.000000	-0.000707
857.000000	-0.000702
856.000000	-0.000703
855.000000	-0.000709
854.000000	-0.000723
853.000000	-0.000751
852.000000	-0.000779
851.000000	-0.000788
850.000000	-0.000769
849.000000	-0.000740
848.000000	-0.000725
847.000000	-0.000734
846.000000	-0.000751
845.000000	-0.000745
844.000000	-0.000694
843.000000	-0.000615
842.000000	-0.000556
841.000000	-0.000555
840.000000	-0.000600
839.000000	-0.000647
838.000000	-0.000664
837.000000	-0.000671
836.000000	-0.000707
835.000000	-0.000783
834.000000	-0.000872
833.000000	-0.000935
832.000000	-0.000960
831.000000	-0.000959
830.000000	-0.000945
829.000000	-0.000926
828.000000	-0.000901
827.000000	-0.000869
826.000000	-0.000832
825.000000	-0.000794
824.000000	-0.000768
823.000000	-0.000770
822.000000	-0.000797
821.000000	-0.000820
820.000000	-0.000807
819.000000	-0.000750
818.000000	-0.000682
817.000000	-0.000654
816.000000	-0.000689
815.000000	-0.000759
814.000000	-0.000807
813.000000	-0.000801
812.000000	-0.000752
811.000000	-0.000702
810.000000	-0.000673
809.000000	-0.000666
808.000000	-0.000672
807.000000	-0.000691
806.000000	-0.000725
805.000000	-0.000760
804.000000	-0.000780
803.000000	-0.000778
802.000000	-0.000765
801.000000	-0.000762
800.000000	-0.000783
799.000000	-0.000828
798.000000	-0.000884
797.000000	-0.000928
796.000000	-0.000948
795.000000	-0.000937
794.000000	-0.000894
793.000000	-0.000829
792.000000	-0.000762
791.000000	-0.000713
790.000000	-0.000683
789.000000	-0.000665
788.000000	-0.000651
787.000000	-0.000644
786.000000	-0.000633
785.000000	-0.000598
784.000000	-0.000535
783.000000	-0.000480
782.000000	-0.000481
781.000000	-0.000545
780.000000	-0.000626
779.000000	-0.000663
778.000000	-0.000634
777.000000	-0.000566
776.000000	-0.000507
775.000000	-0.000486
774.000000	-0.000503
773.000000	-0.000542
772.000000	-0.000583
771.000000	-0.000615
770.000000	-0.000632
769.000000	-0.000633
768.000000	-0.000619
767.000000	-0.000598
766.000000	-0.000573
765.000000	-0.000541
764.000000	-0.000503
763.000000	-0.000472
762.000000	-0.000463
761.000000	-0.000473
760.000000	-0.000483
759.000000	-0.000488
758.000000	-0.000500
757.000000	-0.000535
756.000000	-0.000576
755.000000	-0.000590
754.000000	-0.000562
753.000000	-0.000515
752.000000	-0.000489
751.000000	-0.000499
750.000000	-0.000528
749.000000	-0.000549
748.000000	-0.000549
747.000000	-0.000533
746.000000	-0.000509
745.000000	-0.000482
744.000000	-0.000448
743.000000	-0.000405
742.000000	-0.000360
741.000000	-0.000321
740.000000	-0.000283
739.000000	-0.000230
738.000000	-0.000161
737.000000	-0.000095
736.000000	-0.000060
735.000000	-0.000063
734.000000	-0.000083
733.000000	-0.000091
732.000000	-0.000066
731.000000	-0.000008
730.000000	0.000061
729.000000	0.000110
728.000000	0.000131
727.000000	0.000148
726.000000	0.000196
725.000000	0.000269
724.000000	0.000323
723.000000	0.000327
722.000000	0.000298
721.000000	0.000279
720.000000	0.000287
719.000000	0.000309
718.000000	0.000338
717.000000	0.000379
716.000000	0.000426
715.000000	0.000452
714.000000	0.000436
713.000000	0.000396
712.000000	0.000370
711.000000	0.000378
710.000000	0.000402
709.000000	0.000416
708.000000	0.000408
707.000000	0.000397
706.000000	0.000410
705.000000	0.000450
704.000000	0.000487
703.000000	0.000494
702.000000	0.000482
701.000000	0.000487
700.000000	0.000515
699.000000	0.000535
698.000000	0.000521
697.000000	0.000490
696.000000	0.000474
695.000000	0.000474
694.000000	0.000468
693.000000	0.000443
692.000000	0.000419
691.000000	0.000409
690.000000	0.000407
689.000000	0.000407
688.000000	0.000421
687.000000	0.000458
686.000000	0.000498
685.000000	0.000514
684.000000	0.000521
683.000000	0.000553
682.000000	0.000611
681.000000	0.000660
680.000000	0.000684
679.000000	0.000696
678.000000	0.000705
677.000000	0.000716
676.000000	0.000753
675.000000	0.000831
674.000000	0.000916
673.000000	0.000942
672.000000	0.000870
671.000000	0.000702
670.000000	0.000445
669.000000	0.000140
668.000000	-0.000014
667.000000	0.000155
666.000000	0.000437
665.000000	0.000724
664.000000	0.000976
663.000000	0.001130
662.000000	0.001163
661.000000	0.001110
660.000000	0.001031
659.000000	0.000971
658.000000	0.000966
657.000000	0.001031
656.000000	0.001118
655.000000	0.001143
654.000000	0.001094
653.000000	0.001042
652.000000	0.001022
651.000000	0.001002
650.000000	0.000953
649.000000	0.000906
648.000000	0.000888
647.000000	0.000889
646.000000	0.000919
645.000000	0.001006
644.000000	0.001125
643.000000	0.001204
642.000000	0.001195
641.000000	0.001123
640.000000	0.001029
639.000000	0.000935
638.000000	0.000880
637.000000	0.000908
636.000000	0.000999
635.000000	0.001080
634.000000	0.001109
633.000000	0.001115
632.000000	0.001120
631.000000	0.001107
630.000000	0.001078
629.000000	0.001085
628.000000	0.001148
627.000000	0.001211
626.000000	0.001230
625.000000	0.001241
624.000000	0.001295
623.000000	0.001374
622.000000	0.001415
621.000000	0.001404
620.000000	0.001375
619.000000	0.001358
618.000000	0.001344
617.000000	0.001321
616.000000	0.001289
615.000000	0.001261
614.000000	0.001249
613.000000	0.001253
612.000000	0.001247
611.000000	0.001194
610.000000	0.001108
609.000000	0.001056
608.000000	0.001090
607.000000	0.001176
606.000000	0.001244
605.000000	0.001268
604.000000	0.001274
603.000000	0.001283
602.000000	0.001281
601.000000	0.001246
600.000000	0.001188
599.000000	0.001138
598.000000	0.001108
597.000000	0.001074
596.000000	0.001010
595.000000	0.000943
594.000000	0.000935
593.000000	0.001011
592.000000	0.001125
591.000000	0.001201
590.000000	0.001214
589.000000	0.001173
588.000000	0.001088
587.000000	0.000978
586.000000	0.000903
585.000000	0.000926
584.000000	0.001031
583.000000	0.001144
582.000000	0.001218
581.000000	0.001270
580.000000	0.001318
579.000000	0.001350
578.000000	0.001354
577.000000	0.001348
576.000000	0.001354
575.000000	0.001383
574.000000	0.001433
573.000000	0.001479
572.000000	0.001469
571.000000	0.001385
570.000000	0.001281
569.000000	0.001231
568.000000	0.001226
567.000000	0.001207
566.000000	0.001174
565.000000	0.001194
564.000000	0.001288
563.000000	0.001373
562.000000	0.001371
561.000000	0.001301
560.000000	0.001238
559.000000	0.001216
558.000000	0.001222
557.000000	0.001233
556.000000	0.001229
555.000000	0.001213
554.000000	0.001236
553.000000	0.001340
552.000000	0.001480
551.000000	0.001534
550.000000	0.001442
549.000000	0.001264
548.000000	0.001081
547.000000	0.000918
546.000000	0.000789
545.000000	0.000748
544.000000	0.000823
543.000000	0.000947
542.000000	0.001024
541.000000	0.001029
540.000000	0.001000
539.000000	0.000964
538.000000	0.000933
537.000000	0.000930
536.000000	0.000971
535.000000	0.001035
534.000000	0.001096
533.000000	0.001162
532.000000	0.001241
531.000000	0.001297
530.000000	0.001290
529.000000	0.001228
528.000000	0.001132
527.000000	0.000996
526.000000	0.000837
525.000000	0.000733
524.000000	0.000758
523.000000	0.000877
522.000000	0.000977
521.000000	0.000979
520.000000	0.000880
519.000000	0.000723
518.000000	0.000556
517.000000	0.000423
516.000000	0.000348
515.000000	0.000306
514.000000	0.000256
513.000000	0.000191
512.000000	0.000145
511.000000	0.000154
510.000000	0.000212
509.000000	0.000259
508.000000	0.000232
507.000000	0.000136
506.000000	0.000082
505.000000	0.000181
504.000000	0.000414
503.000000	0.000646
502.000000	0.000773
501.000000	0.000812
500.000000	0.000823
499.000000	0.000804
498.000000	0.000729
497.000000	0.000633
496.000000	0.000576
495.000000	0.000549
494.000000	0.000466
493.000000	0.000260
492.000000	-0.000034
491.000000	-0.000284
490.000000	-0.000355
489.000000	-0.000231
488.000000	-0.000044
487.000000	0.000038
486.000000	-0.000035
485.000000	-0.000173
484.000000	-0.000271
483.000000	-0.000306
482.000000	-0.000301
481.000000	-0.000293
480.000000	-0.000342
479.000000	-0.000482
478.000000	-0.000637
477.000000	-0.000666
476.000000	-0.000532
475.000000	-0.000355
474.000000	-0.000269
473.000000	-0.000281
472.000000	-0.000335
471.000000	-0.000397
470.000000	-0.000424
469.000000	-0.000321
468.000000	-0.000072
467.000000	0.000141
466.000000	0.000083
465.000000	-0.000238
464.000000	-0.000574
463.000000	-0.000726
462.000000	-0.000726
461.000000	-0.000721
460.000000	-0.000772
459.000000	-0.000846
458.000000	-0.000938
457.000000	-0.001079
456.000000	-0.001243
455.000000	-0.001323
454.000000	-0.001223
453.000000	-0.000932
452.000000	-0.000544
451.000000	-0.000211
450.000000	-0.000060
