PE IR       SUBTECH     SPECTRUM    ASCII       PEDS        4.00        
   -1
3C-H10-F033_1.ASC
22/02/24
15:23:56.00
22/02/24
15:42:20.00
uco
Sample 033 By uco Date Thursday, February 24 2022
450.000000
#HDR
-1
-1
#GR
cm-1
A
1.0
0.0
4000.000000
-1.000000
3551
8
0.029765
-0.000887
#DATA
4000.000000	0.002846
3999.000000	0.002852
3998.000000	0.002863
3997.000000	0.002882
3996.000000	0.002902
3995.000000	0.002914
3994.000000	0.002913
3993.000000	0.002904
3992.000000	0.002898
3991.000000	0.002906
3990.000000	0.002928
3989.000000	0.002955
3988.000000	0.002976
3987.000000	0.002984
3986.000000	0.002981
3985.000000	0.002973
3984.000000	0.002964
3983.000000	0.002957
3982.000000	0.002948
3981.000000	0.002936
3980.000000	0.002922
3979.000000	0.002912
3978.000000	0.002912
3977.000000	0.002921
3976.000000	0.002934
3975.000000	0.002950
3974.000000	0.002967
3973.000000	0.002982
3972.000000	0.002989
3971.000000	0.002980
3970.000000	0.002959
3969.000000	0.002935
3968.000000	0.002916
3967.000000	0.002903
3966.000000	0.002896
3965.000000	0.002893
3964.000000	0.002897
3963.000000	0.002909
3962.000000	0.002928
3961.000000	0.002952
3960.000000	0.002977
3959.000000	0.003001
3958.000000	0.003018
3957.000000	0.003020
3956.000000	0.003006
3955.000000	0.002985
3954.000000	0.002970
3953.000000	0.002970
3952.000000	0.002978
3951.000000	0.002985
3950.000000	0.002988
3949.000000	0.002996
3948.000000	0.003021
3947.000000	0.003058
3946.000000	0.003090
3945.000000	0.003100
3944.000000	0.003085
3943.000000	0.003060
3942.000000	0.003043
3941.000000	0.003040
3940.000000	0.003044
3939.000000	0.003046
3938.000000	0.003047
3937.000000	0.003053
3936.000000	0.003068
3935.000000	0.003088
3934.000000	0.003102
3933.000000	0.003106
3932.000000	0.003100
3931.000000	0.003091
3930.000000	0.003083
3929.000000	0.003076
3928.000000	0.003068
3927.000000	0.003055
3926.000000	0.003035
3925.000000	0.003015
3924.000000	0.003007
3923.000000	0.003021
3922.000000	0.003056
3921.000000	0.003102
3920.000000	0.003144
3919.000000	0.003168
3918.000000	0.003173
3917.000000	0.003162
3916.000000	0.003147
3915.000000	0.003131
3914.000000	0.003119
3913.000000	0.003113
3912.000000	0.003110
3911.000000	0.003104
3910.000000	0.003091
3909.000000	0.003078
3908.000000	0.003074
3907.000000	0.003085
3906.000000	0.003107
3905.000000	0.003136
3904.000000	0.003169
3903.000000	0.003200
3902.000000	0.003216
3901.000000	0.003209
3900.000000	0.003185
3899.000000	0.003161
3898.000000	0.003148
3897.000000	0.003144
3896.000000	0.003145
3895.000000	0.003147
3894.000000	0.003148
3893.000000	0.003143
3892.000000	0.003133
3891.000000	0.003133
3890.000000	0.003154
3889.000000	0.003186
3888.000000	0.003213
3887.000000	0.003224
3886.000000	0.003220
3885.000000	0.003217
3884.000000	0.003221
3883.000000	0.003222
3882.000000	0.003203
3881.000000	0.003167
3880.000000	0.003137
3879.000000	0.003129
3878.000000	0.003137
3877.000000	0.003139
3876.000000	0.003123
3875.000000	0.003100
3874.000000	0.003097
3873.000000	0.003129
3872.000000	0.003179
3871.000000	0.003221
3870.000000	0.003244
3869.000000	0.003253
3868.000000	0.003246
3867.000000	0.003219
3866.000000	0.003176
3865.000000	0.003132
3864.000000	0.003103
3863.000000	0.003096
3862.000000	0.003105
3861.000000	0.003125
3860.000000	0.003149
3859.000000	0.003170
3858.000000	0.003183
3857.000000	0.003187
3856.000000	0.003191
3855.000000	0.003195
3854.000000	0.003196
3853.000000	0.003196
3852.000000	0.003194
3851.000000	0.003179
3850.000000	0.003150
3849.000000	0.003121
3848.000000	0.003100
3847.000000	0.003093
3846.000000	0.003097
3845.000000	0.003109
3844.000000	0.003129
3843.000000	0.003157
3842.000000	0.003189
3841.000000	0.003217
3840.000000	0.003227
3839.000000	0.003216
3838.000000	0.003191
3837.000000	0.003168
3836.000000	0.003154
3835.000000	0.003149
3834.000000	0.003145
3833.000000	0.003136
3832.000000	0.003123
3831.000000	0.003115
3830.000000	0.003118
3829.000000	0.003125
3828.000000	0.003124
3827.000000	0.003114
3826.000000	0.003110
3825.000000	0.003127
3824.000000	0.003168
3823.000000	0.003209
3822.000000	0.003223
3821.000000	0.003207
3820.000000	0.003191
3819.000000	0.003184
3818.000000	0.003177
3817.000000	0.003162
3816.000000	0.003139
3815.000000	0.003117
3814.000000	0.003099
3813.000000	0.003082
3812.000000	0.003072
3811.000000	0.003076
3810.000000	0.003090
3809.000000	0.003101
3808.000000	0.003103
3807.000000	0.003107
3806.000000	0.003130
3805.000000	0.003172
3804.000000	0.003215
3803.000000	0.003238
3802.000000	0.003235
3801.000000	0.003215
3800.000000	0.003190
3799.000000	0.003160
3798.000000	0.003126
3797.000000	0.003098
3796.000000	0.003084
3795.000000	0.003079
3794.000000	0.003071
3793.000000	0.003053
3792.000000	0.003030
3791.000000	0.003007
3790.000000	0.002985
3789.000000	0.002968
3788.000000	0.002959
3787.000000	0.002966
3786.000000	0.002991
3785.000000	0.003031
3784.000000	0.003075
3783.000000	0.003109
3782.000000	0.003123
3781.000000	0.003115
3780.000000	0.003094
3779.000000	0.003077
3778.000000	0.003074
3777.000000	0.003083
3776.000000	0.003095
3775.000000	0.003106
3774.000000	0.003119
3773.000000	0.003136
3772.000000	0.003155
3771.000000	0.003169
3770.000000	0.003176
3769.000000	0.003174
3768.000000	0.003165
3767.000000	0.003148
3766.000000	0.003130
3765.000000	0.003119
3764.000000	0.003114
3763.000000	0.003110
3762.000000	0.003104
3761.000000	0.003098
3760.000000	0.003092
3759.000000	0.003082
3758.000000	0.003068
3757.000000	0.003061
3756.000000	0.003078
3755.000000	0.003127
3754.000000	0.003199
3753.000000	0.003270
3752.000000	0.003309
3751.000000	0.003309
3750.000000	0.003297
3749.000000	0.003298
3748.000000	0.003307
3747.000000	0.003302
3746.000000	0.003268
3745.000000	0.003210
3744.000000	0.003167
3743.000000	0.003158
3742.000000	0.003170
3741.000000	0.003188
3740.000000	0.003211
3739.000000	0.003239
3738.000000	0.003257
3737.000000	0.003250
3736.000000	0.003220
3735.000000	0.003183
3734.000000	0.003146
3733.000000	0.003101
3732.000000	0.003050
3731.000000	0.003011
3730.000000	0.002992
3729.000000	0.002986
3728.000000	0.002980
3727.000000	0.002966
3726.000000	0.002943
3725.000000	0.002917
3724.000000	0.002887
3723.000000	0.002858
3722.000000	0.002843
3721.000000	0.002849
3720.000000	0.002875
3719.000000	0.002910
3718.000000	0.002948
3717.000000	0.002983
3716.000000	0.003013
3715.000000	0.003035
3714.000000	0.003045
3713.000000	0.003039
3712.000000	0.003016
3711.000000	0.002989
3710.000000	0.002970
3709.000000	0.002960
3708.000000	0.002954
3707.000000	0.002949
3706.000000	0.002953
3705.000000	0.002970
3704.000000	0.002989
3703.000000	0.002988
3702.000000	0.002958
3701.000000	0.002913
3700.000000	0.002876
3699.000000	0.002854
3698.000000	0.002842
3697.000000	0.002830
3696.000000	0.002817
3695.000000	0.002812
3694.000000	0.002825
3693.000000	0.002863
3692.000000	0.002919
3691.000000	0.002971
3690.000000	0.002996
3689.000000	0.002988
3688.000000	0.002961
3687.000000	0.002931
3686.000000	0.002905
3685.000000	0.002884
3684.000000	0.002872
3683.000000	0.002871
3682.000000	0.002880
3681.000000	0.002902
3680.000000	0.002948
3679.000000	0.003025
3678.000000	0.003124
3677.000000	0.003211
3676.000000	0.003251
3675.000000	0.003248
3674.000000	0.003230
3673.000000	0.003206
3672.000000	0.003175
3671.000000	0.003143
3670.000000	0.003119
3669.000000	0.003110
3668.000000	0.003102
3667.000000	0.003080
3666.000000	0.003047
3665.000000	0.003018
3664.000000	0.003003
3663.000000	0.003005
3662.000000	0.003019
3661.000000	0.003040
3660.000000	0.003068
3659.000000	0.003100
3658.000000	0.003134
3657.000000	0.003168
3656.000000	0.003201
3655.000000	0.003231
3654.000000	0.003248
3653.000000	0.003251
3652.000000	0.003254
3651.000000	0.003273
3650.000000	0.003312
3649.000000	0.003358
3648.000000	0.003396
3647.000000	0.003415
3646.000000	0.003419
3645.000000	0.003407
3644.000000	0.003374
3643.000000	0.003323
3642.000000	0.003269
3641.000000	0.003234
3640.000000	0.003230
3639.000000	0.003254
3638.000000	0.003293
3637.000000	0.003330
3636.000000	0.003351
3635.000000	0.003359
3634.000000	0.003370
3633.000000	0.003396
3632.000000	0.003431
3631.000000	0.003459
3630.000000	0.003470
3629.000000	0.003477
3628.000000	0.003506
3627.000000	0.003545
3626.000000	0.003565
3625.000000	0.003562
3624.000000	0.003553
3623.000000	0.003555
3622.000000	0.003572
3621.000000	0.003593
3620.000000	0.003606
3619.000000	0.003615
3618.000000	0.003629
3617.000000	0.003654
3616.000000	0.003683
3615.000000	0.003709
3614.000000	0.003728
3613.000000	0.003741
3612.000000	0.003756
3611.000000	0.003779
3610.000000	0.003810
3609.000000	0.003837
3608.000000	0.003847
3607.000000	0.003841
3606.000000	0.003826
3605.000000	0.003817
3604.000000	0.003821
3603.000000	0.003833
3602.000000	0.003843
3601.000000	0.003845
3600.000000	0.003843
3599.000000	0.003846
3598.000000	0.003861
3597.000000	0.003884
3596.000000	0.003912
3595.000000	0.003942
3594.000000	0.003978
3593.000000	0.004020
3592.000000	0.004065
3591.000000	0.004109
3590.000000	0.004150
3589.000000	0.004178
3588.000000	0.004191
3587.000000	0.004195
3586.000000	0.004202
3585.000000	0.004212
3584.000000	0.004218
3583.000000	0.004211
3582.000000	0.004191
3581.000000	0.004172
3580.000000	0.004172
3579.000000	0.004200
3578.000000	0.004250
3577.000000	0.004305
3576.000000	0.004347
3575.000000	0.004375
3574.000000	0.004397
3573.000000	0.004422
3572.000000	0.004459
3571.000000	0.004513
3570.000000	0.004577
3569.000000	0.004637
3568.000000	0.004672
3567.000000	0.004683
3566.000000	0.004691
3565.000000	0.004715
3564.000000	0.004756
3563.000000	0.004801
3562.000000	0.004839
3561.000000	0.004864
3560.000000	0.004879
3559.000000	0.004888
3558.000000	0.004898
3557.000000	0.004914
3556.000000	0.004936
3555.000000	0.004959
3554.000000	0.004975
3553.000000	0.004983
3552.000000	0.004992
3551.000000	0.005016
3550.000000	0.005059
3549.000000	0.005108
3548.000000	0.005152
3547.000000	0.005187
3546.000000	0.005221
3545.000000	0.005258
3544.000000	0.005297
3543.000000	0.005327
3542.000000	0.005342
3541.000000	0.005346
3540.000000	0.005349
3539.000000	0.005360
3538.000000	0.005383
3537.000000	0.005413
3536.000000	0.005443
3535.000000	0.005469
3534.000000	0.005487
3533.000000	0.005499
3532.000000	0.005515
3531.000000	0.005545
3530.000000	0.005593
3529.000000	0.005650
3528.000000	0.005703
3527.000000	0.005748
3526.000000	0.005787
3525.000000	0.005820
3524.000000	0.005837
3523.000000	0.005834
3522.000000	0.005822
3521.000000	0.005816
3520.000000	0.005827
3519.000000	0.005859
3518.000000	0.005908
3517.000000	0.005968
3516.000000	0.006028
3515.000000	0.006080
3514.000000	0.006124
3513.000000	0.006166
3512.000000	0.006206
3511.000000	0.006242
3510.000000	0.006270
3509.000000	0.006294
3508.000000	0.006316
3507.000000	0.006340
3506.000000	0.006365
3505.000000	0.006389
3504.000000	0.006405
3503.000000	0.006413
3502.000000	0.006421
3501.000000	0.006440
3500.000000	0.006477
3499.000000	0.006523
3498.000000	0.006562
3497.000000	0.006584
3496.000000	0.006592
3495.000000	0.006599
3494.000000	0.006618
3493.000000	0.006650
3492.000000	0.006684
3491.000000	0.006705
3490.000000	0.006708
3489.000000	0.006700
3488.000000	0.006694
3487.000000	0.006705
3486.000000	0.006736
3485.000000	0.006784
3484.000000	0.006839
3483.000000	0.006889
3482.000000	0.006930
3481.000000	0.006961
3480.000000	0.006984
3479.000000	0.006996
3478.000000	0.006995
3477.000000	0.006986
3476.000000	0.006982
3475.000000	0.006993
3474.000000	0.007019
3473.000000	0.007049
3472.000000	0.007070
3471.000000	0.007077
3470.000000	0.007082
3469.000000	0.007098
3468.000000	0.007131
3467.000000	0.007173
3466.000000	0.007213
3465.000000	0.007245
3464.000000	0.007267
3463.000000	0.007284
3462.000000	0.007300
3461.000000	0.007318
3460.000000	0.007341
3459.000000	0.007370
3458.000000	0.007405
3457.000000	0.007439
3456.000000	0.007461
3455.000000	0.007461
3454.000000	0.007445
3453.000000	0.007430
3452.000000	0.007434
3451.000000	0.007464
3450.000000	0.007510
3449.000000	0.007556
3448.000000	0.007593
3447.000000	0.007617
3446.000000	0.007634
3445.000000	0.007646
3444.000000	0.007656
3443.000000	0.007665
3442.000000	0.007673
3441.000000	0.007683
3440.000000	0.007696
3439.000000	0.007719
3438.000000	0.007755
3437.000000	0.007797
3436.000000	0.007835
3435.000000	0.007859
3434.000000	0.007874
3433.000000	0.007887
3432.000000	0.007901
3431.000000	0.007912
3430.000000	0.007920
3429.000000	0.007929
3428.000000	0.007945
3427.000000	0.007965
3426.000000	0.007988
3425.000000	0.008015
3424.000000	0.008045
3423.000000	0.008076
3422.000000	0.008102
3421.000000	0.008123
3420.000000	0.008139
3419.000000	0.008147
3418.000000	0.008146
3417.000000	0.008142
3416.000000	0.008149
3415.000000	0.008173
3414.000000	0.008210
3413.000000	0.008247
3412.000000	0.008274
3411.000000	0.008290
3410.000000	0.008299
3409.000000	0.008307
3408.000000	0.008318
3407.000000	0.008340
3406.000000	0.008377
3405.000000	0.008431
3404.000000	0.008490
3403.000000	0.008542
3402.000000	0.008579
3401.000000	0.008605
3400.000000	0.008630
3399.000000	0.008658
3398.000000	0.008687
3397.000000	0.008711
3396.000000	0.008724
3395.000000	0.008730
3394.000000	0.008737
3393.000000	0.008754
3392.000000	0.008780
3391.000000	0.008805
3390.000000	0.008816
3389.000000	0.008815
3388.000000	0.008812
3387.000000	0.008818
3386.000000	0.008841
3385.000000	0.008883
3384.000000	0.008935
3383.000000	0.008983
3382.000000	0.009015
3381.000000	0.009034
3380.000000	0.009052
3379.000000	0.009082
3378.000000	0.009127
3377.000000	0.009179
3376.000000	0.009224
3375.000000	0.009253
3374.000000	0.009262
3373.000000	0.009260
3372.000000	0.009264
3371.000000	0.009288
3370.000000	0.009332
3369.000000	0.009388
3368.000000	0.009442
3367.000000	0.009490
3366.000000	0.009537
3365.000000	0.009584
3364.000000	0.009631
3363.000000	0.009671
3362.000000	0.009699
3361.000000	0.009716
3360.000000	0.009727
3359.000000	0.009746
3358.000000	0.009787
3357.000000	0.009855
3356.000000	0.009941
3355.000000	0.010029
3354.000000	0.010106
3353.000000	0.010170
3352.000000	0.010221
3351.000000	0.010257
3350.000000	0.010277
3349.000000	0.010287
3348.000000	0.010301
3347.000000	0.010333
3346.000000	0.010390
3345.000000	0.010464
3344.000000	0.010539
3343.000000	0.010600
3342.000000	0.010644
3341.000000	0.010683
3340.000000	0.010728
3339.000000	0.010783
3338.000000	0.010837
3337.000000	0.010883
3336.000000	0.010920
3335.000000	0.010964
3334.000000	0.011021
3333.000000	0.011090
3332.000000	0.011158
3331.000000	0.011214
3330.000000	0.011257
3329.000000	0.011288
3328.000000	0.011314
3327.000000	0.011337
3326.000000	0.011360
3325.000000	0.011380
3324.000000	0.011400
3323.000000	0.011419
3322.000000	0.011443
3321.000000	0.011470
3320.000000	0.011498
3319.000000	0.011521
3318.000000	0.011538
3317.000000	0.011551
3316.000000	0.011566
3315.000000	0.011585
3314.000000	0.011607
3313.000000	0.011631
3312.000000	0.011657
3311.000000	0.011687
3310.000000	0.011720
3309.000000	0.011741
3308.000000	0.011741
3307.000000	0.011725
3306.000000	0.011709
3305.000000	0.011708
3304.000000	0.011722
3303.000000	0.011747
3302.000000	0.011777
3301.000000	0.011811
3300.000000	0.011846
3299.000000	0.011877
3298.000000	0.011902
3297.000000	0.011918
3296.000000	0.011924
3295.000000	0.011925
3294.000000	0.011930
3293.000000	0.011943
3292.000000	0.011961
3291.000000	0.011974
3290.000000	0.011978
3289.000000	0.011975
3288.000000	0.011975
3287.000000	0.011978
3286.000000	0.011981
3285.000000	0.011974
3284.000000	0.011956
3283.000000	0.011934
3282.000000	0.011914
3281.000000	0.011896
3280.000000	0.011874
3279.000000	0.011844
3278.000000	0.011814
3277.000000	0.011795
3276.000000	0.011791
3275.000000	0.011796
3274.000000	0.011797
3273.000000	0.011788
3272.000000	0.011770
3271.000000	0.011752
3270.000000	0.011739
3269.000000	0.011730
3268.000000	0.011724
3267.000000	0.011719
3266.000000	0.011715
3265.000000	0.011707
3264.000000	0.011691
3263.000000	0.011670
3262.000000	0.011652
3261.000000	0.011640
3260.000000	0.011631
3259.000000	0.011619
3258.000000	0.011600
3257.000000	0.011571
3256.000000	0.011528
3255.000000	0.011475
3254.000000	0.011430
3253.000000	0.011404
3252.000000	0.011394
3251.000000	0.011390
3250.000000	0.011385
3249.000000	0.011380
3248.000000	0.011373
3247.000000	0.011359
3246.000000	0.011331
3245.000000	0.011293
3244.000000	0.011254
3243.000000	0.011223
3242.000000	0.011199
3241.000000	0.011177
3240.000000	0.011154
3239.000000	0.011130
3238.000000	0.011108
3237.000000	0.011087
3236.000000	0.011067
3235.000000	0.011047
3234.000000	0.011031
3233.000000	0.011015
3232.000000	0.010994
3231.000000	0.010969
3230.000000	0.010942
3229.000000	0.010914
3228.000000	0.010885
3227.000000	0.010858
3226.000000	0.010840
3225.000000	0.010837
3224.000000	0.010840
3223.000000	0.010835
3222.000000	0.010813
3221.000000	0.010780
3220.000000	0.010748
3219.000000	0.010727
3218.000000	0.010723
3217.000000	0.010734
3216.000000	0.010748
3215.000000	0.010753
3214.000000	0.010745
3213.000000	0.010725
3212.000000	0.010699
3211.000000	0.010670
3210.000000	0.010641
3209.000000	0.010617
3208.000000	0.010605
3207.000000	0.010605
3206.000000	0.010609
3205.000000	0.010606
3204.000000	0.010588
3203.000000	0.010554
3202.000000	0.010513
3201.000000	0.010478
3200.000000	0.010452
3199.000000	0.010430
3198.000000	0.010401
3197.000000	0.010361
3196.000000	0.010319
3195.000000	0.010289
3194.000000	0.010277
3193.000000	0.010273
3192.000000	0.010265
3191.000000	0.010247
3190.000000	0.010219
3189.000000	0.010183
3188.000000	0.010145
3187.000000	0.010108
3186.000000	0.010074
3185.000000	0.010038
3184.000000	0.009995
3183.000000	0.009949
3182.000000	0.009909
3181.000000	0.009882
3180.000000	0.009863
3179.000000	0.009848
3178.000000	0.009832
3177.000000	0.009815
3176.000000	0.009792
3175.000000	0.009760
3174.000000	0.009725
3173.000000	0.009696
3172.000000	0.009676
3171.000000	0.009657
3170.000000	0.009629
3169.000000	0.009590
3168.000000	0.009547
3167.000000	0.009505
3166.000000	0.009466
3165.000000	0.009429
3164.000000	0.009392
3163.000000	0.009360
3162.000000	0.009339
3161.000000	0.009334
3160.000000	0.009344
3159.000000	0.009361
3158.000000	0.009371
3157.000000	0.009354
3156.000000	0.009306
3155.000000	0.009240
3154.000000	0.009181
3153.000000	0.009144
3152.000000	0.009124
3151.000000	0.009106
3150.000000	0.009082
3149.000000	0.009053
3148.000000	0.009025
3147.000000	0.008994
3146.000000	0.008957
3145.000000	0.008913
3144.000000	0.008867
3143.000000	0.008828
3142.000000	0.008802
3141.000000	0.008790
3140.000000	0.008781
3139.000000	0.008770
3138.000000	0.008757
3137.000000	0.008741
3136.000000	0.008719
3135.000000	0.008689
3134.000000	0.008655
3133.000000	0.008626
3132.000000	0.008610
3131.000000	0.008608
3130.000000	0.008614
3129.000000	0.008621
3128.000000	0.008620
3127.000000	0.008609
3126.000000	0.008594
3125.000000	0.008582
3124.000000	0.008574
3123.000000	0.008566
3122.000000	0.008553
3121.000000	0.008537
3120.000000	0.008525
3119.000000	0.008522
3118.000000	0.008527
3117.000000	0.008538
3116.000000	0.008553
3115.000000	0.008566
3114.000000	0.008576
3113.000000	0.008582
3112.000000	0.008586
3111.000000	0.008586
3110.000000	0.008580
3109.000000	0.008570
3108.000000	0.008561
3107.000000	0.008559
3106.000000	0.008565
3105.000000	0.008575
3104.000000	0.008586
3103.000000	0.008600
3102.000000	0.008619
3101.000000	0.008642
3100.000000	0.008662
3099.000000	0.008678
3098.000000	0.008693
3097.000000	0.008714
3096.000000	0.008739
3095.000000	0.008763
3094.000000	0.008779
3093.000000	0.008792
3092.000000	0.008807
3091.000000	0.008827
3090.000000	0.008853
3089.000000	0.008880
3088.000000	0.008902
3087.000000	0.008912
3086.000000	0.008908
3085.000000	0.008902
3084.000000	0.008907
3083.000000	0.008922
3082.000000	0.008940
3081.000000	0.008951
3080.000000	0.008954
3079.000000	0.008956
3078.000000	0.008959
3077.000000	0.008964
3076.000000	0.008970
3075.000000	0.008972
3074.000000	0.008970
3073.000000	0.008963
3072.000000	0.008954
3071.000000	0.008946
3070.000000	0.008938
3069.000000	0.008927
3068.000000	0.008915
3067.000000	0.008907
3066.000000	0.008904
3065.000000	0.008902
3064.000000	0.008898
3063.000000	0.008895
3062.000000	0.008892
3061.000000	0.008886
3060.000000	0.008873
3059.000000	0.008851
3058.000000	0.008824
3057.000000	0.008797
3056.000000	0.008773
3055.000000	0.008759
3054.000000	0.008756
3053.000000	0.008753
3052.000000	0.008740
3051.000000	0.008711
3050.000000	0.008677
3049.000000	0.008644
3048.000000	0.008611
3047.000000	0.008574
3046.000000	0.008534
3045.000000	0.008495
3044.000000	0.008460
3043.000000	0.008428
3042.000000	0.008402
3041.000000	0.008383
3040.000000	0.008366
3039.000000	0.008339
3038.000000	0.008300
3037.000000	0.008253
3036.000000	0.008204
3035.000000	0.008154
3034.000000	0.008103
3033.000000	0.008059
3032.000000	0.008030
3031.000000	0.008021
3030.000000	0.008029
3029.000000	0.008041
3028.000000	0.008038
3027.000000	0.008010
3026.000000	0.007960
3025.000000	0.007906
3024.000000	0.007867
3023.000000	0.007849
3022.000000	0.007848
3021.000000	0.007857
3020.000000	0.007867
3019.000000	0.007867
3018.000000	0.007847
3017.000000	0.007807
3016.000000	0.007756
3015.000000	0.007710
3014.000000	0.007678
3013.000000	0.007660
3012.000000	0.007652
3011.000000	0.007651
3010.000000	0.007656
3009.000000	0.007670
3008.000000	0.007688
3007.000000	0.007703
3006.000000	0.007708
3005.000000	0.007704
3004.000000	0.007690
3003.000000	0.007665
3002.000000	0.007633
3001.000000	0.007600
3000.000000	0.007573
2999.000000	0.007561
2998.000000	0.007569
2997.000000	0.007600
2996.000000	0.007648
2995.000000	0.007703
2994.000000	0.007751
2993.000000	0.007781
2992.000000	0.007792
2991.000000	0.007790
2990.000000	0.007786
2989.000000	0.007788
2988.000000	0.007802
2987.000000	0.007832
2986.000000	0.007878
2985.000000	0.007940
2984.000000	0.008006
2983.000000	0.008061
2982.000000	0.008096
2981.000000	0.008110
2980.000000	0.008115
2979.000000	0.008120
2978.000000	0.008135
2977.000000	0.008160
2976.000000	0.008190
2975.000000	0.008222
2974.000000	0.008255
2973.000000	0.008291
2972.000000	0.008327
2971.000000	0.008357
2970.000000	0.008384
2969.000000	0.008413
2968.000000	0.008449
2967.000000	0.008488
2966.000000	0.008528
2965.000000	0.008573
2964.000000	0.008632
2963.000000	0.008702
2962.000000	0.008773
2961.000000	0.008834
2960.000000	0.008881
2959.000000	0.008915
2958.000000	0.008934
2957.000000	0.008937
2956.000000	0.008922
2955.000000	0.008896
2954.000000	0.008874
2953.000000	0.008868
2952.000000	0.008884
2951.000000	0.008912
2950.000000	0.008937
2949.000000	0.008952
2948.000000	0.008962
2947.000000	0.008978
2946.000000	0.009005
2945.000000	0.009042
2944.000000	0.009087
2943.000000	0.009136
2942.000000	0.009191
2941.000000	0.009256
2940.000000	0.009333
2939.000000	0.009424
2938.000000	0.009520
2937.000000	0.009604
2936.000000	0.009664
2935.000000	0.009699
2934.000000	0.009721
2933.000000	0.009741
2932.000000	0.009768
2931.000000	0.009814
2930.000000	0.009885
2929.000000	0.009984
2928.000000	0.010094
2927.000000	0.010193
2926.000000	0.010261
2925.000000	0.010293
2924.000000	0.010294
2923.000000	0.010269
2922.000000	0.010221
2921.000000	0.010150
2920.000000	0.010064
2919.000000	0.009973
2918.000000	0.009888
2917.000000	0.009819
2916.000000	0.009758
2915.000000	0.009686
2914.000000	0.009583
2913.000000	0.009443
2912.000000	0.009284
2911.000000	0.009132
2910.000000	0.009011
2909.000000	0.008922
2908.000000	0.008849
2907.000000	0.008776
2906.000000	0.008703
2905.000000	0.008642
2904.000000	0.008599
2903.000000	0.008570
2902.000000	0.008541
2901.000000	0.008498
2900.000000	0.008437
2899.000000	0.008363
2898.000000	0.008288
2897.000000	0.008231
2896.000000	0.008198
2895.000000	0.008180
2894.000000	0.008164
2893.000000	0.008146
2892.000000	0.008134
2891.000000	0.008132
2890.000000	0.008129
2889.000000	0.008110
2888.000000	0.008067
2887.000000	0.008014
2886.000000	0.007973
2885.000000	0.007961
2884.000000	0.007977
2883.000000	0.008011
2882.000000	0.008051
2881.000000	0.008095
2880.000000	0.008138
2879.000000	0.008170
2878.000000	0.008178
2877.000000	0.008159
2876.000000	0.008119
2875.000000	0.008071
2874.000000	0.008026
2873.000000	0.007991
2872.000000	0.007975
2871.000000	0.007980
2870.000000	0.008002
2869.000000	0.008027
2868.000000	0.008049
2867.000000	0.008064
2866.000000	0.008063
2865.000000	0.008032
2864.000000	0.007969
2863.000000	0.007894
2862.000000	0.007843
2861.000000	0.007843
2860.000000	0.007899
2859.000000	0.007996
2858.000000	0.008110
2857.000000	0.008212
2856.000000	0.008283
2855.000000	0.008322
2854.000000	0.008338
2853.000000	0.008339
2852.000000	0.008321
2851.000000	0.008275
2850.000000	0.008197
2849.000000	0.008094
2848.000000	0.007983
2847.000000	0.007877
2846.000000	0.007785
2845.000000	0.007702
2844.000000	0.007616
2843.000000	0.007524
2842.000000	0.007430
2841.000000	0.007342
2840.000000	0.007259
2839.000000	0.007179
2838.000000	0.007112
2837.000000	0.007073
2836.000000	0.007065
2835.000000	0.007076
2834.000000	0.007091
2833.000000	0.007102
2832.000000	0.007102
2831.000000	0.007082
2830.000000	0.007038
2829.000000	0.006977
2828.000000	0.006910
2827.000000	0.006847
2826.000000	0.006801
2825.000000	0.006783
2824.000000	0.006795
2823.000000	0.006823
2822.000000	0.006850
2821.000000	0.006870
2820.000000	0.006883
2819.000000	0.006879
2818.000000	0.006846
2817.000000	0.006788
2816.000000	0.006721
2815.000000	0.006664
2814.000000	0.006624
2813.000000	0.006609
2812.000000	0.006623
2811.000000	0.006664
2810.000000	0.006714
2809.000000	0.006754
2808.000000	0.006774
2807.000000	0.006772
2806.000000	0.006746
2805.000000	0.006696
2804.000000	0.006635
2803.000000	0.006582
2802.000000	0.006547
2801.000000	0.006531
2800.000000	0.006535
2799.000000	0.006562
2798.000000	0.006606
2797.000000	0.006650
2796.000000	0.006675
2795.000000	0.006675
2794.000000	0.006648
2793.000000	0.006595
2792.000000	0.006521
2791.000000	0.006446
2790.000000	0.006391
2789.000000	0.006367
2788.000000	0.006373
2787.000000	0.006408
2786.000000	0.006463
2785.000000	0.006518
2784.000000	0.006547
2783.000000	0.006539
2782.000000	0.006507
2781.000000	0.006470
2780.000000	0.006435
2779.000000	0.006395
2778.000000	0.006352
2777.000000	0.006320
2776.000000	0.006316
2775.000000	0.006346
2774.000000	0.006393
2773.000000	0.006438
2772.000000	0.006458
2771.000000	0.006446
2770.000000	0.006403
2769.000000	0.006339
2768.000000	0.006268
2767.000000	0.006204
2766.000000	0.006158
2765.000000	0.006143
2764.000000	0.006155
2763.000000	0.006183
2762.000000	0.006213
2761.000000	0.006238
2760.000000	0.006256
2759.000000	0.006261
2758.000000	0.006250
2757.000000	0.006221
2756.000000	0.006182
2755.000000	0.006145
2754.000000	0.006120
2753.000000	0.006116
2752.000000	0.006134
2751.000000	0.006162
2750.000000	0.006181
2749.000000	0.006180
2748.000000	0.006161
2747.000000	0.006133
2746.000000	0.006098
2745.000000	0.006056
2744.000000	0.006013
2743.000000	0.005983
2742.000000	0.005974
2741.000000	0.005984
2740.000000	0.006003
2739.000000	0.006026
2738.000000	0.006052
2737.000000	0.006073
2736.000000	0.006079
2735.000000	0.006063
2734.000000	0.006029
2733.000000	0.005984
2732.000000	0.005940
2731.000000	0.005912
2730.000000	0.005905
2729.000000	0.005911
2728.000000	0.005917
2727.000000	0.005915
2726.000000	0.005912
2725.000000	0.005914
2724.000000	0.005923
2723.000000	0.005931
2722.000000	0.005928
2721.000000	0.005913
2720.000000	0.005885
2719.000000	0.005851
2718.000000	0.005828
2717.000000	0.005826
2716.000000	0.005839
2715.000000	0.005853
2714.000000	0.005856
2713.000000	0.005848
2712.000000	0.005832
2711.000000	0.005809
2710.000000	0.005782
2709.000000	0.005760
2708.000000	0.005750
2707.000000	0.005747
2706.000000	0.005746
2705.000000	0.005744
2704.000000	0.005748
2703.000000	0.005762
2702.000000	0.005782
2701.000000	0.005798
2700.000000	0.005799
2699.000000	0.005785
2698.000000	0.005761
2697.000000	0.005734
2696.000000	0.005708
2695.000000	0.005690
2694.000000	0.005685
2693.000000	0.005695
2692.000000	0.005719
2691.000000	0.005745
2690.000000	0.005758
2689.000000	0.005753
2688.000000	0.005730
2687.000000	0.005702
2686.000000	0.005677
2685.000000	0.005662
2684.000000	0.005661
2683.000000	0.005671
2682.000000	0.005684
2681.000000	0.005695
2680.000000	0.005701
2679.000000	0.005705
2678.000000	0.005705
2677.000000	0.005702
2676.000000	0.005696
2675.000000	0.005689
2674.000000	0.005679
2673.000000	0.005663
2672.000000	0.005642
2671.000000	0.005624
2670.000000	0.005617
2669.000000	0.005622
2668.000000	0.005638
2667.000000	0.005658
2666.000000	0.005676
2665.000000	0.005686
2664.000000	0.005683
2663.000000	0.005666
2662.000000	0.005643
2661.000000	0.005621
2660.000000	0.005608
2659.000000	0.005606
2658.000000	0.005613
2657.000000	0.005618
2656.000000	0.005610
2655.000000	0.005589
2654.000000	0.005566
2653.000000	0.005553
2652.000000	0.005552
2651.000000	0.005554
2650.000000	0.005551
2649.000000	0.005538
2648.000000	0.005520
2647.000000	0.005503
2646.000000	0.005495
2645.000000	0.005491
2644.000000	0.005482
2643.000000	0.005462
2642.000000	0.005435
2641.000000	0.005412
2640.000000	0.005394
2639.000000	0.005376
2638.000000	0.005355
2637.000000	0.005333
2636.000000	0.005312
2635.000000	0.005289
2634.000000	0.005256
2633.000000	0.005215
2632.000000	0.005182
2631.000000	0.005171
2630.000000	0.005184
2629.000000	0.005203
2628.000000	0.005209
2627.000000	0.005197
2626.000000	0.005176
2625.000000	0.005156
2624.000000	0.005146
2623.000000	0.005148
2622.000000	0.005164
2621.000000	0.005182
2620.000000	0.005182
2619.000000	0.005150
2618.000000	0.005094
2617.000000	0.005039
2616.000000	0.005001
2615.000000	0.004976
2614.000000	0.004950
2613.000000	0.004926
2612.000000	0.004919
2611.000000	0.004937
2610.000000	0.004968
2609.000000	0.004987
2608.000000	0.004975
2607.000000	0.004940
2606.000000	0.004906
2605.000000	0.004896
2604.000000	0.004906
2603.000000	0.004917
2602.000000	0.004908
2601.000000	0.004878
2600.000000	0.004843
2599.000000	0.004819
2598.000000	0.004815
2597.000000	0.004827
2596.000000	0.004843
2595.000000	0.004855
2594.000000	0.004861
2593.000000	0.004870
2592.000000	0.004892
2591.000000	0.004919
2590.000000	0.004928
2589.000000	0.004902
2588.000000	0.004855
2587.000000	0.004814
2586.000000	0.004802
2585.000000	0.004810
2584.000000	0.004819
2583.000000	0.004816
2582.000000	0.004799
2581.000000	0.004771
2580.000000	0.004745
2579.000000	0.004734
2578.000000	0.004746
2577.000000	0.004768
2576.000000	0.004779
2575.000000	0.004768
2574.000000	0.004741
2573.000000	0.004716
2572.000000	0.004706
2571.000000	0.004713
2570.000000	0.004730
2569.000000	0.004745
2568.000000	0.004753
2567.000000	0.004756
2566.000000	0.004760
2565.000000	0.004754
2564.000000	0.004726
2563.000000	0.004679
2562.000000	0.004634
2561.000000	0.004612
2560.000000	0.004613
2559.000000	0.004627
2558.000000	0.004644
2557.000000	0.004662
2556.000000	0.004677
2555.000000	0.004686
2554.000000	0.004680
2553.000000	0.004656
2552.000000	0.004618
2551.000000	0.004583
2550.000000	0.004570
2549.000000	0.004575
2548.000000	0.004577
2547.000000	0.004564
2546.000000	0.004557
2545.000000	0.004585
2544.000000	0.004644
2543.000000	0.004694
2542.000000	0.004702
2541.000000	0.004675
2540.000000	0.004643
2539.000000	0.004627
2538.000000	0.004624
2537.000000	0.004623
2536.000000	0.004623
2535.000000	0.004636
2534.000000	0.004664
2533.000000	0.004694
2532.000000	0.004705
2531.000000	0.004695
2530.000000	0.004676
2529.000000	0.004659
2528.000000	0.004640
2527.000000	0.004610
2526.000000	0.004571
2525.000000	0.004542
2524.000000	0.004537
2523.000000	0.004551
2522.000000	0.004574
2521.000000	0.004596
2520.000000	0.004621
2519.000000	0.004643
2518.000000	0.004649
2517.000000	0.004634
2516.000000	0.004613
2515.000000	0.004607
2514.000000	0.004620
2513.000000	0.004632
2512.000000	0.004622
2511.000000	0.004593
2510.000000	0.004557
2509.000000	0.004526
2508.000000	0.004506
2507.000000	0.004508
2506.000000	0.004538
2505.000000	0.004578
2504.000000	0.004598
2503.000000	0.004583
2502.000000	0.004548
2501.000000	0.004514
2500.000000	0.004489
2499.000000	0.004474
2498.000000	0.004476
2497.000000	0.004502
2496.000000	0.004537
2495.000000	0.004552
2494.000000	0.004537
2493.000000	0.004506
2492.000000	0.004479
2491.000000	0.004464
2490.000000	0.004456
2489.000000	0.004446
2488.000000	0.004433
2487.000000	0.004421
2486.000000	0.004415
2485.000000	0.004413
2484.000000	0.004413
2483.000000	0.004415
2482.000000	0.004432
2481.000000	0.004466
2480.000000	0.004498
2479.000000	0.004500
2478.000000	0.004472
2477.000000	0.004435
2476.000000	0.004413
2475.000000	0.004406
2474.000000	0.004406
2473.000000	0.004409
2472.000000	0.004414
2471.000000	0.004417
2470.000000	0.004417
2469.000000	0.004419
2468.000000	0.004423
2467.000000	0.004418
2466.000000	0.004393
2465.000000	0.004359
2464.000000	0.004338
2463.000000	0.004342
2462.000000	0.004358
2461.000000	0.004375
2460.000000	0.004394
2459.000000	0.004419
2458.000000	0.004441
2457.000000	0.004441
2456.000000	0.004415
2455.000000	0.004382
2454.000000	0.004369
2453.000000	0.004383
2452.000000	0.004408
2451.000000	0.004427
2450.000000	0.004434
2449.000000	0.004443
2448.000000	0.004462
2447.000000	0.004480
2446.000000	0.004477
2445.000000	0.004437
2444.000000	0.004375
2443.000000	0.004320
2442.000000	0.004294
2441.000000	0.004295
2440.000000	0.004306
2439.000000	0.004320
2438.000000	0.004339
2437.000000	0.004359
2436.000000	0.004374
2435.000000	0.004375
2434.000000	0.004362
2433.000000	0.004337
2432.000000	0.004311
2431.000000	0.004300
2430.000000	0.004313
2429.000000	0.004341
2428.000000	0.004367
2427.000000	0.004381
2426.000000	0.004388
2425.000000	0.004388
2424.000000	0.004378
2423.000000	0.004356
2422.000000	0.004334
2421.000000	0.004324
2420.000000	0.004326
2419.000000	0.004340
2418.000000	0.004360
2417.000000	0.004384
2416.000000	0.004405
2415.000000	0.004420
2414.000000	0.004429
2413.000000	0.004428
2412.000000	0.004406
2411.000000	0.004365
2410.000000	0.004323
2409.000000	0.004300
2408.000000	0.004298
2407.000000	0.004304
2406.000000	0.004308
2405.000000	0.004313
2404.000000	0.004325
2403.000000	0.004343
2402.000000	0.004363
2401.000000	0.004374
2400.000000	0.004365
2399.000000	0.004344
2398.000000	0.004330
2397.000000	0.004338
2396.000000	0.004361
2395.000000	0.004377
2394.000000	0.004374
2393.000000	0.004357
2392.000000	0.004337
2391.000000	0.004323
2390.000000	0.004316
2389.000000	0.004317
2388.000000	0.004319
2387.000000	0.004318
2386.000000	0.004311
2385.000000	0.004300
2384.000000	0.004285
2383.000000	0.004269
2382.000000	0.004260
2381.000000	0.004263
2380.000000	0.004275
2379.000000	0.004283
2378.000000	0.004284
2377.000000	0.004280
2376.000000	0.004268
2375.000000	0.004249
2374.000000	0.004236
2373.000000	0.004253
2372.000000	0.004312
2371.000000	0.004389
2370.000000	0.004444
2369.000000	0.004446
2368.000000	0.004389
2367.000000	0.004298
2366.000000	0.004211
2365.000000	0.004169
2364.000000	0.004188
2363.000000	0.004259
2362.000000	0.004355
2361.000000	0.004440
2360.000000	0.004480
2359.000000	0.004459
2358.000000	0.004390
2357.000000	0.004319
2356.000000	0.004290
2355.000000	0.004314
2354.000000	0.004358
2353.000000	0.004379
2352.000000	0.004366
2351.000000	0.004345
2350.000000	0.004342
2349.000000	0.004362
2348.000000	0.004389
2347.000000	0.004397
2346.000000	0.004381
2345.000000	0.004361
2344.000000	0.004358
2343.000000	0.004371
2342.000000	0.004383
2341.000000	0.004385
2340.000000	0.004381
2339.000000	0.004374
2338.000000	0.004368
2337.000000	0.004369
2336.000000	0.004383
2335.000000	0.004400
2334.000000	0.004398
2333.000000	0.004370
2332.000000	0.004338
2331.000000	0.004326
2330.000000	0.004335
2329.000000	0.004352
2328.000000	0.004372
2327.000000	0.004395
2326.000000	0.004421
2325.000000	0.004446
2324.000000	0.004469
2323.000000	0.004490
2322.000000	0.004502
2321.000000	0.004498
2320.000000	0.004475
2319.000000	0.004437
2318.000000	0.004396
2317.000000	0.004365
2316.000000	0.004355
2315.000000	0.004366
2314.000000	0.004381
2313.000000	0.004380
2312.000000	0.004355
2311.000000	0.004319
2310.000000	0.004285
2309.000000	0.004256
2308.000000	0.004228
2307.000000	0.004196
2306.000000	0.004158
2305.000000	0.004118
2304.000000	0.004088
2303.000000	0.004082
2302.000000	0.004098
2301.000000	0.004120
2300.000000	0.004132
2299.000000	0.004135
2298.000000	0.004146
2297.000000	0.004175
2296.000000	0.004217
2295.000000	0.004258
2294.000000	0.004290
2293.000000	0.004307
2292.000000	0.004308
2291.000000	0.004301
2290.000000	0.004298
2289.000000	0.004300
2288.000000	0.004298
2287.000000	0.004282
2286.000000	0.004257
2285.000000	0.004238
2284.000000	0.004230
2283.000000	0.004222
2282.000000	0.004198
2281.000000	0.004156
2280.000000	0.004115
2279.000000	0.004093
2278.000000	0.004089
2277.000000	0.004087
2276.000000	0.004076
2275.000000	0.004061
2274.000000	0.004046
2273.000000	0.004025
2272.000000	0.003998
2271.000000	0.003986
2270.000000	0.004016
2269.000000	0.004085
2268.000000	0.004153
2267.000000	0.004186
2266.000000	0.004183
2265.000000	0.004159
2264.000000	0.004112
2263.000000	0.004045
2262.000000	0.003985
2261.000000	0.003966
2260.000000	0.003995
2259.000000	0.004040
2258.000000	0.004067
2257.000000	0.004065
2256.000000	0.004037
2255.000000	0.003996
2254.000000	0.003963
2253.000000	0.003957
2252.000000	0.003985
2251.000000	0.004026
2250.000000	0.004050
2249.000000	0.004046
2248.000000	0.004034
2247.000000	0.004047
2246.000000	0.004104
2245.000000	0.004202
2244.000000	0.004314
2243.000000	0.004405
2242.000000	0.004437
2241.000000	0.004387
2240.000000	0.004281
2239.000000	0.004191
2238.000000	0.004167
2237.000000	0.004181
2236.000000	0.004165
2235.000000	0.004099
2234.000000	0.004042
2233.000000	0.004055
2232.000000	0.004126
2231.000000	0.004192
2230.000000	0.004211
2229.000000	0.004184
2228.000000	0.004127
2227.000000	0.004057
2226.000000	0.003991
2225.000000	0.003949
2224.000000	0.003929
2223.000000	0.003924
2222.000000	0.003947
2221.000000	0.004013
2220.000000	0.004092
2219.000000	0.004119
2218.000000	0.004065
2217.000000	0.003970
2216.000000	0.003904
2215.000000	0.003900
2214.000000	0.003948
2213.000000	0.004025
2212.000000	0.004110
2211.000000	0.004170
2210.000000	0.004169
2209.000000	0.004110
2208.000000	0.004048
2207.000000	0.004047
2206.000000	0.004109
2205.000000	0.004164
2204.000000	0.004134
2203.000000	0.004008
2202.000000	0.003850
2201.000000	0.003727
2200.000000	0.003658
2199.000000	0.003635
2198.000000	0.003657
2197.000000	0.003729
2196.000000	0.003829
2195.000000	0.003914
2194.000000	0.003944
2193.000000	0.003911
2192.000000	0.003852
2191.000000	0.003844
2190.000000	0.003958
2189.000000	0.004171
2188.000000	0.004346
2187.000000	0.004342
2186.000000	0.004146
2185.000000	0.003870
2184.000000	0.003628
2183.000000	0.003454
2182.000000	0.003345
2181.000000	0.003312
2180.000000	0.003362
2179.000000	0.003459
2178.000000	0.003550
2177.000000	0.003612
2176.000000	0.003645
2175.000000	0.003639
2174.000000	0.003588
2173.000000	0.003525
2172.000000	0.003511
2171.000000	0.003570
2170.000000	0.003658
2169.000000	0.003700
2168.000000	0.003666
2167.000000	0.003602
2166.000000	0.003571
2165.000000	0.003602
2164.000000	0.003668
2163.000000	0.003716
2162.000000	0.003683
2161.000000	0.003506
2160.000000	0.003186
2159.000000	0.002855
2158.000000	0.002707
2157.000000	0.002797
2156.000000	0.002986
2155.000000	0.003130
2154.000000	0.003216
2153.000000	0.003327
2152.000000	0.003496
2151.000000	0.003670
2150.000000	0.003791
2149.000000	0.003866
2148.000000	0.003943
2147.000000	0.004028
2146.000000	0.004078
2145.000000	0.004049
2144.000000	0.003955
2143.000000	0.003853
2142.000000	0.003781
2141.000000	0.003735
2140.000000	0.003696
2139.000000	0.003663
2138.000000	0.003651
2137.000000	0.003656
2136.000000	0.003660
2135.000000	0.003647
2134.000000	0.003623
2133.000000	0.003593
2132.000000	0.003558
2131.000000	0.003527
2130.000000	0.003519
2129.000000	0.003542
2128.000000	0.003588
2127.000000	0.003649
2126.000000	0.003716
2125.000000	0.003766
2124.000000	0.003770
2123.000000	0.003731
2122.000000	0.003694
2121.000000	0.003698
2120.000000	0.003748
2119.000000	0.003821
2118.000000	0.003902
2117.000000	0.003975
2116.000000	0.004012
2115.000000	0.003994
2114.000000	0.003944
2113.000000	0.003902
2112.000000	0.003878
2111.000000	0.003846
2110.000000	0.003796
2109.000000	0.003760
2108.000000	0.003780
2107.000000	0.003856
2106.000000	0.003960
2105.000000	0.004058
2104.000000	0.004126
2103.000000	0.004144
2102.000000	0.004110
2101.000000	0.004048
2100.000000	0.003991
2099.000000	0.003956
2098.000000	0.003936
2097.000000	0.003920
2096.000000	0.003907
2095.000000	0.003899
2094.000000	0.003895
2093.000000	0.003889
2092.000000	0.003887
2091.000000	0.003910
2090.000000	0.003972
2089.000000	0.004061
2088.000000	0.004141
2087.000000	0.004174
2086.000000	0.004146
2085.000000	0.004069
2084.000000	0.003979
2083.000000	0.003919
2082.000000	0.003920
2081.000000	0.003967
2080.000000	0.004001
2079.000000	0.003967
2078.000000	0.003867
2077.000000	0.003759
2076.000000	0.003704
2075.000000	0.003712
2074.000000	0.003740
2073.000000	0.003735
2072.000000	0.003684
2071.000000	0.003629
2070.000000	0.003634
2069.000000	0.003715
2068.000000	0.003823
2067.000000	0.003899
2066.000000	0.003927
2065.000000	0.003944
2064.000000	0.003982
2063.000000	0.004031
2062.000000	0.004053
2061.000000	0.004003
2060.000000	0.003861
2059.000000	0.003650
2058.000000	0.003446
2057.000000	0.003339
2056.000000	0.003370
2055.000000	0.003504
2054.000000	0.003658
2053.000000	0.003764
2052.000000	0.003809
2051.000000	0.003833
2050.000000	0.003891
2049.000000	0.003985
2048.000000	0.004048
2047.000000	0.004007
2046.000000	0.003843
2045.000000	0.003596
2044.000000	0.003324
2043.000000	0.003097
2042.000000	0.002994
2041.000000	0.003054
2040.000000	0.003212
2039.000000	0.003353
2038.000000	0.003431
2037.000000	0.003490
2036.000000	0.003548
2035.000000	0.003521
2034.000000	0.003328
2033.000000	0.003038
2032.000000	0.002844
2031.000000	0.002862
2030.000000	0.003015
2029.000000	0.003121
2028.000000	0.003080
2027.000000	0.002960
2026.000000	0.002917
2025.000000	0.003033
2024.000000	0.003230
2023.000000	0.003328
2022.000000	0.003216
2021.000000	0.002961
2020.000000	0.002751
2019.000000	0.002726
2018.000000	0.002856
2017.000000	0.002993
2016.000000	0.003031
2015.000000	0.003006
2014.000000	0.003003
2013.000000	0.003038
2012.000000	0.003064
2011.000000	0.003066
2010.000000	0.003079
2009.000000	0.003107
2008.000000	0.003093
2007.000000	0.002997
2006.000000	0.002874
2005.000000	0.002813
2004.000000	0.002832
2003.000000	0.002875
2002.000000	0.002883
2001.000000	0.002839
2000.000000	0.002770
1999.000000	0.002732
1998.000000	0.002788
1997.000000	0.002950
1996.000000	0.003144
1995.000000	0.003282
1994.000000	0.003354
1993.000000	0.003422
1992.000000	0.003520
1991.000000	0.003588
1990.000000	0.003541
1989.000000	0.003388
1988.000000	0.003238
1987.000000	0.003188
1986.000000	0.003225
1985.000000	0.003260
1984.000000	0.003247
1983.000000	0.003238
1982.000000	0.003293
1981.000000	0.003394
1980.000000	0.003470
1979.000000	0.003502
1978.000000	0.003528
1977.000000	0.003544
1976.000000	0.003500
1975.000000	0.003415
1974.000000	0.003390
1973.000000	0.003464
1972.000000	0.003537
1971.000000	0.003489
1970.000000	0.003323
1969.000000	0.003137
1968.000000	0.003008
1967.000000	0.002964
1966.000000	0.003008
1965.000000	0.003107
1964.000000	0.003182
1963.000000	0.003173
1962.000000	0.003124
1961.000000	0.003134
1960.000000	0.003245
1959.000000	0.003401
1958.000000	0.003519
1957.000000	0.003548
1956.000000	0.003484
1955.000000	0.003375
1954.000000	0.003303
1953.000000	0.003310
1952.000000	0.003357
1951.000000	0.003376
1950.000000	0.003355
1949.000000	0.003343
1948.000000	0.003369
1947.000000	0.003402
1946.000000	0.003407
1945.000000	0.003389
1944.000000	0.003376
1943.000000	0.003376
1942.000000	0.003380
1941.000000	0.003390
1940.000000	0.003412
1939.000000	0.003438
1938.000000	0.003448
1937.000000	0.003418
1936.000000	0.003347
1935.000000	0.003264
1934.000000	0.003217
1933.000000	0.003223
1932.000000	0.003260
1931.000000	0.003294
1930.000000	0.003321
1929.000000	0.003352
1928.000000	0.003380
1927.000000	0.003388
1926.000000	0.003377
1925.000000	0.003371
1924.000000	0.003378
1923.000000	0.003377
1922.000000	0.003351
1921.000000	0.003319
1920.000000	0.003317
1919.000000	0.003347
1918.000000	0.003372
1917.000000	0.003357
1916.000000	0.003313
1915.000000	0.003271
1914.000000	0.003248
1913.000000	0.003240
1912.000000	0.003249
1911.000000	0.003292
1910.000000	0.003380
1909.000000	0.003490
1908.000000	0.003574
1907.000000	0.003595
1906.000000	0.003539
1905.000000	0.003423
1904.000000	0.003297
1903.000000	0.003223
1902.000000	0.003239
1901.000000	0.003320
1900.000000	0.003410
1899.000000	0.003473
1898.000000	0.003507
1897.000000	0.003516
1896.000000	0.003490
1895.000000	0.003433
1894.000000	0.003371
1893.000000	0.003322
1892.000000	0.003276
1891.000000	0.003220
1890.000000	0.003167
1889.000000	0.003141
1888.000000	0.003150
1887.000000	0.003175
1886.000000	0.003202
1885.000000	0.003230
1884.000000	0.003249
1883.000000	0.003241
1882.000000	0.003203
1881.000000	0.003155
1880.000000	0.003124
1879.000000	0.003116
1878.000000	0.003128
1877.000000	0.003149
1876.000000	0.003172
1875.000000	0.003190
1874.000000	0.003205
1873.000000	0.003224
1872.000000	0.003248
1871.000000	0.003270
1870.000000	0.003274
1869.000000	0.003248
1868.000000	0.003206
1867.000000	0.003177
1866.000000	0.003167
1865.000000	0.003156
1864.000000	0.003134
1863.000000	0.003116
1862.000000	0.003129
1861.000000	0.003175
1860.000000	0.003220
1859.000000	0.003234
1858.000000	0.003219
1857.000000	0.003205
1856.000000	0.003212
1855.000000	0.003239
1854.000000	0.003266
1853.000000	0.003280
1852.000000	0.003270
1851.000000	0.003232
1850.000000	0.003174
1849.000000	0.003108
1848.000000	0.003047
1847.000000	0.003001
1846.000000	0.002979
1845.000000	0.002989
1844.000000	0.003027
1843.000000	0.003075
1842.000000	0.003105
1841.000000	0.003110
1840.000000	0.003106
1839.000000	0.003114
1838.000000	0.003134
1837.000000	0.003154
1836.000000	0.003152
1835.000000	0.003121
1834.000000	0.003075
1833.000000	0.003028
1832.000000	0.002983
1831.000000	0.002944
1830.000000	0.002923
1829.000000	0.002927
1828.000000	0.002952
1827.000000	0.002982
1826.000000	0.003017
1825.000000	0.003054
1824.000000	0.003088
1823.000000	0.003123
1822.000000	0.003164
1821.000000	0.003205
1820.000000	0.003225
1819.000000	0.003222
1818.000000	0.003213
1817.000000	0.003213
1816.000000	0.003215
1815.000000	0.003209
1814.000000	0.003197
1813.000000	0.003183
1812.000000	0.003165
1811.000000	0.003144
1810.000000	0.003134
1809.000000	0.003136
1808.000000	0.003143
1807.000000	0.003143
1806.000000	0.003135
1805.000000	0.003130
1804.000000	0.003134
1803.000000	0.003147
1802.000000	0.003158
1801.000000	0.003153
1800.000000	0.003135
1799.000000	0.003125
1798.000000	0.003123
1797.000000	0.003109
1796.000000	0.003065
1795.000000	0.003007
1794.000000	0.002968
1793.000000	0.002967
1792.000000	0.002997
1791.000000	0.003046
1790.000000	0.003096
1789.000000	0.003121
1788.000000	0.003108
1787.000000	0.003070
1786.000000	0.003040
1785.000000	0.003032
1784.000000	0.003027
1783.000000	0.003002
1782.000000	0.002971
1781.000000	0.002955
1780.000000	0.002964
1779.000000	0.002988
1778.000000	0.003004
1777.000000	0.002987
1776.000000	0.002927
1775.000000	0.002852
1774.000000	0.002807
1773.000000	0.002811
1772.000000	0.002824
1771.000000	0.002813
1770.000000	0.002809
1769.000000	0.002850
1768.000000	0.002919
1767.000000	0.002962
1766.000000	0.002963
1765.000000	0.002937
1764.000000	0.002905
1763.000000	0.002873
1762.000000	0.002860
1761.000000	0.002882
1760.000000	0.002920
1759.000000	0.002936
1758.000000	0.002934
1757.000000	0.002939
1756.000000	0.002959
1755.000000	0.002997
1754.000000	0.003072
1753.000000	0.003197
1752.000000	0.003323
1751.000000	0.003372
1750.000000	0.003339
1749.000000	0.003298
1748.000000	0.003295
1747.000000	0.003311
1746.000000	0.003326
1745.000000	0.003331
1744.000000	0.003306
1743.000000	0.003227
1742.000000	0.003114
1741.000000	0.003030
1740.000000	0.003009
1739.000000	0.003019
1738.000000	0.003017
1737.000000	0.003004
1736.000000	0.003007
1735.000000	0.003014
1734.000000	0.003010
1733.000000	0.003005
1732.000000	0.002971
1731.000000	0.002902
1730.000000	0.002855
1729.000000	0.002862
1728.000000	0.002893
1727.000000	0.002903
1726.000000	0.002892
1725.000000	0.002886
1724.000000	0.002891
1723.000000	0.002874
1722.000000	0.002813
1721.000000	0.002743
1720.000000	0.002728
1719.000000	0.002806
1718.000000	0.002952
1717.000000	0.003078
1716.000000	0.003129
1715.000000	0.003134
1714.000000	0.003172
1713.000000	0.003295
1712.000000	0.003478
1711.000000	0.003658
1710.000000	0.003803
1709.000000	0.003922
1708.000000	0.004038
1707.000000	0.004182
1706.000000	0.004375
1705.000000	0.004594
1704.000000	0.004793
1703.000000	0.004980
1702.000000	0.005225
1701.000000	0.005611
1700.000000	0.006116
1699.000000	0.006612
1698.000000	0.007046
1697.000000	0.007503
1696.000000	0.008002
1695.000000	0.008444
1694.000000	0.008758
1693.000000	0.008991
1692.000000	0.009260
1691.000000	0.009596
1690.000000	0.009953
1689.000000	0.010294
1688.000000	0.010623
1687.000000	0.010970
1686.000000	0.011355
1685.000000	0.011801
1684.000000	0.012273
1683.000000	0.012705
1682.000000	0.013126
1681.000000	0.013592
1680.000000	0.014090
1679.000000	0.014541
1678.000000	0.014933
1677.000000	0.015356
1676.000000	0.015900
1675.000000	0.016531
1674.000000	0.017150
1673.000000	0.017703
1672.000000	0.018220
1671.000000	0.018739
1670.000000	0.019289
1669.000000	0.019902
1668.000000	0.020559
1667.000000	0.021173
1666.000000	0.021707
1665.000000	0.022207
1664.000000	0.022727
1663.000000	0.023259
1662.000000	0.023781
1661.000000	0.024299
1660.000000	0.024806
1659.000000	0.025245
1658.000000	0.025561
1657.000000	0.025776
1656.000000	0.025989
1655.000000	0.026269
1654.000000	0.026601
1653.000000	0.026951
1652.000000	0.027326
1651.000000	0.027562
1650.000000	0.027629
1649.000000	0.027735
1648.000000	0.027963
1647.000000	0.028222
1646.000000	0.028449
1645.000000	0.028681
1644.000000	0.028905
1643.000000	0.029087
1642.000000	0.029229
1641.000000	0.029341
1640.000000	0.029427
1639.000000	0.029495
1638.000000	0.029545
1637.000000	0.029562
1636.000000	0.029533
1635.000000	0.029524
1634.000000	0.029597
1633.000000	0.029700
1632.000000	0.029765
1631.000000	0.029745
1630.000000	0.029604
1629.000000	0.029350
1628.000000	0.029038
1627.000000	0.028706
1626.000000	0.028352
1625.000000	0.027941
1624.000000	0.027454
1623.000000	0.026908
1622.000000	0.026364
1621.000000	0.025870
1620.000000	0.025425
1619.000000	0.024991
1618.000000	0.024487
1617.000000	0.023854
1616.000000	0.023173
1615.000000	0.022562
1614.000000	0.022031
1613.000000	0.021543
1612.000000	0.021059
1611.000000	0.020548
1610.000000	0.020017
1609.000000	0.019498
1608.000000	0.019023
1607.000000	0.018600
1606.000000	0.018219
1605.000000	0.017859
1604.000000	0.017503
1603.000000	0.017160
1602.000000	0.016846
1601.000000	0.016571
1600.000000	0.016339
1599.000000	0.016145
1598.000000	0.015979
1597.000000	0.015822
1596.000000	0.015674
1595.000000	0.015550
1594.000000	0.015456
1593.000000	0.015386
1592.000000	0.015333
1591.000000	0.015309
1590.000000	0.015319
1589.000000	0.015353
1588.000000	0.015400
1587.000000	0.015461
1586.000000	0.015543
1585.000000	0.015639
1584.000000	0.015735
1583.000000	0.015840
1582.000000	0.015964
1581.000000	0.016101
1580.000000	0.016248
1579.000000	0.016437
1578.000000	0.016708
1577.000000	0.017036
1576.000000	0.017339
1575.000000	0.017557
1574.000000	0.017701
1573.000000	0.017836
1572.000000	0.018019
1571.000000	0.018264
1570.000000	0.018569
1569.000000	0.018932
1568.000000	0.019327
1567.000000	0.019719
1566.000000	0.020099
1565.000000	0.020473
1564.000000	0.020818
1563.000000	0.021124
1562.000000	0.021411
1561.000000	0.021703
1560.000000	0.022026
1559.000000	0.022349
1558.000000	0.022625
1557.000000	0.022980
1556.000000	0.023372
1555.000000	0.023754
1554.000000	0.024098
1553.000000	0.024386
1552.000000	0.024627
1551.000000	0.024842
1550.000000	0.025022
1549.000000	0.025161
1548.000000	0.025273
1547.000000	0.025371
1546.000000	0.025447
1545.000000	0.025484
1544.000000	0.025480
1543.000000	0.025471
1542.000000	0.025495
1541.000000	0.025537
1540.000000	0.025532
1539.000000	0.025505
1538.000000	0.025498
1537.000000	0.025452
1536.000000	0.025368
1535.000000	0.025252
1534.000000	0.025080
1533.000000	0.024886
1532.000000	0.024762
1531.000000	0.024710
1530.000000	0.024649
1529.000000	0.024526
1528.000000	0.024351
1527.000000	0.024149
1526.000000	0.023932
1525.000000	0.023712
1524.000000	0.023512
1523.000000	0.023333
1522.000000	0.023119
1521.000000	0.022839
1520.000000	0.022551
1519.000000	0.022289
1518.000000	0.022045
1517.000000	0.021805
1516.000000	0.021576
1515.000000	0.021383
1514.000000	0.021205
1513.000000	0.020980
1512.000000	0.020679
1511.000000	0.020335
1510.000000	0.020015
1509.000000	0.019736
1508.000000	0.019413
1507.000000	0.018921
1506.000000	0.018388
1505.000000	0.018071
1504.000000	0.017872
1503.000000	0.017658
1502.000000	0.017404
1501.000000	0.017087
1500.000000	0.016696
1499.000000	0.016282
1498.000000	0.015908
1497.000000	0.015582
1496.000000	0.015278
1495.000000	0.014970
1494.000000	0.014653
1493.000000	0.014333
1492.000000	0.014019
1491.000000	0.013702
1490.000000	0.013395
1489.000000	0.013131
1488.000000	0.012942
1487.000000	0.012822
1486.000000	0.012741
1485.000000	0.012687
1484.000000	0.012656
1483.000000	0.012638
1482.000000	0.012619
1481.000000	0.012596
1480.000000	0.012578
1479.000000	0.012574
1478.000000	0.012596
1477.000000	0.012656
1476.000000	0.012763
1475.000000	0.012919
1474.000000	0.013125
1473.000000	0.013374
1472.000000	0.013644
1471.000000	0.013916
1470.000000	0.014174
1469.000000	0.014398
1468.000000	0.014582
1467.000000	0.014734
1466.000000	0.014893
1465.000000	0.015095
1464.000000	0.015334
1463.000000	0.015568
1462.000000	0.015757
1461.000000	0.015900
1460.000000	0.016036
1459.000000	0.016220
1458.000000	0.016492
1457.000000	0.016835
1456.000000	0.017175
1455.000000	0.017426
1454.000000	0.017583
1453.000000	0.017711
1452.000000	0.017821
1451.000000	0.017888
1450.000000	0.017912
1449.000000	0.017907
1448.000000	0.017872
1447.000000	0.017817
1446.000000	0.017783
1445.000000	0.017769
1444.000000	0.017739
1443.000000	0.017664
1442.000000	0.017553
1441.000000	0.017422
1440.000000	0.017277
1439.000000	0.017117
1438.000000	0.016935
1437.000000	0.016727
1436.000000	0.016513
1435.000000	0.016327
1434.000000	0.016169
1433.000000	0.016014
1432.000000	0.015839
1431.000000	0.015640
1430.000000	0.015455
1429.000000	0.015320
1428.000000	0.015232
1427.000000	0.015160
1426.000000	0.015088
1425.000000	0.015014
1424.000000	0.014937
1423.000000	0.014865
1422.000000	0.014825
1421.000000	0.014820
1420.000000	0.014814
1419.000000	0.014786
1418.000000	0.014765
1417.000000	0.014782
1416.000000	0.014820
1415.000000	0.014856
1414.000000	0.014889
1413.000000	0.014935
1412.000000	0.015006
1411.000000	0.015096
1410.000000	0.015203
1409.000000	0.015321
1408.000000	0.015435
1407.000000	0.015534
1406.000000	0.015626
1405.000000	0.015729
1404.000000	0.015832
1403.000000	0.015910
1402.000000	0.015955
1401.000000	0.015972
1400.000000	0.015958
1399.000000	0.015912
1398.000000	0.015854
1397.000000	0.015812
1396.000000	0.015772
1395.000000	0.015710
1394.000000	0.015640
1393.000000	0.015597
1392.000000	0.015565
1391.000000	0.015513
1390.000000	0.015435
1389.000000	0.015346
1388.000000	0.015247
1387.000000	0.015132
1386.000000	0.015013
1385.000000	0.014912
1384.000000	0.014822
1383.000000	0.014722
1382.000000	0.014604
1381.000000	0.014483
1380.000000	0.014368
1379.000000	0.014246
1378.000000	0.014103
1377.000000	0.013944
1376.000000	0.013782
1375.000000	0.013618
1374.000000	0.013449
1373.000000	0.013284
1372.000000	0.013132
1371.000000	0.012981
1370.000000	0.012815
1369.000000	0.012634
1368.000000	0.012445
1367.000000	0.012258
1366.000000	0.012082
1365.000000	0.011919
1364.000000	0.011762
1363.000000	0.011608
1362.000000	0.011466
1361.000000	0.011360
1360.000000	0.011291
1359.000000	0.011245
1358.000000	0.011209
1357.000000	0.011190
1356.000000	0.011198
1355.000000	0.011235
1354.000000	0.011298
1353.000000	0.011382
1352.000000	0.011475
1351.000000	0.011568
1350.000000	0.011657
1349.000000	0.011758
1348.000000	0.011888
1347.000000	0.012041
1346.000000	0.012203
1345.000000	0.012366
1344.000000	0.012525
1343.000000	0.012676
1342.000000	0.012820
1341.000000	0.012965
1340.000000	0.013104
1339.000000	0.013213
1338.000000	0.013274
1337.000000	0.013297
1336.000000	0.013298
1335.000000	0.013275
1334.000000	0.013220
1333.000000	0.013131
1332.000000	0.013020
1331.000000	0.012899
1330.000000	0.012776
1329.000000	0.012654
1328.000000	0.012537
1327.000000	0.012425
1326.000000	0.012321
1325.000000	0.012236
1324.000000	0.012171
1323.000000	0.012123
1322.000000	0.012087
1321.000000	0.012065
1320.000000	0.012055
1319.000000	0.012041
1318.000000	0.012016
1317.000000	0.011982
1316.000000	0.011948
1315.000000	0.011915
1314.000000	0.011878
1313.000000	0.011830
1312.000000	0.011761
1311.000000	0.011662
1310.000000	0.011544
1309.000000	0.011435
1308.000000	0.011354
1307.000000	0.011293
1306.000000	0.011233
1305.000000	0.011168
1304.000000	0.011102
1303.000000	0.011036
1302.000000	0.010965
1301.000000	0.010897
1300.000000	0.010845
1299.000000	0.010808
1298.000000	0.010779
1297.000000	0.010758
1296.000000	0.010754
1295.000000	0.010770
1294.000000	0.010802
1293.000000	0.010851
1292.000000	0.010920
1291.000000	0.011005
1290.000000	0.011093
1289.000000	0.011176
1288.000000	0.011262
1287.000000	0.011357
1286.000000	0.011456
1285.000000	0.011554
1284.000000	0.011650
1283.000000	0.011740
1282.000000	0.011818
1281.000000	0.011876
1280.000000	0.011910
1279.000000	0.011924
1278.000000	0.011922
1277.000000	0.011908
1276.000000	0.011884
1275.000000	0.011856
1274.000000	0.011830
1273.000000	0.011816
1272.000000	0.011818
1271.000000	0.011830
1270.000000	0.011848
1269.000000	0.011872
1268.000000	0.011898
1267.000000	0.011924
1266.000000	0.011951
1265.000000	0.011992
1264.000000	0.012054
1263.000000	0.012133
1262.000000	0.012217
1261.000000	0.012307
1260.000000	0.012409
1259.000000	0.012520
1258.000000	0.012633
1257.000000	0.012754
1256.000000	0.012893
1255.000000	0.013052
1254.000000	0.013217
1253.000000	0.013377
1252.000000	0.013535
1251.000000	0.013698
1250.000000	0.013876
1249.000000	0.014067
1248.000000	0.014263
1247.000000	0.014449
1246.000000	0.014618
1245.000000	0.014774
1244.000000	0.014925
1243.000000	0.015073
1242.000000	0.015223
1241.000000	0.015378
1240.000000	0.015531
1239.000000	0.015659
1238.000000	0.015743
1237.000000	0.015782
1236.000000	0.015786
1235.000000	0.015762
1234.000000	0.015711
1233.000000	0.015635
1232.000000	0.015532
1231.000000	0.015397
1230.000000	0.015226
1229.000000	0.015023
1228.000000	0.014802
1227.000000	0.014574
1226.000000	0.014342
1225.000000	0.014094
1224.000000	0.013814
1223.000000	0.013495
1222.000000	0.013157
1221.000000	0.012835
1220.000000	0.012551
1219.000000	0.012310
1218.000000	0.012110
1217.000000	0.011956
1216.000000	0.011848
1215.000000	0.011771
1214.000000	0.011707
1213.000000	0.011661
1212.000000	0.011645
1211.000000	0.011662
1210.000000	0.011702
1209.000000	0.011756
1208.000000	0.011822
1207.000000	0.011891
1206.000000	0.011947
1205.000000	0.011977
1204.000000	0.011980
1203.000000	0.011965
1202.000000	0.011934
1201.000000	0.011883
1200.000000	0.011799
1199.000000	0.011677
1198.000000	0.011523
1197.000000	0.011354
1196.000000	0.011179
1195.000000	0.010998
1194.000000	0.010812
1193.000000	0.010629
1192.000000	0.010457
1191.000000	0.010285
1190.000000	0.010101
1189.000000	0.009912
1188.000000	0.009736
1187.000000	0.009586
1186.000000	0.009450
1185.000000	0.009311
1184.000000	0.009168
1183.000000	0.009047
1182.000000	0.008971
1181.000000	0.008947
1180.000000	0.008950
1179.000000	0.008947
1178.000000	0.008915
1177.000000	0.008866
1176.000000	0.008823
1175.000000	0.008795
1174.000000	0.008774
1173.000000	0.008752
1172.000000	0.008732
1171.000000	0.008727
1170.000000	0.008735
1169.000000	0.008754
1168.000000	0.008787
1167.000000	0.008842
1166.000000	0.008913
1165.000000	0.008985
1164.000000	0.009039
1163.000000	0.009070
1162.000000	0.009082
1161.000000	0.009076
1160.000000	0.009045
1159.000000	0.008982
1158.000000	0.008890
1157.000000	0.008784
1156.000000	0.008682
1155.000000	0.008590
1154.000000	0.008498
1153.000000	0.008393
1152.000000	0.008267
1151.000000	0.008121
1150.000000	0.007968
1149.000000	0.007831
1148.000000	0.007727
1147.000000	0.007652
1146.000000	0.007581
1145.000000	0.007496
1144.000000	0.007396
1143.000000	0.007292
1142.000000	0.007199
1141.000000	0.007122
1140.000000	0.007064
1139.000000	0.007016
1138.000000	0.006970
1137.000000	0.006923
1136.000000	0.006879
1135.000000	0.006837
1134.000000	0.006789
1133.000000	0.006741
1132.000000	0.006709
1131.000000	0.006698
1130.000000	0.006688
1129.000000	0.006666
1128.000000	0.006648
1127.000000	0.006656
1126.000000	0.006684
1125.000000	0.006705
1124.000000	0.006706
1123.000000	0.006701
1122.000000	0.006697
1121.000000	0.006689
1120.000000	0.006676
1119.000000	0.006669
1118.000000	0.006683
1117.000000	0.006711
1116.000000	0.006738
1115.000000	0.006761
1114.000000	0.006786
1113.000000	0.006817
1112.000000	0.006850
1111.000000	0.006880
1110.000000	0.006913
1109.000000	0.006956
1108.000000	0.007008
1107.000000	0.007057
1106.000000	0.007090
1105.000000	0.007110
1104.000000	0.007136
1103.000000	0.007181
1102.000000	0.007244
1101.000000	0.007313
1100.000000	0.007379
1099.000000	0.007438
1098.000000	0.007481
1097.000000	0.007502
1096.000000	0.007503
1095.000000	0.007503
1094.000000	0.007523
1093.000000	0.007585
1092.000000	0.007705
1091.000000	0.007881
1090.000000	0.008083
1089.000000	0.008269
1088.000000	0.008420
1087.000000	0.008557
1086.000000	0.008707
1085.000000	0.008877
1084.000000	0.009043
1083.000000	0.009178
1082.000000	0.009256
1081.000000	0.009265
1080.000000	0.009215
1079.000000	0.009143
1078.000000	0.009075
1077.000000	0.009005
1076.000000	0.008905
1075.000000	0.008771
1074.000000	0.008633
1073.000000	0.008518
1072.000000	0.008424
1071.000000	0.008337
1070.000000	0.008261
1069.000000	0.008208
1068.000000	0.008184
1067.000000	0.008177
1066.000000	0.008176
1065.000000	0.008176
1064.000000	0.008172
1063.000000	0.008164
1062.000000	0.008150
1061.000000	0.008132
1060.000000	0.008106
1059.000000	0.008070
1058.000000	0.008030
1057.000000	0.007992
1056.000000	0.007957
1055.000000	0.007916
1054.000000	0.007860
1053.000000	0.007794
1052.000000	0.007733
1051.000000	0.007690
1050.000000	0.007655
1049.000000	0.007610
1048.000000	0.007544
1047.000000	0.007473
1046.000000	0.007423
1045.000000	0.007405
1044.000000	0.007412
1043.000000	0.007426
1042.000000	0.007445
1041.000000	0.007467
1040.000000	0.007490
1039.000000	0.007516
1038.000000	0.007563
1037.000000	0.007650
1036.000000	0.007771
1035.000000	0.007899
1034.000000	0.008009
1033.000000	0.008099
1032.000000	0.008171
1031.000000	0.008215
1030.000000	0.008220
1029.000000	0.008186
1028.000000	0.008121
1027.000000	0.008034
1026.000000	0.007928
1025.000000	0.007816
1024.000000	0.007716
1023.000000	0.007632
1022.000000	0.007556
1021.000000	0.007480
1020.000000	0.007406
1019.000000	0.007337
1018.000000	0.007268
1017.000000	0.007192
1016.000000	0.007111
1015.000000	0.007031
1014.000000	0.006957
1013.000000	0.006884
1012.000000	0.006801
1011.000000	0.006700
1010.000000	0.006582
1009.000000	0.006453
1008.000000	0.006324
1007.000000	0.006203
1006.000000	0.006088
1005.000000	0.005975
1004.000000	0.005863
1003.000000	0.005763
1002.000000	0.005676
1001.000000	0.005592
1000.000000	0.005494
999.000000	0.005380
998.000000	0.005269
997.000000	0.005185
996.000000	0.005135
995.000000	0.005105
994.000000	0.005070
993.000000	0.005014
992.000000	0.004939
991.000000	0.004858
990.000000	0.004782
989.000000	0.004715
988.000000	0.004656
987.000000	0.004607
986.000000	0.004578
985.000000	0.004576
984.000000	0.004592
983.000000	0.004604
982.000000	0.004598
981.000000	0.004585
980.000000	0.004589
979.000000	0.004623
978.000000	0.004674
977.000000	0.004723
976.000000	0.004757
975.000000	0.004770
974.000000	0.004756
973.000000	0.004718
972.000000	0.004667
971.000000	0.004609
970.000000	0.004541
969.000000	0.004463
968.000000	0.004386
967.000000	0.004325
966.000000	0.004275
965.000000	0.004226
964.000000	0.004179
963.000000	0.004146
962.000000	0.004126
961.000000	0.004102
960.000000	0.004061
959.000000	0.004012
958.000000	0.003968
957.000000	0.003930
956.000000	0.003889
955.000000	0.003848
954.000000	0.003811
953.000000	0.003777
952.000000	0.003744
951.000000	0.003714
950.000000	0.003692
949.000000	0.003678
948.000000	0.003663
947.000000	0.003646
946.000000	0.003638
945.000000	0.003644
944.000000	0.003658
943.000000	0.003674
942.000000	0.003694
941.000000	0.003720
940.000000	0.003752
939.000000	0.003777
938.000000	0.003787
937.000000	0.003778
936.000000	0.003753
935.000000	0.003719
934.000000	0.003679
933.000000	0.003636
932.000000	0.003593
931.000000	0.003560
930.000000	0.003543
929.000000	0.003541
928.000000	0.003541
927.000000	0.003532
926.000000	0.003516
925.000000	0.003499
924.000000	0.003487
923.000000	0.003474
922.000000	0.003450
921.000000	0.003411
920.000000	0.003363
919.000000	0.003319
918.000000	0.003287
917.000000	0.003256
916.000000	0.003217
915.000000	0.003173
914.000000	0.003134
913.000000	0.003103
912.000000	0.003067
911.000000	0.003024
910.000000	0.002984
909.000000	0.002959
908.000000	0.002944
907.000000	0.002930
906.000000	0.002922
905.000000	0.002927
904.000000	0.002943
903.000000	0.002952
902.000000	0.002939
901.000000	0.002901
900.000000	0.002851
899.000000	0.002817
898.000000	0.002824
897.000000	0.002863
896.000000	0.002895
895.000000	0.002886
894.000000	0.002850
893.000000	0.002826
892.000000	0.002831
891.000000	0.002846
890.000000	0.002848
889.000000	0.002837
888.000000	0.002826
887.000000	0.002818
886.000000	0.002818
885.000000	0.002848
884.000000	0.002923
883.000000	0.003027
882.000000	0.003133
881.000000	0.003230
880.000000	0.003330
879.000000	0.003441
878.000000	0.003553
877.000000	0.003650
876.000000	0.003723
875.000000	0.003760
874.000000	0.003756
873.000000	0.003716
872.000000	0.003662
871.000000	0.003605
870.000000	0.003536
869.000000	0.003440
868.000000	0.003319
867.000000	0.003198
866.000000	0.003109
865.000000	0.003069
864.000000	0.003064
863.000000	0.003065
862.000000	0.003051
861.000000	0.003029
860.000000	0.003017
859.000000	0.003019
858.000000	0.003016
857.000000	0.003001
856.000000	0.002992
855.000000	0.003016
854.000000	0.003082
853.000000	0.003175
852.000000	0.003268
851.000000	0.003345
850.000000	0.003396
849.000000	0.003407
848.000000	0.003365
847.000000	0.003278
846.000000	0.003179
845.000000	0.003103
844.000000	0.003054
843.000000	0.003014
842.000000	0.002977
841.000000	0.002961
840.000000	0.002980
839.000000	0.003019
838.000000	0.003042
837.000000	0.003024
836.000000	0.002964
835.000000	0.002875
834.000000	0.002785
833.000000	0.002724
832.000000	0.002710
831.000000	0.002733
830.000000	0.002772
829.000000	0.002819
828.000000	0.002877
827.000000	0.002938
826.000000	0.002989
825.000000	0.003013
824.000000	0.002996
823.000000	0.002929
822.000000	0.002834
821.000000	0.002761
820.000000	0.002755
819.000000	0.002818
818.000000	0.002919
817.000000	0.003029
816.000000	0.003118
815.000000	0.003153
814.000000	0.003120
813.000000	0.003058
812.000000	0.003027
811.000000	0.003040
810.000000	0.003039
809.000000	0.002979
808.000000	0.002877
807.000000	0.002795
806.000000	0.002772
805.000000	0.002802
804.000000	0.002854
803.000000	0.002899
802.000000	0.002917
801.000000	0.002909
800.000000	0.002890
799.000000	0.002868
798.000000	0.002845
797.000000	0.002825
796.000000	0.002822
795.000000	0.002837
794.000000	0.002852
793.000000	0.002856
792.000000	0.002857
791.000000	0.002871
790.000000	0.002901
789.000000	0.002949
788.000000	0.003019
787.000000	0.003100
786.000000	0.003158
785.000000	0.003171
784.000000	0.003148
783.000000	0.003117
782.000000	0.003089
781.000000	0.003063
780.000000	0.003055
779.000000	0.003086
778.000000	0.003146
777.000000	0.003191
776.000000	0.003191
775.000000	0.003163
774.000000	0.003150
773.000000	0.003183
772.000000	0.003263
771.000000	0.003366
770.000000	0.003450
769.000000	0.003480
768.000000	0.003456
767.000000	0.003419
766.000000	0.003406
765.000000	0.003414
764.000000	0.003410
763.000000	0.003382
762.000000	0.003361
761.000000	0.003384
760.000000	0.003456
759.000000	0.003552
758.000000	0.003641
757.000000	0.003700
756.000000	0.003721
755.000000	0.003717
754.000000	0.003712
753.000000	0.003721
752.000000	0.003734
751.000000	0.003734
750.000000	0.003732
749.000000	0.003762
748.000000	0.003822
747.000000	0.003870
746.000000	0.003881
745.000000	0.003892
744.000000	0.003956
743.000000	0.004067
742.000000	0.004167
741.000000	0.004212
740.000000	0.004214
739.000000	0.004200
738.000000	0.004175
737.000000	0.004147
736.000000	0.004148
735.000000	0.004205
734.000000	0.004304
733.000000	0.004410
732.000000	0.004510
731.000000	0.004611
730.000000	0.004702
729.000000	0.004750
728.000000	0.004746
727.000000	0.004738
726.000000	0.004781
725.000000	0.004882
724.000000	0.004998
723.000000	0.005086
722.000000	0.005143
721.000000	0.005197
720.000000	0.005254
719.000000	0.005289
718.000000	0.005272
717.000000	0.005214
716.000000	0.005174
715.000000	0.005212
714.000000	0.005339
713.000000	0.005506
712.000000	0.005648
711.000000	0.005734
710.000000	0.005776
709.000000	0.005806
708.000000	0.005841
707.000000	0.005885
706.000000	0.005938
705.000000	0.005997
704.000000	0.006055
703.000000	0.006109
702.000000	0.006164
701.000000	0.006219
700.000000	0.006252
699.000000	0.006233
698.000000	0.006162
697.000000	0.006077
696.000000	0.006025
695.000000	0.006022
694.000000	0.006053
693.000000	0.006095
692.000000	0.006131
691.000000	0.006153
690.000000	0.006166
689.000000	0.006189
688.000000	0.006241
687.000000	0.006325
686.000000	0.006424
685.000000	0.006522
684.000000	0.006614
683.000000	0.006690
682.000000	0.006730
681.000000	0.006726
680.000000	0.006697
679.000000	0.006675
678.000000	0.006677
677.000000	0.006710
676.000000	0.006780
675.000000	0.006874
674.000000	0.006948
673.000000	0.006958
672.000000	0.006901
671.000000	0.006808
670.000000	0.006721
669.000000	0.006689
668.000000	0.006759
667.000000	0.006886
666.000000	0.006985
665.000000	0.007090
664.000000	0.007211
663.000000	0.007307
662.000000	0.007347
661.000000	0.007355
660.000000	0.007376
659.000000	0.007421
658.000000	0.007469
657.000000	0.007511
656.000000	0.007555
655.000000	0.007590
654.000000	0.007606
653.000000	0.007615
652.000000	0.007631
651.000000	0.007631
650.000000	0.007581
649.000000	0.007484
648.000000	0.007381
647.000000	0.007303
646.000000	0.007254
645.000000	0.007231
644.000000	0.007240
643.000000	0.007284
642.000000	0.007340
641.000000	0.007375
640.000000	0.007370
639.000000	0.007343
638.000000	0.007334
637.000000	0.007367
636.000000	0.007420
635.000000	0.007446
634.000000	0.007418
633.000000	0.007354
632.000000	0.007294
631.000000	0.007276
630.000000	0.007314
629.000000	0.007391
628.000000	0.007473
627.000000	0.007533
626.000000	0.007570
625.000000	0.007583
624.000000	0.007549
623.000000	0.007454
622.000000	0.007330
621.000000	0.007237
620.000000	0.007210
619.000000	0.007238
618.000000	0.007299
617.000000	0.007376
616.000000	0.007448
615.000000	0.007485
614.000000	0.007467
613.000000	0.007388
612.000000	0.007249
611.000000	0.007078
610.000000	0.006949
609.000000	0.006941
608.000000	0.007058
607.000000	0.007220
606.000000	0.007350
605.000000	0.007428
604.000000	0.007465
603.000000	0.007453
602.000000	0.007381
601.000000	0.007266
600.000000	0.007151
599.000000	0.007072
598.000000	0.007059
597.000000	0.007121
596.000000	0.007220
595.000000	0.007296
594.000000	0.007323
593.000000	0.007320
592.000000	0.007294
591.000000	0.007208
590.000000	0.007054
589.000000	0.006900
588.000000	0.006834
587.000000	0.006873
586.000000	0.006967
585.000000	0.007068
584.000000	0.007149
583.000000	0.007194
582.000000	0.007193
581.000000	0.007163
580.000000	0.007128
579.000000	0.007097
578.000000	0.007076
577.000000	0.007077
576.000000	0.007080
575.000000	0.007040
574.000000	0.006968
573.000000	0.006954
572.000000	0.007075
571.000000	0.007308
570.000000	0.007575
569.000000	0.007832
568.000000	0.008047
567.000000	0.008150
566.000000	0.008099
565.000000	0.007977
564.000000	0.007920
563.000000	0.007955
562.000000	0.007999
561.000000	0.007988
560.000000	0.007953
559.000000	0.007928
558.000000	0.007887
557.000000	0.007793
556.000000	0.007665
555.000000	0.007567
554.000000	0.007556
553.000000	0.007662
552.000000	0.007859
551.000000	0.008050
550.000000	0.008099
549.000000	0.007951
548.000000	0.007690
547.000000	0.007469
546.000000	0.007387
545.000000	0.007425
544.000000	0.007471
543.000000	0.007442
542.000000	0.007378
541.000000	0.007413
540.000000	0.007610
539.000000	0.007864
538.000000	0.008000
537.000000	0.007961
536.000000	0.007836
535.000000	0.007733
534.000000	0.007691
533.000000	0.007697
532.000000	0.007735
531.000000	0.007791
530.000000	0.007846
529.000000	0.007873
528.000000	0.007841
527.000000	0.007725
526.000000	0.007545
525.000000	0.007375
524.000000	0.007256
523.000000	0.007148
522.000000	0.006995
521.000000	0.006807
520.000000	0.006649
519.000000	0.006587
518.000000	0.006659
517.000000	0.006857
516.000000	0.007081
515.000000	0.007152
514.000000	0.006948
513.000000	0.006526
512.000000	0.006073
511.000000	0.005745
510.000000	0.005583
509.000000	0.005534
508.000000	0.005523
507.000000	0.005503
506.000000	0.005508
505.000000	0.005627
504.000000	0.005879
503.000000	0.006121
502.000000	0.006154
501.000000	0.005925
500.000000	0.005559
499.000000	0.005180
498.000000	0.004844
497.000000	0.004605
496.000000	0.004545
495.000000	0.004689
494.000000	0.004968
493.000000	0.005270
492.000000	0.005486
491.000000	0.005501
490.000000	0.005251
489.000000	0.004823
488.000000	0.004404
487.000000	0.004101
486.000000	0.003884
485.000000	0.003735
484.000000	0.003756
483.000000	0.004036
482.000000	0.004486
481.000000	0.004919
480.000000	0.005231
479.000000	0.005399
478.000000	0.005365
477.000000	0.005036
476.000000	0.004412
475.000000	0.003636
474.000000	0.002953
473.000000	0.002619
472.000000	0.002778
471.000000	0.003343
470.000000	0.004001
469.000000	0.004404
468.000000	0.004368
467.000000	0.003935
466.000000	0.003318
465.000000	0.002727
464.000000	0.002274
463.000000	0.002031
462.000000	0.002073
461.000000	0.002380
460.000000	0.002800
459.000000	0.003170
458.000000	0.003406
457.000000	0.003446
456.000000	0.003191
455.000000	0.002553
454.000000	0.001596
453.000000	0.000546
452.000000	-0.000345
451.000000	-0.000877
450.000000	-0.000887
