PE IR       SUBTECH     SPECTRUM    ASCII       PEDS        4.00        
   -1
3C-H10-F019_1.ASC
22/02/11
15:42:13.00
22/02/11
15:43:59.00
uco
Sample 019 By uco Date Friday, February 11 2022
450.000000
#HDR
-1
-1
#GR
cm-1
A
1.0
0.0
4000.000000
-1.000000
3551
8
0.054798
0.005097
#DATA
4000.000000	0.005545
3999.000000	0.005554
3998.000000	0.005563
3997.000000	0.005574
3996.000000	0.005588
3995.000000	0.005606
3994.000000	0.005629
3993.000000	0.005651
3992.000000	0.005663
3991.000000	0.005657
3990.000000	0.005634
3989.000000	0.005605
3988.000000	0.005586
3987.000000	0.005583
3986.000000	0.005594
3985.000000	0.005606
3984.000000	0.005609
3983.000000	0.005601
3982.000000	0.005589
3981.000000	0.005582
3980.000000	0.005584
3979.000000	0.005594
3978.000000	0.005607
3977.000000	0.005620
3976.000000	0.005631
3975.000000	0.005637
3974.000000	0.005637
3973.000000	0.005634
3972.000000	0.005637
3971.000000	0.005653
3970.000000	0.005680
3969.000000	0.005708
3968.000000	0.005726
3967.000000	0.005729
3966.000000	0.005719
3965.000000	0.005704
3964.000000	0.005693
3963.000000	0.005686
3962.000000	0.005684
3961.000000	0.005684
3960.000000	0.005680
3959.000000	0.005672
3958.000000	0.005661
3957.000000	0.005652
3956.000000	0.005647
3955.000000	0.005648
3954.000000	0.005655
3953.000000	0.005669
3952.000000	0.005688
3951.000000	0.005708
3950.000000	0.005724
3949.000000	0.005730
3948.000000	0.005728
3947.000000	0.005718
3946.000000	0.005703
3945.000000	0.005688
3944.000000	0.005676
3943.000000	0.005673
3942.000000	0.005680
3941.000000	0.005699
3940.000000	0.005721
3939.000000	0.005738
3938.000000	0.005738
3937.000000	0.005722
3936.000000	0.005697
3935.000000	0.005677
3934.000000	0.005672
3933.000000	0.005686
3932.000000	0.005715
3931.000000	0.005751
3930.000000	0.005780
3929.000000	0.005794
3928.000000	0.005791
3927.000000	0.005777
3926.000000	0.005758
3925.000000	0.005742
3924.000000	0.005735
3923.000000	0.005741
3922.000000	0.005758
3921.000000	0.005778
3920.000000	0.005792
3919.000000	0.005799
3918.000000	0.005802
3917.000000	0.005804
3916.000000	0.005808
3915.000000	0.005813
3914.000000	0.005816
3913.000000	0.005816
3912.000000	0.005813
3911.000000	0.005807
3910.000000	0.005802
3909.000000	0.005796
3908.000000	0.005793
3907.000000	0.005797
3906.000000	0.005807
3905.000000	0.005819
3904.000000	0.005825
3903.000000	0.005821
3902.000000	0.005815
3901.000000	0.005812
3900.000000	0.005810
3899.000000	0.005806
3898.000000	0.005799
3897.000000	0.005791
3896.000000	0.005787
3895.000000	0.005790
3894.000000	0.005801
3893.000000	0.005818
3892.000000	0.005833
3891.000000	0.005834
3890.000000	0.005824
3889.000000	0.005815
3888.000000	0.005818
3887.000000	0.005828
3886.000000	0.005828
3885.000000	0.005813
3884.000000	0.005791
3883.000000	0.005777
3882.000000	0.005772
3881.000000	0.005770
3880.000000	0.005767
3879.000000	0.005769
3878.000000	0.005783
3877.000000	0.005808
3876.000000	0.005832
3875.000000	0.005845
3874.000000	0.005844
3873.000000	0.005836
3872.000000	0.005831
3871.000000	0.005826
3870.000000	0.005813
3869.000000	0.005791
3868.000000	0.005773
3867.000000	0.005774
3866.000000	0.005789
3865.000000	0.005804
3864.000000	0.005808
3863.000000	0.005798
3862.000000	0.005782
3861.000000	0.005768
3860.000000	0.005762
3859.000000	0.005767
3858.000000	0.005780
3857.000000	0.005795
3856.000000	0.005800
3855.000000	0.005784
3854.000000	0.005748
3853.000000	0.005712
3852.000000	0.005701
3851.000000	0.005722
3850.000000	0.005758
3849.000000	0.005783
3848.000000	0.005785
3847.000000	0.005770
3846.000000	0.005753
3845.000000	0.005748
3844.000000	0.005757
3843.000000	0.005769
3842.000000	0.005772
3841.000000	0.005769
3840.000000	0.005771
3839.000000	0.005784
3838.000000	0.005798
3837.000000	0.005803
3836.000000	0.005798
3835.000000	0.005793
3834.000000	0.005792
3833.000000	0.005795
3832.000000	0.005794
3831.000000	0.005785
3830.000000	0.005772
3829.000000	0.005766
3828.000000	0.005771
3827.000000	0.005779
3826.000000	0.005774
3825.000000	0.005752
3824.000000	0.005721
3823.000000	0.005698
3822.000000	0.005692
3821.000000	0.005698
3820.000000	0.005707
3819.000000	0.005718
3818.000000	0.005736
3817.000000	0.005755
3816.000000	0.005768
3815.000000	0.005777
3814.000000	0.005791
3813.000000	0.005809
3812.000000	0.005819
3811.000000	0.005813
3810.000000	0.005798
3809.000000	0.005788
3808.000000	0.005784
3807.000000	0.005773
3806.000000	0.005746
3805.000000	0.005713
3804.000000	0.005689
3803.000000	0.005681
3802.000000	0.005685
3801.000000	0.005694
3800.000000	0.005707
3799.000000	0.005724
3798.000000	0.005739
3797.000000	0.005744
3796.000000	0.005739
3795.000000	0.005736
3794.000000	0.005741
3793.000000	0.005753
3792.000000	0.005764
3791.000000	0.005771
3790.000000	0.005774
3789.000000	0.005778
3788.000000	0.005783
3787.000000	0.005787
3786.000000	0.005787
3785.000000	0.005780
3784.000000	0.005771
3783.000000	0.005763
3782.000000	0.005762
3781.000000	0.005768
3780.000000	0.005774
3779.000000	0.005774
3778.000000	0.005762
3777.000000	0.005741
3776.000000	0.005718
3775.000000	0.005697
3774.000000	0.005679
3773.000000	0.005670
3772.000000	0.005677
3771.000000	0.005701
3770.000000	0.005730
3769.000000	0.005750
3768.000000	0.005755
3767.000000	0.005751
3766.000000	0.005746
3765.000000	0.005740
3764.000000	0.005735
3763.000000	0.005732
3762.000000	0.005732
3761.000000	0.005729
3760.000000	0.005720
3759.000000	0.005709
3758.000000	0.005700
3757.000000	0.005693
3756.000000	0.005679
3755.000000	0.005655
3754.000000	0.005621
3753.000000	0.005583
3752.000000	0.005553
3751.000000	0.005532
3750.000000	0.005515
3749.000000	0.005502
3748.000000	0.005503
3747.000000	0.005529
3746.000000	0.005579
3745.000000	0.005634
3744.000000	0.005666
3743.000000	0.005670
3742.000000	0.005661
3741.000000	0.005644
3740.000000	0.005612
3739.000000	0.005566
3738.000000	0.005527
3737.000000	0.005513
3736.000000	0.005524
3735.000000	0.005544
3734.000000	0.005562
3733.000000	0.005581
3732.000000	0.005603
3731.000000	0.005625
3730.000000	0.005641
3729.000000	0.005651
3728.000000	0.005653
3727.000000	0.005643
3726.000000	0.005621
3725.000000	0.005596
3724.000000	0.005581
3723.000000	0.005582
3722.000000	0.005594
3721.000000	0.005609
3720.000000	0.005621
3719.000000	0.005628
3718.000000	0.005628
3717.000000	0.005618
3716.000000	0.005598
3715.000000	0.005570
3714.000000	0.005544
3713.000000	0.005530
3712.000000	0.005534
3711.000000	0.005553
3710.000000	0.005577
3709.000000	0.005600
3708.000000	0.005615
3707.000000	0.005616
3706.000000	0.005604
3705.000000	0.005586
3704.000000	0.005570
3703.000000	0.005560
3702.000000	0.005556
3701.000000	0.005556
3700.000000	0.005563
3699.000000	0.005576
3698.000000	0.005593
3697.000000	0.005605
3696.000000	0.005605
3695.000000	0.005590
3694.000000	0.005561
3693.000000	0.005525
3692.000000	0.005498
3691.000000	0.005494
3690.000000	0.005519
3689.000000	0.005560
3688.000000	0.005596
3687.000000	0.005620
3686.000000	0.005641
3685.000000	0.005661
3684.000000	0.005677
3683.000000	0.005685
3682.000000	0.005686
3681.000000	0.005686
3680.000000	0.005687
3679.000000	0.005694
3678.000000	0.005707
3677.000000	0.005729
3676.000000	0.005748
3675.000000	0.005738
3674.000000	0.005696
3673.000000	0.005644
3672.000000	0.005603
3671.000000	0.005585
3670.000000	0.005590
3669.000000	0.005607
3668.000000	0.005628
3667.000000	0.005655
3666.000000	0.005688
3665.000000	0.005722
3664.000000	0.005748
3663.000000	0.005760
3662.000000	0.005764
3661.000000	0.005771
3660.000000	0.005787
3659.000000	0.005808
3658.000000	0.005826
3657.000000	0.005837
3656.000000	0.005843
3655.000000	0.005854
3654.000000	0.005876
3653.000000	0.005906
3652.000000	0.005935
3651.000000	0.005954
3650.000000	0.005965
3649.000000	0.005975
3648.000000	0.005990
3647.000000	0.006009
3646.000000	0.006025
3645.000000	0.006031
3644.000000	0.006030
3643.000000	0.006033
3642.000000	0.006050
3641.000000	0.006084
3640.000000	0.006125
3639.000000	0.006163
3638.000000	0.006197
3637.000000	0.006231
3636.000000	0.006268
3635.000000	0.006302
3634.000000	0.006324
3633.000000	0.006338
3632.000000	0.006356
3631.000000	0.006394
3630.000000	0.006454
3629.000000	0.006510
3628.000000	0.006531
3627.000000	0.006523
3626.000000	0.006517
3625.000000	0.006532
3624.000000	0.006564
3623.000000	0.006601
3622.000000	0.006633
3621.000000	0.006660
3620.000000	0.006685
3619.000000	0.006716
3618.000000	0.006755
3617.000000	0.006804
3616.000000	0.006863
3615.000000	0.006921
3614.000000	0.006960
3613.000000	0.006974
3612.000000	0.006974
3611.000000	0.006982
3610.000000	0.007015
3609.000000	0.007071
3608.000000	0.007137
3607.000000	0.007195
3606.000000	0.007239
3605.000000	0.007273
3604.000000	0.007305
3603.000000	0.007341
3602.000000	0.007384
3601.000000	0.007431
3600.000000	0.007476
3599.000000	0.007514
3598.000000	0.007543
3597.000000	0.007567
3596.000000	0.007590
3595.000000	0.007615
3594.000000	0.007642
3593.000000	0.007670
3592.000000	0.007695
3591.000000	0.007716
3590.000000	0.007740
3589.000000	0.007779
3588.000000	0.007844
3587.000000	0.007925
3586.000000	0.008002
3585.000000	0.008063
3584.000000	0.008113
3583.000000	0.008161
3582.000000	0.008214
3581.000000	0.008276
3580.000000	0.008346
3579.000000	0.008420
3578.000000	0.008488
3577.000000	0.008543
3576.000000	0.008586
3575.000000	0.008623
3574.000000	0.008659
3573.000000	0.008693
3572.000000	0.008722
3571.000000	0.008747
3570.000000	0.008774
3569.000000	0.008813
3568.000000	0.008866
3567.000000	0.008928
3566.000000	0.008993
3565.000000	0.009061
3564.000000	0.009138
3563.000000	0.009224
3562.000000	0.009313
3561.000000	0.009395
3560.000000	0.009463
3559.000000	0.009514
3558.000000	0.009550
3557.000000	0.009578
3556.000000	0.009607
3555.000000	0.009645
3554.000000	0.009696
3553.000000	0.009758
3552.000000	0.009828
3551.000000	0.009902
3550.000000	0.009969
3549.000000	0.010025
3548.000000	0.010064
3547.000000	0.010092
3546.000000	0.010123
3545.000000	0.010174
3544.000000	0.010253
3543.000000	0.010353
3542.000000	0.010454
3541.000000	0.010537
3540.000000	0.010601
3539.000000	0.010653
3538.000000	0.010702
3537.000000	0.010750
3536.000000	0.010796
3535.000000	0.010843
3534.000000	0.010894
3533.000000	0.010952
3532.000000	0.011016
3531.000000	0.011079
3530.000000	0.011134
3529.000000	0.011173
3528.000000	0.011198
3527.000000	0.011223
3526.000000	0.011267
3525.000000	0.011336
3524.000000	0.011420
3523.000000	0.011501
3522.000000	0.011568
3521.000000	0.011620
3520.000000	0.011662
3519.000000	0.011700
3518.000000	0.011739
3517.000000	0.011786
3516.000000	0.011846
3515.000000	0.011919
3514.000000	0.011995
3513.000000	0.012063
3512.000000	0.012114
3511.000000	0.012147
3510.000000	0.012174
3509.000000	0.012208
3508.000000	0.012253
3507.000000	0.012308
3506.000000	0.012364
3505.000000	0.012415
3504.000000	0.012460
3503.000000	0.012500
3502.000000	0.012542
3501.000000	0.012593
3500.000000	0.012661
3499.000000	0.012736
3498.000000	0.012805
3497.000000	0.012856
3496.000000	0.012896
3495.000000	0.012937
3494.000000	0.012984
3493.000000	0.013029
3492.000000	0.013065
3491.000000	0.013090
3490.000000	0.013110
3489.000000	0.013133
3488.000000	0.013168
3487.000000	0.013219
3486.000000	0.013282
3485.000000	0.013349
3484.000000	0.013418
3483.000000	0.013489
3482.000000	0.013556
3481.000000	0.013607
3480.000000	0.013634
3479.000000	0.013649
3478.000000	0.013671
3477.000000	0.013714
3476.000000	0.013778
3475.000000	0.013852
3474.000000	0.013918
3473.000000	0.013967
3472.000000	0.013999
3471.000000	0.014023
3470.000000	0.014050
3469.000000	0.014079
3468.000000	0.014103
3467.000000	0.014121
3466.000000	0.014142
3465.000000	0.014186
3464.000000	0.014263
3463.000000	0.014363
3462.000000	0.014458
3461.000000	0.014528
3460.000000	0.014571
3459.000000	0.014603
3458.000000	0.014638
3457.000000	0.014677
3456.000000	0.014713
3455.000000	0.014738
3454.000000	0.014757
3453.000000	0.014782
3452.000000	0.014826
3451.000000	0.014897
3450.000000	0.014984
3449.000000	0.015065
3448.000000	0.015117
3447.000000	0.015140
3446.000000	0.015149
3445.000000	0.015165
3444.000000	0.015196
3443.000000	0.015240
3442.000000	0.015290
3441.000000	0.015342
3440.000000	0.015392
3439.000000	0.015438
3438.000000	0.015485
3437.000000	0.015537
3436.000000	0.015599
3435.000000	0.015668
3434.000000	0.015742
3433.000000	0.015815
3432.000000	0.015878
3431.000000	0.015927
3430.000000	0.015966
3429.000000	0.016003
3428.000000	0.016047
3427.000000	0.016102
3426.000000	0.016166
3425.000000	0.016234
3424.000000	0.016300
3423.000000	0.016357
3422.000000	0.016404
3421.000000	0.016443
3420.000000	0.016480
3419.000000	0.016521
3418.000000	0.016571
3417.000000	0.016625
3416.000000	0.016679
3415.000000	0.016731
3414.000000	0.016786
3413.000000	0.016842
3412.000000	0.016894
3411.000000	0.016942
3410.000000	0.016995
3409.000000	0.017057
3408.000000	0.017123
3407.000000	0.017182
3406.000000	0.017230
3405.000000	0.017271
3404.000000	0.017308
3403.000000	0.017345
3402.000000	0.017383
3401.000000	0.017426
3400.000000	0.017476
3399.000000	0.017533
3398.000000	0.017593
3397.000000	0.017652
3396.000000	0.017707
3395.000000	0.017754
3394.000000	0.017792
3393.000000	0.017824
3392.000000	0.017855
3391.000000	0.017889
3390.000000	0.017924
3389.000000	0.017966
3388.000000	0.018021
3387.000000	0.018096
3386.000000	0.018184
3385.000000	0.018265
3384.000000	0.018325
3383.000000	0.018368
3382.000000	0.018412
3381.000000	0.018468
3380.000000	0.018537
3379.000000	0.018608
3378.000000	0.018672
3377.000000	0.018721
3376.000000	0.018757
3375.000000	0.018793
3374.000000	0.018846
3373.000000	0.018924
3372.000000	0.019018
3371.000000	0.019112
3370.000000	0.019194
3369.000000	0.019267
3368.000000	0.019339
3367.000000	0.019416
3366.000000	0.019499
3365.000000	0.019588
3364.000000	0.019682
3363.000000	0.019783
3362.000000	0.019889
3361.000000	0.019991
3360.000000	0.020081
3359.000000	0.020163
3358.000000	0.020248
3357.000000	0.020341
3356.000000	0.020435
3355.000000	0.020519
3354.000000	0.020591
3353.000000	0.020656
3352.000000	0.020721
3351.000000	0.020792
3350.000000	0.020874
3349.000000	0.020965
3348.000000	0.021054
3347.000000	0.021133
3346.000000	0.021201
3345.000000	0.021266
3344.000000	0.021339
3343.000000	0.021425
3342.000000	0.021522
3341.000000	0.021622
3340.000000	0.021722
3339.000000	0.021817
3338.000000	0.021909
3337.000000	0.021995
3336.000000	0.022074
3335.000000	0.022144
3334.000000	0.022210
3333.000000	0.022279
3332.000000	0.022358
3331.000000	0.022443
3330.000000	0.022531
3329.000000	0.022616
3328.000000	0.022699
3327.000000	0.022777
3326.000000	0.022846
3325.000000	0.022906
3324.000000	0.022963
3323.000000	0.023027
3322.000000	0.023097
3321.000000	0.023162
3320.000000	0.023212
3319.000000	0.023250
3318.000000	0.023283
3317.000000	0.023317
3316.000000	0.023353
3315.000000	0.023397
3314.000000	0.023457
3313.000000	0.023533
3312.000000	0.023613
3311.000000	0.023682
3310.000000	0.023733
3309.000000	0.023765
3308.000000	0.023781
3307.000000	0.023791
3306.000000	0.023812
3305.000000	0.023855
3304.000000	0.023918
3303.000000	0.023979
3302.000000	0.024021
3301.000000	0.024041
3300.000000	0.024052
3299.000000	0.024065
3298.000000	0.024084
3297.000000	0.024102
3296.000000	0.024113
3295.000000	0.024112
3294.000000	0.024104
3293.000000	0.024097
3292.000000	0.024101
3291.000000	0.024120
3290.000000	0.024151
3289.000000	0.024185
3288.000000	0.024206
3287.000000	0.024204
3286.000000	0.024185
3285.000000	0.024171
3284.000000	0.024180
3283.000000	0.024210
3282.000000	0.024238
3281.000000	0.024244
3280.000000	0.024227
3279.000000	0.024199
3278.000000	0.024168
3277.000000	0.024133
3276.000000	0.024085
3275.000000	0.024028
3274.000000	0.023967
3273.000000	0.023906
3272.000000	0.023847
3271.000000	0.023795
3270.000000	0.023753
3269.000000	0.023719
3268.000000	0.023683
3267.000000	0.023639
3266.000000	0.023591
3265.000000	0.023550
3264.000000	0.023522
3263.000000	0.023502
3262.000000	0.023476
3261.000000	0.023430
3260.000000	0.023362
3259.000000	0.023283
3258.000000	0.023210
3257.000000	0.023149
3256.000000	0.023098
3255.000000	0.023054
3254.000000	0.023013
3253.000000	0.022968
3252.000000	0.022911
3251.000000	0.022837
3250.000000	0.022758
3249.000000	0.022690
3248.000000	0.022639
3247.000000	0.022599
3246.000000	0.022559
3245.000000	0.022515
3244.000000	0.022475
3243.000000	0.022444
3242.000000	0.022425
3241.000000	0.022406
3240.000000	0.022377
3239.000000	0.022329
3238.000000	0.022261
3237.000000	0.022182
3236.000000	0.022103
3235.000000	0.022038
3234.000000	0.021988
3233.000000	0.021946
3232.000000	0.021904
3231.000000	0.021858
3230.000000	0.021813
3229.000000	0.021774
3228.000000	0.021737
3227.000000	0.021692
3226.000000	0.021635
3225.000000	0.021573
3224.000000	0.021525
3223.000000	0.021499
3222.000000	0.021492
3221.000000	0.021487
3220.000000	0.021469
3219.000000	0.021434
3218.000000	0.021390
3217.000000	0.021347
3216.000000	0.021309
3215.000000	0.021272
3214.000000	0.021231
3213.000000	0.021179
3212.000000	0.021117
3211.000000	0.021053
3210.000000	0.021001
3209.000000	0.020966
3208.000000	0.020942
3207.000000	0.020921
3206.000000	0.020897
3205.000000	0.020866
3204.000000	0.020828
3203.000000	0.020783
3202.000000	0.020737
3201.000000	0.020694
3200.000000	0.020659
3199.000000	0.020628
3198.000000	0.020597
3197.000000	0.020559
3196.000000	0.020511
3195.000000	0.020456
3194.000000	0.020395
3193.000000	0.020328
3192.000000	0.020255
3191.000000	0.020180
3190.000000	0.020105
3189.000000	0.020033
3188.000000	0.019966
3187.000000	0.019908
3186.000000	0.019860
3185.000000	0.019817
3184.000000	0.019773
3183.000000	0.019725
3182.000000	0.019682
3181.000000	0.019647
3180.000000	0.019608
3179.000000	0.019548
3178.000000	0.019464
3177.000000	0.019370
3176.000000	0.019279
3175.000000	0.019197
3174.000000	0.019125
3173.000000	0.019072
3172.000000	0.019047
3171.000000	0.019039
3170.000000	0.019025
3169.000000	0.018982
3168.000000	0.018912
3167.000000	0.018834
3166.000000	0.018769
3165.000000	0.018721
3164.000000	0.018672
3163.000000	0.018606
3162.000000	0.018522
3161.000000	0.018433
3160.000000	0.018354
3159.000000	0.018289
3158.000000	0.018235
3157.000000	0.018187
3156.000000	0.018143
3155.000000	0.018103
3154.000000	0.018067
3153.000000	0.018029
3152.000000	0.017984
3151.000000	0.017930
3150.000000	0.017871
3149.000000	0.017810
3148.000000	0.017748
3147.000000	0.017681
3146.000000	0.017610
3145.000000	0.017550
3144.000000	0.017515
3143.000000	0.017505
3142.000000	0.017499
3141.000000	0.017474
3140.000000	0.017421
3139.000000	0.017355
3138.000000	0.017297
3137.000000	0.017260
3136.000000	0.017242
3135.000000	0.017229
3134.000000	0.017209
3133.000000	0.017175
3132.000000	0.017130
3131.000000	0.017082
3130.000000	0.017032
3129.000000	0.016979
3128.000000	0.016928
3127.000000	0.016888
3126.000000	0.016868
3125.000000	0.016860
3124.000000	0.016846
3123.000000	0.016818
3122.000000	0.016790
3121.000000	0.016777
3120.000000	0.016781
3119.000000	0.016788
3118.000000	0.016786
3117.000000	0.016775
3116.000000	0.016761
3115.000000	0.016751
3114.000000	0.016746
3113.000000	0.016745
3112.000000	0.016744
3111.000000	0.016741
3110.000000	0.016737
3109.000000	0.016742
3108.000000	0.016763
3107.000000	0.016798
3106.000000	0.016833
3105.000000	0.016852
3104.000000	0.016851
3103.000000	0.016842
3102.000000	0.016839
3101.000000	0.016850
3100.000000	0.016870
3099.000000	0.016894
3098.000000	0.016917
3097.000000	0.016939
3096.000000	0.016959
3095.000000	0.016973
3094.000000	0.016980
3093.000000	0.016983
3092.000000	0.016985
3091.000000	0.016993
3090.000000	0.017013
3089.000000	0.017045
3088.000000	0.017082
3087.000000	0.017118
3086.000000	0.017149
3085.000000	0.017173
3084.000000	0.017185
3083.000000	0.017182
3082.000000	0.017168
3081.000000	0.017154
3080.000000	0.017154
3079.000000	0.017174
3078.000000	0.017215
3077.000000	0.017265
3076.000000	0.017305
3075.000000	0.017321
3074.000000	0.017312
3073.000000	0.017292
3072.000000	0.017273
3071.000000	0.017258
3070.000000	0.017246
3069.000000	0.017238
3068.000000	0.017233
3067.000000	0.017227
3066.000000	0.017214
3065.000000	0.017188
3064.000000	0.017151
3063.000000	0.017110
3062.000000	0.017074
3061.000000	0.017053
3060.000000	0.017048
3059.000000	0.017053
3058.000000	0.017056
3057.000000	0.017046
3056.000000	0.017017
3055.000000	0.016968
3054.000000	0.016902
3053.000000	0.016828
3052.000000	0.016755
3051.000000	0.016690
3050.000000	0.016636
3049.000000	0.016589
3048.000000	0.016544
3047.000000	0.016494
3046.000000	0.016435
3045.000000	0.016372
3044.000000	0.016312
3043.000000	0.016260
3042.000000	0.016216
3041.000000	0.016179
3040.000000	0.016143
3039.000000	0.016102
3038.000000	0.016053
3037.000000	0.016000
3036.000000	0.015952
3035.000000	0.015910
3034.000000	0.015864
3033.000000	0.015800
3032.000000	0.015717
3031.000000	0.015631
3030.000000	0.015565
3029.000000	0.015527
3028.000000	0.015511
3027.000000	0.015497
3026.000000	0.015476
3025.000000	0.015446
3024.000000	0.015415
3023.000000	0.015383
3022.000000	0.015341
3021.000000	0.015287
3020.000000	0.015228
3019.000000	0.015178
3018.000000	0.015142
3017.000000	0.015117
3016.000000	0.015093
3015.000000	0.015067
3014.000000	0.015048
3013.000000	0.015043
3012.000000	0.015054
3011.000000	0.015070
3010.000000	0.015079
3009.000000	0.015073
3008.000000	0.015058
3007.000000	0.015043
3006.000000	0.015038
3005.000000	0.015044
3004.000000	0.015052
3003.000000	0.015053
3002.000000	0.015041
3001.000000	0.015018
3000.000000	0.014991
2999.000000	0.014973
2998.000000	0.014974
2997.000000	0.014995
2996.000000	0.015030
2995.000000	0.015072
2994.000000	0.015125
2993.000000	0.015190
2992.000000	0.015261
2991.000000	0.015327
2990.000000	0.015382
2989.000000	0.015427
2988.000000	0.015474
2987.000000	0.015529
2986.000000	0.015593
2985.000000	0.015661
2984.000000	0.015730
2983.000000	0.015798
2982.000000	0.015867
2981.000000	0.015938
2980.000000	0.016010
2979.000000	0.016089
2978.000000	0.016175
2977.000000	0.016266
2976.000000	0.016358
2975.000000	0.016447
2974.000000	0.016533
2973.000000	0.016623
2972.000000	0.016719
2971.000000	0.016822
2970.000000	0.016935
2969.000000	0.017060
2968.000000	0.017196
2967.000000	0.017340
2966.000000	0.017489
2965.000000	0.017634
2964.000000	0.017767
2963.000000	0.017888
2962.000000	0.018004
2961.000000	0.018122
2960.000000	0.018237
2959.000000	0.018342
2958.000000	0.018432
2957.000000	0.018509
2956.000000	0.018575
2955.000000	0.018629
2954.000000	0.018667
2953.000000	0.018689
2952.000000	0.018694
2951.000000	0.018689
2950.000000	0.018690
2949.000000	0.018709
2948.000000	0.018745
2947.000000	0.018789
2946.000000	0.018841
2945.000000	0.018917
2944.000000	0.019031
2943.000000	0.019186
2942.000000	0.019368
2941.000000	0.019566
2940.000000	0.019769
2939.000000	0.019972
2938.000000	0.020174
2937.000000	0.020384
2936.000000	0.020611
2935.000000	0.020859
2934.000000	0.021118
2933.000000	0.021374
2932.000000	0.021623
2931.000000	0.021865
2930.000000	0.022104
2929.000000	0.022332
2928.000000	0.022535
2927.000000	0.022706
2926.000000	0.022848
2925.000000	0.022968
2924.000000	0.023067
2923.000000	0.023133
2922.000000	0.023159
2921.000000	0.023141
2920.000000	0.023078
2919.000000	0.022963
2918.000000	0.022790
2917.000000	0.022555
2916.000000	0.022248
2915.000000	0.021872
2914.000000	0.021450
2913.000000	0.021028
2912.000000	0.020648
2911.000000	0.020323
2910.000000	0.020040
2909.000000	0.019788
2908.000000	0.019562
2907.000000	0.019363
2906.000000	0.019186
2905.000000	0.019023
2904.000000	0.018869
2903.000000	0.018722
2902.000000	0.018580
2901.000000	0.018445
2900.000000	0.018318
2899.000000	0.018198
2898.000000	0.018083
2897.000000	0.017971
2896.000000	0.017859
2895.000000	0.017743
2894.000000	0.017626
2893.000000	0.017521
2892.000000	0.017441
2891.000000	0.017388
2890.000000	0.017351
2889.000000	0.017316
2888.000000	0.017277
2887.000000	0.017235
2886.000000	0.017192
2885.000000	0.017152
2884.000000	0.017120
2883.000000	0.017097
2882.000000	0.017081
2881.000000	0.017072
2880.000000	0.017075
2879.000000	0.017093
2878.000000	0.017122
2877.000000	0.017154
2876.000000	0.017181
2875.000000	0.017201
2874.000000	0.017213
2873.000000	0.017217
2872.000000	0.017215
2871.000000	0.017206
2870.000000	0.017189
2869.000000	0.017165
2868.000000	0.017138
2867.000000	0.017117
2866.000000	0.017111
2865.000000	0.017117
2864.000000	0.017130
2863.000000	0.017156
2862.000000	0.017209
2861.000000	0.017301
2860.000000	0.017434
2859.000000	0.017597
2858.000000	0.017778
2857.000000	0.017971
2856.000000	0.018162
2855.000000	0.018337
2854.000000	0.018479
2853.000000	0.018577
2852.000000	0.018623
2851.000000	0.018599
2850.000000	0.018488
2849.000000	0.018279
2848.000000	0.017980
2847.000000	0.017617
2846.000000	0.017228
2845.000000	0.016850
2844.000000	0.016507
2843.000000	0.016201
2842.000000	0.015922
2841.000000	0.015663
2840.000000	0.015425
2839.000000	0.015220
2838.000000	0.015058
2837.000000	0.014937
2836.000000	0.014847
2835.000000	0.014774
2834.000000	0.014705
2833.000000	0.014633
2832.000000	0.014556
2831.000000	0.014478
2830.000000	0.014401
2829.000000	0.014328
2828.000000	0.014263
2827.000000	0.014205
2826.000000	0.014152
2825.000000	0.014102
2824.000000	0.014056
2823.000000	0.014013
2822.000000	0.013974
2821.000000	0.013936
2820.000000	0.013897
2819.000000	0.013858
2818.000000	0.013819
2817.000000	0.013775
2816.000000	0.013726
2815.000000	0.013675
2814.000000	0.013631
2813.000000	0.013596
2812.000000	0.013568
2811.000000	0.013543
2810.000000	0.013519
2809.000000	0.013502
2808.000000	0.013490
2807.000000	0.013477
2806.000000	0.013453
2805.000000	0.013416
2804.000000	0.013369
2803.000000	0.013319
2802.000000	0.013276
2801.000000	0.013247
2800.000000	0.013233
2799.000000	0.013222
2798.000000	0.013205
2797.000000	0.013177
2796.000000	0.013146
2795.000000	0.013120
2794.000000	0.013103
2793.000000	0.013089
2792.000000	0.013069
2791.000000	0.013042
2790.000000	0.013013
2789.000000	0.012991
2788.000000	0.012979
2787.000000	0.012969
2786.000000	0.012952
2785.000000	0.012923
2784.000000	0.012885
2783.000000	0.012846
2782.000000	0.012813
2781.000000	0.012787
2780.000000	0.012765
2779.000000	0.012742
2778.000000	0.012719
2777.000000	0.012700
2776.000000	0.012682
2775.000000	0.012665
2774.000000	0.012649
2773.000000	0.012637
2772.000000	0.012630
2771.000000	0.012624
2770.000000	0.012612
2769.000000	0.012596
2768.000000	0.012583
2767.000000	0.012574
2766.000000	0.012561
2765.000000	0.012538
2764.000000	0.012506
2763.000000	0.012476
2762.000000	0.012453
2761.000000	0.012435
2760.000000	0.012417
2759.000000	0.012398
2758.000000	0.012377
2757.000000	0.012358
2756.000000	0.012344
2755.000000	0.012336
2754.000000	0.012332
2753.000000	0.012329
2752.000000	0.012325
2751.000000	0.012315
2750.000000	0.012291
2749.000000	0.012252
2748.000000	0.012207
2747.000000	0.012171
2746.000000	0.012155
2745.000000	0.012153
2744.000000	0.012153
2743.000000	0.012144
2742.000000	0.012124
2741.000000	0.012097
2740.000000	0.012068
2739.000000	0.012040
2738.000000	0.012012
2737.000000	0.011986
2736.000000	0.011966
2735.000000	0.011957
2734.000000	0.011954
2733.000000	0.011951
2732.000000	0.011943
2731.000000	0.011934
2730.000000	0.011932
2729.000000	0.011934
2728.000000	0.011929
2727.000000	0.011908
2726.000000	0.011878
2725.000000	0.011855
2724.000000	0.011847
2723.000000	0.011849
2722.000000	0.011848
2721.000000	0.011837
2720.000000	0.011819
2719.000000	0.011797
2718.000000	0.011774
2717.000000	0.011751
2716.000000	0.011732
2715.000000	0.011717
2714.000000	0.011701
2713.000000	0.011681
2712.000000	0.011656
2711.000000	0.011635
2710.000000	0.011621
2709.000000	0.011613
2708.000000	0.011599
2707.000000	0.011571
2706.000000	0.011534
2705.000000	0.011498
2704.000000	0.011473
2703.000000	0.011456
2702.000000	0.011442
2701.000000	0.011428
2700.000000	0.011418
2699.000000	0.011414
2698.000000	0.011410
2697.000000	0.011403
2696.000000	0.011396
2695.000000	0.011394
2694.000000	0.011398
2693.000000	0.011401
2692.000000	0.011394
2691.000000	0.011375
2690.000000	0.011354
2689.000000	0.011339
2688.000000	0.011335
2687.000000	0.011334
2686.000000	0.011331
2685.000000	0.011325
2684.000000	0.011319
2683.000000	0.011318
2682.000000	0.011325
2681.000000	0.011339
2680.000000	0.011350
2679.000000	0.011348
2678.000000	0.011329
2677.000000	0.011305
2676.000000	0.011289
2675.000000	0.011286
2674.000000	0.011293
2673.000000	0.011302
2672.000000	0.011306
2671.000000	0.011298
2670.000000	0.011278
2669.000000	0.011252
2668.000000	0.011227
2667.000000	0.011209
2666.000000	0.011198
2665.000000	0.011194
2664.000000	0.011197
2663.000000	0.011207
2662.000000	0.011222
2661.000000	0.011237
2660.000000	0.011241
2659.000000	0.011227
2658.000000	0.011196
2657.000000	0.011160
2656.000000	0.011137
2655.000000	0.011129
2654.000000	0.011128
2653.000000	0.011118
2652.000000	0.011090
2651.000000	0.011048
2650.000000	0.011003
2649.000000	0.010966
2648.000000	0.010939
2647.000000	0.010920
2646.000000	0.010903
2645.000000	0.010878
2644.000000	0.010842
2643.000000	0.010796
2642.000000	0.010748
2641.000000	0.010702
2640.000000	0.010656
2639.000000	0.010604
2638.000000	0.010553
2637.000000	0.010519
2636.000000	0.010511
2635.000000	0.010519
2634.000000	0.010527
2633.000000	0.010526
2632.000000	0.010518
2631.000000	0.010507
2630.000000	0.010492
2629.000000	0.010471
2628.000000	0.010446
2627.000000	0.010421
2626.000000	0.010398
2625.000000	0.010375
2624.000000	0.010349
2623.000000	0.010319
2622.000000	0.010283
2621.000000	0.010246
2620.000000	0.010214
2619.000000	0.010189
2618.000000	0.010166
2617.000000	0.010143
2616.000000	0.010124
2615.000000	0.010121
2614.000000	0.010132
2613.000000	0.010148
2612.000000	0.010151
2611.000000	0.010134
2610.000000	0.010104
2609.000000	0.010070
2608.000000	0.010038
2607.000000	0.010006
2606.000000	0.009971
2605.000000	0.009940
2604.000000	0.009924
2603.000000	0.009926
2602.000000	0.009937
2601.000000	0.009948
2600.000000	0.009953
2599.000000	0.009954
2598.000000	0.009947
2597.000000	0.009925
2596.000000	0.009885
2595.000000	0.009843
2594.000000	0.009818
2593.000000	0.009815
2592.000000	0.009822
2591.000000	0.009824
2590.000000	0.009818
2589.000000	0.009808
2588.000000	0.009796
2587.000000	0.009775
2586.000000	0.009745
2585.000000	0.009716
2584.000000	0.009697
2583.000000	0.009687
2582.000000	0.009674
2581.000000	0.009658
2580.000000	0.009650
2579.000000	0.009660
2578.000000	0.009683
2577.000000	0.009699
2576.000000	0.009692
2575.000000	0.009663
2574.000000	0.009618
2573.000000	0.009571
2572.000000	0.009531
2571.000000	0.009503
2570.000000	0.009490
2569.000000	0.009491
2568.000000	0.009501
2567.000000	0.009514
2566.000000	0.009519
2565.000000	0.009504
2564.000000	0.009464
2563.000000	0.009409
2562.000000	0.009351
2561.000000	0.009303
2560.000000	0.009273
2559.000000	0.009271
2558.000000	0.009298
2557.000000	0.009341
2556.000000	0.009369
2555.000000	0.009363
2554.000000	0.009333
2553.000000	0.009305
2552.000000	0.009300
2551.000000	0.009310
2550.000000	0.009314
2549.000000	0.009300
2548.000000	0.009274
2547.000000	0.009251
2546.000000	0.009244
2545.000000	0.009248
2544.000000	0.009248
2543.000000	0.009238
2542.000000	0.009226
2541.000000	0.009220
2540.000000	0.009225
2539.000000	0.009239
2538.000000	0.009265
2537.000000	0.009299
2536.000000	0.009329
2535.000000	0.009338
2534.000000	0.009327
2533.000000	0.009309
2532.000000	0.009304
2531.000000	0.009317
2530.000000	0.009338
2529.000000	0.009348
2528.000000	0.009328
2527.000000	0.009280
2526.000000	0.009227
2525.000000	0.009194
2524.000000	0.009186
2523.000000	0.009188
2522.000000	0.009183
2521.000000	0.009162
2520.000000	0.009128
2519.000000	0.009090
2518.000000	0.009058
2517.000000	0.009042
2516.000000	0.009041
2515.000000	0.009047
2514.000000	0.009059
2513.000000	0.009080
2512.000000	0.009114
2511.000000	0.009155
2510.000000	0.009188
2509.000000	0.009190
2508.000000	0.009149
2507.000000	0.009075
2506.000000	0.009008
2505.000000	0.008983
2504.000000	0.008997
2503.000000	0.009021
2502.000000	0.009030
2501.000000	0.009021
2500.000000	0.009002
2499.000000	0.008970
2498.000000	0.008920
2497.000000	0.008865
2496.000000	0.008830
2495.000000	0.008836
2494.000000	0.008882
2493.000000	0.008942
2492.000000	0.008982
2491.000000	0.008982
2490.000000	0.008946
2489.000000	0.008895
2488.000000	0.008846
2487.000000	0.008804
2486.000000	0.008776
2485.000000	0.008768
2484.000000	0.008781
2483.000000	0.008798
2482.000000	0.008798
2481.000000	0.008772
2480.000000	0.008730
2479.000000	0.008696
2478.000000	0.008688
2477.000000	0.008709
2476.000000	0.008744
2475.000000	0.008769
2474.000000	0.008770
2473.000000	0.008751
2472.000000	0.008725
2471.000000	0.008707
2470.000000	0.008710
2469.000000	0.008740
2468.000000	0.008794
2467.000000	0.008856
2466.000000	0.008902
2465.000000	0.008910
2464.000000	0.008876
2463.000000	0.008819
2462.000000	0.008774
2461.000000	0.008766
2460.000000	0.008795
2459.000000	0.008834
2458.000000	0.008855
2457.000000	0.008846
2456.000000	0.008812
2455.000000	0.008765
2454.000000	0.008719
2453.000000	0.008687
2452.000000	0.008672
2451.000000	0.008670
2450.000000	0.008675
2449.000000	0.008685
2448.000000	0.008702
2447.000000	0.008726
2446.000000	0.008753
2445.000000	0.008770
2444.000000	0.008768
2443.000000	0.008744
2442.000000	0.008707
2441.000000	0.008678
2440.000000	0.008671
2439.000000	0.008684
2438.000000	0.008697
2437.000000	0.008680
2436.000000	0.008625
2435.000000	0.008556
2434.000000	0.008514
2433.000000	0.008523
2432.000000	0.008565
2431.000000	0.008606
2430.000000	0.008629
2429.000000	0.008635
2428.000000	0.008630
2427.000000	0.008609
2426.000000	0.008574
2425.000000	0.008538
2424.000000	0.008516
2423.000000	0.008510
2422.000000	0.008507
2421.000000	0.008502
2420.000000	0.008502
2419.000000	0.008522
2418.000000	0.008558
2417.000000	0.008585
2416.000000	0.008581
2415.000000	0.008550
2414.000000	0.008520
2413.000000	0.008511
2412.000000	0.008520
2411.000000	0.008533
2410.000000	0.008542
2409.000000	0.008543
2408.000000	0.008531
2407.000000	0.008510
2406.000000	0.008495
2405.000000	0.008496
2404.000000	0.008500
2403.000000	0.008484
2402.000000	0.008451
2401.000000	0.008423
2400.000000	0.008421
2399.000000	0.008442
2398.000000	0.008469
2397.000000	0.008484
2396.000000	0.008487
2395.000000	0.008492
2394.000000	0.008510
2393.000000	0.008536
2392.000000	0.008545
2391.000000	0.008519
2390.000000	0.008472
2389.000000	0.008434
2388.000000	0.008422
2387.000000	0.008433
2386.000000	0.008460
2385.000000	0.008497
2384.000000	0.008536
2383.000000	0.008558
2382.000000	0.008559
2381.000000	0.008550
2380.000000	0.008549
2379.000000	0.008557
2378.000000	0.008567
2377.000000	0.008566
2376.000000	0.008556
2375.000000	0.008548
2374.000000	0.008561
2373.000000	0.008592
2372.000000	0.008611
2371.000000	0.008593
2370.000000	0.008548
2369.000000	0.008507
2368.000000	0.008493
2367.000000	0.008504
2366.000000	0.008528
2365.000000	0.008562
2364.000000	0.008597
2363.000000	0.008632
2362.000000	0.008670
2361.000000	0.008710
2360.000000	0.008741
2359.000000	0.008755
2358.000000	0.008758
2357.000000	0.008764
2356.000000	0.008781
2355.000000	0.008797
2354.000000	0.008773
2353.000000	0.008694
2352.000000	0.008614
2351.000000	0.008602
2350.000000	0.008661
2349.000000	0.008742
2348.000000	0.008793
2347.000000	0.008793
2346.000000	0.008767
2345.000000	0.008764
2344.000000	0.008797
2343.000000	0.008836
2342.000000	0.008841
2341.000000	0.008805
2340.000000	0.008760
2339.000000	0.008742
2338.000000	0.008754
2337.000000	0.008775
2336.000000	0.008794
2335.000000	0.008811
2334.000000	0.008821
2333.000000	0.008809
2332.000000	0.008774
2331.000000	0.008722
2330.000000	0.008679
2329.000000	0.008670
2328.000000	0.008716
2327.000000	0.008805
2326.000000	0.008906
2325.000000	0.008977
2324.000000	0.008993
2323.000000	0.008946
2322.000000	0.008856
2321.000000	0.008767
2320.000000	0.008725
2319.000000	0.008744
2318.000000	0.008797
2317.000000	0.008838
2316.000000	0.008834
2315.000000	0.008780
2314.000000	0.008700
2313.000000	0.008625
2312.000000	0.008576
2311.000000	0.008556
2310.000000	0.008558
2309.000000	0.008565
2308.000000	0.008563
2307.000000	0.008553
2306.000000	0.008551
2305.000000	0.008573
2304.000000	0.008607
2303.000000	0.008618
2302.000000	0.008584
2301.000000	0.008515
2300.000000	0.008450
2299.000000	0.008423
2298.000000	0.008445
2297.000000	0.008499
2296.000000	0.008551
2295.000000	0.008578
2294.000000	0.008581
2293.000000	0.008581
2292.000000	0.008591
2291.000000	0.008605
2290.000000	0.008613
2289.000000	0.008606
2288.000000	0.008581
2287.000000	0.008540
2286.000000	0.008490
2285.000000	0.008436
2284.000000	0.008381
2283.000000	0.008334
2282.000000	0.008310
2281.000000	0.008313
2280.000000	0.008319
2279.000000	0.008299
2278.000000	0.008249
2277.000000	0.008197
2276.000000	0.008173
2275.000000	0.008183
2274.000000	0.008216
2273.000000	0.008242
2272.000000	0.008227
2271.000000	0.008163
2270.000000	0.008079
2269.000000	0.008013
2268.000000	0.007963
2267.000000	0.007907
2266.000000	0.007857
2265.000000	0.007850
2264.000000	0.007892
2263.000000	0.007942
2262.000000	0.007965
2261.000000	0.007972
2260.000000	0.007988
2259.000000	0.008012
2258.000000	0.008024
2257.000000	0.008017
2256.000000	0.007998
2255.000000	0.007969
2254.000000	0.007929
2253.000000	0.007876
2252.000000	0.007797
2251.000000	0.007691
2250.000000	0.007599
2249.000000	0.007586
2248.000000	0.007674
2247.000000	0.007810
2246.000000	0.007914
2245.000000	0.007944
2244.000000	0.007915
2243.000000	0.007863
2242.000000	0.007823
2241.000000	0.007805
2240.000000	0.007798
2239.000000	0.007781
2238.000000	0.007758
2237.000000	0.007749
2236.000000	0.007767
2235.000000	0.007807
2234.000000	0.007867
2233.000000	0.007942
2232.000000	0.007999
2231.000000	0.007997
2230.000000	0.007943
2229.000000	0.007885
2228.000000	0.007857
2227.000000	0.007851
2226.000000	0.007857
2225.000000	0.007888
2224.000000	0.007935
2223.000000	0.007955
2222.000000	0.007920
2221.000000	0.007856
2220.000000	0.007807
2219.000000	0.007774
2218.000000	0.007738
2217.000000	0.007692
2216.000000	0.007651
2215.000000	0.007631
2214.000000	0.007644
2213.000000	0.007686
2212.000000	0.007723
2211.000000	0.007719
2210.000000	0.007695
2209.000000	0.007711
2208.000000	0.007797
2207.000000	0.007916
2206.000000	0.008014
2205.000000	0.008067
2204.000000	0.008059
2203.000000	0.007967
2202.000000	0.007798
2201.000000	0.007614
2200.000000	0.007485
2199.000000	0.007429
2198.000000	0.007415
2197.000000	0.007399
2196.000000	0.007351
2195.000000	0.007283
2194.000000	0.007251
2193.000000	0.007300
2192.000000	0.007400
2191.000000	0.007478
2190.000000	0.007507
2189.000000	0.007520
2188.000000	0.007521
2187.000000	0.007478
2186.000000	0.007400
2185.000000	0.007369
2184.000000	0.007420
2183.000000	0.007470
2182.000000	0.007423
2181.000000	0.007300
2180.000000	0.007206
2179.000000	0.007203
2178.000000	0.007268
2177.000000	0.007335
2176.000000	0.007332
2175.000000	0.007223
2174.000000	0.007054
2173.000000	0.006927
2172.000000	0.006907
2171.000000	0.006961
2170.000000	0.007030
2169.000000	0.007102
2168.000000	0.007190
2167.000000	0.007274
2166.000000	0.007312
2165.000000	0.007294
2164.000000	0.007247
2163.000000	0.007199
2162.000000	0.007159
2161.000000	0.007100
2160.000000	0.006956
2159.000000	0.006690
2158.000000	0.006402
2157.000000	0.006244
2156.000000	0.006236
2155.000000	0.006266
2154.000000	0.006275
2153.000000	0.006324
2152.000000	0.006461
2151.000000	0.006625
2150.000000	0.006723
2149.000000	0.006735
2148.000000	0.006712
2147.000000	0.006684
2146.000000	0.006647
2145.000000	0.006608
2144.000000	0.006590
2143.000000	0.006599
2142.000000	0.006622
2141.000000	0.006637
2140.000000	0.006628
2139.000000	0.006581
2138.000000	0.006505
2137.000000	0.006434
2136.000000	0.006410
2135.000000	0.006453
2134.000000	0.006560
2133.000000	0.006696
2132.000000	0.006812
2131.000000	0.006885
2130.000000	0.006940
2129.000000	0.007013
2128.000000	0.007102
2127.000000	0.007173
2126.000000	0.007215
2125.000000	0.007254
2124.000000	0.007307
2123.000000	0.007347
2122.000000	0.007344
2121.000000	0.007296
2120.000000	0.007228
2119.000000	0.007162
2118.000000	0.007127
2117.000000	0.007149
2116.000000	0.007227
2115.000000	0.007325
2114.000000	0.007396
2113.000000	0.007424
2112.000000	0.007419
2111.000000	0.007405
2110.000000	0.007399
2109.000000	0.007407
2108.000000	0.007413
2107.000000	0.007395
2106.000000	0.007356
2105.000000	0.007327
2104.000000	0.007330
2103.000000	0.007359
2102.000000	0.007393
2101.000000	0.007416
2100.000000	0.007411
2099.000000	0.007369
2098.000000	0.007312
2097.000000	0.007281
2096.000000	0.007286
2095.000000	0.007287
2094.000000	0.007244
2093.000000	0.007177
2092.000000	0.007140
2091.000000	0.007161
2090.000000	0.007215
2089.000000	0.007256
2088.000000	0.007264
2087.000000	0.007253
2086.000000	0.007255
2085.000000	0.007285
2084.000000	0.007324
2083.000000	0.007344
2082.000000	0.007345
2081.000000	0.007352
2080.000000	0.007368
2079.000000	0.007369
2078.000000	0.007334
2077.000000	0.007273
2076.000000	0.007209
2075.000000	0.007157
2074.000000	0.007117
2073.000000	0.007088
2072.000000	0.007058
2071.000000	0.007013
2070.000000	0.006944
2069.000000	0.006850
2068.000000	0.006733
2067.000000	0.006618
2066.000000	0.006553
2065.000000	0.006574
2064.000000	0.006648
2063.000000	0.006715
2062.000000	0.006757
2061.000000	0.006807
2060.000000	0.006868
2059.000000	0.006898
2058.000000	0.006874
2057.000000	0.006831
2056.000000	0.006814
2055.000000	0.006839
2054.000000	0.006907
2053.000000	0.007019
2052.000000	0.007134
2051.000000	0.007174
2050.000000	0.007090
2049.000000	0.006921
2048.000000	0.006742
2047.000000	0.006580
2046.000000	0.006419
2045.000000	0.006265
2044.000000	0.006151
2043.000000	0.006083
2042.000000	0.006029
2041.000000	0.005955
2040.000000	0.005871
2039.000000	0.005826
2038.000000	0.005877
2037.000000	0.006015
2036.000000	0.006129
2035.000000	0.006098
2034.000000	0.005910
2033.000000	0.005661
2032.000000	0.005442
2031.000000	0.005290
2030.000000	0.005257
2029.000000	0.005418
2028.000000	0.005761
2027.000000	0.006134
2026.000000	0.006358
2025.000000	0.006361
2024.000000	0.006207
2023.000000	0.006011
2022.000000	0.005846
2021.000000	0.005705
2020.000000	0.005555
2019.000000	0.005410
2018.000000	0.005343
2017.000000	0.005400
2016.000000	0.005528
2015.000000	0.005651
2014.000000	0.005767
2013.000000	0.005904
2012.000000	0.006029
2011.000000	0.006087
2010.000000	0.006088
2009.000000	0.006100
2008.000000	0.006133
2007.000000	0.006133
2006.000000	0.006072
2005.000000	0.005975
2004.000000	0.005870
2003.000000	0.005767
2002.000000	0.005701
2001.000000	0.005710
2000.000000	0.005785
1999.000000	0.005889
1998.000000	0.006001
1997.000000	0.006098
1996.000000	0.006113
1995.000000	0.006016
1994.000000	0.005897
1993.000000	0.005915
1992.000000	0.006122
1991.000000	0.006389
1990.000000	0.006542
1989.000000	0.006513
1988.000000	0.006358
1987.000000	0.006199
1986.000000	0.006140
1985.000000	0.006204
1984.000000	0.006327
1983.000000	0.006439
1982.000000	0.006530
1981.000000	0.006589
1980.000000	0.006548
1979.000000	0.006369
1978.000000	0.006153
1977.000000	0.006045
1976.000000	0.006020
1975.000000	0.005921
1974.000000	0.005692
1973.000000	0.005444
1972.000000	0.005305
1971.000000	0.005321
1970.000000	0.005466
1969.000000	0.005649
1968.000000	0.005727
1967.000000	0.005636
1966.000000	0.005506
1965.000000	0.005536
1964.000000	0.005746
1963.000000	0.005978
1962.000000	0.006096
1961.000000	0.006107
1960.000000	0.006085
1959.000000	0.006067
1958.000000	0.006061
1957.000000	0.006062
1956.000000	0.006044
1955.000000	0.005986
1954.000000	0.005924
1953.000000	0.005913
1952.000000	0.005933
1951.000000	0.005904
1950.000000	0.005802
1949.000000	0.005714
1948.000000	0.005734
1947.000000	0.005857
1946.000000	0.005991
1945.000000	0.006045
1944.000000	0.005999
1943.000000	0.005919
1942.000000	0.005899
1941.000000	0.005960
1940.000000	0.006044
1939.000000	0.006103
1938.000000	0.006150
1937.000000	0.006197
1936.000000	0.006199
1935.000000	0.006117
1934.000000	0.005996
1933.000000	0.005925
1932.000000	0.005939
1931.000000	0.005999
1930.000000	0.006069
1929.000000	0.006141
1928.000000	0.006187
1927.000000	0.006169
1926.000000	0.006093
1925.000000	0.006021
1924.000000	0.005998
1923.000000	0.006019
1922.000000	0.006057
1921.000000	0.006095
1920.000000	0.006123
1919.000000	0.006140
1918.000000	0.006156
1917.000000	0.006179
1916.000000	0.006198
1915.000000	0.006207
1914.000000	0.006232
1913.000000	0.006283
1912.000000	0.006317
1911.000000	0.006290
1910.000000	0.006229
1909.000000	0.006202
1908.000000	0.006233
1907.000000	0.006285
1906.000000	0.006324
1905.000000	0.006351
1904.000000	0.006365
1903.000000	0.006357
1902.000000	0.006339
1901.000000	0.006326
1900.000000	0.006298
1899.000000	0.006232
1898.000000	0.006156
1897.000000	0.006130
1896.000000	0.006166
1895.000000	0.006204
1894.000000	0.006197
1893.000000	0.006161
1892.000000	0.006129
1891.000000	0.006121
1890.000000	0.006144
1889.000000	0.006193
1888.000000	0.006236
1887.000000	0.006238
1886.000000	0.006211
1885.000000	0.006196
1884.000000	0.006202
1883.000000	0.006205
1882.000000	0.006197
1881.000000	0.006190
1880.000000	0.006183
1879.000000	0.006171
1878.000000	0.006168
1877.000000	0.006195
1876.000000	0.006238
1875.000000	0.006256
1874.000000	0.006226
1873.000000	0.006169
1872.000000	0.006104
1871.000000	0.006035
1870.000000	0.005968
1869.000000	0.005920
1868.000000	0.005901
1867.000000	0.005908
1866.000000	0.005952
1865.000000	0.006032
1864.000000	0.006089
1863.000000	0.006063
1862.000000	0.005977
1861.000000	0.005926
1860.000000	0.005948
1859.000000	0.006002
1858.000000	0.006047
1857.000000	0.006090
1856.000000	0.006141
1855.000000	0.006172
1854.000000	0.006158
1853.000000	0.006108
1852.000000	0.006038
1851.000000	0.005970
1850.000000	0.005923
1849.000000	0.005893
1848.000000	0.005858
1847.000000	0.005810
1846.000000	0.005792
1845.000000	0.005846
1844.000000	0.005941
1843.000000	0.005987
1842.000000	0.005967
1841.000000	0.005948
1840.000000	0.005967
1839.000000	0.005988
1838.000000	0.005973
1837.000000	0.005937
1836.000000	0.005904
1835.000000	0.005864
1834.000000	0.005810
1833.000000	0.005765
1832.000000	0.005753
1831.000000	0.005776
1830.000000	0.005818
1829.000000	0.005863
1828.000000	0.005891
1827.000000	0.005908
1826.000000	0.005938
1825.000000	0.005975
1824.000000	0.005972
1823.000000	0.005903
1822.000000	0.005810
1821.000000	0.005764
1820.000000	0.005775
1819.000000	0.005800
1818.000000	0.005812
1817.000000	0.005830
1816.000000	0.005863
1815.000000	0.005884
1814.000000	0.005875
1813.000000	0.005849
1812.000000	0.005824
1811.000000	0.005802
1810.000000	0.005791
1809.000000	0.005813
1808.000000	0.005867
1807.000000	0.005913
1806.000000	0.005926
1805.000000	0.005919
1804.000000	0.005905
1803.000000	0.005874
1802.000000	0.005828
1801.000000	0.005789
1800.000000	0.005777
1799.000000	0.005786
1798.000000	0.005806
1797.000000	0.005833
1796.000000	0.005851
1795.000000	0.005839
1794.000000	0.005801
1793.000000	0.005770
1792.000000	0.005772
1791.000000	0.005791
1790.000000	0.005799
1789.000000	0.005805
1788.000000	0.005816
1787.000000	0.005825
1786.000000	0.005831
1785.000000	0.005840
1784.000000	0.005833
1783.000000	0.005782
1782.000000	0.005720
1781.000000	0.005696
1780.000000	0.005716
1779.000000	0.005732
1778.000000	0.005713
1777.000000	0.005671
1776.000000	0.005614
1775.000000	0.005538
1774.000000	0.005458
1773.000000	0.005409
1772.000000	0.005423
1771.000000	0.005485
1770.000000	0.005555
1769.000000	0.005635
1768.000000	0.005718
1767.000000	0.005756
1766.000000	0.005734
1765.000000	0.005702
1764.000000	0.005704
1763.000000	0.005730
1762.000000	0.005756
1761.000000	0.005774
1760.000000	0.005787
1759.000000	0.005804
1758.000000	0.005866
1757.000000	0.005992
1756.000000	0.006139
1755.000000	0.006249
1754.000000	0.006337
1753.000000	0.006455
1752.000000	0.006590
1751.000000	0.006674
1750.000000	0.006691
1749.000000	0.006725
1748.000000	0.006834
1747.000000	0.006976
1746.000000	0.007088
1745.000000	0.007135
1744.000000	0.007117
1743.000000	0.007039
1742.000000	0.006935
1741.000000	0.006861
1740.000000	0.006827
1739.000000	0.006766
1738.000000	0.006645
1737.000000	0.006537
1736.000000	0.006500
1735.000000	0.006484
1734.000000	0.006418
1733.000000	0.006308
1732.000000	0.006180
1731.000000	0.006089
1730.000000	0.006072
1729.000000	0.006112
1728.000000	0.006154
1727.000000	0.006155
1726.000000	0.006125
1725.000000	0.006098
1724.000000	0.006088
1723.000000	0.006064
1722.000000	0.006006
1721.000000	0.005955
1720.000000	0.005939
1719.000000	0.005925
1718.000000	0.005905
1717.000000	0.005974
1716.000000	0.006159
1715.000000	0.006375
1714.000000	0.006591
1713.000000	0.006836
1712.000000	0.007117
1711.000000	0.007408
1710.000000	0.007700
1709.000000	0.008012
1708.000000	0.008354
1707.000000	0.008736
1706.000000	0.009176
1705.000000	0.009674
1704.000000	0.010171
1703.000000	0.010674
1702.000000	0.011303
1701.000000	0.012133
1700.000000	0.012966
1699.000000	0.013509
1698.000000	0.013906
1697.000000	0.014546
1696.000000	0.015521
1695.000000	0.016493
1694.000000	0.017173
1693.000000	0.017700
1692.000000	0.018286
1691.000000	0.018955
1690.000000	0.019642
1689.000000	0.020313
1688.000000	0.020947
1687.000000	0.021558
1686.000000	0.022204
1685.000000	0.022986
1684.000000	0.023931
1683.000000	0.024862
1682.000000	0.025670
1681.000000	0.026502
1680.000000	0.027435
1679.000000	0.028374
1678.000000	0.029271
1677.000000	0.030221
1676.000000	0.031287
1675.000000	0.032354
1674.000000	0.033271
1673.000000	0.034074
1672.000000	0.034917
1671.000000	0.035865
1670.000000	0.036917
1669.000000	0.038052
1668.000000	0.039167
1667.000000	0.040155
1666.000000	0.041040
1665.000000	0.041928
1664.000000	0.042876
1663.000000	0.043841
1662.000000	0.044770
1661.000000	0.045658
1660.000000	0.046504
1659.000000	0.047282
1658.000000	0.047963
1657.000000	0.048577
1656.000000	0.049203
1655.000000	0.049863
1654.000000	0.050485
1653.000000	0.051097
1652.000000	0.051616
1651.000000	0.051864
1650.000000	0.052039
1649.000000	0.052309
1648.000000	0.052643
1647.000000	0.052985
1646.000000	0.053336
1645.000000	0.053674
1644.000000	0.053969
1643.000000	0.054223
1642.000000	0.054441
1641.000000	0.054614
1640.000000	0.054729
1639.000000	0.054789
1638.000000	0.054798
1637.000000	0.054751
1636.000000	0.054670
1635.000000	0.054617
1634.000000	0.054561
1633.000000	0.054467
1632.000000	0.054349
1631.000000	0.054162
1630.000000	0.053831
1629.000000	0.053334
1628.000000	0.052723
1627.000000	0.052071
1626.000000	0.051399
1625.000000	0.050649
1624.000000	0.049748
1623.000000	0.048725
1622.000000	0.047721
1621.000000	0.046824
1620.000000	0.046014
1619.000000	0.045193
1618.000000	0.044212
1617.000000	0.043017
1616.000000	0.041784
1615.000000	0.040723
1614.000000	0.039857
1613.000000	0.039078
1612.000000	0.038276
1611.000000	0.037418
1610.000000	0.036556
1609.000000	0.035729
1608.000000	0.034937
1607.000000	0.034195
1606.000000	0.033530
1605.000000	0.032924
1604.000000	0.032343
1603.000000	0.031792
1602.000000	0.031304
1601.000000	0.030878
1600.000000	0.030496
1599.000000	0.030159
1598.000000	0.029870
1597.000000	0.029605
1596.000000	0.029348
1595.000000	0.029133
1594.000000	0.028996
1593.000000	0.028919
1592.000000	0.028860
1591.000000	0.028818
1590.000000	0.028819
1589.000000	0.028857
1588.000000	0.028917
1587.000000	0.029009
1586.000000	0.029153
1585.000000	0.029332
1584.000000	0.029509
1583.000000	0.029699
1582.000000	0.029935
1581.000000	0.030194
1580.000000	0.030440
1579.000000	0.030698
1578.000000	0.031007
1577.000000	0.031351
1576.000000	0.031690
1575.000000	0.032025
1574.000000	0.032368
1573.000000	0.032744
1572.000000	0.033151
1571.000000	0.033560
1570.000000	0.033977
1569.000000	0.034433
1568.000000	0.034907
1567.000000	0.035400
1566.000000	0.035945
1565.000000	0.036527
1564.000000	0.037076
1563.000000	0.037586
1562.000000	0.038121
1561.000000	0.038694
1560.000000	0.039187
1559.000000	0.039651
1558.000000	0.040321
1557.000000	0.040958
1556.000000	0.041499
1555.000000	0.042071
1554.000000	0.042664
1553.000000	0.043182
1552.000000	0.043608
1551.000000	0.044005
1550.000000	0.044403
1549.000000	0.044793
1548.000000	0.045148
1547.000000	0.045462
1546.000000	0.045724
1545.000000	0.045906
1544.000000	0.046021
1543.000000	0.046117
1542.000000	0.046186
1541.000000	0.046181
1540.000000	0.046151
1539.000000	0.046178
1538.000000	0.046180
1537.000000	0.046153
1536.000000	0.046142
1535.000000	0.046092
1534.000000	0.045928
1533.000000	0.045707
1532.000000	0.045530
1531.000000	0.045380
1530.000000	0.045204
1529.000000	0.044989
1528.000000	0.044747
1527.000000	0.044479
1526.000000	0.044180
1525.000000	0.043854
1524.000000	0.043520
1523.000000	0.043161
1522.000000	0.042741
1521.000000	0.042326
1520.000000	0.041983
1519.000000	0.041684
1518.000000	0.041392
1517.000000	0.041099
1516.000000	0.040827
1515.000000	0.040564
1514.000000	0.040258
1513.000000	0.039858
1512.000000	0.039344
1511.000000	0.038745
1510.000000	0.038123
1509.000000	0.037477
1508.000000	0.036723
1507.000000	0.035883
1506.000000	0.035200
1505.000000	0.034667
1504.000000	0.034169
1503.000000	0.033710
1502.000000	0.033248
1501.000000	0.032728
1500.000000	0.032140
1499.000000	0.031503
1498.000000	0.030828
1497.000000	0.030139
1496.000000	0.029483
1495.000000	0.028866
1494.000000	0.028287
1493.000000	0.027763
1492.000000	0.027264
1491.000000	0.026707
1490.000000	0.026094
1489.000000	0.025567
1488.000000	0.025219
1487.000000	0.024994
1486.000000	0.024819
1485.000000	0.024685
1484.000000	0.024582
1483.000000	0.024497
1482.000000	0.024437
1481.000000	0.024439
1480.000000	0.024521
1479.000000	0.024649
1478.000000	0.024794
1477.000000	0.024963
1476.000000	0.025177
1475.000000	0.025437
1474.000000	0.025767
1473.000000	0.026220
1472.000000	0.026795
1471.000000	0.027367
1470.000000	0.027862
1469.000000	0.028331
1468.000000	0.028810
1467.000000	0.029261
1466.000000	0.029647
1465.000000	0.029993
1464.000000	0.030336
1463.000000	0.030664
1462.000000	0.030961
1461.000000	0.031255
1460.000000	0.031580
1459.000000	0.031956
1458.000000	0.032413
1457.000000	0.032973
1456.000000	0.033502
1455.000000	0.033847
1454.000000	0.034103
1453.000000	0.034376
1452.000000	0.034640
1451.000000	0.034833
1450.000000	0.034942
1449.000000	0.034993
1448.000000	0.034997
1447.000000	0.034958
1446.000000	0.034906
1445.000000	0.034854
1444.000000	0.034798
1443.000000	0.034721
1442.000000	0.034604
1441.000000	0.034444
1440.000000	0.034272
1439.000000	0.034115
1438.000000	0.033928
1437.000000	0.033639
1436.000000	0.033259
1435.000000	0.032870
1434.000000	0.032535
1433.000000	0.032257
1432.000000	0.031993
1431.000000	0.031714
1430.000000	0.031440
1429.000000	0.031210
1428.000000	0.031029
1427.000000	0.030871
1426.000000	0.030721
1425.000000	0.030565
1424.000000	0.030420
1423.000000	0.030334
1422.000000	0.030324
1421.000000	0.030350
1420.000000	0.030334
1419.000000	0.030252
1418.000000	0.030164
1417.000000	0.030120
1416.000000	0.030133
1415.000000	0.030181
1414.000000	0.030221
1413.000000	0.030233
1412.000000	0.030239
1411.000000	0.030277
1410.000000	0.030354
1409.000000	0.030453
1408.000000	0.030552
1407.000000	0.030637
1406.000000	0.030709
1405.000000	0.030782
1404.000000	0.030855
1403.000000	0.030911
1402.000000	0.030936
1401.000000	0.030929
1400.000000	0.030884
1399.000000	0.030803
1398.000000	0.030706
1397.000000	0.030608
1396.000000	0.030502
1395.000000	0.030370
1394.000000	0.030216
1393.000000	0.030048
1392.000000	0.029876
1391.000000	0.029713
1390.000000	0.029558
1389.000000	0.029396
1388.000000	0.029205
1387.000000	0.028982
1386.000000	0.028747
1385.000000	0.028522
1384.000000	0.028308
1383.000000	0.028085
1382.000000	0.027838
1381.000000	0.027581
1380.000000	0.027338
1379.000000	0.027103
1378.000000	0.026847
1377.000000	0.026552
1376.000000	0.026227
1375.000000	0.025901
1374.000000	0.025612
1373.000000	0.025369
1372.000000	0.025135
1371.000000	0.024875
1370.000000	0.024585
1369.000000	0.024271
1368.000000	0.023951
1367.000000	0.023639
1366.000000	0.023343
1365.000000	0.023054
1364.000000	0.022770
1363.000000	0.022502
1362.000000	0.022276
1361.000000	0.022098
1360.000000	0.021955
1359.000000	0.021840
1358.000000	0.021755
1357.000000	0.021699
1356.000000	0.021681
1355.000000	0.021709
1354.000000	0.021784
1353.000000	0.021895
1352.000000	0.022023
1351.000000	0.022156
1350.000000	0.022295
1349.000000	0.022448
1348.000000	0.022622
1347.000000	0.022822
1346.000000	0.023044
1345.000000	0.023272
1344.000000	0.023488
1343.000000	0.023683
1342.000000	0.023859
1341.000000	0.024025
1340.000000	0.024188
1339.000000	0.024347
1338.000000	0.024494
1337.000000	0.024612
1336.000000	0.024676
1335.000000	0.024665
1334.000000	0.024579
1333.000000	0.024443
1332.000000	0.024289
1331.000000	0.024131
1330.000000	0.023971
1329.000000	0.023805
1328.000000	0.023638
1327.000000	0.023472
1326.000000	0.023310
1325.000000	0.023158
1324.000000	0.023032
1323.000000	0.022941
1322.000000	0.022874
1321.000000	0.022814
1320.000000	0.022760
1319.000000	0.022723
1318.000000	0.022705
1317.000000	0.022693
1316.000000	0.022668
1315.000000	0.022620
1314.000000	0.022546
1313.000000	0.022440
1312.000000	0.022308
1311.000000	0.022164
1310.000000	0.022026
1309.000000	0.021903
1308.000000	0.021794
1307.000000	0.021690
1306.000000	0.021582
1305.000000	0.021470
1304.000000	0.021357
1303.000000	0.021252
1302.000000	0.021154
1301.000000	0.021058
1300.000000	0.020958
1299.000000	0.020856
1298.000000	0.020765
1297.000000	0.020702
1296.000000	0.020671
1295.000000	0.020667
1294.000000	0.020681
1293.000000	0.020709
1292.000000	0.020753
1291.000000	0.020816
1290.000000	0.020906
1289.000000	0.021031
1288.000000	0.021191
1287.000000	0.021369
1286.000000	0.021536
1285.000000	0.021676
1284.000000	0.021792
1283.000000	0.021889
1282.000000	0.021967
1281.000000	0.022029
1280.000000	0.022078
1279.000000	0.022113
1278.000000	0.022126
1277.000000	0.022115
1276.000000	0.022096
1275.000000	0.022088
1274.000000	0.022093
1273.000000	0.022104
1272.000000	0.022114
1271.000000	0.022129
1270.000000	0.022159
1269.000000	0.022211
1268.000000	0.022289
1267.000000	0.022387
1266.000000	0.022493
1265.000000	0.022597
1264.000000	0.022698
1263.000000	0.022800
1262.000000	0.022907
1261.000000	0.023030
1260.000000	0.023176
1259.000000	0.023343
1258.000000	0.023518
1257.000000	0.023692
1256.000000	0.023864
1255.000000	0.024045
1254.000000	0.024245
1253.000000	0.024469
1252.000000	0.024719
1251.000000	0.024993
1250.000000	0.025281
1249.000000	0.025574
1248.000000	0.025862
1247.000000	0.026134
1246.000000	0.026383
1245.000000	0.026618
1244.000000	0.026858
1243.000000	0.027111
1242.000000	0.027368
1241.000000	0.027609
1240.000000	0.027816
1239.000000	0.027974
1238.000000	0.028076
1237.000000	0.028121
1236.000000	0.028123
1235.000000	0.028097
1234.000000	0.028050
1233.000000	0.027971
1232.000000	0.027843
1231.000000	0.027657
1230.000000	0.027423
1229.000000	0.027153
1228.000000	0.026851
1227.000000	0.026511
1226.000000	0.026129
1225.000000	0.025717
1224.000000	0.025290
1223.000000	0.024859
1222.000000	0.024417
1221.000000	0.023955
1220.000000	0.023484
1219.000000	0.023042
1218.000000	0.022671
1217.000000	0.022381
1216.000000	0.022156
1215.000000	0.021973
1214.000000	0.021823
1213.000000	0.021711
1212.000000	0.021639
1211.000000	0.021607
1210.000000	0.021607
1209.000000	0.021633
1208.000000	0.021675
1207.000000	0.021730
1206.000000	0.021792
1205.000000	0.021852
1204.000000	0.021888
1203.000000	0.021873
1202.000000	0.021798
1201.000000	0.021669
1200.000000	0.021503
1199.000000	0.021306
1198.000000	0.021078
1197.000000	0.020824
1196.000000	0.020550
1195.000000	0.020266
1194.000000	0.019974
1193.000000	0.019677
1192.000000	0.019380
1191.000000	0.019090
1190.000000	0.018815
1189.000000	0.018565
1188.000000	0.018345
1187.000000	0.018148
1186.000000	0.017964
1185.000000	0.017789
1184.000000	0.017628
1183.000000	0.017485
1182.000000	0.017359
1181.000000	0.017251
1180.000000	0.017164
1179.000000	0.017098
1178.000000	0.017051
1177.000000	0.017026
1176.000000	0.017036
1175.000000	0.017080
1174.000000	0.017137
1173.000000	0.017185
1172.000000	0.017227
1171.000000	0.017280
1170.000000	0.017361
1169.000000	0.017470
1168.000000	0.017595
1167.000000	0.017726
1166.000000	0.017858
1165.000000	0.017989
1164.000000	0.018116
1163.000000	0.018224
1162.000000	0.018291
1161.000000	0.018309
1160.000000	0.018290
1159.000000	0.018256
1158.000000	0.018213
1157.000000	0.018149
1156.000000	0.018053
1155.000000	0.017922
1154.000000	0.017762
1153.000000	0.017579
1152.000000	0.017384
1151.000000	0.017192
1150.000000	0.017016
1149.000000	0.016853
1148.000000	0.016687
1147.000000	0.016503
1146.000000	0.016301
1145.000000	0.016099
1144.000000	0.015910
1143.000000	0.015731
1142.000000	0.015551
1141.000000	0.015375
1140.000000	0.015220
1139.000000	0.015093
1138.000000	0.014974
1137.000000	0.014844
1136.000000	0.014714
1135.000000	0.014613
1134.000000	0.014555
1133.000000	0.014525
1132.000000	0.014501
1131.000000	0.014479
1130.000000	0.014474
1129.000000	0.014499
1128.000000	0.014551
1127.000000	0.014615
1126.000000	0.014677
1125.000000	0.014728
1124.000000	0.014772
1123.000000	0.014814
1122.000000	0.014860
1121.000000	0.014911
1120.000000	0.014966
1119.000000	0.015022
1118.000000	0.015074
1117.000000	0.015119
1116.000000	0.015163
1115.000000	0.015218
1114.000000	0.015292
1113.000000	0.015381
1112.000000	0.015473
1111.000000	0.015560
1110.000000	0.015646
1109.000000	0.015737
1108.000000	0.015833
1107.000000	0.015920
1106.000000	0.015994
1105.000000	0.016065
1104.000000	0.016145
1103.000000	0.016234
1102.000000	0.016314
1101.000000	0.016371
1100.000000	0.016410
1099.000000	0.016451
1098.000000	0.016513
1097.000000	0.016603
1096.000000	0.016717
1095.000000	0.016843
1094.000000	0.016980
1093.000000	0.017139
1092.000000	0.017331
1091.000000	0.017556
1090.000000	0.017814
1089.000000	0.018110
1088.000000	0.018443
1087.000000	0.018789
1086.000000	0.019114
1085.000000	0.019393
1084.000000	0.019620
1083.000000	0.019792
1082.000000	0.019909
1081.000000	0.019978
1080.000000	0.020010
1079.000000	0.019993
1078.000000	0.019906
1077.000000	0.019738
1076.000000	0.019511
1075.000000	0.019257
1074.000000	0.018996
1073.000000	0.018743
1072.000000	0.018519
1071.000000	0.018343
1070.000000	0.018221
1069.000000	0.018146
1068.000000	0.018114
1067.000000	0.018128
1066.000000	0.018187
1065.000000	0.018275
1064.000000	0.018371
1063.000000	0.018460
1062.000000	0.018533
1061.000000	0.018588
1060.000000	0.018625
1059.000000	0.018640
1058.000000	0.018631
1057.000000	0.018598
1056.000000	0.018553
1055.000000	0.018510
1054.000000	0.018482
1053.000000	0.018472
1052.000000	0.018474
1051.000000	0.018479
1050.000000	0.018482
1049.000000	0.018485
1048.000000	0.018491
1047.000000	0.018492
1046.000000	0.018481
1045.000000	0.018464
1044.000000	0.018458
1043.000000	0.018476
1042.000000	0.018520
1041.000000	0.018590
1040.000000	0.018688
1039.000000	0.018818
1038.000000	0.018979
1037.000000	0.019172
1036.000000	0.019398
1035.000000	0.019643
1034.000000	0.019873
1033.000000	0.020056
1032.000000	0.020179
1031.000000	0.020253
1030.000000	0.020296
1029.000000	0.020321
1028.000000	0.020337
1027.000000	0.020345
1026.000000	0.020340
1025.000000	0.020312
1024.000000	0.020258
1023.000000	0.020184
1022.000000	0.020102
1021.000000	0.020018
1020.000000	0.019938
1019.000000	0.019862
1018.000000	0.019784
1017.000000	0.019687
1016.000000	0.019546
1015.000000	0.019341
1014.000000	0.019070
1013.000000	0.018748
1012.000000	0.018402
1011.000000	0.018053
1010.000000	0.017720
1009.000000	0.017407
1008.000000	0.017100
1007.000000	0.016784
1006.000000	0.016460
1005.000000	0.016149
1004.000000	0.015878
1003.000000	0.015649
1002.000000	0.015445
1001.000000	0.015243
1000.000000	0.015035
999.000000	0.014830
998.000000	0.014639
997.000000	0.014456
996.000000	0.014256
995.000000	0.014021
994.000000	0.013764
993.000000	0.013522
992.000000	0.013320
991.000000	0.013147
990.000000	0.012975
989.000000	0.012784
988.000000	0.012578
987.000000	0.012372
986.000000	0.012183
985.000000	0.012027
984.000000	0.011911
983.000000	0.011819
982.000000	0.011725
981.000000	0.011617
980.000000	0.011505
979.000000	0.011404
978.000000	0.011323
977.000000	0.011258
976.000000	0.011194
975.000000	0.011108
974.000000	0.010981
973.000000	0.010829
972.000000	0.010682
971.000000	0.010553
970.000000	0.010428
969.000000	0.010290
968.000000	0.010141
967.000000	0.009990
966.000000	0.009843
965.000000	0.009708
964.000000	0.009589
963.000000	0.009474
962.000000	0.009337
961.000000	0.009175
960.000000	0.009010
959.000000	0.008866
958.000000	0.008732
957.000000	0.008589
956.000000	0.008438
955.000000	0.008294
954.000000	0.008164
953.000000	0.008041
952.000000	0.007936
951.000000	0.007865
950.000000	0.007834
949.000000	0.007825
948.000000	0.007812
947.000000	0.007778
946.000000	0.007717
945.000000	0.007644
944.000000	0.007590
943.000000	0.007581
942.000000	0.007607
941.000000	0.007635
940.000000	0.007641
939.000000	0.007633
938.000000	0.007626
937.000000	0.007622
936.000000	0.007607
935.000000	0.007565
934.000000	0.007498
933.000000	0.007420
932.000000	0.007352
931.000000	0.007303
930.000000	0.007269
929.000000	0.007245
928.000000	0.007235
927.000000	0.007237
926.000000	0.007233
925.000000	0.007210
924.000000	0.007176
923.000000	0.007156
922.000000	0.007149
921.000000	0.007128
920.000000	0.007071
919.000000	0.006986
918.000000	0.006898
917.000000	0.006824
916.000000	0.006755
915.000000	0.006667
914.000000	0.006546
913.000000	0.006409
912.000000	0.006290
911.000000	0.006213
910.000000	0.006165
909.000000	0.006116
908.000000	0.006049
907.000000	0.005972
906.000000	0.005900
905.000000	0.005846
904.000000	0.005812
903.000000	0.005789
902.000000	0.005763
901.000000	0.005724
900.000000	0.005674
899.000000	0.005620
898.000000	0.005569
897.000000	0.005531
896.000000	0.005523
895.000000	0.005544
894.000000	0.005569
893.000000	0.005572
892.000000	0.005549
891.000000	0.005512
890.000000	0.005476
889.000000	0.005459
888.000000	0.005483
887.000000	0.005565
886.000000	0.005690
885.000000	0.005820
884.000000	0.005944
883.000000	0.006087
882.000000	0.006284
881.000000	0.006542
880.000000	0.006838
879.000000	0.007141
878.000000	0.007423
877.000000	0.007651
876.000000	0.007789
875.000000	0.007809
874.000000	0.007706
873.000000	0.007503
872.000000	0.007236
871.000000	0.006946
870.000000	0.006675
869.000000	0.006458
868.000000	0.006304
867.000000	0.006190
866.000000	0.006091
865.000000	0.006011
864.000000	0.005975
863.000000	0.005989
862.000000	0.006025
861.000000	0.006044
860.000000	0.006042
859.000000	0.006031
858.000000	0.006018
857.000000	0.005999
856.000000	0.005988
855.000000	0.006012
854.000000	0.006080
853.000000	0.006168
852.000000	0.006240
851.000000	0.006269
850.000000	0.006251
849.000000	0.006194
848.000000	0.006108
847.000000	0.006009
846.000000	0.005914
845.000000	0.005839
844.000000	0.005798
843.000000	0.005793
842.000000	0.005811
841.000000	0.005820
840.000000	0.005790
839.000000	0.005716
838.000000	0.005632
837.000000	0.005592
836.000000	0.005621
835.000000	0.005685
834.000000	0.005722
833.000000	0.005693
832.000000	0.005613
831.000000	0.005525
830.000000	0.005464
829.000000	0.005447
828.000000	0.005468
827.000000	0.005507
826.000000	0.005535
825.000000	0.005530
824.000000	0.005492
823.000000	0.005436
822.000000	0.005399
821.000000	0.005426
820.000000	0.005534
819.000000	0.005687
818.000000	0.005817
817.000000	0.005888
816.000000	0.005914
815.000000	0.005920
814.000000	0.005900
813.000000	0.005833
812.000000	0.005726
811.000000	0.005620
810.000000	0.005552
809.000000	0.005530
808.000000	0.005538
807.000000	0.005555
806.000000	0.005569
805.000000	0.005578
804.000000	0.005588
803.000000	0.005603
802.000000	0.005617
801.000000	0.005626
800.000000	0.005632
799.000000	0.005639
798.000000	0.005655
797.000000	0.005692
796.000000	0.005759
795.000000	0.005843
794.000000	0.005918
793.000000	0.005962
792.000000	0.005985
791.000000	0.006014
790.000000	0.006065
789.000000	0.006128
788.000000	0.006181
787.000000	0.006206
786.000000	0.006213
785.000000	0.006232
784.000000	0.006285
783.000000	0.006360
782.000000	0.006436
781.000000	0.006514
780.000000	0.006610
779.000000	0.006711
778.000000	0.006763
777.000000	0.006728
776.000000	0.006638
775.000000	0.006571
774.000000	0.006577
773.000000	0.006646
772.000000	0.006734
771.000000	0.006797
770.000000	0.006815
769.000000	0.006794
768.000000	0.006775
767.000000	0.006795
766.000000	0.006858
765.000000	0.006928
764.000000	0.006970
763.000000	0.006984
762.000000	0.006996
761.000000	0.007019
760.000000	0.007050
759.000000	0.007093
758.000000	0.007165
757.000000	0.007266
756.000000	0.007354
755.000000	0.007384
754.000000	0.007346
753.000000	0.007286
752.000000	0.007264
751.000000	0.007302
750.000000	0.007384
749.000000	0.007474
748.000000	0.007543
747.000000	0.007580
746.000000	0.007603
745.000000	0.007639
744.000000	0.007695
743.000000	0.007749
742.000000	0.007784
741.000000	0.007819
740.000000	0.007891
739.000000	0.008002
738.000000	0.008115
737.000000	0.008200
736.000000	0.008276
735.000000	0.008377
734.000000	0.008517
733.000000	0.008669
732.000000	0.008801
731.000000	0.008897
730.000000	0.008964
729.000000	0.009033
728.000000	0.009130
727.000000	0.009257
726.000000	0.009385
725.000000	0.009491
724.000000	0.009587
723.000000	0.009704
722.000000	0.009861
721.000000	0.010044
720.000000	0.010212
719.000000	0.010328
718.000000	0.010387
717.000000	0.010418
716.000000	0.010456
715.000000	0.010519
714.000000	0.010605
713.000000	0.010708
712.000000	0.010826
711.000000	0.010949
710.000000	0.011066
709.000000	0.011174
708.000000	0.011274
707.000000	0.011358
706.000000	0.011412
705.000000	0.011452
704.000000	0.011516
703.000000	0.011619
702.000000	0.011728
701.000000	0.011787
700.000000	0.011784
699.000000	0.011748
698.000000	0.011703
697.000000	0.011650
696.000000	0.011585
695.000000	0.011526
694.000000	0.011505
693.000000	0.011532
692.000000	0.011602
691.000000	0.011703
690.000000	0.011826
689.000000	0.011961
688.000000	0.012084
687.000000	0.012168
686.000000	0.012200
685.000000	0.012194
684.000000	0.012181
683.000000	0.012191
682.000000	0.012227
681.000000	0.012289
680.000000	0.012383
679.000000	0.012495
678.000000	0.012580
677.000000	0.012614
676.000000	0.012622
675.000000	0.012651
674.000000	0.012723
673.000000	0.012830
672.000000	0.012929
671.000000	0.012938
670.000000	0.012777
669.000000	0.012449
668.000000	0.012195
667.000000	0.012368
666.000000	0.012779
665.000000	0.013161
664.000000	0.013425
663.000000	0.013560
662.000000	0.013608
661.000000	0.013626
660.000000	0.013633
659.000000	0.013614
658.000000	0.013572
657.000000	0.013560
656.000000	0.013606
655.000000	0.013666
654.000000	0.013683
653.000000	0.013669
652.000000	0.013669
651.000000	0.013703
650.000000	0.013758
649.000000	0.013806
648.000000	0.013807
647.000000	0.013734
646.000000	0.013624
645.000000	0.013546
644.000000	0.013529
643.000000	0.013557
642.000000	0.013619
641.000000	0.013712
640.000000	0.013787
639.000000	0.013756
638.000000	0.013603
637.000000	0.013428
636.000000	0.013350
635.000000	0.013392
634.000000	0.013494
633.000000	0.013588
632.000000	0.013640
631.000000	0.013653
630.000000	0.013669
629.000000	0.013743
628.000000	0.013872
627.000000	0.013981
626.000000	0.014005
625.000000	0.013961
624.000000	0.013923
623.000000	0.013946
622.000000	0.014032
621.000000	0.014137
620.000000	0.014194
619.000000	0.014146
618.000000	0.014013
617.000000	0.013898
616.000000	0.013881
615.000000	0.013937
614.000000	0.013979
613.000000	0.013971
612.000000	0.013952
611.000000	0.013973
610.000000	0.014045
609.000000	0.014144
608.000000	0.014241
607.000000	0.014311
606.000000	0.014338
605.000000	0.014301
604.000000	0.014177
603.000000	0.013965
602.000000	0.013726
601.000000	0.013564
600.000000	0.013548
599.000000	0.013653
598.000000	0.013805
597.000000	0.013948
596.000000	0.014074
595.000000	0.014181
594.000000	0.014251
593.000000	0.014262
592.000000	0.014200
591.000000	0.014071
590.000000	0.013912
589.000000	0.013783
588.000000	0.013728
587.000000	0.013757
586.000000	0.013849
585.000000	0.013967
584.000000	0.014053
583.000000	0.014067
582.000000	0.014031
581.000000	0.014019
580.000000	0.014087
579.000000	0.014210
578.000000	0.014324
577.000000	0.014383
576.000000	0.014378
575.000000	0.014344
574.000000	0.014344
573.000000	0.014426
572.000000	0.014557
571.000000	0.014638
570.000000	0.014624
569.000000	0.014590
568.000000	0.014636
567.000000	0.014773
566.000000	0.014941
565.000000	0.015098
564.000000	0.015235
563.000000	0.015327
562.000000	0.015330
561.000000	0.015227
560.000000	0.015049
559.000000	0.014854
558.000000	0.014719
557.000000	0.014698
556.000000	0.014755
555.000000	0.014775
554.000000	0.014696
553.000000	0.014590
552.000000	0.014561
551.000000	0.014594
550.000000	0.014580
549.000000	0.014462
548.000000	0.014281
547.000000	0.014103
546.000000	0.013978
545.000000	0.013953
544.000000	0.014044
543.000000	0.014187
542.000000	0.014297
541.000000	0.014361
540.000000	0.014434
539.000000	0.014526
538.000000	0.014582
537.000000	0.014585
536.000000	0.014586
535.000000	0.014621
534.000000	0.014647
533.000000	0.014619
532.000000	0.014552
531.000000	0.014487
530.000000	0.014439
529.000000	0.014412
528.000000	0.014414
527.000000	0.014445
526.000000	0.014462
525.000000	0.014408
524.000000	0.014244
523.000000	0.013977
522.000000	0.013670
521.000000	0.013423
520.000000	0.013289
519.000000	0.013204
518.000000	0.013029
517.000000	0.012704
516.000000	0.012312
515.000000	0.011981
514.000000	0.011782
513.000000	0.011717
512.000000	0.011728
511.000000	0.011711
510.000000	0.011569
509.000000	0.011308
508.000000	0.011036
507.000000	0.010865
506.000000	0.010812
505.000000	0.010819
504.000000	0.010823
503.000000	0.010777
502.000000	0.010654
501.000000	0.010471
500.000000	0.010284
499.000000	0.010140
498.000000	0.010056
497.000000	0.010049
496.000000	0.010143
495.000000	0.010309
494.000000	0.010423
493.000000	0.010329
492.000000	0.009995
491.000000	0.009581
490.000000	0.009307
489.000000	0.009248
488.000000	0.009284
487.000000	0.009266
486.000000	0.009194
485.000000	0.009186
484.000000	0.009291
483.000000	0.009414
482.000000	0.009443
481.000000	0.009362
480.000000	0.009211
479.000000	0.009039
478.000000	0.008918
477.000000	0.008905
476.000000	0.008909
475.000000	0.008706
474.000000	0.008171
473.000000	0.007505
472.000000	0.007099
471.000000	0.007150
470.000000	0.007535
469.000000	0.008027
468.000000	0.008412
467.000000	0.008486
466.000000	0.008183
465.000000	0.007728
464.000000	0.007435
463.000000	0.007357
462.000000	0.007261
461.000000	0.006994
460.000000	0.006697
459.000000	0.006569
458.000000	0.006573
457.000000	0.006470
456.000000	0.006123
455.000000	0.005630
454.000000	0.005220
453.000000	0.005097
452.000000	0.005307
451.000000	0.005642
450.000000	0.005802
