PE IR       SUBTECH     SPECTRUM    ASCII       PEDS        4.00        
   -1
3C-H10-F029_1.ASC
22/02/24
15:15:39.00
22/02/24
15:42:20.00
uco
Sample 029 By uco Date Thursday, February 24 2022
450.000000
#HDR
-1
-1
#GR
cm-1
A
1.0
0.0
4000.000000
-1.000000
3551
8
0.004034
-0.000966
#DATA
4000.000000	-0.000191
3999.000000	-0.000192
3998.000000	-0.000194
3997.000000	-0.000192
3996.000000	-0.000186
3995.000000	-0.000203
3994.000000	-0.000197
3993.000000	-0.000193
3992.000000	-0.000191
3991.000000	-0.000190
3990.000000	-0.000188
3989.000000	-0.000182
3988.000000	-0.000171
3987.000000	-0.000155
3986.000000	-0.000141
3985.000000	-0.000137
3984.000000	-0.000144
3983.000000	-0.000158
3982.000000	-0.000171
3981.000000	-0.000175
3980.000000	-0.000172
3979.000000	-0.000167
3978.000000	-0.000166
3977.000000	-0.000171
3976.000000	-0.000176
3975.000000	-0.000177
3974.000000	-0.000172
3973.000000	-0.000165
3972.000000	-0.000165
3971.000000	-0.000171
3970.000000	-0.000180
3969.000000	-0.000188
3968.000000	-0.000195
3967.000000	-0.000204
3966.000000	-0.000211
3965.000000	-0.000211
3964.000000	-0.000201
3963.000000	-0.000184
3962.000000	-0.000168
3961.000000	-0.000158
3960.000000	-0.000154
3959.000000	-0.000148
3958.000000	-0.000140
3957.000000	-0.000134
3956.000000	-0.000136
3955.000000	-0.000150
3954.000000	-0.000176
3953.000000	-0.000203
3952.000000	-0.000219
3951.000000	-0.000216
3950.000000	-0.000194
3949.000000	-0.000162
3948.000000	-0.000130
3947.000000	-0.000105
3946.000000	-0.000083
3945.000000	-0.000065
3944.000000	-0.000053
3943.000000	-0.000053
3942.000000	-0.000061
3941.000000	-0.000068
3940.000000	-0.000070
3939.000000	-0.000069
3938.000000	-0.000068
3937.000000	-0.000065
3936.000000	-0.000052
3935.000000	-0.000029
3934.000000	-0.000006
3933.000000	0.000001
3932.000000	-0.000013
3931.000000	-0.000039
3930.000000	-0.000062
3929.000000	-0.000075
3928.000000	-0.000082
3927.000000	-0.000092
3926.000000	-0.000110
3925.000000	-0.000132
3924.000000	-0.000145
3923.000000	-0.000133
3922.000000	-0.000098
3921.000000	-0.000054
3920.000000	-0.000020
3919.000000	-0.000001
3918.000000	0.000007
3917.000000	0.000008
3916.000000	0.000007
3915.000000	0.000006
3914.000000	0.000006
3913.000000	0.000006
3912.000000	-0.000002
3911.000000	-0.000021
3910.000000	-0.000051
3909.000000	-0.000078
3908.000000	-0.000089
3907.000000	-0.000081
3906.000000	-0.000061
3905.000000	-0.000042
3904.000000	-0.000032
3903.000000	-0.000029
3902.000000	-0.000029
3901.000000	-0.000031
3900.000000	-0.000038
3899.000000	-0.000047
3898.000000	-0.000051
3897.000000	-0.000049
3896.000000	-0.000044
3895.000000	-0.000041
3894.000000	-0.000040
3893.000000	-0.000043
3892.000000	-0.000055
3891.000000	-0.000082
3890.000000	-0.000110
3889.000000	-0.000117
3888.000000	-0.000088
3887.000000	-0.000035
3886.000000	0.000006
3885.000000	0.000016
3884.000000	0.000011
3883.000000	0.000014
3882.000000	0.000027
3881.000000	0.000033
3880.000000	0.000021
3879.000000	0.000001
3878.000000	-0.000013
3877.000000	-0.000013
3876.000000	-0.000009
3875.000000	-0.000018
3874.000000	-0.000042
3873.000000	-0.000062
3872.000000	-0.000060
3871.000000	-0.000044
3870.000000	-0.000039
3869.000000	-0.000055
3868.000000	-0.000072
3867.000000	-0.000070
3866.000000	-0.000053
3865.000000	-0.000041
3864.000000	-0.000038
3863.000000	-0.000032
3862.000000	-0.000019
3861.000000	-0.000004
3860.000000	-0.000004
3859.000000	-0.000033
3858.000000	-0.000098
3857.000000	-0.000183
3856.000000	-0.000249
3855.000000	-0.000259
3854.000000	-0.000221
3853.000000	-0.000178
3852.000000	-0.000145
3851.000000	-0.000118
3850.000000	-0.000093
3849.000000	-0.000076
3848.000000	-0.000066
3847.000000	-0.000063
3846.000000	-0.000064
3845.000000	-0.000066
3844.000000	-0.000063
3843.000000	-0.000054
3842.000000	-0.000042
3841.000000	-0.000036
3840.000000	-0.000045
3839.000000	-0.000066
3838.000000	-0.000086
3837.000000	-0.000091
3836.000000	-0.000081
3835.000000	-0.000069
3834.000000	-0.000064
3833.000000	-0.000066
3832.000000	-0.000072
3831.000000	-0.000073
3830.000000	-0.000064
3829.000000	-0.000048
3828.000000	-0.000038
3827.000000	-0.000046
3826.000000	-0.000074
3825.000000	-0.000103
3824.000000	-0.000105
3823.000000	-0.000079
3822.000000	-0.000058
3821.000000	-0.000077
3820.000000	-0.000124
3819.000000	-0.000156
3818.000000	-0.000149
3817.000000	-0.000114
3816.000000	-0.000085
3815.000000	-0.000078
3814.000000	-0.000082
3813.000000	-0.000085
3812.000000	-0.000091
3811.000000	-0.000104
3810.000000	-0.000113
3809.000000	-0.000104
3808.000000	-0.000080
3807.000000	-0.000063
3806.000000	-0.000067
3805.000000	-0.000089
3804.000000	-0.000111
3803.000000	-0.000123
3802.000000	-0.000120
3801.000000	-0.000108
3800.000000	-0.000089
3799.000000	-0.000072
3798.000000	-0.000070
3797.000000	-0.000086
3796.000000	-0.000111
3795.000000	-0.000127
3794.000000	-0.000123
3793.000000	-0.000106
3792.000000	-0.000093
3791.000000	-0.000099
3790.000000	-0.000124
3789.000000	-0.000154
3788.000000	-0.000172
3787.000000	-0.000163
3786.000000	-0.000129
3785.000000	-0.000080
3784.000000	-0.000031
3783.000000	0.000009
3782.000000	0.000036
3781.000000	0.000048
3780.000000	0.000043
3779.000000	0.000027
3778.000000	0.000012
3777.000000	0.000002
3776.000000	-0.000003
3775.000000	-0.000005
3774.000000	-0.000005
3773.000000	0.000002
3772.000000	0.000016
3771.000000	0.000026
3770.000000	0.000020
3769.000000	0.000003
3768.000000	-0.000008
3767.000000	-0.000009
3766.000000	-0.000007
3765.000000	-0.000016
3764.000000	-0.000034
3763.000000	-0.000048
3762.000000	-0.000051
3761.000000	-0.000052
3760.000000	-0.000062
3759.000000	-0.000080
3758.000000	-0.000095
3757.000000	-0.000105
3756.000000	-0.000112
3755.000000	-0.000116
3754.000000	-0.000115
3753.000000	-0.000112
3752.000000	-0.000111
3751.000000	-0.000112
3750.000000	-0.000107
3749.000000	-0.000102
3748.000000	-0.000100
3747.000000	-0.000094
3746.000000	-0.000076
3745.000000	-0.000062
3744.000000	-0.000060
3743.000000	-0.000052
3742.000000	-0.000020
3741.000000	0.000021
3740.000000	0.000047
3739.000000	0.000057
3738.000000	0.000060
3737.000000	0.000056
3736.000000	0.000030
3735.000000	-0.000013
3734.000000	-0.000052
3733.000000	-0.000072
3732.000000	-0.000078
3731.000000	-0.000076
3730.000000	-0.000064
3729.000000	-0.000041
3728.000000	-0.000013
3727.000000	0.000002
3726.000000	-0.000009
3725.000000	-0.000037
3724.000000	-0.000067
3723.000000	-0.000092
3722.000000	-0.000105
3721.000000	-0.000103
3720.000000	-0.000085
3719.000000	-0.000059
3718.000000	-0.000041
3717.000000	-0.000041
3716.000000	-0.000057
3715.000000	-0.000074
3714.000000	-0.000083
3713.000000	-0.000088
3712.000000	-0.000101
3711.000000	-0.000120
3710.000000	-0.000131
3709.000000	-0.000125
3708.000000	-0.000105
3707.000000	-0.000074
3706.000000	-0.000037
3705.000000	0.000002
3704.000000	0.000030
3703.000000	0.000029
3702.000000	-0.000003
3701.000000	-0.000049
3700.000000	-0.000080
3699.000000	-0.000088
3698.000000	-0.000087
3697.000000	-0.000099
3696.000000	-0.000133
3695.000000	-0.000174
3694.000000	-0.000204
3693.000000	-0.000218
3692.000000	-0.000223
3691.000000	-0.000224
3690.000000	-0.000216
3689.000000	-0.000192
3688.000000	-0.000164
3687.000000	-0.000143
3686.000000	-0.000134
3685.000000	-0.000137
3684.000000	-0.000146
3683.000000	-0.000148
3682.000000	-0.000134
3681.000000	-0.000108
3680.000000	-0.000089
3679.000000	-0.000082
3678.000000	-0.000070
3677.000000	-0.000042
3676.000000	-0.000024
3675.000000	-0.000043
3674.000000	-0.000085
3673.000000	-0.000120
3672.000000	-0.000124
3671.000000	-0.000104
3670.000000	-0.000084
3669.000000	-0.000077
3668.000000	-0.000081
3667.000000	-0.000096
3666.000000	-0.000122
3665.000000	-0.000148
3664.000000	-0.000159
3663.000000	-0.000149
3662.000000	-0.000124
3661.000000	-0.000101
3660.000000	-0.000090
3659.000000	-0.000086
3658.000000	-0.000079
3657.000000	-0.000069
3656.000000	-0.000065
3655.000000	-0.000069
3654.000000	-0.000074
3653.000000	-0.000070
3652.000000	-0.000053
3651.000000	-0.000030
3650.000000	-0.000009
3649.000000	0.000010
3648.000000	0.000032
3647.000000	0.000051
3646.000000	0.000064
3645.000000	0.000072
3644.000000	0.000073
3643.000000	0.000066
3642.000000	0.000053
3641.000000	0.000039
3640.000000	0.000027
3639.000000	0.000015
3638.000000	-0.000001
3637.000000	-0.000015
3636.000000	-0.000016
3635.000000	-0.000001
3634.000000	0.000024
3633.000000	0.000049
3632.000000	0.000068
3631.000000	0.000081
3630.000000	0.000080
3629.000000	0.000066
3628.000000	0.000066
3627.000000	0.000096
3626.000000	0.000134
3625.000000	0.000146
3624.000000	0.000122
3623.000000	0.000076
3622.000000	0.000040
3621.000000	0.000032
3620.000000	0.000040
3619.000000	0.000042
3618.000000	0.000031
3617.000000	0.000018
3616.000000	0.000020
3615.000000	0.000039
3614.000000	0.000060
3613.000000	0.000073
3612.000000	0.000075
3611.000000	0.000076
3610.000000	0.000085
3609.000000	0.000099
3608.000000	0.000111
3607.000000	0.000119
3606.000000	0.000122
3605.000000	0.000123
3604.000000	0.000123
3603.000000	0.000118
3602.000000	0.000105
3601.000000	0.000077
3600.000000	0.000037
3599.000000	-0.000002
3598.000000	-0.000026
3597.000000	-0.000027
3596.000000	-0.000007
3595.000000	0.000024
3594.000000	0.000054
3593.000000	0.000081
3592.000000	0.000105
3591.000000	0.000133
3590.000000	0.000167
3589.000000	0.000197
3588.000000	0.000209
3587.000000	0.000201
3586.000000	0.000183
3585.000000	0.000162
3584.000000	0.000141
3583.000000	0.000123
3582.000000	0.000112
3581.000000	0.000108
3580.000000	0.000108
3579.000000	0.000107
3578.000000	0.000105
3577.000000	0.000102
3576.000000	0.000096
3575.000000	0.000092
3574.000000	0.000096
3573.000000	0.000113
3572.000000	0.000139
3571.000000	0.000166
3570.000000	0.000193
3569.000000	0.000219
3568.000000	0.000243
3567.000000	0.000261
3566.000000	0.000275
3565.000000	0.000288
3564.000000	0.000298
3563.000000	0.000300
3562.000000	0.000286
3561.000000	0.000253
3560.000000	0.000210
3559.000000	0.000171
3558.000000	0.000151
3557.000000	0.000157
3556.000000	0.000184
3555.000000	0.000214
3554.000000	0.000226
3553.000000	0.000212
3552.000000	0.000186
3551.000000	0.000166
3550.000000	0.000167
3549.000000	0.000188
3548.000000	0.000223
3547.000000	0.000261
3546.000000	0.000293
3545.000000	0.000314
3544.000000	0.000326
3543.000000	0.000332
3542.000000	0.000330
3541.000000	0.000318
3540.000000	0.000301
3539.000000	0.000294
3538.000000	0.000306
3537.000000	0.000330
3536.000000	0.000347
3535.000000	0.000344
3534.000000	0.000325
3533.000000	0.000310
3532.000000	0.000316
3531.000000	0.000348
3530.000000	0.000391
3529.000000	0.000418
3528.000000	0.000417
3527.000000	0.000400
3526.000000	0.000383
3525.000000	0.000368
3524.000000	0.000342
3523.000000	0.000302
3522.000000	0.000264
3521.000000	0.000250
3520.000000	0.000265
3519.000000	0.000296
3518.000000	0.000329
3517.000000	0.000356
3516.000000	0.000378
3515.000000	0.000398
3514.000000	0.000421
3513.000000	0.000448
3512.000000	0.000473
3511.000000	0.000491
3510.000000	0.000496
3509.000000	0.000488
3508.000000	0.000476
3507.000000	0.000465
3506.000000	0.000456
3505.000000	0.000444
3504.000000	0.000422
3503.000000	0.000397
3502.000000	0.000387
3501.000000	0.000402
3500.000000	0.000437
3499.000000	0.000471
3498.000000	0.000485
3497.000000	0.000482
3496.000000	0.000474
3495.000000	0.000474
3494.000000	0.000488
3493.000000	0.000507
3492.000000	0.000521
3491.000000	0.000523
3490.000000	0.000513
3489.000000	0.000500
3488.000000	0.000488
3487.000000	0.000481
3486.000000	0.000479
3485.000000	0.000484
3484.000000	0.000496
3483.000000	0.000511
3482.000000	0.000524
3481.000000	0.000534
3480.000000	0.000546
3479.000000	0.000561
3478.000000	0.000575
3477.000000	0.000583
3476.000000	0.000585
3475.000000	0.000588
3474.000000	0.000595
3473.000000	0.000602
3472.000000	0.000601
3471.000000	0.000593
3470.000000	0.000581
3469.000000	0.000571
3468.000000	0.000563
3467.000000	0.000558
3466.000000	0.000553
3465.000000	0.000551
3464.000000	0.000551
3463.000000	0.000554
3462.000000	0.000561
3461.000000	0.000568
3460.000000	0.000575
3459.000000	0.000582
3458.000000	0.000590
3457.000000	0.000596
3456.000000	0.000597
3455.000000	0.000591
3454.000000	0.000583
3453.000000	0.000579
3452.000000	0.000586
3451.000000	0.000603
3450.000000	0.000623
3449.000000	0.000638
3448.000000	0.000646
3447.000000	0.000652
3446.000000	0.000658
3445.000000	0.000659
3444.000000	0.000651
3443.000000	0.000635
3442.000000	0.000620
3441.000000	0.000611
3440.000000	0.000611
3439.000000	0.000619
3438.000000	0.000636
3437.000000	0.000661
3436.000000	0.000684
3435.000000	0.000695
3434.000000	0.000695
3433.000000	0.000695
3432.000000	0.000701
3431.000000	0.000712
3430.000000	0.000723
3429.000000	0.000730
3428.000000	0.000735
3427.000000	0.000739
3426.000000	0.000743
3425.000000	0.000740
3424.000000	0.000725
3423.000000	0.000700
3422.000000	0.000677
3421.000000	0.000665
3420.000000	0.000666
3419.000000	0.000669
3418.000000	0.000664
3417.000000	0.000654
3416.000000	0.000652
3415.000000	0.000670
3414.000000	0.000705
3413.000000	0.000739
3412.000000	0.000756
3411.000000	0.000753
3410.000000	0.000739
3409.000000	0.000724
3408.000000	0.000713
3407.000000	0.000712
3406.000000	0.000728
3405.000000	0.000766
3404.000000	0.000812
3403.000000	0.000844
3402.000000	0.000845
3401.000000	0.000823
3400.000000	0.000802
3399.000000	0.000801
3398.000000	0.000821
3397.000000	0.000843
3396.000000	0.000849
3395.000000	0.000832
3394.000000	0.000798
3393.000000	0.000764
3392.000000	0.000743
3391.000000	0.000741
3390.000000	0.000755
3389.000000	0.000772
3388.000000	0.000781
3387.000000	0.000782
3386.000000	0.000782
3385.000000	0.000792
3384.000000	0.000810
3383.000000	0.000826
3382.000000	0.000831
3381.000000	0.000830
3380.000000	0.000835
3379.000000	0.000854
3378.000000	0.000882
3377.000000	0.000912
3376.000000	0.000933
3375.000000	0.000938
3374.000000	0.000926
3373.000000	0.000900
3372.000000	0.000872
3371.000000	0.000854
3370.000000	0.000849
3369.000000	0.000849
3368.000000	0.000843
3367.000000	0.000835
3366.000000	0.000835
3365.000000	0.000853
3364.000000	0.000884
3363.000000	0.000912
3362.000000	0.000923
3361.000000	0.000912
3360.000000	0.000885
3359.000000	0.000855
3358.000000	0.000843
3357.000000	0.000861
3356.000000	0.000907
3355.000000	0.000963
3354.000000	0.001010
3353.000000	0.001037
3352.000000	0.001046
3351.000000	0.001040
3350.000000	0.001026
3349.000000	0.001010
3348.000000	0.001001
3347.000000	0.001009
3346.000000	0.001034
3345.000000	0.001062
3344.000000	0.001073
3343.000000	0.001059
3342.000000	0.001031
3341.000000	0.001017
3340.000000	0.001031
3339.000000	0.001068
3338.000000	0.001111
3337.000000	0.001148
3336.000000	0.001172
3335.000000	0.001183
3334.000000	0.001180
3333.000000	0.001168
3332.000000	0.001158
3331.000000	0.001160
3330.000000	0.001173
3329.000000	0.001191
3328.000000	0.001204
3327.000000	0.001210
3326.000000	0.001207
3325.000000	0.001201
3324.000000	0.001191
3323.000000	0.001182
3322.000000	0.001173
3321.000000	0.001167
3320.000000	0.001167
3319.000000	0.001174
3318.000000	0.001184
3317.000000	0.001194
3316.000000	0.001201
3315.000000	0.001208
3314.000000	0.001224
3313.000000	0.001250
3312.000000	0.001278
3311.000000	0.001296
3310.000000	0.001297
3309.000000	0.001282
3308.000000	0.001262
3307.000000	0.001248
3306.000000	0.001242
3305.000000	0.001239
3304.000000	0.001231
3303.000000	0.001218
3302.000000	0.001211
3301.000000	0.001219
3300.000000	0.001240
3299.000000	0.001265
3298.000000	0.001281
3297.000000	0.001286
3296.000000	0.001280
3295.000000	0.001274
3294.000000	0.001276
3293.000000	0.001293
3292.000000	0.001320
3291.000000	0.001342
3290.000000	0.001346
3289.000000	0.001333
3288.000000	0.001311
3287.000000	0.001286
3286.000000	0.001265
3285.000000	0.001247
3284.000000	0.001235
3283.000000	0.001231
3282.000000	0.001232
3281.000000	0.001232
3280.000000	0.001227
3279.000000	0.001223
3278.000000	0.001227
3277.000000	0.001237
3276.000000	0.001244
3275.000000	0.001237
3274.000000	0.001217
3273.000000	0.001193
3272.000000	0.001178
3271.000000	0.001176
3270.000000	0.001182
3269.000000	0.001192
3268.000000	0.001205
3267.000000	0.001223
3266.000000	0.001242
3265.000000	0.001256
3264.000000	0.001259
3263.000000	0.001252
3262.000000	0.001240
3261.000000	0.001234
3260.000000	0.001235
3259.000000	0.001242
3258.000000	0.001248
3257.000000	0.001249
3256.000000	0.001245
3255.000000	0.001236
3254.000000	0.001225
3253.000000	0.001213
3252.000000	0.001207
3251.000000	0.001208
3250.000000	0.001213
3249.000000	0.001213
3248.000000	0.001199
3247.000000	0.001175
3246.000000	0.001154
3245.000000	0.001147
3244.000000	0.001155
3243.000000	0.001163
3242.000000	0.001156
3241.000000	0.001132
3240.000000	0.001109
3239.000000	0.001105
3238.000000	0.001125
3237.000000	0.001157
3236.000000	0.001184
3235.000000	0.001197
3234.000000	0.001195
3233.000000	0.001182
3232.000000	0.001160
3231.000000	0.001136
3230.000000	0.001119
3229.000000	0.001115
3228.000000	0.001122
3227.000000	0.001133
3226.000000	0.001142
3225.000000	0.001143
3224.000000	0.001137
3223.000000	0.001128
3222.000000	0.001122
3221.000000	0.001116
3220.000000	0.001105
3219.000000	0.001089
3218.000000	0.001077
3217.000000	0.001079
3216.000000	0.001094
3215.000000	0.001110
3214.000000	0.001114
3213.000000	0.001110
3212.000000	0.001106
3211.000000	0.001111
3210.000000	0.001121
3209.000000	0.001128
3208.000000	0.001129
3207.000000	0.001125
3206.000000	0.001119
3205.000000	0.001114
3204.000000	0.001111
3203.000000	0.001114
3202.000000	0.001121
3201.000000	0.001125
3200.000000	0.001115
3199.000000	0.001092
3198.000000	0.001064
3197.000000	0.001044
3196.000000	0.001040
3195.000000	0.001049
3194.000000	0.001064
3193.000000	0.001077
3192.000000	0.001091
3191.000000	0.001106
3190.000000	0.001115
3189.000000	0.001108
3188.000000	0.001082
3187.000000	0.001053
3186.000000	0.001039
3185.000000	0.001042
3184.000000	0.001052
3183.000000	0.001055
3182.000000	0.001048
3181.000000	0.001036
3180.000000	0.001025
3179.000000	0.001018
3178.000000	0.001016
3177.000000	0.001014
3176.000000	0.001001
3175.000000	0.000975
3174.000000	0.000945
3173.000000	0.000927
3172.000000	0.000925
3171.000000	0.000934
3170.000000	0.000942
3169.000000	0.000941
3168.000000	0.000932
3167.000000	0.000922
3166.000000	0.000920
3165.000000	0.000927
3164.000000	0.000933
3163.000000	0.000930
3162.000000	0.000921
3161.000000	0.000920
3160.000000	0.000936
3159.000000	0.000959
3158.000000	0.000969
3157.000000	0.000956
3156.000000	0.000928
3155.000000	0.000911
3154.000000	0.000922
3153.000000	0.000952
3152.000000	0.000973
3151.000000	0.000964
3150.000000	0.000930
3149.000000	0.000895
3148.000000	0.000877
3147.000000	0.000874
3146.000000	0.000874
3145.000000	0.000868
3144.000000	0.000862
3143.000000	0.000864
3142.000000	0.000876
3141.000000	0.000890
3140.000000	0.000896
3139.000000	0.000885
3138.000000	0.000856
3137.000000	0.000819
3136.000000	0.000783
3135.000000	0.000753
3134.000000	0.000739
3133.000000	0.000745
3132.000000	0.000774
3131.000000	0.000820
3130.000000	0.000868
3129.000000	0.000903
3128.000000	0.000917
3127.000000	0.000908
3126.000000	0.000883
3125.000000	0.000854
3124.000000	0.000832
3123.000000	0.000823
3122.000000	0.000825
3121.000000	0.000834
3120.000000	0.000850
3119.000000	0.000873
3118.000000	0.000900
3117.000000	0.000921
3116.000000	0.000928
3115.000000	0.000920
3114.000000	0.000903
3113.000000	0.000885
3112.000000	0.000870
3111.000000	0.000858
3110.000000	0.000848
3109.000000	0.000840
3108.000000	0.000840
3107.000000	0.000852
3106.000000	0.000872
3105.000000	0.000891
3104.000000	0.000905
3103.000000	0.000909
3102.000000	0.000902
3101.000000	0.000886
3100.000000	0.000866
3099.000000	0.000853
3098.000000	0.000853
3097.000000	0.000866
3096.000000	0.000880
3095.000000	0.000887
3094.000000	0.000885
3093.000000	0.000878
3092.000000	0.000871
3091.000000	0.000869
3090.000000	0.000873
3089.000000	0.000880
3088.000000	0.000882
3087.000000	0.000879
3086.000000	0.000876
3085.000000	0.000884
3084.000000	0.000907
3083.000000	0.000939
3082.000000	0.000964
3081.000000	0.000972
3080.000000	0.000960
3079.000000	0.000937
3078.000000	0.000915
3077.000000	0.000899
3076.000000	0.000890
3075.000000	0.000888
3074.000000	0.000897
3073.000000	0.000917
3072.000000	0.000944
3071.000000	0.000968
3070.000000	0.000983
3069.000000	0.000986
3068.000000	0.000980
3067.000000	0.000968
3066.000000	0.000951
3065.000000	0.000930
3064.000000	0.000913
3063.000000	0.000906
3062.000000	0.000913
3061.000000	0.000929
3060.000000	0.000944
3059.000000	0.000949
3058.000000	0.000942
3057.000000	0.000930
3056.000000	0.000922
3055.000000	0.000922
3054.000000	0.000924
3053.000000	0.000921
3052.000000	0.000910
3051.000000	0.000901
3050.000000	0.000905
3049.000000	0.000920
3048.000000	0.000939
3047.000000	0.000956
3046.000000	0.000965
3045.000000	0.000957
3044.000000	0.000925
3043.000000	0.000878
3042.000000	0.000838
3041.000000	0.000823
3040.000000	0.000827
3039.000000	0.000832
3038.000000	0.000830
3037.000000	0.000827
3036.000000	0.000835
3035.000000	0.000852
3034.000000	0.000869
3033.000000	0.000873
3032.000000	0.000862
3031.000000	0.000848
3030.000000	0.000844
3029.000000	0.000851
3028.000000	0.000857
3027.000000	0.000848
3026.000000	0.000824
3025.000000	0.000800
3024.000000	0.000792
3023.000000	0.000801
3022.000000	0.000821
3021.000000	0.000844
3020.000000	0.000863
3019.000000	0.000877
3018.000000	0.000880
3017.000000	0.000868
3016.000000	0.000841
3015.000000	0.000813
3014.000000	0.000799
3013.000000	0.000805
3012.000000	0.000825
3011.000000	0.000841
3010.000000	0.000841
3009.000000	0.000821
3008.000000	0.000791
3007.000000	0.000766
3006.000000	0.000759
3005.000000	0.000764
3004.000000	0.000768
3003.000000	0.000759
3002.000000	0.000742
3001.000000	0.000727
3000.000000	0.000721
2999.000000	0.000726
2998.000000	0.000737
2997.000000	0.000751
2996.000000	0.000771
2995.000000	0.000792
2994.000000	0.000810
2993.000000	0.000815
2992.000000	0.000806
2991.000000	0.000791
2990.000000	0.000781
2989.000000	0.000784
2988.000000	0.000802
2987.000000	0.000830
2986.000000	0.000860
2985.000000	0.000878
2984.000000	0.000877
2983.000000	0.000862
2982.000000	0.000847
2981.000000	0.000843
2980.000000	0.000850
2979.000000	0.000865
2978.000000	0.000883
2977.000000	0.000897
2976.000000	0.000900
2975.000000	0.000887
2974.000000	0.000865
2973.000000	0.000851
2972.000000	0.000851
2971.000000	0.000866
2970.000000	0.000889
2969.000000	0.000914
2968.000000	0.000933
2967.000000	0.000939
2966.000000	0.000936
2965.000000	0.000935
2964.000000	0.000945
2963.000000	0.000963
2962.000000	0.000980
2961.000000	0.000993
2960.000000	0.001003
2959.000000	0.001015
2958.000000	0.001027
2957.000000	0.001035
2956.000000	0.001042
2955.000000	0.001055
2954.000000	0.001077
2953.000000	0.001102
2952.000000	0.001115
2951.000000	0.001111
2950.000000	0.001091
2949.000000	0.001065
2948.000000	0.001045
2947.000000	0.001038
2946.000000	0.001050
2945.000000	0.001077
2944.000000	0.001108
2943.000000	0.001136
2942.000000	0.001165
2941.000000	0.001200
2940.000000	0.001236
2939.000000	0.001267
2938.000000	0.001289
2937.000000	0.001311
2936.000000	0.001330
2935.000000	0.001338
2934.000000	0.001330
2933.000000	0.001315
2932.000000	0.001311
2931.000000	0.001329
2930.000000	0.001371
2929.000000	0.001428
2928.000000	0.001490
2927.000000	0.001540
2926.000000	0.001567
2925.000000	0.001566
2924.000000	0.001546
2923.000000	0.001521
2922.000000	0.001504
2921.000000	0.001498
2920.000000	0.001492
2919.000000	0.001477
2918.000000	0.001450
2917.000000	0.001417
2916.000000	0.001389
2915.000000	0.001363
2914.000000	0.001332
2913.000000	0.001291
2912.000000	0.001246
2911.000000	0.001211
2910.000000	0.001191
2909.000000	0.001181
2908.000000	0.001167
2907.000000	0.001141
2906.000000	0.001108
2905.000000	0.001083
2904.000000	0.001073
2903.000000	0.001072
2902.000000	0.001072
2901.000000	0.001062
2900.000000	0.001041
2899.000000	0.001012
2898.000000	0.000987
2897.000000	0.000982
2896.000000	0.001001
2895.000000	0.001031
2894.000000	0.001047
2893.000000	0.001035
2892.000000	0.001000
2891.000000	0.000962
2890.000000	0.000940
2889.000000	0.000940
2888.000000	0.000952
2887.000000	0.000963
2886.000000	0.000968
2885.000000	0.000967
2884.000000	0.000964
2883.000000	0.000961
2882.000000	0.000961
2881.000000	0.000967
2880.000000	0.000981
2879.000000	0.000999
2878.000000	0.001009
2877.000000	0.001003
2876.000000	0.000979
2875.000000	0.000948
2874.000000	0.000924
2873.000000	0.000917
2872.000000	0.000928
2871.000000	0.000947
2870.000000	0.000963
2869.000000	0.000964
2868.000000	0.000951
2867.000000	0.000936
2866.000000	0.000932
2865.000000	0.000942
2864.000000	0.000961
2863.000000	0.000981
2862.000000	0.000995
2861.000000	0.001001
2860.000000	0.001001
2859.000000	0.001003
2858.000000	0.001021
2857.000000	0.001056
2856.000000	0.001099
2855.000000	0.001136
2854.000000	0.001165
2853.000000	0.001187
2852.000000	0.001200
2851.000000	0.001194
2850.000000	0.001166
2849.000000	0.001127
2848.000000	0.001095
2847.000000	0.001080
2846.000000	0.001074
2845.000000	0.001063
2844.000000	0.001034
2843.000000	0.000984
2842.000000	0.000922
2841.000000	0.000869
2840.000000	0.000849
2839.000000	0.000872
2838.000000	0.000925
2837.000000	0.000973
2836.000000	0.000986
2835.000000	0.000958
2834.000000	0.000906
2833.000000	0.000859
2832.000000	0.000842
2831.000000	0.000859
2830.000000	0.000897
2829.000000	0.000931
2828.000000	0.000939
2827.000000	0.000917
2826.000000	0.000880
2825.000000	0.000849
2824.000000	0.000842
2823.000000	0.000860
2822.000000	0.000892
2821.000000	0.000918
2820.000000	0.000919
2819.000000	0.000888
2818.000000	0.000835
2817.000000	0.000789
2816.000000	0.000773
2815.000000	0.000790
2814.000000	0.000826
2813.000000	0.000857
2812.000000	0.000865
2811.000000	0.000841
2810.000000	0.000794
2809.000000	0.000749
2808.000000	0.000736
2807.000000	0.000762
2806.000000	0.000814
2805.000000	0.000861
2804.000000	0.000873
2803.000000	0.000843
2802.000000	0.000785
2801.000000	0.000728
2800.000000	0.000701
2799.000000	0.000717
2798.000000	0.000766
2797.000000	0.000824
2796.000000	0.000863
2795.000000	0.000862
2794.000000	0.000820
2793.000000	0.000764
2792.000000	0.000734
2791.000000	0.000753
2790.000000	0.000810
2789.000000	0.000870
2788.000000	0.000901
2787.000000	0.000894
2786.000000	0.000862
2785.000000	0.000822
2784.000000	0.000789
2783.000000	0.000778
2782.000000	0.000801
2781.000000	0.000854
2780.000000	0.000909
2779.000000	0.000934
2778.000000	0.000913
2777.000000	0.000865
2776.000000	0.000828
2775.000000	0.000831
2774.000000	0.000876
2773.000000	0.000936
2772.000000	0.000973
2771.000000	0.000964
2770.000000	0.000913
2769.000000	0.000844
2768.000000	0.000787
2767.000000	0.000764
2766.000000	0.000780
2765.000000	0.000822
2764.000000	0.000867
2763.000000	0.000889
2762.000000	0.000873
2761.000000	0.000829
2760.000000	0.000783
2759.000000	0.000760
2758.000000	0.000769
2757.000000	0.000797
2756.000000	0.000822
2755.000000	0.000827
2754.000000	0.000810
2753.000000	0.000780
2752.000000	0.000751
2751.000000	0.000733
2750.000000	0.000729
2749.000000	0.000738
2748.000000	0.000754
2747.000000	0.000765
2746.000000	0.000760
2745.000000	0.000739
2744.000000	0.000716
2743.000000	0.000710
2742.000000	0.000729
2741.000000	0.000763
2740.000000	0.000795
2739.000000	0.000808
2738.000000	0.000798
2737.000000	0.000769
2736.000000	0.000734
2735.000000	0.000711
2734.000000	0.000713
2733.000000	0.000737
2732.000000	0.000770
2731.000000	0.000799
2730.000000	0.000814
2729.000000	0.000809
2728.000000	0.000783
2727.000000	0.000746
2726.000000	0.000717
2725.000000	0.000715
2724.000000	0.000739
2723.000000	0.000771
2722.000000	0.000790
2721.000000	0.000784
2720.000000	0.000757
2719.000000	0.000729
2718.000000	0.000720
2717.000000	0.000738
2716.000000	0.000770
2715.000000	0.000794
2714.000000	0.000793
2713.000000	0.000772
2712.000000	0.000743
2711.000000	0.000721
2710.000000	0.000714
2709.000000	0.000722
2708.000000	0.000742
2707.000000	0.000764
2706.000000	0.000778
2705.000000	0.000774
2704.000000	0.000760
2703.000000	0.000749
2702.000000	0.000750
2701.000000	0.000762
2700.000000	0.000773
2699.000000	0.000777
2698.000000	0.000778
2697.000000	0.000776
2696.000000	0.000764
2695.000000	0.000743
2694.000000	0.000722
2693.000000	0.000720
2692.000000	0.000740
2691.000000	0.000770
2690.000000	0.000794
2689.000000	0.000803
2688.000000	0.000793
2687.000000	0.000770
2686.000000	0.000744
2685.000000	0.000730
2684.000000	0.000735
2683.000000	0.000755
2682.000000	0.000774
2681.000000	0.000782
2680.000000	0.000775
2679.000000	0.000758
2678.000000	0.000740
2677.000000	0.000732
2676.000000	0.000743
2675.000000	0.000769
2674.000000	0.000794
2673.000000	0.000802
2672.000000	0.000790
2671.000000	0.000766
2670.000000	0.000740
2669.000000	0.000721
2668.000000	0.000718
2667.000000	0.000736
2666.000000	0.000774
2665.000000	0.000818
2664.000000	0.000847
2663.000000	0.000846
2662.000000	0.000818
2661.000000	0.000779
2660.000000	0.000755
2659.000000	0.000761
2658.000000	0.000792
2657.000000	0.000821
2656.000000	0.000824
2655.000000	0.000797
2654.000000	0.000758
2653.000000	0.000734
2652.000000	0.000737
2651.000000	0.000761
2650.000000	0.000794
2649.000000	0.000823
2648.000000	0.000838
2647.000000	0.000832
2646.000000	0.000803
2645.000000	0.000760
2644.000000	0.000718
2643.000000	0.000693
2642.000000	0.000686
2641.000000	0.000693
2640.000000	0.000705
2639.000000	0.000712
2638.000000	0.000710
2637.000000	0.000699
2636.000000	0.000685
2635.000000	0.000671
2634.000000	0.000661
2633.000000	0.000656
2632.000000	0.000657
2631.000000	0.000660
2630.000000	0.000654
2629.000000	0.000631
2628.000000	0.000593
2627.000000	0.000557
2626.000000	0.000540
2625.000000	0.000547
2624.000000	0.000569
2623.000000	0.000596
2622.000000	0.000616
2621.000000	0.000626
2620.000000	0.000622
2619.000000	0.000609
2618.000000	0.000594
2617.000000	0.000585
2616.000000	0.000578
2615.000000	0.000564
2614.000000	0.000538
2613.000000	0.000503
2612.000000	0.000473
2611.000000	0.000462
2610.000000	0.000477
2609.000000	0.000509
2608.000000	0.000542
2607.000000	0.000559
2606.000000	0.000555
2605.000000	0.000543
2604.000000	0.000535
2603.000000	0.000537
2602.000000	0.000542
2601.000000	0.000544
2600.000000	0.000538
2599.000000	0.000522
2598.000000	0.000497
2597.000000	0.000470
2596.000000	0.000452
2595.000000	0.000453
2594.000000	0.000470
2593.000000	0.000504
2592.000000	0.000551
2591.000000	0.000598
2590.000000	0.000620
2589.000000	0.000598
2588.000000	0.000538
2587.000000	0.000475
2586.000000	0.000439
2585.000000	0.000440
2584.000000	0.000471
2583.000000	0.000511
2582.000000	0.000537
2581.000000	0.000531
2580.000000	0.000496
2579.000000	0.000457
2578.000000	0.000437
2577.000000	0.000441
2576.000000	0.000456
2575.000000	0.000471
2574.000000	0.000479
2573.000000	0.000474
2572.000000	0.000458
2571.000000	0.000440
2570.000000	0.000429
2569.000000	0.000428
2568.000000	0.000436
2567.000000	0.000455
2566.000000	0.000478
2565.000000	0.000492
2564.000000	0.000486
2563.000000	0.000466
2562.000000	0.000450
2561.000000	0.000450
2560.000000	0.000461
2559.000000	0.000472
2558.000000	0.000475
2557.000000	0.000468
2556.000000	0.000453
2555.000000	0.000436
2554.000000	0.000423
2553.000000	0.000417
2552.000000	0.000419
2551.000000	0.000434
2550.000000	0.000461
2549.000000	0.000491
2548.000000	0.000502
2547.000000	0.000486
2546.000000	0.000460
2545.000000	0.000454
2544.000000	0.000478
2543.000000	0.000516
2542.000000	0.000544
2541.000000	0.000546
2540.000000	0.000521
2539.000000	0.000483
2538.000000	0.000450
2537.000000	0.000440
2536.000000	0.000459
2535.000000	0.000503
2534.000000	0.000552
2533.000000	0.000583
2532.000000	0.000581
2531.000000	0.000551
2530.000000	0.000512
2529.000000	0.000479
2528.000000	0.000453
2527.000000	0.000430
2526.000000	0.000416
2525.000000	0.000421
2524.000000	0.000441
2523.000000	0.000460
2522.000000	0.000468
2521.000000	0.000470
2520.000000	0.000481
2519.000000	0.000500
2518.000000	0.000515
2517.000000	0.000512
2516.000000	0.000494
2515.000000	0.000474
2514.000000	0.000465
2513.000000	0.000467
2512.000000	0.000470
2511.000000	0.000459
2510.000000	0.000431
2509.000000	0.000400
2508.000000	0.000391
2507.000000	0.000416
2506.000000	0.000462
2505.000000	0.000499
2504.000000	0.000508
2503.000000	0.000492
2502.000000	0.000471
2501.000000	0.000464
2500.000000	0.000476
2499.000000	0.000498
2498.000000	0.000512
2497.000000	0.000504
2496.000000	0.000479
2495.000000	0.000458
2494.000000	0.000458
2493.000000	0.000479
2492.000000	0.000505
2491.000000	0.000520
2490.000000	0.000516
2489.000000	0.000496
2488.000000	0.000468
2487.000000	0.000445
2486.000000	0.000437
2485.000000	0.000438
2484.000000	0.000434
2483.000000	0.000424
2482.000000	0.000421
2481.000000	0.000436
2480.000000	0.000461
2479.000000	0.000479
2478.000000	0.000481
2477.000000	0.000470
2476.000000	0.000458
2475.000000	0.000454
2474.000000	0.000467
2473.000000	0.000496
2472.000000	0.000520
2471.000000	0.000514
2470.000000	0.000471
2469.000000	0.000416
2468.000000	0.000383
2467.000000	0.000387
2466.000000	0.000413
2465.000000	0.000439
2464.000000	0.000453
2463.000000	0.000461
2462.000000	0.000473
2461.000000	0.000500
2460.000000	0.000541
2459.000000	0.000579
2458.000000	0.000592
2457.000000	0.000567
2456.000000	0.000512
2455.000000	0.000454
2454.000000	0.000412
2453.000000	0.000394
2452.000000	0.000399
2451.000000	0.000417
2450.000000	0.000435
2449.000000	0.000445
2448.000000	0.000454
2447.000000	0.000472
2446.000000	0.000493
2445.000000	0.000502
2444.000000	0.000501
2443.000000	0.000503
2442.000000	0.000510
2441.000000	0.000502
2440.000000	0.000463
2439.000000	0.000410
2438.000000	0.000378
2437.000000	0.000380
2436.000000	0.000401
2435.000000	0.000421
2434.000000	0.000435
2433.000000	0.000446
2432.000000	0.000456
2431.000000	0.000469
2430.000000	0.000492
2429.000000	0.000524
2428.000000	0.000553
2427.000000	0.000564
2426.000000	0.000552
2425.000000	0.000517
2424.000000	0.000471
2423.000000	0.000427
2422.000000	0.000401
2421.000000	0.000395
2420.000000	0.000400
2419.000000	0.000405
2418.000000	0.000412
2417.000000	0.000427
2416.000000	0.000450
2415.000000	0.000469
2414.000000	0.000467
2413.000000	0.000443
2412.000000	0.000414
2411.000000	0.000405
2410.000000	0.000425
2409.000000	0.000457
2408.000000	0.000473
2407.000000	0.000461
2406.000000	0.000439
2405.000000	0.000432
2404.000000	0.000448
2403.000000	0.000480
2402.000000	0.000515
2401.000000	0.000541
2400.000000	0.000553
2399.000000	0.000553
2398.000000	0.000550
2397.000000	0.000550
2396.000000	0.000550
2395.000000	0.000544
2394.000000	0.000526
2393.000000	0.000502
2392.000000	0.000485
2391.000000	0.000486
2390.000000	0.000504
2389.000000	0.000529
2388.000000	0.000545
2387.000000	0.000539
2386.000000	0.000511
2385.000000	0.000474
2384.000000	0.000445
2383.000000	0.000430
2382.000000	0.000421
2381.000000	0.000403
2380.000000	0.000373
2379.000000	0.000344
2378.000000	0.000326
2377.000000	0.000314
2376.000000	0.000294
2375.000000	0.000268
2374.000000	0.000258
2373.000000	0.000286
2372.000000	0.000355
2371.000000	0.000442
2370.000000	0.000507
2369.000000	0.000515
2368.000000	0.000461
2367.000000	0.000380
2366.000000	0.000319
2365.000000	0.000301
2364.000000	0.000317
2363.000000	0.000355
2362.000000	0.000402
2361.000000	0.000426
2360.000000	0.000410
2359.000000	0.000363
2358.000000	0.000317
2357.000000	0.000289
2356.000000	0.000269
2355.000000	0.000265
2354.000000	0.000293
2353.000000	0.000341
2352.000000	0.000367
2351.000000	0.000356
2350.000000	0.000341
2349.000000	0.000340
2348.000000	0.000355
2347.000000	0.000366
2346.000000	0.000361
2345.000000	0.000346
2344.000000	0.000332
2343.000000	0.000334
2342.000000	0.000334
2341.000000	0.000322
2340.000000	0.000308
2339.000000	0.000302
2338.000000	0.000299
2337.000000	0.000296
2336.000000	0.000304
2335.000000	0.000324
2334.000000	0.000348
2333.000000	0.000354
2332.000000	0.000345
2331.000000	0.000334
2330.000000	0.000347
2329.000000	0.000368
2328.000000	0.000383
2327.000000	0.000377
2326.000000	0.000363
2325.000000	0.000355
2324.000000	0.000358
2323.000000	0.000373
2322.000000	0.000397
2321.000000	0.000425
2320.000000	0.000443
2319.000000	0.000434
2318.000000	0.000404
2317.000000	0.000367
2316.000000	0.000345
2315.000000	0.000338
2314.000000	0.000345
2313.000000	0.000355
2312.000000	0.000374
2311.000000	0.000399
2310.000000	0.000429
2309.000000	0.000447
2308.000000	0.000442
2307.000000	0.000414
2306.000000	0.000382
2305.000000	0.000361
2304.000000	0.000355
2303.000000	0.000363
2302.000000	0.000398
2301.000000	0.000463
2300.000000	0.000548
2299.000000	0.000616
2298.000000	0.000635
2297.000000	0.000607
2296.000000	0.000566
2295.000000	0.000547
2294.000000	0.000566
2293.000000	0.000607
2292.000000	0.000644
2291.000000	0.000656
2290.000000	0.000634
2289.000000	0.000585
2288.000000	0.000529
2287.000000	0.000484
2286.000000	0.000462
2285.000000	0.000457
2284.000000	0.000451
2283.000000	0.000433
2282.000000	0.000402
2281.000000	0.000378
2280.000000	0.000381
2279.000000	0.000416
2278.000000	0.000464
2277.000000	0.000496
2276.000000	0.000495
2275.000000	0.000460
2274.000000	0.000410
2273.000000	0.000369
2272.000000	0.000355
2271.000000	0.000378
2270.000000	0.000435
2269.000000	0.000509
2268.000000	0.000589
2267.000000	0.000662
2266.000000	0.000710
2265.000000	0.000708
2264.000000	0.000645
2263.000000	0.000541
2262.000000	0.000433
2261.000000	0.000348
2260.000000	0.000300
2259.000000	0.000303
2258.000000	0.000361
2257.000000	0.000457
2256.000000	0.000547
2255.000000	0.000601
2254.000000	0.000621
2253.000000	0.000625
2252.000000	0.000622
2251.000000	0.000606
2250.000000	0.000579
2249.000000	0.000545
2248.000000	0.000508
2247.000000	0.000466
2246.000000	0.000428
2245.000000	0.000415
2244.000000	0.000448
2243.000000	0.000513
2242.000000	0.000565
2241.000000	0.000557
2240.000000	0.000489
2239.000000	0.000417
2238.000000	0.000406
2237.000000	0.000466
2236.000000	0.000548
2235.000000	0.000590
2234.000000	0.000568
2233.000000	0.000507
2232.000000	0.000456
2231.000000	0.000463
2230.000000	0.000541
2229.000000	0.000654
2228.000000	0.000737
2227.000000	0.000755
2226.000000	0.000724
2225.000000	0.000681
2224.000000	0.000637
2223.000000	0.000581
2222.000000	0.000509
2221.000000	0.000440
2220.000000	0.000397
2219.000000	0.000387
2218.000000	0.000403
2217.000000	0.000434
2216.000000	0.000476
2215.000000	0.000540
2214.000000	0.000638
2213.000000	0.000747
2212.000000	0.000804
2211.000000	0.000759
2210.000000	0.000636
2209.000000	0.000524
2208.000000	0.000506
2207.000000	0.000579
2206.000000	0.000659
2205.000000	0.000648
2204.000000	0.000520
2203.000000	0.000337
2202.000000	0.000191
2201.000000	0.000126
2200.000000	0.000119
2199.000000	0.000129
2198.000000	0.000146
2197.000000	0.000186
2196.000000	0.000251
2195.000000	0.000323
2194.000000	0.000387
2193.000000	0.000434
2192.000000	0.000447
2191.000000	0.000425
2190.000000	0.000402
2189.000000	0.000445
2188.000000	0.000582
2187.000000	0.000763
2186.000000	0.000878
2185.000000	0.000839
2184.000000	0.000642
2183.000000	0.000375
2182.000000	0.000159
2181.000000	0.000075
2180.000000	0.000111
2179.000000	0.000195
2178.000000	0.000262
2177.000000	0.000289
2176.000000	0.000283
2175.000000	0.000261
2174.000000	0.000245
2173.000000	0.000262
2172.000000	0.000314
2171.000000	0.000376
2170.000000	0.000412
2169.000000	0.000419
2168.000000	0.000427
2167.000000	0.000469
2166.000000	0.000555
2165.000000	0.000650
2164.000000	0.000694
2163.000000	0.000624
2162.000000	0.000433
2161.000000	0.000203
2160.000000	0.000072
2159.000000	0.000133
2158.000000	0.000350
2157.000000	0.000595
2156.000000	0.000743
2155.000000	0.000730
2154.000000	0.000580
2153.000000	0.000405
2152.000000	0.000341
2151.000000	0.000424
2150.000000	0.000546
2149.000000	0.000577
2148.000000	0.000507
2147.000000	0.000430
2146.000000	0.000398
2145.000000	0.000369
2144.000000	0.000300
2143.000000	0.000228
2142.000000	0.000208
2141.000000	0.000223
2140.000000	0.000206
2139.000000	0.000143
2138.000000	0.000084
2137.000000	0.000069
2136.000000	0.000080
2135.000000	0.000083
2134.000000	0.000073
2133.000000	0.000056
2132.000000	0.000039
2131.000000	0.000033
2130.000000	0.000061
2129.000000	0.000124
2128.000000	0.000192
2127.000000	0.000227
2126.000000	0.000222
2125.000000	0.000195
2124.000000	0.000172
2123.000000	0.000170
2122.000000	0.000197
2121.000000	0.000255
2120.000000	0.000339
2119.000000	0.000448
2118.000000	0.000568
2117.000000	0.000664
2116.000000	0.000696
2115.000000	0.000658
2114.000000	0.000593
2113.000000	0.000561
2112.000000	0.000587
2111.000000	0.000643
2110.000000	0.000690
2109.000000	0.000707
2108.000000	0.000704
2107.000000	0.000696
2106.000000	0.000694
2105.000000	0.000692
2104.000000	0.000675
2103.000000	0.000637
2102.000000	0.000585
2101.000000	0.000526
2100.000000	0.000461
2099.000000	0.000395
2098.000000	0.000355
2097.000000	0.000374
2096.000000	0.000455
2095.000000	0.000561
2094.000000	0.000638
2093.000000	0.000659
2092.000000	0.000641
2091.000000	0.000620
2090.000000	0.000622
2089.000000	0.000646
2088.000000	0.000681
2087.000000	0.000719
2086.000000	0.000745
2085.000000	0.000723
2084.000000	0.000634
2083.000000	0.000508
2082.000000	0.000417
2081.000000	0.000398
2080.000000	0.000414
2079.000000	0.000406
2078.000000	0.000367
2077.000000	0.000341
2076.000000	0.000355
2075.000000	0.000381
2074.000000	0.000373
2073.000000	0.000317
2072.000000	0.000243
2071.000000	0.000206
2070.000000	0.000254
2069.000000	0.000388
2068.000000	0.000555
2067.000000	0.000694
2066.000000	0.000780
2065.000000	0.000827
2064.000000	0.000847
2063.000000	0.000832
2062.000000	0.000775
2061.000000	0.000691
2060.000000	0.000602
2059.000000	0.000525
2058.000000	0.000470
2057.000000	0.000425
2056.000000	0.000360
2055.000000	0.000271
2054.000000	0.000215
2053.000000	0.000263
2052.000000	0.000411
2051.000000	0.000583
2050.000000	0.000706
2049.000000	0.000762
2048.000000	0.000746
2047.000000	0.000629
2046.000000	0.000410
2045.000000	0.000163
2044.000000	-0.000014
2043.000000	-0.000083
2042.000000	-0.000047
2041.000000	0.000106
2040.000000	0.000364
2039.000000	0.000607
2038.000000	0.000667
2037.000000	0.000491
2036.000000	0.000209
2035.000000	-0.000004
2034.000000	-0.000080
2033.000000	-0.000050
2032.000000	0.000049
2031.000000	0.000194
2030.000000	0.000322
2029.000000	0.000346
2028.000000	0.000235
2027.000000	0.000050
2026.000000	-0.000090
2025.000000	-0.000103
2024.000000	-0.000012
2023.000000	0.000059
2022.000000	-0.000011
2021.000000	-0.000204
2020.000000	-0.000367
2019.000000	-0.000368
2018.000000	-0.000248
2017.000000	-0.000156
2016.000000	-0.000161
2015.000000	-0.000181
2014.000000	-0.000122
2013.000000	-0.000002
2012.000000	0.000099
2011.000000	0.000167
2010.000000	0.000262
2009.000000	0.000412
2008.000000	0.000564
2007.000000	0.000649
2006.000000	0.000654
2005.000000	0.000581
2004.000000	0.000411
2003.000000	0.000145
2002.000000	-0.000142
2001.000000	-0.000334
2000.000000	-0.000363
1999.000000	-0.000258
1998.000000	-0.000091
1997.000000	0.000095
1996.000000	0.000281
1995.000000	0.000457
1994.000000	0.000622
1993.000000	0.000784
1992.000000	0.000937
1991.000000	0.001024
1990.000000	0.000969
1989.000000	0.000770
1988.000000	0.000532
1987.000000	0.000382
1986.000000	0.000346
1985.000000	0.000339
1984.000000	0.000278
1983.000000	0.000184
1982.000000	0.000134
1981.000000	0.000168
1980.000000	0.000257
1979.000000	0.000365
1978.000000	0.000485
1977.000000	0.000591
1976.000000	0.000623
1975.000000	0.000541
1974.000000	0.000385
1973.000000	0.000233
1972.000000	0.000127
1971.000000	0.000046
1970.000000	-0.000044
1969.000000	-0.000150
1968.000000	-0.000234
1967.000000	-0.000245
1966.000000	-0.000154
1965.000000	0.000004
1964.000000	0.000144
1963.000000	0.000190
1962.000000	0.000148
1961.000000	0.000104
1960.000000	0.000154
1959.000000	0.000318
1958.000000	0.000513
1957.000000	0.000616
1956.000000	0.000577
1955.000000	0.000473
1954.000000	0.000433
1953.000000	0.000512
1952.000000	0.000633
1951.000000	0.000681
1950.000000	0.000628
1949.000000	0.000540
1948.000000	0.000486
1947.000000	0.000478
1946.000000	0.000490
1945.000000	0.000506
1944.000000	0.000511
1943.000000	0.000484
1942.000000	0.000425
1941.000000	0.000378
1940.000000	0.000392
1939.000000	0.000462
1938.000000	0.000526
1937.000000	0.000518
1936.000000	0.000433
1935.000000	0.000328
1934.000000	0.000264
1933.000000	0.000258
1932.000000	0.000282
1931.000000	0.000309
1930.000000	0.000338
1929.000000	0.000369
1928.000000	0.000377
1927.000000	0.000330
1926.000000	0.000242
1925.000000	0.000163
1924.000000	0.000133
1923.000000	0.000147
1922.000000	0.000179
1921.000000	0.000226
1920.000000	0.000298
1919.000000	0.000368
1918.000000	0.000386
1917.000000	0.000345
1916.000000	0.000300
1915.000000	0.000301
1914.000000	0.000338
1913.000000	0.000369
1912.000000	0.000369
1911.000000	0.000354
1910.000000	0.000341
1909.000000	0.000336
1908.000000	0.000331
1907.000000	0.000316
1906.000000	0.000280
1905.000000	0.000222
1904.000000	0.000168
1903.000000	0.000148
1902.000000	0.000171
1901.000000	0.000219
1900.000000	0.000273
1899.000000	0.000325
1898.000000	0.000371
1897.000000	0.000401
1896.000000	0.000393
1895.000000	0.000339
1894.000000	0.000255
1893.000000	0.000177
1892.000000	0.000138
1891.000000	0.000140
1890.000000	0.000157
1889.000000	0.000165
1888.000000	0.000164
1887.000000	0.000159
1886.000000	0.000149
1885.000000	0.000129
1884.000000	0.000107
1883.000000	0.000095
1882.000000	0.000096
1881.000000	0.000112
1880.000000	0.000153
1879.000000	0.000218
1878.000000	0.000283
1877.000000	0.000316
1876.000000	0.000315
1875.000000	0.000306
1874.000000	0.000304
1873.000000	0.000298
1872.000000	0.000276
1871.000000	0.000239
1870.000000	0.000192
1869.000000	0.000133
1868.000000	0.000071
1867.000000	0.000023
1866.000000	-0.000002
1865.000000	-0.000004
1864.000000	0.000021
1863.000000	0.000069
1862.000000	0.000125
1861.000000	0.000161
1860.000000	0.000158
1859.000000	0.000122
1858.000000	0.000083
1857.000000	0.000075
1856.000000	0.000116
1855.000000	0.000190
1854.000000	0.000258
1853.000000	0.000288
1852.000000	0.000281
1851.000000	0.000253
1850.000000	0.000211
1849.000000	0.000156
1848.000000	0.000100
1847.000000	0.000065
1846.000000	0.000063
1845.000000	0.000086
1844.000000	0.000121
1843.000000	0.000157
1842.000000	0.000180
1841.000000	0.000176
1840.000000	0.000151
1839.000000	0.000128
1838.000000	0.000119
1837.000000	0.000118
1836.000000	0.000111
1835.000000	0.000101
1834.000000	0.000098
1833.000000	0.000104
1832.000000	0.000111
1831.000000	0.000112
1830.000000	0.000112
1829.000000	0.000117
1828.000000	0.000130
1827.000000	0.000152
1826.000000	0.000184
1825.000000	0.000209
1824.000000	0.000208
1823.000000	0.000194
1822.000000	0.000190
1821.000000	0.000206
1820.000000	0.000226
1819.000000	0.000236
1818.000000	0.000236
1817.000000	0.000227
1816.000000	0.000213
1815.000000	0.000203
1814.000000	0.000200
1813.000000	0.000189
1812.000000	0.000161
1811.000000	0.000135
1810.000000	0.000142
1809.000000	0.000174
1808.000000	0.000196
1807.000000	0.000188
1806.000000	0.000161
1805.000000	0.000137
1804.000000	0.000126
1803.000000	0.000124
1802.000000	0.000126
1801.000000	0.000130
1800.000000	0.000136
1799.000000	0.000145
1798.000000	0.000151
1797.000000	0.000145
1796.000000	0.000130
1795.000000	0.000115
1794.000000	0.000108
1793.000000	0.000106
1792.000000	0.000109
1791.000000	0.000131
1790.000000	0.000163
1789.000000	0.000181
1788.000000	0.000175
1787.000000	0.000156
1786.000000	0.000141
1785.000000	0.000129
1784.000000	0.000104
1783.000000	0.000066
1782.000000	0.000034
1781.000000	0.000032
1780.000000	0.000059
1779.000000	0.000092
1778.000000	0.000105
1777.000000	0.000084
1776.000000	0.000034
1775.000000	-0.000023
1774.000000	-0.000052
1773.000000	-0.000034
1772.000000	0.000006
1771.000000	0.000034
1770.000000	0.000045
1769.000000	0.000053
1768.000000	0.000062
1767.000000	0.000059
1766.000000	0.000043
1765.000000	0.000024
1764.000000	0.000013
1763.000000	0.000007
1762.000000	0.000007
1761.000000	0.000016
1760.000000	0.000032
1759.000000	0.000045
1758.000000	0.000053
1757.000000	0.000064
1756.000000	0.000080
1755.000000	0.000095
1754.000000	0.000112
1753.000000	0.000138
1752.000000	0.000168
1751.000000	0.000177
1750.000000	0.000160
1749.000000	0.000133
1748.000000	0.000110
1747.000000	0.000092
1746.000000	0.000088
1745.000000	0.000102
1744.000000	0.000124
1743.000000	0.000136
1742.000000	0.000136
1741.000000	0.000132
1740.000000	0.000123
1739.000000	0.000095
1738.000000	0.000047
1737.000000	-0.000009
1736.000000	-0.000053
1735.000000	-0.000078
1734.000000	-0.000089
1733.000000	-0.000076
1732.000000	-0.000050
1731.000000	-0.000033
1730.000000	-0.000030
1729.000000	-0.000035
1728.000000	-0.000043
1727.000000	-0.000051
1726.000000	-0.000060
1725.000000	-0.000071
1724.000000	-0.000091
1723.000000	-0.000120
1722.000000	-0.000147
1721.000000	-0.000162
1720.000000	-0.000151
1719.000000	-0.000115
1718.000000	-0.000070
1717.000000	-0.000051
1716.000000	-0.000064
1715.000000	-0.000077
1714.000000	-0.000065
1713.000000	-0.000024
1712.000000	0.000029
1711.000000	0.000071
1710.000000	0.000088
1709.000000	0.000084
1708.000000	0.000077
1707.000000	0.000084
1706.000000	0.000109
1705.000000	0.000144
1704.000000	0.000179
1703.000000	0.000227
1702.000000	0.000321
1701.000000	0.000456
1700.000000	0.000542
1699.000000	0.000557
1698.000000	0.000548
1697.000000	0.000570
1696.000000	0.000651
1695.000000	0.000765
1694.000000	0.000856
1693.000000	0.000907
1692.000000	0.000944
1691.000000	0.000987
1690.000000	0.001038
1689.000000	0.001085
1688.000000	0.001121
1687.000000	0.001152
1686.000000	0.001199
1685.000000	0.001261
1684.000000	0.001323
1683.000000	0.001394
1682.000000	0.001462
1681.000000	0.001531
1680.000000	0.001612
1679.000000	0.001699
1678.000000	0.001788
1677.000000	0.001889
1676.000000	0.002001
1675.000000	0.002099
1674.000000	0.002174
1673.000000	0.002248
1672.000000	0.002339
1671.000000	0.002439
1670.000000	0.002526
1669.000000	0.002596
1668.000000	0.002663
1667.000000	0.002729
1666.000000	0.002799
1665.000000	0.002882
1664.000000	0.002971
1663.000000	0.003049
1662.000000	0.003118
1661.000000	0.003201
1660.000000	0.003295
1659.000000	0.003372
1658.000000	0.003412
1657.000000	0.003430
1656.000000	0.003457
1655.000000	0.003511
1654.000000	0.003552
1653.000000	0.003544
1652.000000	0.003565
1651.000000	0.003617
1650.000000	0.003675
1649.000000	0.003722
1648.000000	0.003751
1647.000000	0.003765
1646.000000	0.003788
1645.000000	0.003828
1644.000000	0.003876
1643.000000	0.003920
1642.000000	0.003946
1641.000000	0.003955
1640.000000	0.003967
1639.000000	0.003999
1638.000000	0.004033
1637.000000	0.004034
1636.000000	0.003990
1635.000000	0.003953
1634.000000	0.003954
1633.000000	0.003970
1632.000000	0.003977
1631.000000	0.003966
1630.000000	0.003933
1629.000000	0.003877
1628.000000	0.003811
1627.000000	0.003749
1626.000000	0.003693
1625.000000	0.003634
1624.000000	0.003555
1623.000000	0.003456
1622.000000	0.003360
1621.000000	0.003284
1620.000000	0.003223
1619.000000	0.003161
1618.000000	0.003074
1617.000000	0.002954
1616.000000	0.002840
1615.000000	0.002768
1614.000000	0.002725
1613.000000	0.002685
1612.000000	0.002633
1611.000000	0.002554
1610.000000	0.002450
1609.000000	0.002344
1608.000000	0.002264
1607.000000	0.002212
1606.000000	0.002170
1605.000000	0.002117
1604.000000	0.002051
1603.000000	0.001976
1602.000000	0.001908
1601.000000	0.001862
1600.000000	0.001843
1599.000000	0.001838
1598.000000	0.001829
1597.000000	0.001806
1596.000000	0.001781
1595.000000	0.001769
1594.000000	0.001770
1593.000000	0.001765
1592.000000	0.001747
1591.000000	0.001731
1590.000000	0.001732
1589.000000	0.001753
1588.000000	0.001784
1587.000000	0.001811
1586.000000	0.001829
1585.000000	0.001839
1584.000000	0.001842
1583.000000	0.001836
1582.000000	0.001829
1581.000000	0.001828
1580.000000	0.001833
1579.000000	0.001835
1578.000000	0.001837
1577.000000	0.001849
1576.000000	0.001884
1575.000000	0.001942
1574.000000	0.002005
1573.000000	0.002065
1572.000000	0.002121
1571.000000	0.002170
1570.000000	0.002210
1569.000000	0.002258
1568.000000	0.002318
1567.000000	0.002375
1566.000000	0.002428
1565.000000	0.002485
1564.000000	0.002542
1563.000000	0.002590
1562.000000	0.002637
1561.000000	0.002713
1560.000000	0.002792
1559.000000	0.002787
1558.000000	0.002790
1557.000000	0.002851
1556.000000	0.002929
1555.000000	0.002998
1554.000000	0.003052
1553.000000	0.003104
1552.000000	0.003161
1551.000000	0.003210
1550.000000	0.003237
1549.000000	0.003251
1548.000000	0.003265
1547.000000	0.003285
1546.000000	0.003301
1545.000000	0.003304
1544.000000	0.003307
1543.000000	0.003333
1542.000000	0.003373
1541.000000	0.003376
1540.000000	0.003318
1539.000000	0.003254
1538.000000	0.003222
1537.000000	0.003223
1536.000000	0.003246
1535.000000	0.003267
1534.000000	0.003262
1533.000000	0.003230
1532.000000	0.003205
1531.000000	0.003199
1530.000000	0.003203
1529.000000	0.003195
1528.000000	0.003165
1527.000000	0.003121
1526.000000	0.003079
1525.000000	0.003046
1524.000000	0.003009
1523.000000	0.002951
1522.000000	0.002865
1521.000000	0.002779
1520.000000	0.002738
1519.000000	0.002731
1518.000000	0.002722
1517.000000	0.002693
1516.000000	0.002660
1515.000000	0.002646
1514.000000	0.002645
1513.000000	0.002627
1512.000000	0.002569
1511.000000	0.002484
1510.000000	0.002408
1509.000000	0.002354
1508.000000	0.002299
1507.000000	0.002228
1506.000000	0.002184
1505.000000	0.002164
1504.000000	0.002150
1503.000000	0.002146
1502.000000	0.002147
1501.000000	0.002142
1500.000000	0.002115
1499.000000	0.002059
1498.000000	0.001983
1497.000000	0.001901
1496.000000	0.001824
1495.000000	0.001762
1494.000000	0.001718
1493.000000	0.001680
1492.000000	0.001637
1491.000000	0.001583
1490.000000	0.001532
1489.000000	0.001503
1488.000000	0.001492
1487.000000	0.001480
1486.000000	0.001459
1485.000000	0.001440
1484.000000	0.001434
1483.000000	0.001438
1482.000000	0.001436
1481.000000	0.001426
1480.000000	0.001419
1479.000000	0.001426
1478.000000	0.001445
1477.000000	0.001467
1476.000000	0.001488
1475.000000	0.001515
1474.000000	0.001549
1473.000000	0.001590
1472.000000	0.001644
1471.000000	0.001708
1470.000000	0.001765
1469.000000	0.001797
1468.000000	0.001806
1467.000000	0.001811
1466.000000	0.001834
1465.000000	0.001881
1464.000000	0.001935
1463.000000	0.001966
1462.000000	0.001968
1461.000000	0.001952
1460.000000	0.001932
1459.000000	0.001920
1458.000000	0.001925
1457.000000	0.001958
1456.000000	0.002017
1455.000000	0.002072
1454.000000	0.002112
1453.000000	0.002140
1452.000000	0.002161
1451.000000	0.002182
1450.000000	0.002207
1449.000000	0.002219
1448.000000	0.002205
1447.000000	0.002184
1446.000000	0.002185
1445.000000	0.002207
1444.000000	0.002224
1443.000000	0.002214
1442.000000	0.002179
1441.000000	0.002138
1440.000000	0.002104
1439.000000	0.002086
1438.000000	0.002081
1437.000000	0.002067
1436.000000	0.002024
1435.000000	0.001968
1434.000000	0.001927
1433.000000	0.001906
1432.000000	0.001890
1431.000000	0.001868
1430.000000	0.001844
1429.000000	0.001829
1428.000000	0.001821
1427.000000	0.001809
1426.000000	0.001790
1425.000000	0.001766
1424.000000	0.001741
1423.000000	0.001720
1422.000000	0.001717
1421.000000	0.001734
1420.000000	0.001748
1419.000000	0.001733
1418.000000	0.001716
1417.000000	0.001729
1416.000000	0.001754
1415.000000	0.001767
1414.000000	0.001761
1413.000000	0.001747
1412.000000	0.001743
1411.000000	0.001754
1410.000000	0.001779
1409.000000	0.001805
1408.000000	0.001825
1407.000000	0.001842
1406.000000	0.001868
1405.000000	0.001910
1404.000000	0.001954
1403.000000	0.001979
1402.000000	0.001982
1401.000000	0.001968
1400.000000	0.001939
1399.000000	0.001906
1398.000000	0.001888
1397.000000	0.001894
1396.000000	0.001908
1395.000000	0.001913
1394.000000	0.001908
1393.000000	0.001907
1392.000000	0.001904
1391.000000	0.001889
1390.000000	0.001856
1389.000000	0.001806
1388.000000	0.001750
1387.000000	0.001708
1386.000000	0.001697
1385.000000	0.001708
1384.000000	0.001715
1383.000000	0.001704
1382.000000	0.001682
1381.000000	0.001663
1380.000000	0.001647
1379.000000	0.001624
1378.000000	0.001588
1377.000000	0.001544
1376.000000	0.001502
1375.000000	0.001464
1374.000000	0.001435
1373.000000	0.001421
1372.000000	0.001421
1371.000000	0.001423
1370.000000	0.001410
1369.000000	0.001378
1368.000000	0.001339
1367.000000	0.001307
1366.000000	0.001290
1365.000000	0.001282
1364.000000	0.001268
1363.000000	0.001246
1362.000000	0.001226
1361.000000	0.001217
1360.000000	0.001210
1359.000000	0.001200
1358.000000	0.001189
1357.000000	0.001183
1356.000000	0.001182
1355.000000	0.001185
1354.000000	0.001193
1353.000000	0.001207
1352.000000	0.001226
1351.000000	0.001246
1350.000000	0.001263
1349.000000	0.001283
1348.000000	0.001303
1347.000000	0.001317
1346.000000	0.001320
1345.000000	0.001322
1344.000000	0.001332
1343.000000	0.001352
1342.000000	0.001377
1341.000000	0.001405
1340.000000	0.001434
1339.000000	0.001457
1338.000000	0.001461
1337.000000	0.001452
1336.000000	0.001442
1335.000000	0.001440
1334.000000	0.001441
1333.000000	0.001441
1332.000000	0.001436
1331.000000	0.001422
1330.000000	0.001399
1329.000000	0.001367
1328.000000	0.001333
1327.000000	0.001303
1326.000000	0.001280
1325.000000	0.001268
1324.000000	0.001266
1323.000000	0.001272
1322.000000	0.001287
1321.000000	0.001306
1320.000000	0.001315
1319.000000	0.001304
1318.000000	0.001277
1317.000000	0.001256
1316.000000	0.001253
1315.000000	0.001269
1314.000000	0.001296
1313.000000	0.001325
1312.000000	0.001337
1311.000000	0.001317
1310.000000	0.001267
1309.000000	0.001217
1308.000000	0.001193
1307.000000	0.001193
1306.000000	0.001193
1305.000000	0.001181
1304.000000	0.001159
1303.000000	0.001134
1302.000000	0.001111
1301.000000	0.001095
1300.000000	0.001091
1299.000000	0.001094
1298.000000	0.001091
1297.000000	0.001079
1296.000000	0.001065
1295.000000	0.001060
1294.000000	0.001061
1293.000000	0.001063
1292.000000	0.001063
1291.000000	0.001064
1290.000000	0.001071
1289.000000	0.001092
1288.000000	0.001130
1287.000000	0.001179
1286.000000	0.001226
1285.000000	0.001262
1284.000000	0.001287
1283.000000	0.001302
1282.000000	0.001304
1281.000000	0.001294
1280.000000	0.001281
1279.000000	0.001271
1278.000000	0.001264
1277.000000	0.001251
1276.000000	0.001233
1275.000000	0.001216
1274.000000	0.001210
1273.000000	0.001217
1272.000000	0.001233
1271.000000	0.001254
1270.000000	0.001271
1269.000000	0.001282
1268.000000	0.001285
1267.000000	0.001283
1266.000000	0.001283
1265.000000	0.001290
1264.000000	0.001307
1263.000000	0.001329
1262.000000	0.001349
1261.000000	0.001359
1260.000000	0.001357
1259.000000	0.001348
1258.000000	0.001346
1257.000000	0.001367
1256.000000	0.001413
1255.000000	0.001475
1254.000000	0.001535
1253.000000	0.001579
1252.000000	0.001602
1251.000000	0.001607
1250.000000	0.001602
1249.000000	0.001597
1248.000000	0.001600
1247.000000	0.001615
1246.000000	0.001639
1245.000000	0.001670
1244.000000	0.001703
1243.000000	0.001733
1242.000000	0.001763
1241.000000	0.001801
1240.000000	0.001850
1239.000000	0.001892
1238.000000	0.001909
1237.000000	0.001898
1236.000000	0.001873
1235.000000	0.001853
1234.000000	0.001844
1233.000000	0.001839
1232.000000	0.001828
1231.000000	0.001802
1230.000000	0.001761
1229.000000	0.001713
1228.000000	0.001673
1227.000000	0.001648
1226.000000	0.001631
1225.000000	0.001607
1224.000000	0.001561
1223.000000	0.001491
1222.000000	0.001412
1221.000000	0.001342
1220.000000	0.001292
1219.000000	0.001263
1218.000000	0.001251
1217.000000	0.001253
1216.000000	0.001259
1215.000000	0.001258
1214.000000	0.001243
1213.000000	0.001223
1212.000000	0.001212
1211.000000	0.001214
1210.000000	0.001223
1209.000000	0.001233
1208.000000	0.001244
1207.000000	0.001256
1206.000000	0.001263
1205.000000	0.001260
1204.000000	0.001247
1203.000000	0.001229
1202.000000	0.001213
1201.000000	0.001200
1200.000000	0.001188
1199.000000	0.001174
1198.000000	0.001158
1197.000000	0.001146
1196.000000	0.001137
1195.000000	0.001123
1194.000000	0.001099
1193.000000	0.001065
1192.000000	0.001032
1191.000000	0.001001
1190.000000	0.000975
1189.000000	0.000953
1188.000000	0.000940
1187.000000	0.000925
1186.000000	0.000892
1185.000000	0.000835
1184.000000	0.000775
1183.000000	0.000736
1182.000000	0.000727
1181.000000	0.000739
1180.000000	0.000757
1179.000000	0.000776
1178.000000	0.000797
1177.000000	0.000820
1176.000000	0.000843
1175.000000	0.000857
1174.000000	0.000855
1173.000000	0.000837
1172.000000	0.000810
1171.000000	0.000783
1170.000000	0.000759
1169.000000	0.000743
1168.000000	0.000746
1167.000000	0.000774
1166.000000	0.000818
1165.000000	0.000859
1164.000000	0.000886
1163.000000	0.000902
1162.000000	0.000911
1161.000000	0.000911
1160.000000	0.000892
1159.000000	0.000856
1158.000000	0.000817
1157.000000	0.000793
1156.000000	0.000789
1155.000000	0.000791
1154.000000	0.000785
1153.000000	0.000767
1152.000000	0.000741
1151.000000	0.000711
1150.000000	0.000680
1149.000000	0.000656
1148.000000	0.000651
1147.000000	0.000661
1146.000000	0.000667
1145.000000	0.000658
1144.000000	0.000640
1143.000000	0.000622
1142.000000	0.000604
1141.000000	0.000585
1140.000000	0.000573
1139.000000	0.000572
1138.000000	0.000578
1137.000000	0.000579
1136.000000	0.000574
1135.000000	0.000569
1134.000000	0.000562
1133.000000	0.000552
1132.000000	0.000539
1131.000000	0.000527
1130.000000	0.000516
1129.000000	0.000511
1128.000000	0.000525
1127.000000	0.000567
1126.000000	0.000611
1125.000000	0.000616
1124.000000	0.000576
1123.000000	0.000526
1122.000000	0.000503
1121.000000	0.000508
1120.000000	0.000522
1119.000000	0.000540
1118.000000	0.000569
1117.000000	0.000598
1116.000000	0.000602
1115.000000	0.000569
1114.000000	0.000525
1113.000000	0.000501
1112.000000	0.000510
1111.000000	0.000535
1110.000000	0.000555
1109.000000	0.000561
1108.000000	0.000556
1107.000000	0.000551
1106.000000	0.000556
1105.000000	0.000572
1104.000000	0.000593
1103.000000	0.000612
1102.000000	0.000625
1101.000000	0.000640
1100.000000	0.000663
1099.000000	0.000684
1098.000000	0.000683
1097.000000	0.000653
1096.000000	0.000603
1095.000000	0.000559
1094.000000	0.000540
1093.000000	0.000554
1092.000000	0.000602
1091.000000	0.000666
1090.000000	0.000720
1089.000000	0.000744
1088.000000	0.000747
1087.000000	0.000759
1086.000000	0.000794
1085.000000	0.000845
1084.000000	0.000893
1083.000000	0.000929
1082.000000	0.000946
1081.000000	0.000938
1080.000000	0.000916
1079.000000	0.000900
1078.000000	0.000899
1077.000000	0.000900
1076.000000	0.000892
1075.000000	0.000888
1074.000000	0.000911
1073.000000	0.000958
1072.000000	0.000998
1071.000000	0.001003
1070.000000	0.000971
1069.000000	0.000920
1068.000000	0.000874
1067.000000	0.000843
1066.000000	0.000823
1065.000000	0.000804
1064.000000	0.000782
1063.000000	0.000765
1062.000000	0.000760
1061.000000	0.000761
1060.000000	0.000759
1059.000000	0.000755
1058.000000	0.000760
1057.000000	0.000777
1056.000000	0.000792
1055.000000	0.000785
1054.000000	0.000752
1053.000000	0.000710
1052.000000	0.000685
1051.000000	0.000686
1050.000000	0.000705
1049.000000	0.000716
1048.000000	0.000710
1047.000000	0.000698
1046.000000	0.000702
1045.000000	0.000729
1044.000000	0.000763
1043.000000	0.000775
1042.000000	0.000752
1041.000000	0.000707
1040.000000	0.000668
1039.000000	0.000663
1038.000000	0.000699
1037.000000	0.000762
1036.000000	0.000819
1035.000000	0.000846
1034.000000	0.000840
1033.000000	0.000818
1032.000000	0.000796
1031.000000	0.000789
1030.000000	0.000798
1029.000000	0.000817
1028.000000	0.000828
1027.000000	0.000813
1026.000000	0.000767
1025.000000	0.000708
1024.000000	0.000657
1023.000000	0.000629
1022.000000	0.000618
1021.000000	0.000614
1020.000000	0.000610
1019.000000	0.000605
1018.000000	0.000603
1017.000000	0.000606
1016.000000	0.000613
1015.000000	0.000618
1014.000000	0.000617
1013.000000	0.000609
1012.000000	0.000595
1011.000000	0.000577
1010.000000	0.000561
1009.000000	0.000553
1008.000000	0.000549
1007.000000	0.000536
1006.000000	0.000504
1005.000000	0.000465
1004.000000	0.000445
1003.000000	0.000452
1002.000000	0.000466
1001.000000	0.000455
1000.000000	0.000414
999.000000	0.000359
998.000000	0.000311
997.000000	0.000285
996.000000	0.000291
995.000000	0.000326
994.000000	0.000365
993.000000	0.000377
992.000000	0.000352
991.000000	0.000307
990.000000	0.000268
989.000000	0.000247
988.000000	0.000239
987.000000	0.000239
986.000000	0.000237
985.000000	0.000226
984.000000	0.000206
983.000000	0.000186
982.000000	0.000182
981.000000	0.000204
980.000000	0.000241
979.000000	0.000271
978.000000	0.000274
977.000000	0.000251
976.000000	0.000226
975.000000	0.000221
974.000000	0.000235
973.000000	0.000256
972.000000	0.000280
971.000000	0.000300
970.000000	0.000297
969.000000	0.000250
968.000000	0.000173
967.000000	0.000113
966.000000	0.000101
965.000000	0.000121
964.000000	0.000134
963.000000	0.000121
962.000000	0.000089
961.000000	0.000052
960.000000	0.000024
959.000000	0.000018
958.000000	0.000040
957.000000	0.000075
956.000000	0.000100
955.000000	0.000102
954.000000	0.000088
953.000000	0.000067
952.000000	0.000054
951.000000	0.000059
950.000000	0.000080
949.000000	0.000100
948.000000	0.000100
947.000000	0.000079
946.000000	0.000054
945.000000	0.000040
944.000000	0.000035
943.000000	0.000035
942.000000	0.000040
941.000000	0.000052
940.000000	0.000072
939.000000	0.000098
938.000000	0.000123
937.000000	0.000132
936.000000	0.000114
935.000000	0.000081
934.000000	0.000049
933.000000	0.000020
932.000000	-0.000009
931.000000	-0.000031
930.000000	-0.000030
929.000000	-0.000004
928.000000	0.000022
927.000000	0.000021
926.000000	-0.000014
925.000000	-0.000061
924.000000	-0.000095
923.000000	-0.000101
922.000000	-0.000088
921.000000	-0.000079
920.000000	-0.000086
919.000000	-0.000109
918.000000	-0.000132
917.000000	-0.000151
916.000000	-0.000169
915.000000	-0.000187
914.000000	-0.000201
913.000000	-0.000208
912.000000	-0.000215
911.000000	-0.000222
910.000000	-0.000222
909.000000	-0.000201
908.000000	-0.000161
907.000000	-0.000120
906.000000	-0.000102
905.000000	-0.000115
904.000000	-0.000143
903.000000	-0.000156
902.000000	-0.000145
901.000000	-0.000127
900.000000	-0.000128
899.000000	-0.000145
898.000000	-0.000160
897.000000	-0.000161
896.000000	-0.000159
895.000000	-0.000171
894.000000	-0.000195
893.000000	-0.000219
892.000000	-0.000231
891.000000	-0.000223
890.000000	-0.000194
889.000000	-0.000160
888.000000	-0.000143
887.000000	-0.000152
886.000000	-0.000171
885.000000	-0.000171
884.000000	-0.000137
883.000000	-0.000079
882.000000	-0.000022
881.000000	0.000013
880.000000	0.000019
879.000000	-0.000003
878.000000	-0.000035
877.000000	-0.000057
876.000000	-0.000056
875.000000	-0.000032
874.000000	-0.000004
873.000000	0.000013
872.000000	0.000017
871.000000	0.000011
870.000000	-0.000002
869.000000	-0.000027
868.000000	-0.000066
867.000000	-0.000111
866.000000	-0.000149
865.000000	-0.000176
864.000000	-0.000198
863.000000	-0.000216
862.000000	-0.000220
861.000000	-0.000207
860.000000	-0.000182
859.000000	-0.000162
858.000000	-0.000163
857.000000	-0.000188
856.000000	-0.000224
855.000000	-0.000246
854.000000	-0.000238
853.000000	-0.000201
852.000000	-0.000144
851.000000	-0.000071
850.000000	0.000013
849.000000	0.000081
848.000000	0.000089
847.000000	0.000029
846.000000	-0.000062
845.000000	-0.000133
844.000000	-0.000167
843.000000	-0.000180
842.000000	-0.000188
841.000000	-0.000192
840.000000	-0.000189
839.000000	-0.000183
838.000000	-0.000172
837.000000	-0.000151
836.000000	-0.000126
835.000000	-0.000119
834.000000	-0.000146
833.000000	-0.000195
832.000000	-0.000229
831.000000	-0.000229
830.000000	-0.000202
829.000000	-0.000178
828.000000	-0.000175
827.000000	-0.000190
826.000000	-0.000203
825.000000	-0.000205
824.000000	-0.000199
823.000000	-0.000191
822.000000	-0.000183
821.000000	-0.000178
820.000000	-0.000188
819.000000	-0.000217
818.000000	-0.000242
817.000000	-0.000229
816.000000	-0.000178
815.000000	-0.000133
814.000000	-0.000132
813.000000	-0.000158
812.000000	-0.000153
811.000000	-0.000096
810.000000	-0.000030
809.000000	-0.000009
808.000000	-0.000046
807.000000	-0.000105
806.000000	-0.000155
805.000000	-0.000186
804.000000	-0.000203
803.000000	-0.000207
802.000000	-0.000203
801.000000	-0.000202
800.000000	-0.000212
799.000000	-0.000220
798.000000	-0.000206
797.000000	-0.000170
796.000000	-0.000138
795.000000	-0.000140
794.000000	-0.000178
793.000000	-0.000216
792.000000	-0.000219
791.000000	-0.000188
790.000000	-0.000157
789.000000	-0.000149
788.000000	-0.000155
787.000000	-0.000154
786.000000	-0.000145
785.000000	-0.000145
784.000000	-0.000155
783.000000	-0.000165
782.000000	-0.000176
781.000000	-0.000192
780.000000	-0.000206
779.000000	-0.000197
778.000000	-0.000157
777.000000	-0.000100
776.000000	-0.000051
775.000000	-0.000025
774.000000	-0.000037
773.000000	-0.000087
772.000000	-0.000154
771.000000	-0.000203
770.000000	-0.000222
769.000000	-0.000231
768.000000	-0.000245
767.000000	-0.000249
766.000000	-0.000218
765.000000	-0.000156
764.000000	-0.000094
763.000000	-0.000060
762.000000	-0.000060
761.000000	-0.000084
760.000000	-0.000114
759.000000	-0.000125
758.000000	-0.000108
757.000000	-0.000077
756.000000	-0.000058
755.000000	-0.000063
754.000000	-0.000081
753.000000	-0.000098
752.000000	-0.000112
751.000000	-0.000124
750.000000	-0.000138
749.000000	-0.000154
748.000000	-0.000174
747.000000	-0.000196
746.000000	-0.000213
745.000000	-0.000219
744.000000	-0.000215
743.000000	-0.000205
742.000000	-0.000191
741.000000	-0.000171
740.000000	-0.000132
739.000000	-0.000066
738.000000	0.000011
737.000000	0.000069
736.000000	0.000085
735.000000	0.000060
734.000000	0.000009
733.000000	-0.000053
732.000000	-0.000099
731.000000	-0.000099
730.000000	-0.000048
729.000000	0.000022
728.000000	0.000075
727.000000	0.000115
726.000000	0.000167
725.000000	0.000224
724.000000	0.000249
723.000000	0.000221
722.000000	0.000168
721.000000	0.000130
720.000000	0.000124
719.000000	0.000141
718.000000	0.000168
717.000000	0.000194
716.000000	0.000212
715.000000	0.000223
714.000000	0.000237
713.000000	0.000248
712.000000	0.000234
711.000000	0.000183
710.000000	0.000118
709.000000	0.000089
708.000000	0.000124
707.000000	0.000204
706.000000	0.000282
705.000000	0.000312
704.000000	0.000283
703.000000	0.000216
702.000000	0.000158
701.000000	0.000142
700.000000	0.000161
699.000000	0.000172
698.000000	0.000139
697.000000	0.000078
696.000000	0.000035
695.000000	0.000034
694.000000	0.000045
693.000000	0.000024
692.000000	-0.000023
691.000000	-0.000050
690.000000	-0.000027
689.000000	0.000034
688.000000	0.000099
687.000000	0.000143
686.000000	0.000147
685.000000	0.000105
684.000000	0.000060
683.000000	0.000083
682.000000	0.000194
681.000000	0.000314
680.000000	0.000349
679.000000	0.000297
678.000000	0.000237
677.000000	0.000235
676.000000	0.000283
675.000000	0.000323
674.000000	0.000314
673.000000	0.000250
672.000000	0.000125
671.000000	-0.000081
670.000000	-0.000362
669.000000	-0.000640
668.000000	-0.000781
667.000000	-0.000633
666.000000	-0.000257
665.000000	0.000143
664.000000	0.000463
663.000000	0.000666
662.000000	0.000740
661.000000	0.000705
660.000000	0.000610
659.000000	0.000505
658.000000	0.000435
657.000000	0.000428
656.000000	0.000478
655.000000	0.000538
654.000000	0.000549
653.000000	0.000491
652.000000	0.000377
651.000000	0.000230
650.000000	0.000083
649.000000	-0.000023
648.000000	-0.000061
647.000000	-0.000031
646.000000	0.000043
645.000000	0.000129
644.000000	0.000200
643.000000	0.000239
642.000000	0.000231
641.000000	0.000168
640.000000	0.000062
639.000000	-0.000041
638.000000	-0.000078
637.000000	-0.000016
636.000000	0.000107
635.000000	0.000216
634.000000	0.000261
633.000000	0.000243
632.000000	0.000184
631.000000	0.000105
630.000000	0.000035
629.000000	0.000017
628.000000	0.000068
627.000000	0.000150
626.000000	0.000197
625.000000	0.000179
624.000000	0.000138
623.000000	0.000137
622.000000	0.000196
621.000000	0.000263
620.000000	0.000271
619.000000	0.000210
618.000000	0.000140
617.000000	0.000124
616.000000	0.000162
615.000000	0.000207
614.000000	0.000220
613.000000	0.000200
612.000000	0.000166
611.000000	0.000121
610.000000	0.000059
609.000000	-0.000015
608.000000	-0.000078
607.000000	-0.000109
606.000000	-0.000105
605.000000	-0.000080
604.000000	-0.000051
603.000000	-0.000020
602.000000	0.000028
601.000000	0.000089
600.000000	0.000141
599.000000	0.000175
598.000000	0.000212
597.000000	0.000275
596.000000	0.000346
595.000000	0.000371
594.000000	0.000319
593.000000	0.000200
592.000000	0.000044
591.000000	-0.000124
590.000000	-0.000273
589.000000	-0.000355
588.000000	-0.000343
587.000000	-0.000262
586.000000	-0.000174
585.000000	-0.000128
584.000000	-0.000127
583.000000	-0.000144
582.000000	-0.000144
581.000000	-0.000112
580.000000	-0.000056
579.000000	-0.000002
578.000000	0.000033
577.000000	0.000034
576.000000	-0.000022
575.000000	-0.000154
574.000000	-0.000318
573.000000	-0.000416
572.000000	-0.000373
571.000000	-0.000199
570.000000	0.000038
569.000000	0.000281
568.000000	0.000489
567.000000	0.000597
566.000000	0.000546
565.000000	0.000367
564.000000	0.000178
563.000000	0.000074
562.000000	0.000052
561.000000	0.000053
560.000000	0.000057
559.000000	0.000091
558.000000	0.000154
557.000000	0.000180
556.000000	0.000106
555.000000	-0.000046
554.000000	-0.000153
553.000000	-0.000099
552.000000	0.000115
551.000000	0.000357
550.000000	0.000470
549.000000	0.000409
548.000000	0.000255
547.000000	0.000102
546.000000	-0.000014
545.000000	-0.000097
544.000000	-0.000144
543.000000	-0.000150
542.000000	-0.000138
541.000000	-0.000127
540.000000	-0.000101
539.000000	-0.000048
538.000000	0.000010
537.000000	0.000056
536.000000	0.000135
535.000000	0.000290
534.000000	0.000460
533.000000	0.000507
532.000000	0.000385
531.000000	0.000214
530.000000	0.000137
529.000000	0.000168
528.000000	0.000222
527.000000	0.000237
526.000000	0.000219
525.000000	0.000173
524.000000	0.000076
523.000000	-0.000082
522.000000	-0.000276
521.000000	-0.000451
520.000000	-0.000538
519.000000	-0.000462
518.000000	-0.000207
517.000000	0.000121
516.000000	0.000342
515.000000	0.000330
514.000000	0.000082
513.000000	-0.000282
512.000000	-0.000570
511.000000	-0.000603
510.000000	-0.000353
509.000000	-0.000004
508.000000	0.000191
507.000000	0.000120
506.000000	-0.000110
505.000000	-0.000306
504.000000	-0.000343
503.000000	-0.000220
502.000000	-0.000041
501.000000	0.000051
500.000000	-0.000011
499.000000	-0.000192
498.000000	-0.000421
497.000000	-0.000660
496.000000	-0.000873
495.000000	-0.000966
494.000000	-0.000851
493.000000	-0.000558
492.000000	-0.000251
491.000000	-0.000091
490.000000	-0.000121
489.000000	-0.000271
488.000000	-0.000427
487.000000	-0.000482
486.000000	-0.000383
485.000000	-0.000143
484.000000	0.000193
483.000000	0.000543
482.000000	0.000743
481.000000	0.000618
480.000000	0.000168
479.000000	-0.000330
478.000000	-0.000512
477.000000	-0.000286
476.000000	0.000088
475.000000	0.000279
474.000000	0.000146
473.000000	-0.000223
472.000000	-0.000608
471.000000	-0.000795
470.000000	-0.000710
469.000000	-0.000460
468.000000	-0.000211
467.000000	-0.000020
466.000000	0.000135
465.000000	0.000176
464.000000	-0.000026
463.000000	-0.000386
462.000000	-0.000567
461.000000	-0.000372
460.000000	-0.000011
459.000000	0.000174
458.000000	0.000096
457.000000	-0.000075
456.000000	-0.000232
455.000000	-0.000404
454.000000	-0.000568
453.000000	-0.000635
452.000000	-0.000552
451.000000	-0.000281
450.000000	0.000204
