PE IR       SUBTECH     SPECTRUM    ASCII       PEDS        4.00        
   -1
3C-H10-F007_1.ASC
22/02/11
11:45:23.00
22/02/11
11:54:14.00
uco
Sample 007 By uco Date Friday, February 11 2022
450.000000
#HDR
-1
-1
#GR
cm-1
A
1.0
0.0
4000.000000
-1.000000
3551
8
0.005945
-0.001214
#DATA
4000.000000	-0.001063
3999.000000	-0.001090
3998.000000	-0.001121
3997.000000	-0.001144
3996.000000	-0.001150
3995.000000	-0.001139
3994.000000	-0.001118
3993.000000	-0.001094
3992.000000	-0.001072
3991.000000	-0.001049
3990.000000	-0.001025
3989.000000	-0.001004
3988.000000	-0.000993
3987.000000	-0.000994
3986.000000	-0.001005
3985.000000	-0.001018
3984.000000	-0.001029
3983.000000	-0.001039
3982.000000	-0.001049
3981.000000	-0.001059
3980.000000	-0.001067
3979.000000	-0.001070
3978.000000	-0.001070
3977.000000	-0.001069
3976.000000	-0.001068
3975.000000	-0.001065
3974.000000	-0.001059
3973.000000	-0.001052
3972.000000	-0.001049
3971.000000	-0.001051
3970.000000	-0.001053
3969.000000	-0.001051
3968.000000	-0.001044
3967.000000	-0.001037
3966.000000	-0.001037
3965.000000	-0.001045
3964.000000	-0.001053
3963.000000	-0.001051
3962.000000	-0.001035
3961.000000	-0.001010
3960.000000	-0.000989
3959.000000	-0.000977
3958.000000	-0.000977
3957.000000	-0.000987
3956.000000	-0.001003
3955.000000	-0.001024
3954.000000	-0.001045
3953.000000	-0.001060
3952.000000	-0.001064
3951.000000	-0.001060
3950.000000	-0.001054
3949.000000	-0.001052
3948.000000	-0.001054
3947.000000	-0.001048
3946.000000	-0.001028
3945.000000	-0.000993
3944.000000	-0.000953
3943.000000	-0.000925
3942.000000	-0.000918
3941.000000	-0.000930
3940.000000	-0.000947
3939.000000	-0.000956
3938.000000	-0.000955
3937.000000	-0.000950
3936.000000	-0.000951
3935.000000	-0.000961
3934.000000	-0.000972
3933.000000	-0.000974
3932.000000	-0.000964
3931.000000	-0.000949
3930.000000	-0.000941
3929.000000	-0.000944
3928.000000	-0.000953
3927.000000	-0.000955
3926.000000	-0.000943
3925.000000	-0.000923
3924.000000	-0.000909
3923.000000	-0.000907
3922.000000	-0.000915
3921.000000	-0.000921
3920.000000	-0.000920
3919.000000	-0.000910
3918.000000	-0.000899
3917.000000	-0.000893
3916.000000	-0.000897
3915.000000	-0.000908
3914.000000	-0.000923
3913.000000	-0.000935
3912.000000	-0.000945
3911.000000	-0.000956
3910.000000	-0.000968
3909.000000	-0.000977
3908.000000	-0.000976
3907.000000	-0.000961
3906.000000	-0.000939
3905.000000	-0.000924
3904.000000	-0.000927
3903.000000	-0.000946
3902.000000	-0.000966
3901.000000	-0.000977
3900.000000	-0.000976
3899.000000	-0.000970
3898.000000	-0.000965
3897.000000	-0.000958
3896.000000	-0.000945
3895.000000	-0.000921
3894.000000	-0.000891
3893.000000	-0.000864
3892.000000	-0.000851
3891.000000	-0.000851
3890.000000	-0.000850
3889.000000	-0.000843
3888.000000	-0.000842
3887.000000	-0.000860
3886.000000	-0.000897
3885.000000	-0.000928
3884.000000	-0.000929
3883.000000	-0.000895
3882.000000	-0.000852
3881.000000	-0.000830
3880.000000	-0.000844
3879.000000	-0.000879
3878.000000	-0.000909
3877.000000	-0.000922
3876.000000	-0.000928
3875.000000	-0.000937
3874.000000	-0.000954
3873.000000	-0.000969
3872.000000	-0.000970
3871.000000	-0.000957
3870.000000	-0.000945
3869.000000	-0.000944
3868.000000	-0.000953
3867.000000	-0.000966
3866.000000	-0.000976
3865.000000	-0.000978
3864.000000	-0.000971
3863.000000	-0.000963
3862.000000	-0.000965
3861.000000	-0.000978
3860.000000	-0.000994
3859.000000	-0.001002
3858.000000	-0.000999
3857.000000	-0.000991
3856.000000	-0.000982
3855.000000	-0.000981
3854.000000	-0.001007
3853.000000	-0.001053
3852.000000	-0.001078
3851.000000	-0.001062
3850.000000	-0.001025
3849.000000	-0.000988
3848.000000	-0.000958
3847.000000	-0.000937
3846.000000	-0.000927
3845.000000	-0.000930
3844.000000	-0.000943
3843.000000	-0.000955
3842.000000	-0.000956
3841.000000	-0.000949
3840.000000	-0.000939
3839.000000	-0.000933
3838.000000	-0.000931
3837.000000	-0.000926
3836.000000	-0.000912
3835.000000	-0.000890
3834.000000	-0.000868
3833.000000	-0.000857
3832.000000	-0.000865
3831.000000	-0.000890
3830.000000	-0.000918
3829.000000	-0.000934
3828.000000	-0.000935
3827.000000	-0.000932
3826.000000	-0.000934
3825.000000	-0.000936
3824.000000	-0.000928
3823.000000	-0.000907
3822.000000	-0.000888
3821.000000	-0.000895
3820.000000	-0.000930
3819.000000	-0.000974
3818.000000	-0.001011
3817.000000	-0.001037
3816.000000	-0.001053
3815.000000	-0.001061
3814.000000	-0.001055
3813.000000	-0.001039
3812.000000	-0.001024
3811.000000	-0.001018
3810.000000	-0.001019
3809.000000	-0.001018
3808.000000	-0.001002
3807.000000	-0.000974
3806.000000	-0.000948
3805.000000	-0.000937
3804.000000	-0.000945
3803.000000	-0.000962
3802.000000	-0.000978
3801.000000	-0.000990
3800.000000	-0.000994
3799.000000	-0.000986
3798.000000	-0.000968
3797.000000	-0.000942
3796.000000	-0.000912
3795.000000	-0.000880
3794.000000	-0.000854
3793.000000	-0.000840
3792.000000	-0.000845
3791.000000	-0.000866
3790.000000	-0.000892
3789.000000	-0.000909
3788.000000	-0.000909
3787.000000	-0.000894
3786.000000	-0.000875
3785.000000	-0.000865
3784.000000	-0.000871
3783.000000	-0.000887
3782.000000	-0.000903
3781.000000	-0.000911
3780.000000	-0.000915
3779.000000	-0.000921
3778.000000	-0.000928
3777.000000	-0.000926
3776.000000	-0.000909
3775.000000	-0.000879
3774.000000	-0.000847
3773.000000	-0.000822
3772.000000	-0.000809
3771.000000	-0.000815
3770.000000	-0.000841
3769.000000	-0.000885
3768.000000	-0.000930
3767.000000	-0.000963
3766.000000	-0.000981
3765.000000	-0.000992
3764.000000	-0.001002
3763.000000	-0.001011
3762.000000	-0.001015
3761.000000	-0.001011
3760.000000	-0.001000
3759.000000	-0.000985
3758.000000	-0.000969
3757.000000	-0.000957
3756.000000	-0.000963
3755.000000	-0.000993
3754.000000	-0.001041
3753.000000	-0.001083
3752.000000	-0.001097
3751.000000	-0.001081
3750.000000	-0.001054
3749.000000	-0.001032
3748.000000	-0.001014
3747.000000	-0.000989
3746.000000	-0.000949
3745.000000	-0.000907
3744.000000	-0.000893
3743.000000	-0.000908
3742.000000	-0.000931
3741.000000	-0.000962
3740.000000	-0.001006
3739.000000	-0.001058
3738.000000	-0.001104
3737.000000	-0.001129
3736.000000	-0.001131
3735.000000	-0.001124
3734.000000	-0.001116
3733.000000	-0.001107
3732.000000	-0.001091
3731.000000	-0.001068
3730.000000	-0.001041
3729.000000	-0.001019
3728.000000	-0.001005
3727.000000	-0.001003
3726.000000	-0.001010
3725.000000	-0.001023
3724.000000	-0.001036
3723.000000	-0.001045
3722.000000	-0.001051
3721.000000	-0.001057
3720.000000	-0.001064
3719.000000	-0.001068
3718.000000	-0.001066
3717.000000	-0.001058
3716.000000	-0.001048
3715.000000	-0.001040
3714.000000	-0.001033
3713.000000	-0.001024
3712.000000	-0.001014
3711.000000	-0.001007
3710.000000	-0.001006
3709.000000	-0.001014
3708.000000	-0.001029
3707.000000	-0.001046
3706.000000	-0.001063
3705.000000	-0.001076
3704.000000	-0.001087
3703.000000	-0.001097
3702.000000	-0.001107
3701.000000	-0.001114
3700.000000	-0.001114
3699.000000	-0.001105
3698.000000	-0.001093
3697.000000	-0.001084
3696.000000	-0.001078
3695.000000	-0.001076
3694.000000	-0.001070
3693.000000	-0.001059
3692.000000	-0.001048
3691.000000	-0.001048
3690.000000	-0.001068
3689.000000	-0.001102
3688.000000	-0.001127
3687.000000	-0.001125
3686.000000	-0.001099
3685.000000	-0.001064
3684.000000	-0.001035
3683.000000	-0.001014
3682.000000	-0.001001
3681.000000	-0.000999
3680.000000	-0.001019
3679.000000	-0.001063
3678.000000	-0.001115
3677.000000	-0.001147
3676.000000	-0.001143
3675.000000	-0.001121
3674.000000	-0.001100
3673.000000	-0.001082
3672.000000	-0.001057
3671.000000	-0.001019
3670.000000	-0.000983
3669.000000	-0.000970
3668.000000	-0.000981
3667.000000	-0.001003
3666.000000	-0.001025
3665.000000	-0.001043
3664.000000	-0.001052
3663.000000	-0.001052
3662.000000	-0.001045
3661.000000	-0.001034
3660.000000	-0.001021
3659.000000	-0.001007
3658.000000	-0.000993
3657.000000	-0.000987
3656.000000	-0.000994
3655.000000	-0.001007
3654.000000	-0.001010
3653.000000	-0.000996
3652.000000	-0.000974
3651.000000	-0.000960
3650.000000	-0.000968
3649.000000	-0.000986
3648.000000	-0.000992
3647.000000	-0.000980
3646.000000	-0.000964
3645.000000	-0.000958
3644.000000	-0.000965
3643.000000	-0.000978
3642.000000	-0.000985
3641.000000	-0.000980
3640.000000	-0.000962
3639.000000	-0.000940
3638.000000	-0.000921
3637.000000	-0.000907
3636.000000	-0.000891
3635.000000	-0.000873
3634.000000	-0.000861
3633.000000	-0.000867
3632.000000	-0.000891
3631.000000	-0.000922
3630.000000	-0.000940
3629.000000	-0.000937
3628.000000	-0.000917
3627.000000	-0.000895
3626.000000	-0.000884
3625.000000	-0.000892
3624.000000	-0.000914
3623.000000	-0.000936
3622.000000	-0.000946
3621.000000	-0.000939
3620.000000	-0.000918
3619.000000	-0.000891
3618.000000	-0.000863
3617.000000	-0.000836
3616.000000	-0.000809
3615.000000	-0.000789
3614.000000	-0.000783
3613.000000	-0.000795
3612.000000	-0.000813
3611.000000	-0.000821
3610.000000	-0.000811
3609.000000	-0.000791
3608.000000	-0.000777
3607.000000	-0.000780
3606.000000	-0.000795
3605.000000	-0.000814
3604.000000	-0.000827
3603.000000	-0.000828
3602.000000	-0.000813
3601.000000	-0.000783
3600.000000	-0.000750
3599.000000	-0.000727
3598.000000	-0.000723
3597.000000	-0.000730
3596.000000	-0.000731
3595.000000	-0.000714
3594.000000	-0.000689
3593.000000	-0.000673
3592.000000	-0.000675
3591.000000	-0.000690
3590.000000	-0.000707
3589.000000	-0.000718
3588.000000	-0.000726
3587.000000	-0.000738
3586.000000	-0.000751
3585.000000	-0.000754
3584.000000	-0.000741
3583.000000	-0.000716
3582.000000	-0.000691
3581.000000	-0.000671
3580.000000	-0.000653
3579.000000	-0.000635
3578.000000	-0.000620
3577.000000	-0.000610
3576.000000	-0.000605
3575.000000	-0.000598
3574.000000	-0.000596
3573.000000	-0.000610
3572.000000	-0.000645
3571.000000	-0.000687
3570.000000	-0.000712
3569.000000	-0.000702
3568.000000	-0.000654
3567.000000	-0.000587
3566.000000	-0.000528
3565.000000	-0.000490
3564.000000	-0.000470
3563.000000	-0.000461
3562.000000	-0.000458
3561.000000	-0.000459
3560.000000	-0.000466
3559.000000	-0.000479
3558.000000	-0.000496
3557.000000	-0.000513
3556.000000	-0.000527
3555.000000	-0.000532
3554.000000	-0.000525
3553.000000	-0.000508
3552.000000	-0.000488
3551.000000	-0.000470
3550.000000	-0.000457
3549.000000	-0.000447
3548.000000	-0.000439
3547.000000	-0.000434
3546.000000	-0.000431
3545.000000	-0.000427
3544.000000	-0.000417
3543.000000	-0.000400
3542.000000	-0.000377
3541.000000	-0.000356
3540.000000	-0.000340
3539.000000	-0.000330
3538.000000	-0.000324
3537.000000	-0.000317
3536.000000	-0.000306
3535.000000	-0.000295
3534.000000	-0.000291
3533.000000	-0.000295
3532.000000	-0.000301
3531.000000	-0.000304
3530.000000	-0.000301
3529.000000	-0.000295
3528.000000	-0.000294
3527.000000	-0.000297
3526.000000	-0.000302
3525.000000	-0.000298
3524.000000	-0.000277
3523.000000	-0.000237
3522.000000	-0.000188
3521.000000	-0.000143
3520.000000	-0.000112
3519.000000	-0.000103
3518.000000	-0.000117
3517.000000	-0.000146
3516.000000	-0.000172
3515.000000	-0.000186
3514.000000	-0.000186
3513.000000	-0.000178
3512.000000	-0.000168
3511.000000	-0.000159
3510.000000	-0.000155
3509.000000	-0.000156
3508.000000	-0.000156
3507.000000	-0.000150
3506.000000	-0.000139
3505.000000	-0.000130
3504.000000	-0.000122
3503.000000	-0.000111
3502.000000	-0.000093
3501.000000	-0.000071
3500.000000	-0.000052
3499.000000	-0.000043
3498.000000	-0.000048
3497.000000	-0.000067
3496.000000	-0.000087
3495.000000	-0.000094
3494.000000	-0.000082
3493.000000	-0.000054
3492.000000	-0.000019
3491.000000	0.000018
3490.000000	0.000052
3489.000000	0.000072
3488.000000	0.000067
3487.000000	0.000042
3486.000000	0.000017
3485.000000	0.000012
3484.000000	0.000033
3483.000000	0.000065
3482.000000	0.000087
3481.000000	0.000089
3480.000000	0.000078
3479.000000	0.000068
3478.000000	0.000070
3477.000000	0.000082
3476.000000	0.000099
3475.000000	0.000117
3474.000000	0.000138
3473.000000	0.000159
3472.000000	0.000175
3471.000000	0.000183
3470.000000	0.000185
3469.000000	0.000184
3468.000000	0.000179
3467.000000	0.000170
3466.000000	0.000161
3465.000000	0.000157
3464.000000	0.000163
3463.000000	0.000174
3462.000000	0.000185
3461.000000	0.000194
3460.000000	0.000207
3459.000000	0.000226
3458.000000	0.000249
3457.000000	0.000267
3456.000000	0.000274
3455.000000	0.000266
3454.000000	0.000246
3453.000000	0.000228
3452.000000	0.000224
3451.000000	0.000237
3450.000000	0.000260
3449.000000	0.000281
3448.000000	0.000294
3447.000000	0.000298
3446.000000	0.000298
3445.000000	0.000299
3444.000000	0.000303
3443.000000	0.000311
3442.000000	0.000318
3441.000000	0.000319
3440.000000	0.000313
3439.000000	0.000307
3438.000000	0.000310
3437.000000	0.000325
3436.000000	0.000348
3435.000000	0.000370
3434.000000	0.000379
3433.000000	0.000371
3432.000000	0.000349
3431.000000	0.000323
3430.000000	0.000306
3429.000000	0.000303
3428.000000	0.000316
3427.000000	0.000338
3426.000000	0.000358
3425.000000	0.000374
3424.000000	0.000388
3423.000000	0.000402
3422.000000	0.000417
3421.000000	0.000430
3420.000000	0.000440
3419.000000	0.000449
3418.000000	0.000458
3417.000000	0.000463
3416.000000	0.000460
3415.000000	0.000452
3414.000000	0.000447
3413.000000	0.000451
3412.000000	0.000463
3411.000000	0.000470
3410.000000	0.000467
3409.000000	0.000457
3408.000000	0.000449
3407.000000	0.000453
3406.000000	0.000464
3405.000000	0.000474
3404.000000	0.000477
3403.000000	0.000476
3402.000000	0.000478
3401.000000	0.000482
3400.000000	0.000482
3399.000000	0.000473
3398.000000	0.000462
3397.000000	0.000461
3396.000000	0.000475
3395.000000	0.000498
3394.000000	0.000517
3393.000000	0.000527
3392.000000	0.000534
3391.000000	0.000543
3390.000000	0.000554
3389.000000	0.000567
3388.000000	0.000585
3387.000000	0.000612
3386.000000	0.000649
3385.000000	0.000687
3384.000000	0.000718
3383.000000	0.000735
3382.000000	0.000737
3381.000000	0.000728
3380.000000	0.000713
3379.000000	0.000696
3378.000000	0.000675
3377.000000	0.000651
3376.000000	0.000634
3375.000000	0.000634
3374.000000	0.000655
3373.000000	0.000687
3372.000000	0.000713
3371.000000	0.000724
3370.000000	0.000726
3369.000000	0.000727
3368.000000	0.000729
3367.000000	0.000730
3366.000000	0.000731
3365.000000	0.000738
3364.000000	0.000757
3363.000000	0.000783
3362.000000	0.000809
3361.000000	0.000828
3360.000000	0.000839
3359.000000	0.000845
3358.000000	0.000848
3357.000000	0.000851
3356.000000	0.000859
3355.000000	0.000875
3354.000000	0.000898
3353.000000	0.000922
3352.000000	0.000947
3351.000000	0.000968
3350.000000	0.000981
3349.000000	0.000981
3348.000000	0.000975
3347.000000	0.000976
3346.000000	0.000992
3345.000000	0.001020
3344.000000	0.001045
3343.000000	0.001054
3342.000000	0.001043
3341.000000	0.001022
3340.000000	0.001000
3339.000000	0.000986
3338.000000	0.000986
3337.000000	0.001003
3336.000000	0.001032
3335.000000	0.001065
3334.000000	0.001091
3333.000000	0.001107
3332.000000	0.001116
3331.000000	0.001123
3330.000000	0.001129
3329.000000	0.001134
3328.000000	0.001143
3327.000000	0.001160
3326.000000	0.001184
3325.000000	0.001207
3324.000000	0.001227
3323.000000	0.001244
3322.000000	0.001264
3321.000000	0.001282
3320.000000	0.001296
3319.000000	0.001304
3318.000000	0.001309
3317.000000	0.001307
3316.000000	0.001296
3315.000000	0.001277
3314.000000	0.001262
3313.000000	0.001266
3312.000000	0.001296
3311.000000	0.001339
3310.000000	0.001377
3309.000000	0.001394
3308.000000	0.001386
3307.000000	0.001358
3306.000000	0.001323
3305.000000	0.001294
3304.000000	0.001281
3303.000000	0.001286
3302.000000	0.001304
3301.000000	0.001322
3300.000000	0.001333
3299.000000	0.001334
3298.000000	0.001331
3297.000000	0.001326
3296.000000	0.001315
3295.000000	0.001298
3294.000000	0.001281
3293.000000	0.001277
3292.000000	0.001292
3291.000000	0.001319
3290.000000	0.001343
3289.000000	0.001352
3288.000000	0.001349
3287.000000	0.001344
3286.000000	0.001345
3285.000000	0.001352
3284.000000	0.001357
3283.000000	0.001354
3282.000000	0.001339
3281.000000	0.001313
3280.000000	0.001282
3279.000000	0.001256
3278.000000	0.001245
3277.000000	0.001255
3276.000000	0.001278
3275.000000	0.001298
3274.000000	0.001304
3273.000000	0.001295
3272.000000	0.001285
3271.000000	0.001286
3270.000000	0.001299
3269.000000	0.001318
3268.000000	0.001334
3267.000000	0.001341
3266.000000	0.001343
3265.000000	0.001346
3264.000000	0.001353
3263.000000	0.001357
3262.000000	0.001348
3261.000000	0.001321
3260.000000	0.001284
3259.000000	0.001256
3258.000000	0.001248
3257.000000	0.001256
3256.000000	0.001267
3255.000000	0.001272
3254.000000	0.001270
3253.000000	0.001262
3252.000000	0.001249
3251.000000	0.001231
3250.000000	0.001209
3249.000000	0.001189
3248.000000	0.001174
3247.000000	0.001167
3246.000000	0.001172
3245.000000	0.001188
3244.000000	0.001210
3243.000000	0.001221
3242.000000	0.001214
3241.000000	0.001194
3240.000000	0.001175
3239.000000	0.001164
3238.000000	0.001157
3237.000000	0.001147
3236.000000	0.001135
3235.000000	0.001126
3234.000000	0.001123
3233.000000	0.001126
3232.000000	0.001134
3231.000000	0.001149
3230.000000	0.001175
3229.000000	0.001209
3228.000000	0.001239
3227.000000	0.001253
3226.000000	0.001246
3225.000000	0.001224
3224.000000	0.001198
3223.000000	0.001176
3222.000000	0.001160
3221.000000	0.001152
3220.000000	0.001150
3219.000000	0.001151
3218.000000	0.001145
3217.000000	0.001124
3216.000000	0.001093
3215.000000	0.001063
3214.000000	0.001046
3213.000000	0.001048
3212.000000	0.001066
3211.000000	0.001092
3210.000000	0.001118
3209.000000	0.001135
3208.000000	0.001139
3207.000000	0.001130
3206.000000	0.001115
3205.000000	0.001104
3204.000000	0.001102
3203.000000	0.001104
3202.000000	0.001097
3201.000000	0.001075
3200.000000	0.001042
3199.000000	0.001015
3198.000000	0.001003
3197.000000	0.001008
3196.000000	0.001021
3195.000000	0.001030
3194.000000	0.001032
3193.000000	0.001030
3192.000000	0.001030
3191.000000	0.001031
3190.000000	0.001025
3189.000000	0.001003
3188.000000	0.000966
3187.000000	0.000924
3186.000000	0.000894
3185.000000	0.000892
3184.000000	0.000920
3183.000000	0.000961
3182.000000	0.000984
3181.000000	0.000975
3180.000000	0.000944
3179.000000	0.000912
3178.000000	0.000886
3177.000000	0.000864
3176.000000	0.000845
3175.000000	0.000838
3174.000000	0.000845
3173.000000	0.000861
3172.000000	0.000875
3171.000000	0.000881
3170.000000	0.000876
3169.000000	0.000863
3168.000000	0.000847
3167.000000	0.000834
3166.000000	0.000830
3165.000000	0.000838
3164.000000	0.000854
3163.000000	0.000873
3162.000000	0.000881
3161.000000	0.000871
3160.000000	0.000845
3159.000000	0.000818
3158.000000	0.000802
3157.000000	0.000802
3156.000000	0.000809
3155.000000	0.000816
3154.000000	0.000817
3153.000000	0.000811
3152.000000	0.000794
3151.000000	0.000767
3150.000000	0.000733
3149.000000	0.000703
3148.000000	0.000688
3147.000000	0.000689
3146.000000	0.000700
3145.000000	0.000708
3144.000000	0.000708
3143.000000	0.000703
3142.000000	0.000701
3141.000000	0.000706
3140.000000	0.000714
3139.000000	0.000722
3138.000000	0.000724
3137.000000	0.000720
3136.000000	0.000712
3135.000000	0.000700
3134.000000	0.000684
3133.000000	0.000659
3132.000000	0.000628
3131.000000	0.000600
3130.000000	0.000585
3129.000000	0.000586
3128.000000	0.000595
3127.000000	0.000604
3126.000000	0.000610
3125.000000	0.000611
3124.000000	0.000605
3123.000000	0.000586
3122.000000	0.000556
3121.000000	0.000526
3120.000000	0.000510
3119.000000	0.000513
3118.000000	0.000527
3117.000000	0.000542
3116.000000	0.000555
3115.000000	0.000564
3114.000000	0.000568
3113.000000	0.000565
3112.000000	0.000558
3111.000000	0.000555
3110.000000	0.000555
3109.000000	0.000557
3108.000000	0.000560
3107.000000	0.000570
3106.000000	0.000590
3105.000000	0.000618
3104.000000	0.000638
3103.000000	0.000642
3102.000000	0.000634
3101.000000	0.000626
3100.000000	0.000632
3099.000000	0.000652
3098.000000	0.000676
3097.000000	0.000690
3096.000000	0.000685
3095.000000	0.000665
3094.000000	0.000640
3093.000000	0.000622
3092.000000	0.000619
3091.000000	0.000636
3090.000000	0.000668
3089.000000	0.000701
3088.000000	0.000722
3087.000000	0.000720
3086.000000	0.000699
3085.000000	0.000671
3084.000000	0.000650
3083.000000	0.000643
3082.000000	0.000649
3081.000000	0.000662
3080.000000	0.000676
3079.000000	0.000690
3078.000000	0.000704
3077.000000	0.000717
3076.000000	0.000722
3075.000000	0.000717
3074.000000	0.000706
3073.000000	0.000700
3072.000000	0.000711
3071.000000	0.000732
3070.000000	0.000746
3069.000000	0.000743
3068.000000	0.000730
3067.000000	0.000722
3066.000000	0.000730
3065.000000	0.000749
3064.000000	0.000767
3063.000000	0.000775
3062.000000	0.000769
3061.000000	0.000748
3060.000000	0.000722
3059.000000	0.000703
3058.000000	0.000698
3057.000000	0.000707
3056.000000	0.000715
3055.000000	0.000707
3054.000000	0.000674
3053.000000	0.000627
3052.000000	0.000588
3051.000000	0.000579
3050.000000	0.000601
3049.000000	0.000637
3048.000000	0.000664
3047.000000	0.000664
3046.000000	0.000638
3045.000000	0.000600
3044.000000	0.000567
3043.000000	0.000553
3042.000000	0.000556
3041.000000	0.000568
3040.000000	0.000583
3039.000000	0.000595
3038.000000	0.000601
3037.000000	0.000599
3036.000000	0.000586
3035.000000	0.000565
3034.000000	0.000538
3033.000000	0.000510
3032.000000	0.000489
3031.000000	0.000485
3030.000000	0.000497
3029.000000	0.000516
3028.000000	0.000530
3027.000000	0.000531
3026.000000	0.000513
3025.000000	0.000481
3024.000000	0.000443
3023.000000	0.000417
3022.000000	0.000414
3021.000000	0.000429
3020.000000	0.000449
3019.000000	0.000465
3018.000000	0.000479
3017.000000	0.000492
3016.000000	0.000502
3015.000000	0.000506
3014.000000	0.000507
3013.000000	0.000509
3012.000000	0.000518
3011.000000	0.000534
3010.000000	0.000556
3009.000000	0.000578
3008.000000	0.000591
3007.000000	0.000589
3006.000000	0.000570
3005.000000	0.000540
3004.000000	0.000511
3003.000000	0.000494
3002.000000	0.000492
3001.000000	0.000501
3000.000000	0.000516
2999.000000	0.000532
2998.000000	0.000545
2997.000000	0.000552
2996.000000	0.000549
2995.000000	0.000536
2994.000000	0.000525
2993.000000	0.000523
2992.000000	0.000531
2991.000000	0.000545
2990.000000	0.000562
2989.000000	0.000576
2988.000000	0.000584
2987.000000	0.000577
2986.000000	0.000560
2985.000000	0.000547
2984.000000	0.000550
2983.000000	0.000570
2982.000000	0.000595
2981.000000	0.000612
2980.000000	0.000620
2979.000000	0.000628
2978.000000	0.000645
2977.000000	0.000676
2976.000000	0.000716
2975.000000	0.000754
2974.000000	0.000779
2973.000000	0.000788
2972.000000	0.000791
2971.000000	0.000803
2970.000000	0.000835
2969.000000	0.000884
2968.000000	0.000940
2967.000000	0.000993
2966.000000	0.001045
2965.000000	0.001102
2964.000000	0.001171
2963.000000	0.001246
2962.000000	0.001317
2961.000000	0.001379
2960.000000	0.001431
2959.000000	0.001469
2958.000000	0.001490
2957.000000	0.001494
2956.000000	0.001494
2955.000000	0.001506
2954.000000	0.001531
2953.000000	0.001558
2952.000000	0.001571
2951.000000	0.001566
2950.000000	0.001547
2949.000000	0.001525
2948.000000	0.001514
2947.000000	0.001522
2946.000000	0.001555
2945.000000	0.001611
2944.000000	0.001684
2943.000000	0.001767
2942.000000	0.001857
2941.000000	0.001953
2940.000000	0.002054
2939.000000	0.002155
2938.000000	0.002243
2937.000000	0.002318
2936.000000	0.002391
2935.000000	0.002483
2934.000000	0.002602
2933.000000	0.002742
2932.000000	0.002889
2931.000000	0.003035
2930.000000	0.003178
2929.000000	0.003307
2928.000000	0.003413
2927.000000	0.003493
2926.000000	0.003551
2925.000000	0.003595
2924.000000	0.003627
2923.000000	0.003651
2922.000000	0.003664
2921.000000	0.003662
2920.000000	0.003634
2919.000000	0.003566
2918.000000	0.003457
2917.000000	0.003315
2916.000000	0.003158
2915.000000	0.003002
2914.000000	0.002856
2913.000000	0.002720
2912.000000	0.002593
2911.000000	0.002481
2910.000000	0.002392
2909.000000	0.002325
2908.000000	0.002270
2907.000000	0.002215
2906.000000	0.002155
2905.000000	0.002094
2904.000000	0.002038
2903.000000	0.001987
2902.000000	0.001939
2901.000000	0.001895
2900.000000	0.001852
2899.000000	0.001809
2898.000000	0.001764
2897.000000	0.001721
2896.000000	0.001685
2895.000000	0.001659
2894.000000	0.001638
2893.000000	0.001610
2892.000000	0.001569
2891.000000	0.001515
2890.000000	0.001463
2889.000000	0.001425
2888.000000	0.001406
2887.000000	0.001400
2886.000000	0.001395
2885.000000	0.001383
2884.000000	0.001364
2883.000000	0.001341
2882.000000	0.001316
2881.000000	0.001289
2880.000000	0.001268
2879.000000	0.001260
2878.000000	0.001270
2877.000000	0.001292
2876.000000	0.001314
2875.000000	0.001330
2874.000000	0.001341
2873.000000	0.001354
2872.000000	0.001378
2871.000000	0.001411
2870.000000	0.001445
2869.000000	0.001466
2868.000000	0.001469
2867.000000	0.001466
2866.000000	0.001477
2865.000000	0.001515
2864.000000	0.001579
2863.000000	0.001659
2862.000000	0.001746
2861.000000	0.001837
2860.000000	0.001927
2859.000000	0.002016
2858.000000	0.002106
2857.000000	0.002204
2856.000000	0.002306
2855.000000	0.002397
2854.000000	0.002457
2853.000000	0.002475
2852.000000	0.002456
2851.000000	0.002409
2850.000000	0.002338
2849.000000	0.002245
2848.000000	0.002130
2847.000000	0.001997
2846.000000	0.001855
2845.000000	0.001713
2844.000000	0.001579
2843.000000	0.001460
2842.000000	0.001361
2841.000000	0.001285
2840.000000	0.001232
2839.000000	0.001196
2838.000000	0.001167
2837.000000	0.001132
2836.000000	0.001085
2835.000000	0.001033
2834.000000	0.000988
2833.000000	0.000957
2832.000000	0.000939
2831.000000	0.000928
2830.000000	0.000917
2829.000000	0.000903
2828.000000	0.000888
2827.000000	0.000871
2826.000000	0.000855
2825.000000	0.000836
2824.000000	0.000815
2823.000000	0.000789
2822.000000	0.000760
2821.000000	0.000731
2820.000000	0.000710
2819.000000	0.000702
2818.000000	0.000704
2817.000000	0.000705
2816.000000	0.000692
2815.000000	0.000669
2814.000000	0.000648
2813.000000	0.000641
2812.000000	0.000649
2811.000000	0.000663
2810.000000	0.000679
2809.000000	0.000690
2808.000000	0.000693
2807.000000	0.000683
2806.000000	0.000666
2805.000000	0.000652
2804.000000	0.000645
2803.000000	0.000644
2802.000000	0.000642
2801.000000	0.000637
2800.000000	0.000632
2799.000000	0.000634
2798.000000	0.000648
2797.000000	0.000666
2796.000000	0.000679
2795.000000	0.000678
2794.000000	0.000666
2793.000000	0.000652
2792.000000	0.000639
2791.000000	0.000628
2790.000000	0.000618
2789.000000	0.000608
2788.000000	0.000597
2787.000000	0.000588
2786.000000	0.000584
2785.000000	0.000588
2784.000000	0.000595
2783.000000	0.000594
2782.000000	0.000585
2781.000000	0.000575
2780.000000	0.000569
2779.000000	0.000567
2778.000000	0.000564
2777.000000	0.000558
2776.000000	0.000552
2775.000000	0.000552
2774.000000	0.000560
2773.000000	0.000571
2772.000000	0.000576
2771.000000	0.000574
2770.000000	0.000572
2769.000000	0.000576
2768.000000	0.000584
2767.000000	0.000589
2766.000000	0.000588
2765.000000	0.000583
2764.000000	0.000576
2763.000000	0.000569
2762.000000	0.000562
2761.000000	0.000557
2760.000000	0.000553
2759.000000	0.000549
2758.000000	0.000548
2757.000000	0.000550
2756.000000	0.000551
2755.000000	0.000545
2754.000000	0.000530
2753.000000	0.000513
2752.000000	0.000501
2751.000000	0.000498
2750.000000	0.000501
2749.000000	0.000505
2748.000000	0.000506
2747.000000	0.000505
2746.000000	0.000506
2745.000000	0.000510
2744.000000	0.000513
2743.000000	0.000508
2742.000000	0.000496
2741.000000	0.000479
2740.000000	0.000463
2739.000000	0.000451
2738.000000	0.000447
2737.000000	0.000452
2736.000000	0.000466
2735.000000	0.000479
2734.000000	0.000485
2733.000000	0.000486
2732.000000	0.000486
2731.000000	0.000485
2730.000000	0.000479
2729.000000	0.000470
2728.000000	0.000459
2727.000000	0.000452
2726.000000	0.000453
2725.000000	0.000458
2724.000000	0.000461
2723.000000	0.000456
2722.000000	0.000440
2721.000000	0.000417
2720.000000	0.000395
2719.000000	0.000381
2718.000000	0.000376
2717.000000	0.000377
2716.000000	0.000377
2715.000000	0.000370
2714.000000	0.000360
2713.000000	0.000356
2712.000000	0.000366
2711.000000	0.000386
2710.000000	0.000404
2709.000000	0.000415
2708.000000	0.000419
2707.000000	0.000420
2706.000000	0.000419
2705.000000	0.000414
2704.000000	0.000401
2703.000000	0.000381
2702.000000	0.000359
2701.000000	0.000345
2700.000000	0.000344
2699.000000	0.000356
2698.000000	0.000370
2697.000000	0.000379
2696.000000	0.000383
2695.000000	0.000385
2694.000000	0.000386
2693.000000	0.000382
2692.000000	0.000372
2691.000000	0.000362
2690.000000	0.000357
2689.000000	0.000357
2688.000000	0.000358
2687.000000	0.000359
2686.000000	0.000367
2685.000000	0.000382
2684.000000	0.000399
2683.000000	0.000409
2682.000000	0.000412
2681.000000	0.000410
2680.000000	0.000410
2679.000000	0.000411
2678.000000	0.000410
2677.000000	0.000408
2676.000000	0.000405
2675.000000	0.000404
2674.000000	0.000404
2673.000000	0.000405
2672.000000	0.000404
2671.000000	0.000404
2670.000000	0.000407
2669.000000	0.000414
2668.000000	0.000420
2667.000000	0.000419
2666.000000	0.000415
2665.000000	0.000416
2664.000000	0.000428
2663.000000	0.000442
2662.000000	0.000450
2661.000000	0.000448
2660.000000	0.000444
2659.000000	0.000441
2658.000000	0.000441
2657.000000	0.000440
2656.000000	0.000436
2655.000000	0.000429
2654.000000	0.000418
2653.000000	0.000398
2652.000000	0.000369
2651.000000	0.000337
2650.000000	0.000314
2649.000000	0.000302
2648.000000	0.000295
2647.000000	0.000289
2646.000000	0.000283
2645.000000	0.000282
2644.000000	0.000283
2643.000000	0.000277
2642.000000	0.000261
2641.000000	0.000244
2640.000000	0.000236
2639.000000	0.000236
2638.000000	0.000238
2637.000000	0.000236
2636.000000	0.000230
2635.000000	0.000226
2634.000000	0.000226
2633.000000	0.000227
2632.000000	0.000228
2631.000000	0.000225
2630.000000	0.000217
2629.000000	0.000203
2628.000000	0.000188
2627.000000	0.000180
2626.000000	0.000181
2625.000000	0.000185
2624.000000	0.000180
2623.000000	0.000160
2622.000000	0.000135
2621.000000	0.000122
2620.000000	0.000127
2619.000000	0.000138
2618.000000	0.000140
2617.000000	0.000128
2616.000000	0.000107
2615.000000	0.000086
2614.000000	0.000068
2613.000000	0.000060
2612.000000	0.000064
2611.000000	0.000077
2610.000000	0.000081
2609.000000	0.000064
2608.000000	0.000028
2607.000000	-0.000013
2606.000000	-0.000035
2605.000000	-0.000024
2604.000000	0.000017
2603.000000	0.000068
2602.000000	0.000108
2601.000000	0.000129
2600.000000	0.000141
2599.000000	0.000152
2598.000000	0.000155
2597.000000	0.000140
2596.000000	0.000109
2595.000000	0.000082
2594.000000	0.000077
2593.000000	0.000088
2592.000000	0.000088
2591.000000	0.000058
2590.000000	0.000002
2589.000000	-0.000050
2588.000000	-0.000075
2587.000000	-0.000066
2586.000000	-0.000037
2585.000000	-0.000010
2584.000000	0.000003
2583.000000	0.000002
2582.000000	-0.000002
2581.000000	-0.000005
2580.000000	-0.000011
2579.000000	-0.000026
2578.000000	-0.000046
2577.000000	-0.000058
2576.000000	-0.000060
2575.000000	-0.000060
2574.000000	-0.000065
2573.000000	-0.000077
2572.000000	-0.000089
2571.000000	-0.000092
2570.000000	-0.000082
2569.000000	-0.000065
2568.000000	-0.000055
2567.000000	-0.000065
2566.000000	-0.000088
2565.000000	-0.000104
2564.000000	-0.000098
2563.000000	-0.000077
2562.000000	-0.000056
2561.000000	-0.000041
2560.000000	-0.000030
2559.000000	-0.000025
2558.000000	-0.000031
2557.000000	-0.000045
2556.000000	-0.000059
2555.000000	-0.000068
2554.000000	-0.000079
2553.000000	-0.000098
2552.000000	-0.000118
2551.000000	-0.000125
2550.000000	-0.000117
2549.000000	-0.000106
2548.000000	-0.000110
2547.000000	-0.000128
2546.000000	-0.000140
2545.000000	-0.000126
2544.000000	-0.000092
2543.000000	-0.000064
2542.000000	-0.000062
2541.000000	-0.000079
2540.000000	-0.000088
2539.000000	-0.000072
2538.000000	-0.000031
2537.000000	0.000018
2536.000000	0.000055
2535.000000	0.000062
2534.000000	0.000038
2533.000000	-0.000006
2532.000000	-0.000054
2531.000000	-0.000098
2530.000000	-0.000131
2529.000000	-0.000143
2528.000000	-0.000123
2527.000000	-0.000077
2526.000000	-0.000030
2525.000000	-0.000008
2524.000000	-0.000019
2523.000000	-0.000052
2522.000000	-0.000086
2521.000000	-0.000105
2520.000000	-0.000106
2519.000000	-0.000100
2518.000000	-0.000094
2517.000000	-0.000087
2516.000000	-0.000069
2515.000000	-0.000039
2514.000000	-0.000010
2513.000000	-0.000000
2512.000000	-0.000011
2511.000000	-0.000026
2510.000000	-0.000030
2509.000000	-0.000018
2508.000000	-0.000002
2507.000000	0.000008
2506.000000	0.000016
2505.000000	0.000026
2504.000000	0.000035
2503.000000	0.000030
2502.000000	0.000007
2501.000000	-0.000021
2500.000000	-0.000043
2499.000000	-0.000058
2498.000000	-0.000077
2497.000000	-0.000101
2496.000000	-0.000119
2495.000000	-0.000115
2494.000000	-0.000089
2493.000000	-0.000054
2492.000000	-0.000033
2491.000000	-0.000037
2490.000000	-0.000060
2489.000000	-0.000078
2488.000000	-0.000075
2487.000000	-0.000061
2486.000000	-0.000062
2485.000000	-0.000095
2484.000000	-0.000148
2483.000000	-0.000197
2482.000000	-0.000225
2481.000000	-0.000225
2480.000000	-0.000202
2479.000000	-0.000166
2478.000000	-0.000132
2477.000000	-0.000111
2476.000000	-0.000112
2475.000000	-0.000134
2474.000000	-0.000169
2473.000000	-0.000200
2472.000000	-0.000214
2471.000000	-0.000207
2470.000000	-0.000185
2469.000000	-0.000151
2468.000000	-0.000110
2467.000000	-0.000074
2466.000000	-0.000055
2465.000000	-0.000053
2464.000000	-0.000053
2463.000000	-0.000046
2462.000000	-0.000039
2461.000000	-0.000053
2460.000000	-0.000088
2459.000000	-0.000125
2458.000000	-0.000141
2457.000000	-0.000127
2456.000000	-0.000094
2455.000000	-0.000062
2454.000000	-0.000043
2453.000000	-0.000041
2452.000000	-0.000050
2451.000000	-0.000058
2450.000000	-0.000059
2449.000000	-0.000059
2448.000000	-0.000068
2447.000000	-0.000089
2446.000000	-0.000118
2445.000000	-0.000145
2444.000000	-0.000163
2443.000000	-0.000166
2442.000000	-0.000153
2441.000000	-0.000128
2440.000000	-0.000107
2439.000000	-0.000102
2438.000000	-0.000113
2437.000000	-0.000122
2436.000000	-0.000114
2435.000000	-0.000090
2434.000000	-0.000068
2433.000000	-0.000064
2432.000000	-0.000077
2431.000000	-0.000102
2430.000000	-0.000135
2429.000000	-0.000178
2428.000000	-0.000222
2427.000000	-0.000247
2426.000000	-0.000234
2425.000000	-0.000188
2424.000000	-0.000131
2423.000000	-0.000089
2422.000000	-0.000074
2421.000000	-0.000084
2420.000000	-0.000110
2419.000000	-0.000139
2418.000000	-0.000160
2417.000000	-0.000166
2416.000000	-0.000150
2415.000000	-0.000117
2414.000000	-0.000081
2413.000000	-0.000062
2412.000000	-0.000070
2411.000000	-0.000099
2410.000000	-0.000132
2409.000000	-0.000156
2408.000000	-0.000167
2407.000000	-0.000172
2406.000000	-0.000178
2405.000000	-0.000186
2404.000000	-0.000195
2403.000000	-0.000197
2402.000000	-0.000193
2401.000000	-0.000186
2400.000000	-0.000179
2399.000000	-0.000174
2398.000000	-0.000168
2397.000000	-0.000166
2396.000000	-0.000166
2395.000000	-0.000162
2394.000000	-0.000148
2393.000000	-0.000135
2392.000000	-0.000137
2391.000000	-0.000155
2390.000000	-0.000171
2389.000000	-0.000170
2388.000000	-0.000158
2387.000000	-0.000149
2386.000000	-0.000147
2385.000000	-0.000146
2384.000000	-0.000145
2383.000000	-0.000156
2382.000000	-0.000188
2381.000000	-0.000234
2380.000000	-0.000275
2379.000000	-0.000284
2378.000000	-0.000243
2377.000000	-0.000165
2376.000000	-0.000089
2375.000000	-0.000052
2374.000000	-0.000060
2373.000000	-0.000090
2372.000000	-0.000112
2371.000000	-0.000110
2370.000000	-0.000086
2369.000000	-0.000061
2368.000000	-0.000057
2367.000000	-0.000078
2366.000000	-0.000097
2365.000000	-0.000084
2364.000000	-0.000031
2363.000000	0.000037
2362.000000	0.000092
2361.000000	0.000118
2360.000000	0.000121
2359.000000	0.000112
2358.000000	0.000080
2357.000000	0.000014
2356.000000	-0.000071
2355.000000	-0.000138
2354.000000	-0.000190
2353.000000	-0.000247
2352.000000	-0.000286
2351.000000	-0.000266
2350.000000	-0.000187
2349.000000	-0.000089
2348.000000	-0.000018
2347.000000	-0.000004
2346.000000	-0.000027
2345.000000	-0.000034
2344.000000	-0.000002
2343.000000	0.000042
2342.000000	0.000066
2341.000000	0.000056
2340.000000	0.000029
2339.000000	0.000007
2338.000000	-0.000005
2337.000000	-0.000014
2336.000000	-0.000021
2335.000000	-0.000027
2334.000000	-0.000044
2333.000000	-0.000076
2332.000000	-0.000096
2331.000000	-0.000073
2330.000000	-0.000006
2329.000000	0.000068
2328.000000	0.000119
2327.000000	0.000143
2326.000000	0.000152
2325.000000	0.000150
2324.000000	0.000140
2323.000000	0.000124
2322.000000	0.000118
2321.000000	0.000137
2320.000000	0.000185
2319.000000	0.000242
2318.000000	0.000279
2317.000000	0.000269
2316.000000	0.000202
2315.000000	0.000096
2314.000000	-0.000010
2313.000000	-0.000080
2312.000000	-0.000101
2311.000000	-0.000091
2310.000000	-0.000069
2309.000000	-0.000051
2308.000000	-0.000051
2307.000000	-0.000079
2306.000000	-0.000124
2305.000000	-0.000154
2304.000000	-0.000144
2303.000000	-0.000100
2302.000000	-0.000050
2301.000000	-0.000017
2300.000000	-0.000008
2299.000000	-0.000020
2298.000000	-0.000045
2297.000000	-0.000078
2296.000000	-0.000108
2295.000000	-0.000125
2294.000000	-0.000118
2293.000000	-0.000084
2292.000000	-0.000041
2291.000000	-0.000017
2290.000000	-0.000024
2289.000000	-0.000049
2288.000000	-0.000070
2287.000000	-0.000081
2286.000000	-0.000095
2285.000000	-0.000122
2284.000000	-0.000164
2283.000000	-0.000202
2282.000000	-0.000213
2281.000000	-0.000175
2280.000000	-0.000092
2279.000000	0.000004
2278.000000	0.000069
2277.000000	0.000081
2276.000000	0.000039
2275.000000	-0.000037
2274.000000	-0.000122
2273.000000	-0.000194
2272.000000	-0.000237
2271.000000	-0.000249
2270.000000	-0.000240
2269.000000	-0.000217
2268.000000	-0.000188
2267.000000	-0.000156
2266.000000	-0.000132
2265.000000	-0.000131
2264.000000	-0.000168
2263.000000	-0.000235
2262.000000	-0.000302
2261.000000	-0.000345
2260.000000	-0.000372
2259.000000	-0.000403
2258.000000	-0.000435
2257.000000	-0.000433
2256.000000	-0.000382
2255.000000	-0.000306
2254.000000	-0.000248
2253.000000	-0.000228
2252.000000	-0.000231
2251.000000	-0.000227
2250.000000	-0.000190
2249.000000	-0.000121
2248.000000	-0.000060
2247.000000	-0.000059
2246.000000	-0.000135
2245.000000	-0.000250
2244.000000	-0.000344
2243.000000	-0.000376
2242.000000	-0.000344
2241.000000	-0.000282
2240.000000	-0.000250
2239.000000	-0.000300
2238.000000	-0.000417
2237.000000	-0.000526
2236.000000	-0.000546
2235.000000	-0.000460
2234.000000	-0.000313
2233.000000	-0.000179
2232.000000	-0.000114
2231.000000	-0.000134
2230.000000	-0.000211
2229.000000	-0.000296
2228.000000	-0.000363
2227.000000	-0.000413
2226.000000	-0.000443
2225.000000	-0.000439
2224.000000	-0.000416
2223.000000	-0.000426
2222.000000	-0.000501
2221.000000	-0.000607
2220.000000	-0.000690
2219.000000	-0.000743
2218.000000	-0.000796
2217.000000	-0.000847
2216.000000	-0.000853
2215.000000	-0.000782
2214.000000	-0.000652
2213.000000	-0.000506
2212.000000	-0.000390
2211.000000	-0.000325
2210.000000	-0.000310
2209.000000	-0.000332
2208.000000	-0.000376
2207.000000	-0.000431
2206.000000	-0.000471
2205.000000	-0.000464
2204.000000	-0.000408
2203.000000	-0.000342
2202.000000	-0.000306
2201.000000	-0.000310
2200.000000	-0.000339
2199.000000	-0.000365
2198.000000	-0.000349
2197.000000	-0.000259
2196.000000	-0.000116
2195.000000	-0.000000
2194.000000	0.000038
2193.000000	0.000033
2192.000000	0.000048
2191.000000	0.000099
2190.000000	0.000153
2189.000000	0.000198
2188.000000	0.000249
2187.000000	0.000300
2186.000000	0.000311
2185.000000	0.000248
2184.000000	0.000102
2183.000000	-0.000095
2182.000000	-0.000254
2181.000000	-0.000269
2180.000000	-0.000134
2179.000000	-0.000000
2178.000000	-0.000045
2177.000000	-0.000282
2176.000000	-0.000558
2175.000000	-0.000732
2174.000000	-0.000802
2173.000000	-0.000827
2172.000000	-0.000820
2171.000000	-0.000753
2170.000000	-0.000622
2169.000000	-0.000468
2168.000000	-0.000336
2167.000000	-0.000261
2166.000000	-0.000262
2165.000000	-0.000327
2164.000000	-0.000403
2163.000000	-0.000444
2162.000000	-0.000437
2161.000000	-0.000409
2160.000000	-0.000406
2159.000000	-0.000472
2158.000000	-0.000611
2157.000000	-0.000765
2156.000000	-0.000880
2155.000000	-0.000970
2154.000000	-0.001079
2153.000000	-0.001183
2152.000000	-0.001203
2151.000000	-0.001113
2150.000000	-0.000996
2149.000000	-0.000949
2148.000000	-0.000966
2147.000000	-0.000954
2146.000000	-0.000863
2145.000000	-0.000738
2144.000000	-0.000654
2143.000000	-0.000631
2142.000000	-0.000638
2141.000000	-0.000639
2140.000000	-0.000625
2139.000000	-0.000607
2138.000000	-0.000597
2137.000000	-0.000608
2136.000000	-0.000642
2135.000000	-0.000688
2134.000000	-0.000730
2133.000000	-0.000758
2132.000000	-0.000759
2131.000000	-0.000713
2130.000000	-0.000621
2129.000000	-0.000516
2128.000000	-0.000443
2127.000000	-0.000413
2126.000000	-0.000386
2125.000000	-0.000326
2124.000000	-0.000246
2123.000000	-0.000197
2122.000000	-0.000215
2121.000000	-0.000292
2120.000000	-0.000392
2119.000000	-0.000475
2118.000000	-0.000513
2117.000000	-0.000496
2116.000000	-0.000432
2115.000000	-0.000349
2114.000000	-0.000276
2113.000000	-0.000233
2112.000000	-0.000233
2111.000000	-0.000273
2110.000000	-0.000327
2109.000000	-0.000358
2108.000000	-0.000352
2107.000000	-0.000328
2106.000000	-0.000313
2105.000000	-0.000313
2104.000000	-0.000309
2103.000000	-0.000294
2102.000000	-0.000285
2101.000000	-0.000311
2100.000000	-0.000374
2099.000000	-0.000436
2098.000000	-0.000450
2097.000000	-0.000397
2096.000000	-0.000304
2095.000000	-0.000219
2094.000000	-0.000184
2093.000000	-0.000223
2092.000000	-0.000332
2091.000000	-0.000467
2090.000000	-0.000564
2089.000000	-0.000588
2088.000000	-0.000559
2087.000000	-0.000525
2086.000000	-0.000512
2085.000000	-0.000512
2084.000000	-0.000518
2083.000000	-0.000530
2082.000000	-0.000541
2081.000000	-0.000542
2080.000000	-0.000541
2079.000000	-0.000563
2078.000000	-0.000616
2077.000000	-0.000667
2076.000000	-0.000673
2075.000000	-0.000620
2074.000000	-0.000530
2073.000000	-0.000446
2072.000000	-0.000406
2071.000000	-0.000415
2070.000000	-0.000443
2069.000000	-0.000460
2068.000000	-0.000460
2067.000000	-0.000453
2066.000000	-0.000428
2065.000000	-0.000362
2064.000000	-0.000273
2063.000000	-0.000221
2062.000000	-0.000254
2061.000000	-0.000357
2060.000000	-0.000480
2059.000000	-0.000577
2058.000000	-0.000635
2057.000000	-0.000663
2056.000000	-0.000679
2055.000000	-0.000688
2054.000000	-0.000666
2053.000000	-0.000594
2052.000000	-0.000493
2051.000000	-0.000409
2050.000000	-0.000385
2049.000000	-0.000443
2048.000000	-0.000581
2047.000000	-0.000753
2046.000000	-0.000862
2045.000000	-0.000841
2044.000000	-0.000726
2043.000000	-0.000606
2042.000000	-0.000497
2041.000000	-0.000366
2040.000000	-0.000267
2039.000000	-0.000331
2038.000000	-0.000567
2037.000000	-0.000782
2036.000000	-0.000789
2035.000000	-0.000649
2034.000000	-0.000590
2033.000000	-0.000725
2032.000000	-0.000958
2031.000000	-0.001140
2030.000000	-0.001214
2029.000000	-0.001203
2028.000000	-0.001144
2027.000000	-0.001075
2026.000000	-0.001012
2025.000000	-0.000945
2024.000000	-0.000871
2023.000000	-0.000817
2022.000000	-0.000806
2021.000000	-0.000818
2020.000000	-0.000818
2019.000000	-0.000787
2018.000000	-0.000713
2017.000000	-0.000602
2016.000000	-0.000525
2015.000000	-0.000570
2014.000000	-0.000733
2013.000000	-0.000890
2012.000000	-0.000943
2011.000000	-0.000933
2010.000000	-0.000940
2009.000000	-0.000943
2008.000000	-0.000873
2007.000000	-0.000758
2006.000000	-0.000701
2005.000000	-0.000735
2004.000000	-0.000786
2003.000000	-0.000794
2002.000000	-0.000767
2001.000000	-0.000731
2000.000000	-0.000694
1999.000000	-0.000683
1998.000000	-0.000748
1997.000000	-0.000879
1996.000000	-0.000988
1995.000000	-0.001001
1994.000000	-0.000942
1993.000000	-0.000889
1992.000000	-0.000878
1991.000000	-0.000888
1990.000000	-0.000895
1989.000000	-0.000900
1988.000000	-0.000902
1987.000000	-0.000877
1986.000000	-0.000814
1985.000000	-0.000732
1984.000000	-0.000660
1983.000000	-0.000604
1982.000000	-0.000553
1981.000000	-0.000511
1980.000000	-0.000521
1979.000000	-0.000627
1978.000000	-0.000816
1977.000000	-0.001009
1976.000000	-0.001121
1975.000000	-0.001145
1974.000000	-0.001139
1973.000000	-0.001150
1972.000000	-0.001175
1971.000000	-0.001175
1970.000000	-0.001122
1969.000000	-0.001031
1968.000000	-0.000948
1967.000000	-0.000912
1966.000000	-0.000915
1965.000000	-0.000917
1964.000000	-0.000894
1963.000000	-0.000855
1962.000000	-0.000818
1961.000000	-0.000782
1960.000000	-0.000737
1959.000000	-0.000688
1958.000000	-0.000662
1957.000000	-0.000677
1956.000000	-0.000729
1955.000000	-0.000807
1954.000000	-0.000900
1953.000000	-0.000985
1952.000000	-0.001007
1951.000000	-0.000918
1950.000000	-0.000735
1949.000000	-0.000551
1948.000000	-0.000474
1947.000000	-0.000542
1946.000000	-0.000710
1945.000000	-0.000908
1944.000000	-0.001084
1943.000000	-0.001195
1942.000000	-0.001196
1941.000000	-0.001073
1940.000000	-0.000880
1939.000000	-0.000699
1938.000000	-0.000585
1937.000000	-0.000536
1936.000000	-0.000524
1935.000000	-0.000540
1934.000000	-0.000606
1933.000000	-0.000742
1932.000000	-0.000919
1931.000000	-0.001058
1930.000000	-0.001084
1929.000000	-0.000989
1928.000000	-0.000846
1927.000000	-0.000730
1926.000000	-0.000656
1925.000000	-0.000598
1924.000000	-0.000558
1923.000000	-0.000565
1922.000000	-0.000615
1921.000000	-0.000661
1920.000000	-0.000672
1919.000000	-0.000662
1918.000000	-0.000657
1917.000000	-0.000652
1916.000000	-0.000635
1915.000000	-0.000627
1914.000000	-0.000661
1913.000000	-0.000730
1912.000000	-0.000783
1911.000000	-0.000774
1910.000000	-0.000706
1909.000000	-0.000623
1908.000000	-0.000563
1907.000000	-0.000525
1906.000000	-0.000493
1905.000000	-0.000472
1904.000000	-0.000495
1903.000000	-0.000581
1902.000000	-0.000698
1901.000000	-0.000788
1900.000000	-0.000825
1899.000000	-0.000830
1898.000000	-0.000832
1897.000000	-0.000838
1896.000000	-0.000838
1895.000000	-0.000824
1894.000000	-0.000792
1893.000000	-0.000747
1892.000000	-0.000707
1891.000000	-0.000689
1890.000000	-0.000687
1889.000000	-0.000681
1888.000000	-0.000669
1887.000000	-0.000668
1886.000000	-0.000684
1885.000000	-0.000704
1884.000000	-0.000718
1883.000000	-0.000733
1882.000000	-0.000756
1881.000000	-0.000781
1880.000000	-0.000804
1879.000000	-0.000832
1878.000000	-0.000865
1877.000000	-0.000888
1876.000000	-0.000881
1875.000000	-0.000850
1874.000000	-0.000816
1873.000000	-0.000796
1872.000000	-0.000788
1871.000000	-0.000790
1870.000000	-0.000803
1869.000000	-0.000826
1868.000000	-0.000851
1867.000000	-0.000865
1866.000000	-0.000857
1865.000000	-0.000841
1864.000000	-0.000843
1863.000000	-0.000872
1862.000000	-0.000909
1861.000000	-0.000928
1860.000000	-0.000922
1859.000000	-0.000898
1858.000000	-0.000853
1857.000000	-0.000785
1856.000000	-0.000713
1855.000000	-0.000670
1854.000000	-0.000669
1853.000000	-0.000692
1852.000000	-0.000722
1851.000000	-0.000754
1850.000000	-0.000799
1849.000000	-0.000862
1848.000000	-0.000927
1847.000000	-0.000965
1846.000000	-0.000949
1845.000000	-0.000887
1844.000000	-0.000830
1843.000000	-0.000820
1842.000000	-0.000837
1841.000000	-0.000843
1840.000000	-0.000831
1839.000000	-0.000819
1838.000000	-0.000827
1837.000000	-0.000846
1836.000000	-0.000864
1835.000000	-0.000884
1834.000000	-0.000914
1833.000000	-0.000953
1832.000000	-0.000988
1831.000000	-0.001001
1830.000000	-0.000992
1829.000000	-0.000980
1828.000000	-0.000971
1827.000000	-0.000955
1826.000000	-0.000928
1825.000000	-0.000902
1824.000000	-0.000897
1823.000000	-0.000915
1822.000000	-0.000936
1821.000000	-0.000934
1820.000000	-0.000902
1819.000000	-0.000862
1818.000000	-0.000840
1817.000000	-0.000838
1816.000000	-0.000847
1815.000000	-0.000866
1814.000000	-0.000899
1813.000000	-0.000938
1812.000000	-0.000961
1811.000000	-0.000960
1810.000000	-0.000941
1809.000000	-0.000904
1808.000000	-0.000857
1807.000000	-0.000822
1806.000000	-0.000816
1805.000000	-0.000843
1804.000000	-0.000894
1803.000000	-0.000953
1802.000000	-0.000993
1801.000000	-0.000998
1800.000000	-0.000967
1799.000000	-0.000922
1798.000000	-0.000885
1797.000000	-0.000870
1796.000000	-0.000884
1795.000000	-0.000920
1794.000000	-0.000947
1793.000000	-0.000945
1792.000000	-0.000926
1791.000000	-0.000930
1790.000000	-0.000960
1789.000000	-0.000984
1788.000000	-0.000989
1787.000000	-0.000983
1786.000000	-0.000978
1785.000000	-0.000978
1784.000000	-0.000991
1783.000000	-0.001012
1782.000000	-0.001025
1781.000000	-0.001025
1780.000000	-0.001017
1779.000000	-0.001006
1778.000000	-0.000990
1777.000000	-0.000981
1776.000000	-0.001002
1775.000000	-0.001055
1774.000000	-0.001107
1773.000000	-0.001127
1772.000000	-0.001122
1771.000000	-0.001121
1770.000000	-0.001123
1769.000000	-0.001105
1768.000000	-0.001071
1767.000000	-0.001052
1766.000000	-0.001063
1765.000000	-0.001082
1764.000000	-0.001081
1763.000000	-0.001058
1762.000000	-0.001028
1761.000000	-0.001007
1760.000000	-0.000985
1759.000000	-0.000943
1758.000000	-0.000864
1757.000000	-0.000753
1756.000000	-0.000640
1755.000000	-0.000544
1754.000000	-0.000455
1753.000000	-0.000354
1752.000000	-0.000235
1751.000000	-0.000113
1750.000000	-0.000012
1749.000000	0.000070
1748.000000	0.000135
1747.000000	0.000179
1746.000000	0.000199
1745.000000	0.000197
1744.000000	0.000182
1743.000000	0.000151
1742.000000	0.000101
1741.000000	0.000039
1740.000000	-0.000030
1739.000000	-0.000119
1738.000000	-0.000214
1737.000000	-0.000283
1736.000000	-0.000318
1735.000000	-0.000356
1734.000000	-0.000437
1733.000000	-0.000549
1732.000000	-0.000628
1731.000000	-0.000654
1730.000000	-0.000651
1729.000000	-0.000653
1728.000000	-0.000671
1727.000000	-0.000703
1726.000000	-0.000743
1725.000000	-0.000784
1724.000000	-0.000815
1723.000000	-0.000854
1722.000000	-0.000917
1721.000000	-0.000989
1720.000000	-0.001039
1719.000000	-0.001053
1718.000000	-0.001046
1717.000000	-0.001030
1716.000000	-0.001004
1715.000000	-0.000983
1714.000000	-0.000976
1713.000000	-0.000976
1712.000000	-0.000967
1711.000000	-0.000949
1710.000000	-0.000928
1709.000000	-0.000910
1708.000000	-0.000889
1707.000000	-0.000848
1706.000000	-0.000790
1705.000000	-0.000743
1704.000000	-0.000728
1703.000000	-0.000731
1702.000000	-0.000728
1701.000000	-0.000693
1700.000000	-0.000618
1699.000000	-0.000539
1698.000000	-0.000430
1697.000000	-0.000258
1696.000000	-0.000062
1695.000000	0.000080
1694.000000	0.000180
1693.000000	0.000302
1692.000000	0.000456
1691.000000	0.000600
1690.000000	0.000705
1689.000000	0.000770
1688.000000	0.000817
1687.000000	0.000872
1686.000000	0.000951
1685.000000	0.001076
1684.000000	0.001218
1683.000000	0.001321
1682.000000	0.001440
1681.000000	0.001602
1680.000000	0.001771
1679.000000	0.001909
1678.000000	0.002026
1677.000000	0.002154
1676.000000	0.002306
1675.000000	0.002460
1674.000000	0.002602
1673.000000	0.002745
1672.000000	0.002910
1671.000000	0.003089
1670.000000	0.003269
1669.000000	0.003444
1668.000000	0.003614
1667.000000	0.003779
1666.000000	0.003934
1665.000000	0.004081
1664.000000	0.004226
1663.000000	0.004364
1662.000000	0.004498
1661.000000	0.004633
1660.000000	0.004770
1659.000000	0.004895
1658.000000	0.004986
1657.000000	0.005043
1656.000000	0.005087
1655.000000	0.005145
1654.000000	0.005232
1653.000000	0.005316
1652.000000	0.005335
1651.000000	0.005341
1650.000000	0.005378
1649.000000	0.005462
1648.000000	0.005573
1647.000000	0.005659
1646.000000	0.005683
1645.000000	0.005692
1644.000000	0.005736
1643.000000	0.005803
1642.000000	0.005872
1641.000000	0.005922
1640.000000	0.005944
1639.000000	0.005945
1638.000000	0.005937
1637.000000	0.005921
1636.000000	0.005880
1635.000000	0.005816
1634.000000	0.005771
1633.000000	0.005776
1632.000000	0.005804
1631.000000	0.005815
1630.000000	0.005789
1629.000000	0.005727
1628.000000	0.005637
1627.000000	0.005527
1626.000000	0.005413
1625.000000	0.005298
1624.000000	0.005166
1623.000000	0.005007
1622.000000	0.004837
1621.000000	0.004682
1620.000000	0.004551
1619.000000	0.004438
1618.000000	0.004318
1617.000000	0.004165
1616.000000	0.003970
1615.000000	0.003781
1614.000000	0.003643
1613.000000	0.003547
1612.000000	0.003452
1611.000000	0.003333
1610.000000	0.003204
1609.000000	0.003078
1608.000000	0.002960
1607.000000	0.002855
1606.000000	0.002775
1605.000000	0.002709
1604.000000	0.002636
1603.000000	0.002554
1602.000000	0.002476
1601.000000	0.002412
1600.000000	0.002365
1599.000000	0.002331
1598.000000	0.002297
1597.000000	0.002250
1596.000000	0.002191
1595.000000	0.002141
1594.000000	0.002123
1593.000000	0.002129
1592.000000	0.002136
1591.000000	0.002124
1590.000000	0.002100
1589.000000	0.002077
1588.000000	0.002073
1587.000000	0.002096
1586.000000	0.002144
1585.000000	0.002198
1584.000000	0.002236
1583.000000	0.002270
1582.000000	0.002309
1581.000000	0.002345
1580.000000	0.002371
1579.000000	0.002409
1578.000000	0.002476
1577.000000	0.002557
1576.000000	0.002609
1575.000000	0.002632
1574.000000	0.002666
1573.000000	0.002722
1572.000000	0.002785
1571.000000	0.002847
1570.000000	0.002919
1569.000000	0.002994
1568.000000	0.003060
1567.000000	0.003139
1566.000000	0.003244
1565.000000	0.003361
1564.000000	0.003459
1563.000000	0.003534
1562.000000	0.003591
1561.000000	0.003623
1560.000000	0.003622
1559.000000	0.003626
1558.000000	0.003631
1557.000000	0.003707
1556.000000	0.003865
1555.000000	0.004041
1554.000000	0.004178
1553.000000	0.004261
1552.000000	0.004326
1551.000000	0.004397
1550.000000	0.004456
1549.000000	0.004491
1548.000000	0.004513
1547.000000	0.004539
1546.000000	0.004562
1545.000000	0.004574
1544.000000	0.004578
1543.000000	0.004583
1542.000000	0.004590
1541.000000	0.004595
1540.000000	0.004562
1539.000000	0.004480
1538.000000	0.004415
1537.000000	0.004400
1536.000000	0.004412
1535.000000	0.004415
1534.000000	0.004384
1533.000000	0.004324
1532.000000	0.004269
1531.000000	0.004226
1530.000000	0.004169
1529.000000	0.004090
1528.000000	0.004008
1527.000000	0.003932
1526.000000	0.003850
1525.000000	0.003759
1524.000000	0.003673
1523.000000	0.003599
1522.000000	0.003527
1521.000000	0.003447
1520.000000	0.003377
1519.000000	0.003341
1518.000000	0.003333
1517.000000	0.003324
1516.000000	0.003290
1515.000000	0.003239
1514.000000	0.003186
1513.000000	0.003130
1512.000000	0.003071
1511.000000	0.003008
1510.000000	0.002943
1509.000000	0.002875
1508.000000	0.002802
1507.000000	0.002692
1506.000000	0.002547
1505.000000	0.002462
1504.000000	0.002453
1503.000000	0.002462
1502.000000	0.002443
1501.000000	0.002384
1500.000000	0.002305
1499.000000	0.002243
1498.000000	0.002199
1497.000000	0.002153
1496.000000	0.002089
1495.000000	0.002006
1494.000000	0.001920
1493.000000	0.001842
1492.000000	0.001769
1491.000000	0.001695
1490.000000	0.001627
1489.000000	0.001584
1488.000000	0.001581
1487.000000	0.001595
1486.000000	0.001610
1485.000000	0.001628
1484.000000	0.001645
1483.000000	0.001660
1482.000000	0.001670
1481.000000	0.001676
1480.000000	0.001678
1479.000000	0.001675
1478.000000	0.001674
1477.000000	0.001694
1476.000000	0.001742
1475.000000	0.001801
1474.000000	0.001873
1473.000000	0.001974
1472.000000	0.002108
1471.000000	0.002249
1470.000000	0.002381
1469.000000	0.002501
1468.000000	0.002603
1467.000000	0.002680
1466.000000	0.002734
1465.000000	0.002776
1464.000000	0.002820
1463.000000	0.002871
1462.000000	0.002916
1461.000000	0.002945
1460.000000	0.002961
1459.000000	0.002984
1458.000000	0.003031
1457.000000	0.003089
1456.000000	0.003137
1455.000000	0.003193
1454.000000	0.003270
1453.000000	0.003352
1452.000000	0.003412
1451.000000	0.003432
1450.000000	0.003423
1449.000000	0.003406
1448.000000	0.003393
1447.000000	0.003373
1446.000000	0.003346
1445.000000	0.003312
1444.000000	0.003277
1443.000000	0.003242
1442.000000	0.003202
1441.000000	0.003152
1440.000000	0.003099
1439.000000	0.003043
1438.000000	0.002965
1437.000000	0.002861
1436.000000	0.002761
1435.000000	0.002707
1434.000000	0.002698
1433.000000	0.002707
1432.000000	0.002706
1431.000000	0.002689
1430.000000	0.002657
1429.000000	0.002617
1428.000000	0.002580
1427.000000	0.002551
1426.000000	0.002539
1425.000000	0.002538
1424.000000	0.002540
1423.000000	0.002541
1422.000000	0.002531
1421.000000	0.002500
1420.000000	0.002448
1419.000000	0.002401
1418.000000	0.002378
1417.000000	0.002385
1416.000000	0.002420
1415.000000	0.002467
1414.000000	0.002505
1413.000000	0.002527
1412.000000	0.002540
1411.000000	0.002546
1410.000000	0.002543
1409.000000	0.002534
1408.000000	0.002531
1407.000000	0.002534
1406.000000	0.002539
1405.000000	0.002541
1404.000000	0.002543
1403.000000	0.002550
1402.000000	0.002555
1401.000000	0.002549
1400.000000	0.002523
1399.000000	0.002477
1398.000000	0.002424
1397.000000	0.002385
1396.000000	0.002369
1395.000000	0.002366
1394.000000	0.002350
1393.000000	0.002317
1392.000000	0.002284
1391.000000	0.002259
1390.000000	0.002232
1389.000000	0.002191
1388.000000	0.002143
1387.000000	0.002103
1386.000000	0.002081
1385.000000	0.002070
1384.000000	0.002057
1383.000000	0.002034
1382.000000	0.002001
1381.000000	0.001967
1380.000000	0.001937
1379.000000	0.001903
1378.000000	0.001860
1377.000000	0.001820
1376.000000	0.001792
1375.000000	0.001775
1374.000000	0.001749
1373.000000	0.001697
1372.000000	0.001627
1371.000000	0.001556
1370.000000	0.001494
1369.000000	0.001440
1368.000000	0.001390
1367.000000	0.001346
1366.000000	0.001308
1365.000000	0.001274
1364.000000	0.001241
1363.000000	0.001205
1362.000000	0.001167
1361.000000	0.001137
1360.000000	0.001129
1359.000000	0.001139
1358.000000	0.001157
1357.000000	0.001171
1356.000000	0.001182
1355.000000	0.001196
1354.000000	0.001218
1353.000000	0.001246
1352.000000	0.001274
1351.000000	0.001296
1350.000000	0.001317
1349.000000	0.001349
1348.000000	0.001398
1347.000000	0.001458
1346.000000	0.001511
1345.000000	0.001545
1344.000000	0.001561
1343.000000	0.001571
1342.000000	0.001586
1341.000000	0.001608
1340.000000	0.001630
1339.000000	0.001646
1338.000000	0.001657
1337.000000	0.001667
1336.000000	0.001676
1335.000000	0.001679
1334.000000	0.001669
1333.000000	0.001644
1332.000000	0.001607
1331.000000	0.001568
1330.000000	0.001532
1329.000000	0.001500
1328.000000	0.001467
1327.000000	0.001432
1326.000000	0.001406
1325.000000	0.001401
1324.000000	0.001421
1323.000000	0.001449
1322.000000	0.001465
1321.000000	0.001460
1320.000000	0.001445
1319.000000	0.001430
1318.000000	0.001416
1317.000000	0.001401
1316.000000	0.001392
1315.000000	0.001395
1314.000000	0.001398
1313.000000	0.001384
1312.000000	0.001347
1311.000000	0.001307
1310.000000	0.001280
1309.000000	0.001260
1308.000000	0.001242
1307.000000	0.001230
1306.000000	0.001231
1305.000000	0.001241
1304.000000	0.001242
1303.000000	0.001228
1302.000000	0.001204
1301.000000	0.001185
1300.000000	0.001180
1299.000000	0.001182
1298.000000	0.001178
1297.000000	0.001157
1296.000000	0.001131
1295.000000	0.001122
1294.000000	0.001142
1293.000000	0.001179
1292.000000	0.001213
1291.000000	0.001237
1290.000000	0.001260
1289.000000	0.001283
1288.000000	0.001302
1287.000000	0.001315
1286.000000	0.001331
1285.000000	0.001354
1284.000000	0.001382
1283.000000	0.001408
1282.000000	0.001431
1281.000000	0.001447
1280.000000	0.001448
1279.000000	0.001436
1278.000000	0.001420
1277.000000	0.001411
1276.000000	0.001404
1275.000000	0.001385
1274.000000	0.001359
1273.000000	0.001340
1272.000000	0.001345
1271.000000	0.001368
1270.000000	0.001396
1269.000000	0.001420
1268.000000	0.001442
1267.000000	0.001468
1266.000000	0.001495
1265.000000	0.001517
1264.000000	0.001531
1263.000000	0.001540
1262.000000	0.001551
1261.000000	0.001570
1260.000000	0.001602
1259.000000	0.001648
1258.000000	0.001706
1257.000000	0.001767
1256.000000	0.001816
1255.000000	0.001845
1254.000000	0.001858
1253.000000	0.001870
1252.000000	0.001892
1251.000000	0.001926
1250.000000	0.001972
1249.000000	0.002028
1248.000000	0.002093
1247.000000	0.002157
1246.000000	0.002212
1245.000000	0.002255
1244.000000	0.002287
1243.000000	0.002316
1242.000000	0.002347
1241.000000	0.002384
1240.000000	0.002422
1239.000000	0.002450
1238.000000	0.002456
1237.000000	0.002437
1236.000000	0.002404
1235.000000	0.002368
1234.000000	0.002340
1233.000000	0.002322
1232.000000	0.002305
1231.000000	0.002275
1230.000000	0.002226
1229.000000	0.002164
1228.000000	0.002106
1227.000000	0.002055
1226.000000	0.002001
1225.000000	0.001936
1224.000000	0.001861
1223.000000	0.001782
1222.000000	0.001701
1221.000000	0.001615
1220.000000	0.001530
1219.000000	0.001452
1218.000000	0.001390
1217.000000	0.001347
1216.000000	0.001326
1215.000000	0.001324
1214.000000	0.001329
1213.000000	0.001326
1212.000000	0.001315
1211.000000	0.001302
1210.000000	0.001296
1209.000000	0.001296
1208.000000	0.001299
1207.000000	0.001310
1206.000000	0.001333
1205.000000	0.001357
1204.000000	0.001367
1203.000000	0.001354
1202.000000	0.001331
1201.000000	0.001318
1200.000000	0.001319
1199.000000	0.001323
1198.000000	0.001311
1197.000000	0.001276
1196.000000	0.001231
1195.000000	0.001195
1194.000000	0.001177
1193.000000	0.001170
1192.000000	0.001159
1191.000000	0.001137
1190.000000	0.001107
1189.000000	0.001079
1188.000000	0.001059
1187.000000	0.001047
1186.000000	0.001042
1185.000000	0.001042
1184.000000	0.001043
1183.000000	0.001042
1182.000000	0.001037
1181.000000	0.001034
1180.000000	0.001032
1179.000000	0.001028
1178.000000	0.001020
1177.000000	0.001019
1176.000000	0.001037
1175.000000	0.001077
1174.000000	0.001125
1173.000000	0.001164
1172.000000	0.001182
1171.000000	0.001179
1170.000000	0.001168
1169.000000	0.001164
1168.000000	0.001179
1167.000000	0.001217
1166.000000	0.001265
1165.000000	0.001302
1164.000000	0.001316
1163.000000	0.001311
1162.000000	0.001306
1161.000000	0.001311
1160.000000	0.001320
1159.000000	0.001317
1158.000000	0.001298
1157.000000	0.001268
1156.000000	0.001238
1155.000000	0.001208
1154.000000	0.001175
1153.000000	0.001138
1152.000000	0.001105
1151.000000	0.001085
1150.000000	0.001080
1149.000000	0.001085
1148.000000	0.001087
1147.000000	0.001078
1146.000000	0.001057
1145.000000	0.001031
1144.000000	0.001009
1143.000000	0.000992
1142.000000	0.000974
1141.000000	0.000945
1140.000000	0.000899
1139.000000	0.000838
1138.000000	0.000777
1137.000000	0.000727
1136.000000	0.000695
1135.000000	0.000678
1134.000000	0.000674
1133.000000	0.000674
1132.000000	0.000664
1131.000000	0.000636
1130.000000	0.000602
1129.000000	0.000582
1128.000000	0.000590
1127.000000	0.000620
1126.000000	0.000658
1125.000000	0.000690
1124.000000	0.000704
1123.000000	0.000691
1122.000000	0.000654
1121.000000	0.000618
1120.000000	0.000604
1119.000000	0.000615
1118.000000	0.000630
1117.000000	0.000640
1116.000000	0.000651
1115.000000	0.000674
1114.000000	0.000706
1113.000000	0.000736
1112.000000	0.000754
1111.000000	0.000761
1110.000000	0.000764
1109.000000	0.000774
1108.000000	0.000793
1107.000000	0.000812
1106.000000	0.000820
1105.000000	0.000818
1104.000000	0.000818
1103.000000	0.000830
1102.000000	0.000854
1101.000000	0.000875
1100.000000	0.000879
1099.000000	0.000863
1098.000000	0.000839
1097.000000	0.000818
1096.000000	0.000810
1095.000000	0.000821
1094.000000	0.000854
1093.000000	0.000903
1092.000000	0.000958
1091.000000	0.001005
1090.000000	0.001047
1089.000000	0.001091
1088.000000	0.001137
1087.000000	0.001180
1086.000000	0.001219
1085.000000	0.001262
1084.000000	0.001311
1083.000000	0.001356
1082.000000	0.001380
1081.000000	0.001385
1080.000000	0.001378
1079.000000	0.001365
1078.000000	0.001346
1077.000000	0.001322
1076.000000	0.001292
1075.000000	0.001248
1074.000000	0.001188
1073.000000	0.001125
1072.000000	0.001080
1071.000000	0.001063
1070.000000	0.001067
1069.000000	0.001081
1068.000000	0.001092
1067.000000	0.001091
1066.000000	0.001077
1065.000000	0.001063
1064.000000	0.001066
1063.000000	0.001086
1062.000000	0.001110
1061.000000	0.001118
1060.000000	0.001108
1059.000000	0.001093
1058.000000	0.001090
1057.000000	0.001103
1056.000000	0.001124
1055.000000	0.001141
1054.000000	0.001145
1053.000000	0.001143
1052.000000	0.001141
1051.000000	0.001149
1050.000000	0.001167
1049.000000	0.001192
1048.000000	0.001213
1047.000000	0.001227
1046.000000	0.001237
1045.000000	0.001248
1044.000000	0.001258
1043.000000	0.001259
1042.000000	0.001254
1041.000000	0.001248
1040.000000	0.001252
1039.000000	0.001270
1038.000000	0.001297
1037.000000	0.001321
1036.000000	0.001324
1035.000000	0.001298
1034.000000	0.001269
1033.000000	0.001266
1032.000000	0.001291
1031.000000	0.001316
1030.000000	0.001322
1029.000000	0.001329
1028.000000	0.001354
1027.000000	0.001384
1026.000000	0.001395
1025.000000	0.001390
1024.000000	0.001392
1023.000000	0.001410
1022.000000	0.001429
1021.000000	0.001432
1020.000000	0.001419
1019.000000	0.001393
1018.000000	0.001358
1017.000000	0.001319
1016.000000	0.001286
1015.000000	0.001253
1014.000000	0.001216
1013.000000	0.001181
1012.000000	0.001162
1011.000000	0.001151
1010.000000	0.001125
1009.000000	0.001078
1008.000000	0.001030
1007.000000	0.001000
1006.000000	0.000984
1005.000000	0.000964
1004.000000	0.000926
1003.000000	0.000868
1002.000000	0.000791
1001.000000	0.000709
1000.000000	0.000646
999.000000	0.000615
998.000000	0.000604
997.000000	0.000591
996.000000	0.000564
995.000000	0.000524
994.000000	0.000481
993.000000	0.000441
992.000000	0.000408
991.000000	0.000377
990.000000	0.000346
989.000000	0.000320
988.000000	0.000304
987.000000	0.000293
986.000000	0.000271
985.000000	0.000233
984.000000	0.000194
983.000000	0.000178
982.000000	0.000193
981.000000	0.000228
980.000000	0.000260
979.000000	0.000267
978.000000	0.000234
977.000000	0.000174
976.000000	0.000114
975.000000	0.000079
974.000000	0.000071
973.000000	0.000072
972.000000	0.000064
971.000000	0.000039
970.000000	0.000006
969.000000	-0.000021
968.000000	-0.000038
967.000000	-0.000058
966.000000	-0.000097
965.000000	-0.000145
964.000000	-0.000180
963.000000	-0.000192
962.000000	-0.000200
961.000000	-0.000219
960.000000	-0.000236
959.000000	-0.000236
958.000000	-0.000232
957.000000	-0.000254
956.000000	-0.000305
955.000000	-0.000352
954.000000	-0.000365
953.000000	-0.000348
952.000000	-0.000332
951.000000	-0.000340
950.000000	-0.000375
949.000000	-0.000422
948.000000	-0.000465
947.000000	-0.000493
946.000000	-0.000506
945.000000	-0.000507
944.000000	-0.000497
943.000000	-0.000481
942.000000	-0.000468
941.000000	-0.000470
940.000000	-0.000495
939.000000	-0.000548
938.000000	-0.000618
937.000000	-0.000677
936.000000	-0.000691
935.000000	-0.000655
934.000000	-0.000596
933.000000	-0.000558
932.000000	-0.000557
931.000000	-0.000582
930.000000	-0.000612
929.000000	-0.000635
928.000000	-0.000645
927.000000	-0.000640
926.000000	-0.000629
925.000000	-0.000630
924.000000	-0.000653
923.000000	-0.000690
922.000000	-0.000716
921.000000	-0.000709
920.000000	-0.000669
919.000000	-0.000615
918.000000	-0.000583
917.000000	-0.000594
916.000000	-0.000639
915.000000	-0.000686
914.000000	-0.000722
913.000000	-0.000759
912.000000	-0.000808
911.000000	-0.000859
910.000000	-0.000880
909.000000	-0.000861
908.000000	-0.000823
907.000000	-0.000800
906.000000	-0.000804
905.000000	-0.000820
904.000000	-0.000825
903.000000	-0.000814
902.000000	-0.000803
901.000000	-0.000816
900.000000	-0.000866
899.000000	-0.000941
898.000000	-0.001009
897.000000	-0.001034
896.000000	-0.001002
895.000000	-0.000938
894.000000	-0.000889
893.000000	-0.000887
892.000000	-0.000920
891.000000	-0.000943
890.000000	-0.000932
889.000000	-0.000901
888.000000	-0.000889
887.000000	-0.000913
886.000000	-0.000951
885.000000	-0.000967
884.000000	-0.000945
883.000000	-0.000897
882.000000	-0.000849
881.000000	-0.000814
880.000000	-0.000780
879.000000	-0.000730
878.000000	-0.000660
877.000000	-0.000587
876.000000	-0.000533
875.000000	-0.000510
874.000000	-0.000520
873.000000	-0.000557
872.000000	-0.000616
871.000000	-0.000682
870.000000	-0.000745
869.000000	-0.000797
868.000000	-0.000835
867.000000	-0.000856
866.000000	-0.000858
865.000000	-0.000846
864.000000	-0.000838
863.000000	-0.000848
862.000000	-0.000874
861.000000	-0.000898
860.000000	-0.000908
859.000000	-0.000915
858.000000	-0.000938
857.000000	-0.000979
856.000000	-0.001023
855.000000	-0.001049
854.000000	-0.001058
853.000000	-0.001058
852.000000	-0.001048
851.000000	-0.001022
850.000000	-0.000986
849.000000	-0.000962
848.000000	-0.000962
847.000000	-0.000973
846.000000	-0.000967
845.000000	-0.000929
844.000000	-0.000867
843.000000	-0.000808
842.000000	-0.000782
841.000000	-0.000800
840.000000	-0.000849
839.000000	-0.000904
838.000000	-0.000945
837.000000	-0.000975
836.000000	-0.001008
835.000000	-0.001050
834.000000	-0.001090
833.000000	-0.001113
832.000000	-0.001114
831.000000	-0.001100
830.000000	-0.001091
829.000000	-0.001105
828.000000	-0.001137
827.000000	-0.001160
826.000000	-0.001150
825.000000	-0.001109
824.000000	-0.001066
823.000000	-0.001043
822.000000	-0.001044
821.000000	-0.001057
820.000000	-0.001062
819.000000	-0.001035
818.000000	-0.000978
817.000000	-0.000915
816.000000	-0.000879
815.000000	-0.000870
814.000000	-0.000865
813.000000	-0.000856
812.000000	-0.000867
811.000000	-0.000919
810.000000	-0.000993
809.000000	-0.001049
808.000000	-0.001069
807.000000	-0.001065
806.000000	-0.001047
805.000000	-0.001011
804.000000	-0.000962
803.000000	-0.000931
802.000000	-0.000942
801.000000	-0.000983
800.000000	-0.001022
799.000000	-0.001048
798.000000	-0.001079
797.000000	-0.001125
796.000000	-0.001166
795.000000	-0.001167
794.000000	-0.001118
793.000000	-0.001048
792.000000	-0.000997
791.000000	-0.000977
790.000000	-0.000969
789.000000	-0.000952
788.000000	-0.000928
787.000000	-0.000915
786.000000	-0.000917
785.000000	-0.000917
784.000000	-0.000900
783.000000	-0.000874
782.000000	-0.000865
781.000000	-0.000883
780.000000	-0.000911
779.000000	-0.000919
778.000000	-0.000902
777.000000	-0.000873
776.000000	-0.000851
775.000000	-0.000833
774.000000	-0.000806
773.000000	-0.000766
772.000000	-0.000726
771.000000	-0.000708
770.000000	-0.000722
769.000000	-0.000758
768.000000	-0.000794
767.000000	-0.000812
766.000000	-0.000809
765.000000	-0.000802
764.000000	-0.000802
763.000000	-0.000805
762.000000	-0.000805
761.000000	-0.000803
760.000000	-0.000802
759.000000	-0.000802
758.000000	-0.000801
757.000000	-0.000810
756.000000	-0.000842
755.000000	-0.000888
754.000000	-0.000919
753.000000	-0.000919
752.000000	-0.000906
751.000000	-0.000909
750.000000	-0.000935
749.000000	-0.000969
748.000000	-0.000992
747.000000	-0.000994
746.000000	-0.000975
745.000000	-0.000941
744.000000	-0.000909
743.000000	-0.000890
742.000000	-0.000870
741.000000	-0.000816
740.000000	-0.000713
739.000000	-0.000585
738.000000	-0.000474
737.000000	-0.000413
736.000000	-0.000407
735.000000	-0.000447
734.000000	-0.000514
733.000000	-0.000578
732.000000	-0.000614
731.000000	-0.000614
730.000000	-0.000581
729.000000	-0.000521
728.000000	-0.000447
727.000000	-0.000384
726.000000	-0.000345
725.000000	-0.000312
724.000000	-0.000256
723.000000	-0.000178
722.000000	-0.000109
721.000000	-0.000071
720.000000	-0.000065
719.000000	-0.000075
718.000000	-0.000089
717.000000	-0.000089
716.000000	-0.000054
715.000000	0.000011
714.000000	0.000070
713.000000	0.000093
712.000000	0.000084
711.000000	0.000069
710.000000	0.000049
709.000000	0.000006
708.000000	-0.000060
707.000000	-0.000126
706.000000	-0.000169
705.000000	-0.000179
704.000000	-0.000150
703.000000	-0.000074
702.000000	0.000031
701.000000	0.000112
700.000000	0.000119
699.000000	0.000050
698.000000	-0.000050
697.000000	-0.000127
696.000000	-0.000166
695.000000	-0.000180
694.000000	-0.000194
693.000000	-0.000212
692.000000	-0.000212
691.000000	-0.000174
690.000000	-0.000114
689.000000	-0.000069
688.000000	-0.000054
687.000000	-0.000052
686.000000	-0.000053
685.000000	-0.000073
684.000000	-0.000108
683.000000	-0.000123
682.000000	-0.000085
681.000000	-0.000001
680.000000	0.000105
679.000000	0.000199
678.000000	0.000234
677.000000	0.000194
676.000000	0.000122
675.000000	0.000077
674.000000	0.000068
673.000000	0.000047
672.000000	-0.000025
671.000000	-0.000156
670.000000	-0.000347
669.000000	-0.000592
668.000000	-0.000710
667.000000	-0.000511
666.000000	-0.000257
665.000000	-0.000042
664.000000	0.000143
663.000000	0.000256
662.000000	0.000274
661.000000	0.000234
660.000000	0.000183
659.000000	0.000151
658.000000	0.000162
657.000000	0.000236
656.000000	0.000334
655.000000	0.000376
654.000000	0.000344
653.000000	0.000296
652.000000	0.000270
651.000000	0.000253
650.000000	0.000238
649.000000	0.000249
648.000000	0.000276
647.000000	0.000283
646.000000	0.000284
645.000000	0.000328
644.000000	0.000401
643.000000	0.000436
642.000000	0.000415
641.000000	0.000397
640.000000	0.000417
639.000000	0.000432
638.000000	0.000408
637.000000	0.000375
636.000000	0.000363
635.000000	0.000348
634.000000	0.000301
633.000000	0.000245
632.000000	0.000217
631.000000	0.000225
630.000000	0.000264
629.000000	0.000335
628.000000	0.000411
627.000000	0.000430
626.000000	0.000380
625.000000	0.000332
624.000000	0.000355
623.000000	0.000432
622.000000	0.000490
621.000000	0.000499
620.000000	0.000486
619.000000	0.000485
618.000000	0.000499
617.000000	0.000518
616.000000	0.000534
615.000000	0.000538
614.000000	0.000517
613.000000	0.000468
612.000000	0.000392
611.000000	0.000300
610.000000	0.000223
609.000000	0.000207
608.000000	0.000268
607.000000	0.000372
606.000000	0.000468
605.000000	0.000529
604.000000	0.000561
603.000000	0.000573
602.000000	0.000550
601.000000	0.000475
600.000000	0.000365
599.000000	0.000289
598.000000	0.000310
597.000000	0.000412
596.000000	0.000511
595.000000	0.000545
594.000000	0.000532
593.000000	0.000532
592.000000	0.000566
591.000000	0.000613
590.000000	0.000641
589.000000	0.000628
588.000000	0.000552
587.000000	0.000421
586.000000	0.000293
585.000000	0.000239
584.000000	0.000276
583.000000	0.000375
582.000000	0.000492
581.000000	0.000578
580.000000	0.000591
579.000000	0.000536
578.000000	0.000483
577.000000	0.000493
576.000000	0.000547
575.000000	0.000588
574.000000	0.000610
573.000000	0.000650
572.000000	0.000721
571.000000	0.000788
570.000000	0.000827
569.000000	0.000824
568.000000	0.000757
567.000000	0.000625
566.000000	0.000500
565.000000	0.000469
564.000000	0.000536
563.000000	0.000630
562.000000	0.000704
561.000000	0.000764
560.000000	0.000791
559.000000	0.000728
558.000000	0.000580
557.000000	0.000447
556.000000	0.000412
555.000000	0.000454
554.000000	0.000515
553.000000	0.000591
552.000000	0.000688
551.000000	0.000749
550.000000	0.000695
549.000000	0.000534
548.000000	0.000356
547.000000	0.000242
546.000000	0.000199
545.000000	0.000202
544.000000	0.000241
543.000000	0.000326
542.000000	0.000446
541.000000	0.000551
540.000000	0.000570
539.000000	0.000471
538.000000	0.000295
537.000000	0.000133
536.000000	0.000050
535.000000	0.000058
534.000000	0.000131
533.000000	0.000235
532.000000	0.000341
531.000000	0.000427
530.000000	0.000480
529.000000	0.000471
528.000000	0.000351
527.000000	0.000120
526.000000	-0.000112
525.000000	-0.000202
524.000000	-0.000125
523.000000	-0.000003
522.000000	0.000032
521.000000	-0.000064
520.000000	-0.000239
519.000000	-0.000399
518.000000	-0.000459
517.000000	-0.000410
516.000000	-0.000324
515.000000	-0.000283
514.000000	-0.000293
513.000000	-0.000305
512.000000	-0.000300
511.000000	-0.000315
510.000000	-0.000383
509.000000	-0.000501
508.000000	-0.000650
507.000000	-0.000785
506.000000	-0.000824
505.000000	-0.000711
504.000000	-0.000506
503.000000	-0.000340
502.000000	-0.000286
501.000000	-0.000306
500.000000	-0.000350
499.000000	-0.000431
498.000000	-0.000569
497.000000	-0.000711
496.000000	-0.000778
495.000000	-0.000749
494.000000	-0.000677
493.000000	-0.000634
492.000000	-0.000639
491.000000	-0.000620
490.000000	-0.000487
489.000000	-0.000262
488.000000	-0.000101
487.000000	-0.000126
486.000000	-0.000283
485.000000	-0.000428
484.000000	-0.000528
483.000000	-0.000646
482.000000	-0.000759
481.000000	-0.000747
480.000000	-0.000581
479.000000	-0.000399
478.000000	-0.000345
477.000000	-0.000428
476.000000	-0.000574
475.000000	-0.000728
474.000000	-0.000852
473.000000	-0.000917
472.000000	-0.000951
471.000000	-0.001017
470.000000	-0.001100
469.000000	-0.001096
468.000000	-0.000967
467.000000	-0.000818
466.000000	-0.000763
465.000000	-0.000770
464.000000	-0.000730
463.000000	-0.000630
462.000000	-0.000576
461.000000	-0.000650
460.000000	-0.000835
459.000000	-0.001048
458.000000	-0.001186
457.000000	-0.001202
456.000000	-0.001147
455.000000	-0.001104
454.000000	-0.001092
453.000000	-0.001078
452.000000	-0.001065
451.000000	-0.001077
450.000000	-0.001075
