PE IR       SUBTECH     SPECTRUM    ASCII       PEDS        4.00        
   -1
3C-H10-F047_1.ASC
22/02/24
15:41:23.00
22/02/24
15:42:20.00
uco
Sample 047 By uco Date Thursday, February 24 2022
450.000000
#HDR
-1
-1
#GR
cm-1
A
1.0
0.0
4000.000000
-1.000000
3551
8
0.080342
0.008906
#DATA
4000.000000	0.009183
3999.000000	0.009173
3998.000000	0.009161
3997.000000	0.009158
3996.000000	0.009170
3995.000000	0.009192
3994.000000	0.009186
3993.000000	0.009210
3992.000000	0.009235
3991.000000	0.009262
3990.000000	0.009290
3989.000000	0.009316
3988.000000	0.009334
3987.000000	0.009339
3986.000000	0.009334
3985.000000	0.009323
3984.000000	0.009313
3983.000000	0.009309
3982.000000	0.009310
3981.000000	0.009310
3980.000000	0.009307
3979.000000	0.009303
3978.000000	0.009305
3977.000000	0.009314
3976.000000	0.009328
3975.000000	0.009345
3974.000000	0.009361
3973.000000	0.009374
3972.000000	0.009378
3971.000000	0.009365
3970.000000	0.009336
3969.000000	0.009300
3968.000000	0.009272
3967.000000	0.009264
3966.000000	0.009274
3965.000000	0.009299
3964.000000	0.009328
3963.000000	0.009353
3962.000000	0.009367
3961.000000	0.009370
3960.000000	0.009369
3959.000000	0.009373
3958.000000	0.009387
3957.000000	0.009406
3956.000000	0.009420
3955.000000	0.009423
3954.000000	0.009418
3953.000000	0.009414
3952.000000	0.009416
3951.000000	0.009427
3950.000000	0.009442
3949.000000	0.009460
3948.000000	0.009481
3947.000000	0.009504
3946.000000	0.009530
3945.000000	0.009549
3944.000000	0.009555
3943.000000	0.009543
3942.000000	0.009522
3941.000000	0.009506
3940.000000	0.009503
3939.000000	0.009507
3938.000000	0.009512
3937.000000	0.009516
3936.000000	0.009524
3935.000000	0.009543
3934.000000	0.009569
3933.000000	0.009591
3932.000000	0.009601
3931.000000	0.009595
3930.000000	0.009583
3929.000000	0.009574
3928.000000	0.009570
3927.000000	0.009566
3926.000000	0.009553
3925.000000	0.009534
3924.000000	0.009519
3923.000000	0.009524
3922.000000	0.009550
3921.000000	0.009586
3920.000000	0.009612
3919.000000	0.009616
3918.000000	0.009598
3917.000000	0.009571
3916.000000	0.009551
3915.000000	0.009544
3914.000000	0.009550
3913.000000	0.009557
3912.000000	0.009558
3911.000000	0.009552
3910.000000	0.009545
3909.000000	0.009545
3908.000000	0.009556
3907.000000	0.009574
3906.000000	0.009591
3905.000000	0.009597
3904.000000	0.009591
3903.000000	0.009585
3902.000000	0.009583
3901.000000	0.009579
3900.000000	0.009565
3899.000000	0.009541
3898.000000	0.009521
3897.000000	0.009515
3896.000000	0.009525
3895.000000	0.009546
3894.000000	0.009571
3893.000000	0.009589
3892.000000	0.009590
3891.000000	0.009574
3890.000000	0.009558
3889.000000	0.009556
3888.000000	0.009572
3887.000000	0.009592
3886.000000	0.009599
3885.000000	0.009589
3884.000000	0.009578
3883.000000	0.009577
3882.000000	0.009582
3881.000000	0.009580
3880.000000	0.009567
3879.000000	0.009554
3878.000000	0.009550
3877.000000	0.009551
3876.000000	0.009549
3875.000000	0.009537
3874.000000	0.009522
3873.000000	0.009521
3872.000000	0.009546
3871.000000	0.009580
3870.000000	0.009594
3869.000000	0.009582
3868.000000	0.009562
3867.000000	0.009544
3866.000000	0.009522
3865.000000	0.009491
3864.000000	0.009461
3863.000000	0.009454
3862.000000	0.009474
3861.000000	0.009514
3860.000000	0.009559
3859.000000	0.009597
3858.000000	0.009620
3857.000000	0.009626
3856.000000	0.009627
3855.000000	0.009632
3854.000000	0.009630
3853.000000	0.009613
3852.000000	0.009592
3851.000000	0.009573
3850.000000	0.009557
3849.000000	0.009540
3848.000000	0.009531
3847.000000	0.009532
3846.000000	0.009541
3845.000000	0.009552
3844.000000	0.009558
3843.000000	0.009558
3842.000000	0.009556
3841.000000	0.009555
3840.000000	0.009551
3839.000000	0.009538
3838.000000	0.009513
3837.000000	0.009487
3836.000000	0.009469
3835.000000	0.009464
3834.000000	0.009472
3833.000000	0.009487
3832.000000	0.009499
3831.000000	0.009503
3830.000000	0.009500
3829.000000	0.009492
3828.000000	0.009482
3827.000000	0.009470
3826.000000	0.009463
3825.000000	0.009468
3824.000000	0.009490
3823.000000	0.009521
3822.000000	0.009534
3821.000000	0.009515
3820.000000	0.009484
3819.000000	0.009470
3818.000000	0.009475
3817.000000	0.009481
3816.000000	0.009473
3815.000000	0.009457
3814.000000	0.009449
3813.000000	0.009451
3812.000000	0.009450
3811.000000	0.009442
3810.000000	0.009433
3809.000000	0.009431
3808.000000	0.009436
3807.000000	0.009439
3806.000000	0.009443
3805.000000	0.009456
3804.000000	0.009474
3803.000000	0.009484
3802.000000	0.009470
3801.000000	0.009440
3800.000000	0.009422
3799.000000	0.009420
3798.000000	0.009421
3797.000000	0.009418
3796.000000	0.009415
3795.000000	0.009422
3794.000000	0.009433
3793.000000	0.009438
3792.000000	0.009426
3791.000000	0.009400
3790.000000	0.009370
3789.000000	0.009346
3788.000000	0.009336
3787.000000	0.009344
3786.000000	0.009371
3785.000000	0.009412
3784.000000	0.009452
3783.000000	0.009484
3782.000000	0.009501
3781.000000	0.009500
3780.000000	0.009480
3779.000000	0.009451
3778.000000	0.009432
3777.000000	0.009429
3776.000000	0.009434
3775.000000	0.009432
3774.000000	0.009417
3773.000000	0.009399
3772.000000	0.009388
3771.000000	0.009386
3770.000000	0.009385
3769.000000	0.009380
3768.000000	0.009376
3767.000000	0.009372
3766.000000	0.009366
3765.000000	0.009354
3764.000000	0.009338
3763.000000	0.009328
3762.000000	0.009329
3761.000000	0.009333
3760.000000	0.009330
3759.000000	0.009316
3758.000000	0.009298
3757.000000	0.009286
3756.000000	0.009285
3755.000000	0.009296
3754.000000	0.009316
3753.000000	0.009334
3752.000000	0.009342
3751.000000	0.009341
3750.000000	0.009346
3749.000000	0.009359
3748.000000	0.009368
3747.000000	0.009371
3746.000000	0.009372
3745.000000	0.009370
3744.000000	0.009371
3743.000000	0.009388
3742.000000	0.009421
3741.000000	0.009451
3740.000000	0.009466
3739.000000	0.009465
3738.000000	0.009455
3737.000000	0.009434
3736.000000	0.009395
3735.000000	0.009342
3734.000000	0.009292
3733.000000	0.009258
3732.000000	0.009235
3731.000000	0.009219
3730.000000	0.009211
3729.000000	0.009216
3728.000000	0.009233
3727.000000	0.009249
3726.000000	0.009249
3725.000000	0.009227
3724.000000	0.009187
3723.000000	0.009140
3722.000000	0.009105
3721.000000	0.009101
3720.000000	0.009128
3719.000000	0.009174
3718.000000	0.009218
3717.000000	0.009243
3716.000000	0.009246
3715.000000	0.009239
3714.000000	0.009235
3713.000000	0.009238
3712.000000	0.009239
3711.000000	0.009228
3710.000000	0.009208
3709.000000	0.009190
3708.000000	0.009186
3707.000000	0.009196
3706.000000	0.009214
3705.000000	0.009235
3704.000000	0.009256
3703.000000	0.009274
3702.000000	0.009289
3701.000000	0.009302
3700.000000	0.009318
3699.000000	0.009338
3698.000000	0.009360
3697.000000	0.009370
3696.000000	0.009355
3695.000000	0.009315
3694.000000	0.009266
3693.000000	0.009223
3692.000000	0.009198
3691.000000	0.009192
3690.000000	0.009200
3689.000000	0.009219
3688.000000	0.009242
3687.000000	0.009262
3686.000000	0.009272
3685.000000	0.009271
3684.000000	0.009263
3683.000000	0.009262
3682.000000	0.009282
3681.000000	0.009336
3680.000000	0.009420
3679.000000	0.009521
3678.000000	0.009622
3677.000000	0.009692
3676.000000	0.009692
3675.000000	0.009632
3674.000000	0.009566
3673.000000	0.009533
3672.000000	0.009532
3671.000000	0.009549
3670.000000	0.009571
3669.000000	0.009598
3668.000000	0.009629
3667.000000	0.009647
3666.000000	0.009643
3665.000000	0.009621
3664.000000	0.009600
3663.000000	0.009594
3662.000000	0.009609
3661.000000	0.009643
3660.000000	0.009692
3659.000000	0.009756
3658.000000	0.009833
3657.000000	0.009910
3656.000000	0.009963
3655.000000	0.009986
3654.000000	0.009985
3653.000000	0.009981
3652.000000	0.009998
3651.000000	0.010049
3650.000000	0.010128
3649.000000	0.010213
3648.000000	0.010275
3647.000000	0.010307
3646.000000	0.010322
3645.000000	0.010342
3644.000000	0.010376
3643.000000	0.010416
3642.000000	0.010448
3641.000000	0.010471
3640.000000	0.010494
3639.000000	0.010527
3638.000000	0.010564
3637.000000	0.010597
3636.000000	0.010626
3635.000000	0.010659
3634.000000	0.010706
3633.000000	0.010766
3632.000000	0.010832
3631.000000	0.010899
3630.000000	0.010963
3629.000000	0.011022
3628.000000	0.011087
3627.000000	0.011161
3626.000000	0.011231
3625.000000	0.011287
3624.000000	0.011331
3623.000000	0.011372
3622.000000	0.011419
3621.000000	0.011472
3620.000000	0.011519
3619.000000	0.011556
3618.000000	0.011591
3617.000000	0.011639
3616.000000	0.011705
3615.000000	0.011787
3614.000000	0.011872
3613.000000	0.011944
3612.000000	0.011996
3611.000000	0.012032
3610.000000	0.012067
3609.000000	0.012116
3608.000000	0.012182
3607.000000	0.012256
3606.000000	0.012324
3605.000000	0.012381
3604.000000	0.012432
3603.000000	0.012487
3602.000000	0.012548
3601.000000	0.012608
3600.000000	0.012653
3599.000000	0.012685
3598.000000	0.012718
3597.000000	0.012770
3596.000000	0.012848
3595.000000	0.012948
3594.000000	0.013052
3593.000000	0.013151
3592.000000	0.013237
3591.000000	0.013317
3590.000000	0.013400
3589.000000	0.013485
3588.000000	0.013562
3587.000000	0.013625
3586.000000	0.013679
3585.000000	0.013737
3584.000000	0.013801
3583.000000	0.013871
3582.000000	0.013946
3581.000000	0.014023
3580.000000	0.014097
3579.000000	0.014167
3578.000000	0.014241
3577.000000	0.014328
3576.000000	0.014430
3575.000000	0.014536
3574.000000	0.014632
3573.000000	0.014716
3572.000000	0.014799
3571.000000	0.014899
3570.000000	0.015026
3569.000000	0.015176
3568.000000	0.015325
3567.000000	0.015449
3566.000000	0.015545
3565.000000	0.015631
3564.000000	0.015720
3563.000000	0.015810
3562.000000	0.015892
3561.000000	0.015959
3560.000000	0.016010
3559.000000	0.016057
3558.000000	0.016119
3557.000000	0.016206
3556.000000	0.016316
3555.000000	0.016431
3554.000000	0.016531
3553.000000	0.016612
3552.000000	0.016684
3551.000000	0.016767
3550.000000	0.016869
3549.000000	0.016987
3548.000000	0.017104
3547.000000	0.017206
3546.000000	0.017289
3545.000000	0.017370
3544.000000	0.017464
3543.000000	0.017570
3542.000000	0.017671
3541.000000	0.017755
3540.000000	0.017825
3539.000000	0.017902
3538.000000	0.018003
3537.000000	0.018121
3536.000000	0.018234
3535.000000	0.018326
3534.000000	0.018402
3533.000000	0.018481
3532.000000	0.018579
3531.000000	0.018696
3530.000000	0.018815
3529.000000	0.018920
3528.000000	0.019005
3527.000000	0.019078
3526.000000	0.019155
3525.000000	0.019235
3524.000000	0.019309
3523.000000	0.019369
3522.000000	0.019427
3521.000000	0.019498
3520.000000	0.019585
3519.000000	0.019681
3518.000000	0.019780
3517.000000	0.019882
3516.000000	0.019991
3515.000000	0.020105
3514.000000	0.020221
3513.000000	0.020335
3512.000000	0.020443
3511.000000	0.020542
3510.000000	0.020630
3509.000000	0.020708
3508.000000	0.020778
3507.000000	0.020840
3506.000000	0.020899
3505.000000	0.020959
3504.000000	0.021026
3503.000000	0.021102
3502.000000	0.021189
3501.000000	0.021287
3500.000000	0.021387
3499.000000	0.021482
3498.000000	0.021562
3497.000000	0.021627
3496.000000	0.021680
3495.000000	0.021734
3494.000000	0.021803
3493.000000	0.021890
3492.000000	0.021983
3491.000000	0.022064
3490.000000	0.022130
3489.000000	0.022190
3488.000000	0.022262
3487.000000	0.022351
3486.000000	0.022449
3485.000000	0.022542
3484.000000	0.022621
3483.000000	0.022686
3482.000000	0.022746
3481.000000	0.022809
3480.000000	0.022874
3479.000000	0.022937
3478.000000	0.022998
3477.000000	0.023062
3476.000000	0.023136
3475.000000	0.023220
3474.000000	0.023308
3473.000000	0.023391
3472.000000	0.023463
3471.000000	0.023527
3470.000000	0.023589
3469.000000	0.023655
3468.000000	0.023722
3467.000000	0.023787
3466.000000	0.023850
3465.000000	0.023915
3464.000000	0.023986
3463.000000	0.024058
3462.000000	0.024126
3461.000000	0.024190
3460.000000	0.024260
3459.000000	0.024342
3458.000000	0.024434
3457.000000	0.024524
3456.000000	0.024605
3455.000000	0.024679
3454.000000	0.024751
3453.000000	0.024822
3452.000000	0.024889
3451.000000	0.024954
3450.000000	0.025024
3449.000000	0.025102
3448.000000	0.025181
3447.000000	0.025254
3446.000000	0.025319
3445.000000	0.025383
3444.000000	0.025451
3443.000000	0.025520
3442.000000	0.025586
3441.000000	0.025648
3440.000000	0.025712
3439.000000	0.025783
3438.000000	0.025864
3437.000000	0.025949
3436.000000	0.026028
3435.000000	0.026096
3434.000000	0.026160
3433.000000	0.026229
3432.000000	0.026310
3431.000000	0.026396
3430.000000	0.026483
3429.000000	0.026564
3428.000000	0.026640
3427.000000	0.026708
3426.000000	0.026770
3425.000000	0.026828
3424.000000	0.026890
3423.000000	0.026962
3422.000000	0.027042
3421.000000	0.027122
3420.000000	0.027195
3419.000000	0.027262
3418.000000	0.027332
3417.000000	0.027420
3416.000000	0.027529
3415.000000	0.027655
3414.000000	0.027784
3413.000000	0.027899
3412.000000	0.027985
3411.000000	0.028043
3410.000000	0.028085
3409.000000	0.028125
3408.000000	0.028174
3407.000000	0.028239
3406.000000	0.028320
3405.000000	0.028417
3404.000000	0.028518
3403.000000	0.028612
3402.000000	0.028693
3401.000000	0.028769
3400.000000	0.028852
3399.000000	0.028946
3398.000000	0.029046
3397.000000	0.029137
3396.000000	0.029210
3395.000000	0.029265
3394.000000	0.029316
3393.000000	0.029373
3392.000000	0.029439
3391.000000	0.029508
3390.000000	0.029574
3389.000000	0.029636
3388.000000	0.029692
3387.000000	0.029747
3386.000000	0.029810
3385.000000	0.029891
3384.000000	0.029990
3383.000000	0.030094
3382.000000	0.030187
3381.000000	0.030263
3380.000000	0.030331
3379.000000	0.030410
3378.000000	0.030508
3377.000000	0.030620
3376.000000	0.030732
3375.000000	0.030835
3374.000000	0.030930
3373.000000	0.031021
3372.000000	0.031112
3371.000000	0.031201
3370.000000	0.031290
3369.000000	0.031383
3368.000000	0.031484
3367.000000	0.031589
3366.000000	0.031698
3365.000000	0.031812
3364.000000	0.031932
3363.000000	0.032059
3362.000000	0.032184
3361.000000	0.032298
3360.000000	0.032394
3359.000000	0.032486
3358.000000	0.032594
3357.000000	0.032733
3356.000000	0.032896
3355.000000	0.033064
3354.000000	0.033219
3353.000000	0.033358
3352.000000	0.033483
3351.000000	0.033603
3350.000000	0.033721
3349.000000	0.033843
3348.000000	0.033970
3347.000000	0.034102
3346.000000	0.034239
3345.000000	0.034370
3344.000000	0.034488
3343.000000	0.034593
3342.000000	0.034693
3341.000000	0.034801
3340.000000	0.034920
3339.000000	0.035046
3338.000000	0.035173
3337.000000	0.035297
3336.000000	0.035416
3335.000000	0.035534
3334.000000	0.035653
3333.000000	0.035769
3332.000000	0.035878
3331.000000	0.035983
3330.000000	0.036088
3329.000000	0.036190
3328.000000	0.036282
3327.000000	0.036363
3326.000000	0.036444
3325.000000	0.036537
3324.000000	0.036642
3323.000000	0.036748
3322.000000	0.036846
3321.000000	0.036932
3320.000000	0.037006
3319.000000	0.037070
3318.000000	0.037125
3317.000000	0.037180
3316.000000	0.037244
3315.000000	0.037320
3314.000000	0.037406
3313.000000	0.037491
3312.000000	0.037563
3311.000000	0.037616
3310.000000	0.037654
3309.000000	0.037680
3308.000000	0.037706
3307.000000	0.037744
3306.000000	0.037806
3305.000000	0.037892
3304.000000	0.037983
3303.000000	0.038060
3302.000000	0.038111
3301.000000	0.038143
3300.000000	0.038169
3299.000000	0.038203
3298.000000	0.038248
3297.000000	0.038294
3296.000000	0.038327
3295.000000	0.038344
3294.000000	0.038358
3293.000000	0.038386
3292.000000	0.038431
3291.000000	0.038480
3290.000000	0.038518
3289.000000	0.038538
3288.000000	0.038537
3287.000000	0.038521
3286.000000	0.038493
3285.000000	0.038460
3284.000000	0.038426
3283.000000	0.038393
3282.000000	0.038360
3281.000000	0.038325
3280.000000	0.038288
3279.000000	0.038248
3278.000000	0.038208
3277.000000	0.038170
3276.000000	0.038130
3275.000000	0.038084
3274.000000	0.038028
3273.000000	0.037964
3272.000000	0.037898
3271.000000	0.037839
3270.000000	0.037793
3269.000000	0.037756
3268.000000	0.037718
3267.000000	0.037666
3266.000000	0.037594
3265.000000	0.037506
3264.000000	0.037410
3263.000000	0.037320
3262.000000	0.037242
3261.000000	0.037172
3260.000000	0.037100
3259.000000	0.037020
3258.000000	0.036934
3257.000000	0.036850
3256.000000	0.036770
3255.000000	0.036689
3254.000000	0.036606
3253.000000	0.036516
3252.000000	0.036422
3251.000000	0.036323
3250.000000	0.036221
3249.000000	0.036114
3248.000000	0.036007
3247.000000	0.035905
3246.000000	0.035813
3245.000000	0.035733
3244.000000	0.035659
3243.000000	0.035585
3242.000000	0.035507
3241.000000	0.035420
3240.000000	0.035329
3239.000000	0.035246
3238.000000	0.035182
3237.000000	0.035132
3236.000000	0.035084
3235.000000	0.035025
3234.000000	0.034957
3233.000000	0.034887
3232.000000	0.034817
3231.000000	0.034744
3230.000000	0.034671
3229.000000	0.034601
3228.000000	0.034540
3227.000000	0.034488
3226.000000	0.034444
3225.000000	0.034395
3224.000000	0.034332
3223.000000	0.034250
3222.000000	0.034160
3221.000000	0.034075
3220.000000	0.034008
3219.000000	0.033958
3218.000000	0.033921
3217.000000	0.033884
3216.000000	0.033835
3215.000000	0.033771
3214.000000	0.033697
3213.000000	0.033621
3212.000000	0.033545
3211.000000	0.033468
3210.000000	0.033386
3209.000000	0.033306
3208.000000	0.033232
3207.000000	0.033167
3206.000000	0.033108
3205.000000	0.033046
3204.000000	0.032976
3203.000000	0.032899
3202.000000	0.032821
3201.000000	0.032741
3200.000000	0.032658
3199.000000	0.032571
3198.000000	0.032483
3197.000000	0.032396
3196.000000	0.032312
3195.000000	0.032230
3194.000000	0.032153
3193.000000	0.032075
3192.000000	0.031992
3191.000000	0.031905
3190.000000	0.031816
3189.000000	0.031725
3188.000000	0.031631
3187.000000	0.031537
3186.000000	0.031449
3185.000000	0.031366
3184.000000	0.031282
3183.000000	0.031190
3182.000000	0.031092
3181.000000	0.030992
3180.000000	0.030891
3179.000000	0.030792
3178.000000	0.030693
3177.000000	0.030594
3176.000000	0.030493
3175.000000	0.030392
3174.000000	0.030294
3173.000000	0.030201
3172.000000	0.030109
3171.000000	0.030011
3170.000000	0.029910
3169.000000	0.029809
3168.000000	0.029711
3167.000000	0.029617
3166.000000	0.029528
3165.000000	0.029439
3164.000000	0.029341
3163.000000	0.029231
3162.000000	0.029123
3161.000000	0.029034
3160.000000	0.028970
3159.000000	0.028918
3158.000000	0.028858
3157.000000	0.028779
3156.000000	0.028684
3155.000000	0.028584
3154.000000	0.028488
3153.000000	0.028394
3152.000000	0.028293
3151.000000	0.028182
3150.000000	0.028077
3149.000000	0.027995
3148.000000	0.027943
3147.000000	0.027909
3146.000000	0.027870
3145.000000	0.027808
3144.000000	0.027723
3143.000000	0.027626
3142.000000	0.027533
3141.000000	0.027452
3140.000000	0.027380
3139.000000	0.027311
3138.000000	0.027243
3137.000000	0.027176
3136.000000	0.027108
3135.000000	0.027035
3134.000000	0.026962
3133.000000	0.026900
3132.000000	0.026857
3131.000000	0.026837
3130.000000	0.026833
3129.000000	0.026834
3128.000000	0.026827
3127.000000	0.026805
3126.000000	0.026765
3125.000000	0.026711
3124.000000	0.026647
3123.000000	0.026582
3122.000000	0.026519
3121.000000	0.026464
3120.000000	0.026423
3119.000000	0.026402
3118.000000	0.026407
3117.000000	0.026433
3116.000000	0.026465
3115.000000	0.026485
3114.000000	0.026484
3113.000000	0.026464
3112.000000	0.026437
3111.000000	0.026416
3110.000000	0.026408
3109.000000	0.026419
3108.000000	0.026450
3107.000000	0.026500
3106.000000	0.026560
3105.000000	0.026614
3104.000000	0.026648
3103.000000	0.026661
3102.000000	0.026665
3101.000000	0.026672
3100.000000	0.026685
3099.000000	0.026705
3098.000000	0.026741
3097.000000	0.026790
3096.000000	0.026838
3095.000000	0.026863
3094.000000	0.026862
3093.000000	0.026848
3092.000000	0.026844
3091.000000	0.026864
3090.000000	0.026906
3089.000000	0.026959
3088.000000	0.027004
3087.000000	0.027031
3086.000000	0.027041
3085.000000	0.027051
3084.000000	0.027072
3083.000000	0.027105
3082.000000	0.027144
3081.000000	0.027174
3080.000000	0.027189
3079.000000	0.027187
3078.000000	0.027181
3077.000000	0.027181
3076.000000	0.027186
3075.000000	0.027186
3074.000000	0.027181
3073.000000	0.027178
3072.000000	0.027185
3071.000000	0.027196
3070.000000	0.027198
3069.000000	0.027178
3068.000000	0.027136
3067.000000	0.027082
3066.000000	0.027029
3065.000000	0.026988
3064.000000	0.026964
3063.000000	0.026951
3062.000000	0.026935
3061.000000	0.026908
3060.000000	0.026865
3059.000000	0.026803
3058.000000	0.026724
3057.000000	0.026633
3056.000000	0.026543
3055.000000	0.026465
3054.000000	0.026400
3053.000000	0.026335
3052.000000	0.026260
3051.000000	0.026179
3050.000000	0.026104
3049.000000	0.026041
3048.000000	0.025980
3047.000000	0.025909
3046.000000	0.025824
3045.000000	0.025728
3044.000000	0.025628
3043.000000	0.025534
3042.000000	0.025455
3041.000000	0.025390
3040.000000	0.025329
3039.000000	0.025260
3038.000000	0.025179
3037.000000	0.025092
3036.000000	0.025006
3035.000000	0.024927
3034.000000	0.024862
3033.000000	0.024806
3032.000000	0.024752
3031.000000	0.024697
3030.000000	0.024644
3029.000000	0.024601
3028.000000	0.024557
3027.000000	0.024498
3026.000000	0.024419
3025.000000	0.024334
3024.000000	0.024260
3023.000000	0.024201
3022.000000	0.024151
3021.000000	0.024103
3020.000000	0.024055
3019.000000	0.024007
3018.000000	0.023955
3017.000000	0.023896
3016.000000	0.023835
3015.000000	0.023781
3014.000000	0.023746
3013.000000	0.023733
3012.000000	0.023737
3011.000000	0.023746
3010.000000	0.023749
3009.000000	0.023744
3008.000000	0.023736
3007.000000	0.023735
3006.000000	0.023749
3005.000000	0.023776
3004.000000	0.023810
3003.000000	0.023839
3002.000000	0.023863
3001.000000	0.023889
3000.000000	0.023926
2999.000000	0.023983
2998.000000	0.024059
2997.000000	0.024148
2996.000000	0.024244
2995.000000	0.024341
2994.000000	0.024441
2993.000000	0.024544
2992.000000	0.024653
2991.000000	0.024769
2990.000000	0.024896
2989.000000	0.025034
2988.000000	0.025182
2987.000000	0.025341
2986.000000	0.025512
2985.000000	0.025690
2984.000000	0.025865
2983.000000	0.026036
2982.000000	0.026209
2981.000000	0.026398
2980.000000	0.026606
2979.000000	0.026829
2978.000000	0.027063
2977.000000	0.027302
2976.000000	0.027538
2975.000000	0.027765
2974.000000	0.027989
2973.000000	0.028226
2972.000000	0.028487
2971.000000	0.028774
2970.000000	0.029078
2969.000000	0.029393
2968.000000	0.029717
2967.000000	0.030045
2966.000000	0.030369
2965.000000	0.030685
2964.000000	0.030993
2963.000000	0.031290
2962.000000	0.031567
2961.000000	0.031805
2960.000000	0.031996
2959.000000	0.032138
2958.000000	0.032233
2957.000000	0.032286
2956.000000	0.032305
2955.000000	0.032301
2954.000000	0.032283
2953.000000	0.032252
2952.000000	0.032206
2951.000000	0.032150
2950.000000	0.032099
2949.000000	0.032074
2948.000000	0.032091
2947.000000	0.032163
2946.000000	0.032300
2945.000000	0.032499
2944.000000	0.032752
2943.000000	0.033045
2942.000000	0.033368
2941.000000	0.033711
2940.000000	0.034065
2939.000000	0.034429
2938.000000	0.034809
2937.000000	0.035212
2936.000000	0.035636
2935.000000	0.036068
2934.000000	0.036494
2933.000000	0.036903
2932.000000	0.037285
2931.000000	0.037637
2930.000000	0.037962
2929.000000	0.038261
2928.000000	0.038527
2927.000000	0.038747
2926.000000	0.038915
2925.000000	0.039032
2924.000000	0.039099
2923.000000	0.039110
2922.000000	0.039057
2921.000000	0.038933
2920.000000	0.038729
2919.000000	0.038440
2918.000000	0.038063
2917.000000	0.037598
2916.000000	0.037053
2915.000000	0.036442
2914.000000	0.035794
2913.000000	0.035141
2912.000000	0.034519
2911.000000	0.033948
2910.000000	0.033436
2909.000000	0.032979
2908.000000	0.032557
2907.000000	0.032159
2906.000000	0.031782
2905.000000	0.031433
2904.000000	0.031114
2903.000000	0.030817
2902.000000	0.030529
2901.000000	0.030244
2900.000000	0.029963
2899.000000	0.029687
2898.000000	0.029420
2897.000000	0.029166
2896.000000	0.028933
2895.000000	0.028725
2894.000000	0.028538
2893.000000	0.028360
2892.000000	0.028183
2891.000000	0.028013
2890.000000	0.027858
2889.000000	0.027726
2888.000000	0.027613
2887.000000	0.027517
2886.000000	0.027442
2885.000000	0.027400
2884.000000	0.027397
2883.000000	0.027430
2882.000000	0.027492
2881.000000	0.027575
2880.000000	0.027672
2879.000000	0.027777
2878.000000	0.027885
2877.000000	0.027988
2876.000000	0.028085
2875.000000	0.028170
2874.000000	0.028236
2873.000000	0.028276
2872.000000	0.028283
2871.000000	0.028260
2870.000000	0.028217
2869.000000	0.028166
2868.000000	0.028116
2867.000000	0.028085
2866.000000	0.028086
2865.000000	0.028127
2864.000000	0.028202
2863.000000	0.028301
2862.000000	0.028423
2861.000000	0.028574
2860.000000	0.028752
2859.000000	0.028956
2858.000000	0.029175
2857.000000	0.029396
2856.000000	0.029594
2855.000000	0.029747
2854.000000	0.029848
2853.000000	0.029894
2852.000000	0.029866
2851.000000	0.029726
2850.000000	0.029439
2849.000000	0.028998
2848.000000	0.028433
2847.000000	0.027794
2846.000000	0.027134
2845.000000	0.026497
2844.000000	0.025912
2843.000000	0.025397
2842.000000	0.024952
2841.000000	0.024567
2840.000000	0.024228
2839.000000	0.023929
2838.000000	0.023668
2837.000000	0.023448
2836.000000	0.023261
2835.000000	0.023092
2834.000000	0.022932
2833.000000	0.022781
2832.000000	0.022643
2831.000000	0.022521
2830.000000	0.022407
2829.000000	0.022293
2828.000000	0.022181
2827.000000	0.022080
2826.000000	0.021997
2825.000000	0.021925
2824.000000	0.021849
2823.000000	0.021761
2822.000000	0.021671
2821.000000	0.021592
2820.000000	0.021525
2819.000000	0.021463
2818.000000	0.021400
2817.000000	0.021342
2816.000000	0.021287
2815.000000	0.021227
2814.000000	0.021159
2813.000000	0.021085
2812.000000	0.021018
2811.000000	0.020962
2810.000000	0.020914
2809.000000	0.020868
2808.000000	0.020820
2807.000000	0.020768
2806.000000	0.020711
2805.000000	0.020653
2804.000000	0.020599
2803.000000	0.020551
2802.000000	0.020507
2801.000000	0.020468
2800.000000	0.020432
2799.000000	0.020397
2798.000000	0.020360
2797.000000	0.020325
2796.000000	0.020293
2795.000000	0.020260
2794.000000	0.020218
2793.000000	0.020166
2792.000000	0.020117
2791.000000	0.020087
2790.000000	0.020067
2789.000000	0.020038
2788.000000	0.019983
2787.000000	0.019913
2786.000000	0.019849
2785.000000	0.019804
2784.000000	0.019770
2783.000000	0.019735
2782.000000	0.019701
2781.000000	0.019674
2780.000000	0.019656
2779.000000	0.019633
2778.000000	0.019596
2777.000000	0.019549
2776.000000	0.019509
2775.000000	0.019491
2774.000000	0.019492
2773.000000	0.019495
2772.000000	0.019477
2771.000000	0.019435
2770.000000	0.019382
2769.000000	0.019332
2768.000000	0.019290
2767.000000	0.019252
2766.000000	0.019216
2765.000000	0.019190
2764.000000	0.019172
2763.000000	0.019152
2762.000000	0.019119
2761.000000	0.019075
2760.000000	0.019032
2759.000000	0.019000
2758.000000	0.018978
2757.000000	0.018955
2756.000000	0.018922
2755.000000	0.018882
2754.000000	0.018845
2753.000000	0.018817
2752.000000	0.018793
2751.000000	0.018764
2750.000000	0.018727
2749.000000	0.018688
2748.000000	0.018653
2747.000000	0.018619
2746.000000	0.018583
2745.000000	0.018548
2744.000000	0.018523
2743.000000	0.018511
2742.000000	0.018505
2741.000000	0.018494
2740.000000	0.018474
2739.000000	0.018451
2738.000000	0.018427
2737.000000	0.018405
2736.000000	0.018384
2735.000000	0.018364
2734.000000	0.018347
2733.000000	0.018333
2732.000000	0.018320
2731.000000	0.018310
2730.000000	0.018301
2729.000000	0.018287
2728.000000	0.018260
2727.000000	0.018218
2726.000000	0.018171
2725.000000	0.018135
2724.000000	0.018118
2723.000000	0.018116
2722.000000	0.018119
2721.000000	0.018112
2720.000000	0.018085
2719.000000	0.018041
2718.000000	0.018000
2717.000000	0.017975
2716.000000	0.017963
2715.000000	0.017949
2714.000000	0.017921
2713.000000	0.017886
2712.000000	0.017856
2711.000000	0.017836
2710.000000	0.017820
2709.000000	0.017801
2708.000000	0.017780
2707.000000	0.017758
2706.000000	0.017738
2705.000000	0.017721
2704.000000	0.017710
2703.000000	0.017709
2702.000000	0.017716
2701.000000	0.017720
2700.000000	0.017710
2699.000000	0.017685
2698.000000	0.017652
2697.000000	0.017620
2696.000000	0.017592
2695.000000	0.017569
2694.000000	0.017556
2693.000000	0.017557
2692.000000	0.017566
2691.000000	0.017572
2690.000000	0.017565
2689.000000	0.017545
2688.000000	0.017517
2687.000000	0.017487
2686.000000	0.017455
2685.000000	0.017427
2684.000000	0.017409
2683.000000	0.017405
2682.000000	0.017413
2681.000000	0.017426
2680.000000	0.017436
2679.000000	0.017436
2678.000000	0.017429
2677.000000	0.017422
2676.000000	0.017419
2675.000000	0.017416
2674.000000	0.017402
2673.000000	0.017372
2672.000000	0.017333
2671.000000	0.017298
2670.000000	0.017279
2669.000000	0.017276
2668.000000	0.017283
2667.000000	0.017291
2666.000000	0.017293
2665.000000	0.017286
2664.000000	0.017271
2663.000000	0.017248
2662.000000	0.017221
2661.000000	0.017191
2660.000000	0.017159
2659.000000	0.017130
2658.000000	0.017105
2657.000000	0.017079
2656.000000	0.017042
2655.000000	0.016985
2654.000000	0.016914
2653.000000	0.016843
2652.000000	0.016787
2651.000000	0.016749
2650.000000	0.016724
2649.000000	0.016701
2648.000000	0.016668
2647.000000	0.016624
2646.000000	0.016573
2645.000000	0.016524
2644.000000	0.016476
2643.000000	0.016428
2642.000000	0.016379
2641.000000	0.016333
2640.000000	0.016294
2639.000000	0.016264
2638.000000	0.016235
2637.000000	0.016201
2636.000000	0.016158
2635.000000	0.016108
2634.000000	0.016053
2633.000000	0.015991
2632.000000	0.015927
2631.000000	0.015866
2630.000000	0.015813
2629.000000	0.015766
2628.000000	0.015724
2627.000000	0.015689
2626.000000	0.015668
2625.000000	0.015664
2624.000000	0.015667
2623.000000	0.015663
2622.000000	0.015646
2621.000000	0.015614
2620.000000	0.015568
2619.000000	0.015512
2618.000000	0.015454
2617.000000	0.015404
2616.000000	0.015365
2615.000000	0.015337
2614.000000	0.015310
2613.000000	0.015276
2612.000000	0.015232
2611.000000	0.015188
2610.000000	0.015160
2609.000000	0.015151
2608.000000	0.015145
2607.000000	0.015125
2606.000000	0.015091
2605.000000	0.015056
2604.000000	0.015031
2603.000000	0.015019
2602.000000	0.015015
2601.000000	0.015010
2600.000000	0.014995
2599.000000	0.014966
2598.000000	0.014928
2597.000000	0.014890
2596.000000	0.014857
2595.000000	0.014835
2594.000000	0.014830
2593.000000	0.014843
2592.000000	0.014862
2591.000000	0.014869
2590.000000	0.014856
2589.000000	0.014828
2588.000000	0.014796
2587.000000	0.014773
2586.000000	0.014770
2585.000000	0.014786
2584.000000	0.014810
2583.000000	0.014820
2582.000000	0.014804
2581.000000	0.014764
2580.000000	0.014714
2579.000000	0.014669
2578.000000	0.014640
2577.000000	0.014623
2576.000000	0.014608
2575.000000	0.014585
2574.000000	0.014559
2573.000000	0.014540
2572.000000	0.014533
2571.000000	0.014534
2570.000000	0.014541
2569.000000	0.014549
2568.000000	0.014551
2567.000000	0.014538
2566.000000	0.014506
2565.000000	0.014458
2564.000000	0.014402
2563.000000	0.014353
2562.000000	0.014327
2561.000000	0.014325
2560.000000	0.014332
2559.000000	0.014335
2558.000000	0.014334
2557.000000	0.014338
2556.000000	0.014349
2555.000000	0.014354
2554.000000	0.014335
2553.000000	0.014285
2552.000000	0.014222
2551.000000	0.014179
2550.000000	0.014185
2549.000000	0.014229
2548.000000	0.014271
2547.000000	0.014287
2546.000000	0.014294
2545.000000	0.014318
2544.000000	0.014353
2543.000000	0.014370
2542.000000	0.014351
2541.000000	0.014303
2540.000000	0.014244
2539.000000	0.014190
2538.000000	0.014163
2537.000000	0.014185
2536.000000	0.014253
2535.000000	0.014340
2534.000000	0.014411
2533.000000	0.014442
2532.000000	0.014422
2531.000000	0.014365
2530.000000	0.014311
2529.000000	0.014290
2528.000000	0.014294
2527.000000	0.014295
2526.000000	0.014284
2525.000000	0.014281
2524.000000	0.014300
2523.000000	0.014329
2522.000000	0.014351
2521.000000	0.014365
2520.000000	0.014378
2519.000000	0.014391
2518.000000	0.014398
2517.000000	0.014406
2516.000000	0.014421
2515.000000	0.014439
2514.000000	0.014442
2513.000000	0.014422
2512.000000	0.014380
2511.000000	0.014324
2510.000000	0.014259
2509.000000	0.014193
2508.000000	0.014130
2507.000000	0.014077
2506.000000	0.014048
2505.000000	0.014052
2504.000000	0.014080
2503.000000	0.014102
2502.000000	0.014093
2501.000000	0.014049
2500.000000	0.013996
2499.000000	0.013958
2498.000000	0.013944
2497.000000	0.013943
2496.000000	0.013938
2495.000000	0.013918
2494.000000	0.013884
2493.000000	0.013845
2492.000000	0.013807
2491.000000	0.013774
2490.000000	0.013741
2489.000000	0.013704
2488.000000	0.013663
2487.000000	0.013626
2486.000000	0.013602
2485.000000	0.013588
2484.000000	0.013573
2483.000000	0.013559
2482.000000	0.013563
2481.000000	0.013596
2480.000000	0.013637
2479.000000	0.013651
2478.000000	0.013621
2477.000000	0.013560
2476.000000	0.013493
2475.000000	0.013445
2474.000000	0.013425
2473.000000	0.013427
2472.000000	0.013432
2471.000000	0.013418
2470.000000	0.013390
2469.000000	0.013369
2468.000000	0.013368
2467.000000	0.013375
2466.000000	0.013369
2465.000000	0.013345
2464.000000	0.013318
2463.000000	0.013304
2462.000000	0.013311
2461.000000	0.013334
2460.000000	0.013363
2459.000000	0.013388
2458.000000	0.013398
2457.000000	0.013384
2456.000000	0.013354
2455.000000	0.013330
2454.000000	0.013331
2453.000000	0.013359
2452.000000	0.013391
2451.000000	0.013413
2450.000000	0.013424
2449.000000	0.013431
2448.000000	0.013430
2447.000000	0.013414
2446.000000	0.013389
2445.000000	0.013369
2444.000000	0.013356
2443.000000	0.013340
2442.000000	0.013307
2441.000000	0.013257
2440.000000	0.013209
2439.000000	0.013185
2438.000000	0.013193
2437.000000	0.013221
2436.000000	0.013245
2435.000000	0.013256
2434.000000	0.013258
2433.000000	0.013256
2432.000000	0.013250
2431.000000	0.013242
2430.000000	0.013245
2429.000000	0.013266
2428.000000	0.013294
2427.000000	0.013314
2426.000000	0.013316
2425.000000	0.013299
2424.000000	0.013268
2423.000000	0.013235
2422.000000	0.013221
2421.000000	0.013230
2420.000000	0.013242
2419.000000	0.013240
2418.000000	0.013224
2417.000000	0.013207
2416.000000	0.013192
2415.000000	0.013184
2414.000000	0.013186
2413.000000	0.013202
2412.000000	0.013216
2411.000000	0.013216
2410.000000	0.013205
2409.000000	0.013193
2408.000000	0.013178
2407.000000	0.013159
2406.000000	0.013145
2405.000000	0.013152
2404.000000	0.013177
2403.000000	0.013207
2402.000000	0.013224
2401.000000	0.013221
2400.000000	0.013194
2399.000000	0.013156
2398.000000	0.013136
2397.000000	0.013150
2396.000000	0.013184
2395.000000	0.013207
2394.000000	0.013210
2393.000000	0.013210
2392.000000	0.013220
2391.000000	0.013238
2390.000000	0.013257
2389.000000	0.013277
2388.000000	0.013295
2387.000000	0.013303
2386.000000	0.013300
2385.000000	0.013292
2384.000000	0.013283
2383.000000	0.013272
2382.000000	0.013263
2381.000000	0.013259
2380.000000	0.013261
2379.000000	0.013261
2378.000000	0.013259
2377.000000	0.013258
2376.000000	0.013266
2375.000000	0.013279
2374.000000	0.013299
2373.000000	0.013325
2372.000000	0.013354
2371.000000	0.013379
2370.000000	0.013391
2369.000000	0.013377
2368.000000	0.013327
2367.000000	0.013254
2366.000000	0.013198
2365.000000	0.013196
2364.000000	0.013246
2363.000000	0.013319
2362.000000	0.013390
2361.000000	0.013433
2360.000000	0.013435
2359.000000	0.013403
2358.000000	0.013364
2357.000000	0.013343
2356.000000	0.013342
2355.000000	0.013361
2354.000000	0.013392
2353.000000	0.013413
2352.000000	0.013408
2351.000000	0.013389
2350.000000	0.013386
2349.000000	0.013409
2348.000000	0.013439
2347.000000	0.013444
2346.000000	0.013421
2345.000000	0.013414
2344.000000	0.013447
2343.000000	0.013494
2342.000000	0.013499
2341.000000	0.013446
2340.000000	0.013378
2339.000000	0.013342
2338.000000	0.013353
2337.000000	0.013391
2336.000000	0.013426
2335.000000	0.013432
2334.000000	0.013402
2333.000000	0.013350
2332.000000	0.013315
2331.000000	0.013325
2330.000000	0.013384
2329.000000	0.013457
2328.000000	0.013511
2327.000000	0.013527
2326.000000	0.013519
2325.000000	0.013506
2324.000000	0.013497
2323.000000	0.013488
2322.000000	0.013473
2321.000000	0.013452
2320.000000	0.013429
2319.000000	0.013396
2318.000000	0.013352
2317.000000	0.013299
2316.000000	0.013250
2315.000000	0.013210
2314.000000	0.013182
2313.000000	0.013158
2312.000000	0.013129
2311.000000	0.013092
2310.000000	0.013057
2309.000000	0.013024
2308.000000	0.012987
2307.000000	0.012937
2306.000000	0.012888
2305.000000	0.012861
2304.000000	0.012862
2303.000000	0.012880
2302.000000	0.012897
2301.000000	0.012900
2300.000000	0.012885
2299.000000	0.012861
2298.000000	0.012850
2297.000000	0.012866
2296.000000	0.012906
2295.000000	0.012940
2294.000000	0.012948
2293.000000	0.012931
2292.000000	0.012903
2291.000000	0.012878
2290.000000	0.012859
2289.000000	0.012845
2288.000000	0.012829
2287.000000	0.012803
2286.000000	0.012762
2285.000000	0.012699
2284.000000	0.012608
2283.000000	0.012504
2282.000000	0.012424
2281.000000	0.012398
2280.000000	0.012416
2279.000000	0.012438
2278.000000	0.012438
2277.000000	0.012418
2276.000000	0.012394
2275.000000	0.012371
2274.000000	0.012346
2273.000000	0.012313
2272.000000	0.012281
2271.000000	0.012267
2270.000000	0.012289
2269.000000	0.012340
2268.000000	0.012386
2267.000000	0.012408
2266.000000	0.012413
2265.000000	0.012409
2264.000000	0.012389
2263.000000	0.012347
2262.000000	0.012295
2261.000000	0.012246
2260.000000	0.012189
2259.000000	0.012122
2258.000000	0.012077
2257.000000	0.012085
2256.000000	0.012133
2255.000000	0.012180
2254.000000	0.012200
2253.000000	0.012193
2252.000000	0.012161
2251.000000	0.012119
2250.000000	0.012101
2249.000000	0.012119
2248.000000	0.012133
2247.000000	0.012093
2246.000000	0.012022
2245.000000	0.011989
2244.000000	0.012027
2243.000000	0.012092
2242.000000	0.012116
2241.000000	0.012063
2240.000000	0.011948
2239.000000	0.011834
2238.000000	0.011795
2237.000000	0.011851
2236.000000	0.011937
2235.000000	0.011980
2234.000000	0.011980
2233.000000	0.011982
2232.000000	0.012004
2231.000000	0.012018
2230.000000	0.012012
2229.000000	0.011996
2228.000000	0.011968
2227.000000	0.011921
2226.000000	0.011864
2225.000000	0.011807
2224.000000	0.011724
2223.000000	0.011595
2222.000000	0.011463
2221.000000	0.011407
2220.000000	0.011451
2219.000000	0.011557
2218.000000	0.011698
2217.000000	0.011862
2216.000000	0.012003
2215.000000	0.012054
2214.000000	0.012008
2213.000000	0.011930
2212.000000	0.011863
2211.000000	0.011787
2210.000000	0.011679
2209.000000	0.011555
2208.000000	0.011452
2207.000000	0.011398
2206.000000	0.011410
2205.000000	0.011468
2204.000000	0.011498
2203.000000	0.011425
2202.000000	0.011257
2201.000000	0.011076
2200.000000	0.010952
2199.000000	0.010913
2198.000000	0.010974
2197.000000	0.011118
2196.000000	0.011267
2195.000000	0.011330
2194.000000	0.011316
2193.000000	0.011313
2192.000000	0.011374
2191.000000	0.011470
2190.000000	0.011558
2189.000000	0.011612
2188.000000	0.011602
2187.000000	0.011507
2186.000000	0.011378
2185.000000	0.011296
2184.000000	0.011260
2183.000000	0.011183
2182.000000	0.011046
2181.000000	0.010932
2180.000000	0.010904
2179.000000	0.010907
2178.000000	0.010871
2177.000000	0.010815
2176.000000	0.010796
2175.000000	0.010811
2174.000000	0.010796
2173.000000	0.010701
2172.000000	0.010545
2171.000000	0.010402
2170.000000	0.010351
2169.000000	0.010411
2168.000000	0.010515
2167.000000	0.010583
2166.000000	0.010611
2165.000000	0.010636
2164.000000	0.010644
2163.000000	0.010566
2162.000000	0.010372
2161.000000	0.010110
2160.000000	0.009859
2159.000000	0.009706
2158.000000	0.009720
2157.000000	0.009883
2156.000000	0.010064
2155.000000	0.010152
2154.000000	0.010169
2153.000000	0.010213
2152.000000	0.010325
2151.000000	0.010454
2150.000000	0.010536
2149.000000	0.010551
2148.000000	0.010524
2147.000000	0.010511
2146.000000	0.010563
2145.000000	0.010665
2144.000000	0.010758
2143.000000	0.010823
2142.000000	0.010913
2141.000000	0.011047
2140.000000	0.011146
2139.000000	0.011140
2138.000000	0.011071
2137.000000	0.011041
2136.000000	0.011081
2135.000000	0.011143
2134.000000	0.011194
2133.000000	0.011241
2132.000000	0.011279
2131.000000	0.011299
2130.000000	0.011320
2129.000000	0.011373
2128.000000	0.011450
2127.000000	0.011517
2126.000000	0.011562
2125.000000	0.011593
2124.000000	0.011608
2123.000000	0.011606
2122.000000	0.011615
2121.000000	0.011667
2120.000000	0.011749
2119.000000	0.011822
2118.000000	0.011873
2117.000000	0.011924
2116.000000	0.011972
2115.000000	0.011992
2114.000000	0.011979
2113.000000	0.011954
2112.000000	0.011931
2111.000000	0.011908
2110.000000	0.011894
2109.000000	0.011911
2108.000000	0.011950
2107.000000	0.011985
2106.000000	0.012004
2105.000000	0.012021
2104.000000	0.012021
2103.000000	0.011969
2102.000000	0.011855
2101.000000	0.011714
2100.000000	0.011597
2099.000000	0.011535
2098.000000	0.011536
2097.000000	0.011591
2096.000000	0.011659
2095.000000	0.011700
2094.000000	0.011701
2093.000000	0.011668
2092.000000	0.011611
2091.000000	0.011560
2090.000000	0.011571
2089.000000	0.011661
2088.000000	0.011766
2087.000000	0.011797
2086.000000	0.011738
2085.000000	0.011648
2084.000000	0.011582
2083.000000	0.011561
2082.000000	0.011589
2081.000000	0.011643
2080.000000	0.011663
2079.000000	0.011600
2078.000000	0.011491
2077.000000	0.011419
2076.000000	0.011418
2075.000000	0.011449
2074.000000	0.011468
2073.000000	0.011452
2072.000000	0.011381
2071.000000	0.011256
2070.000000	0.011140
2069.000000	0.011109
2068.000000	0.011155
2067.000000	0.011196
2066.000000	0.011188
2065.000000	0.011160
2064.000000	0.011142
2063.000000	0.011127
2062.000000	0.011100
2061.000000	0.011049
2060.000000	0.010944
2059.000000	0.010774
2058.000000	0.010605
2057.000000	0.010536
2056.000000	0.010581
2055.000000	0.010675
2054.000000	0.010777
2053.000000	0.010882
2052.000000	0.010957
2051.000000	0.010934
2050.000000	0.010811
2049.000000	0.010667
2048.000000	0.010553
2047.000000	0.010434
2046.000000	0.010295
2045.000000	0.010182
2044.000000	0.010118
2043.000000	0.010070
2042.000000	0.010024
2041.000000	0.010019
2040.000000	0.010054
2039.000000	0.010057
2038.000000	0.009983
2037.000000	0.009852
2036.000000	0.009683
2035.000000	0.009473
2034.000000	0.009270
2033.000000	0.009155
2032.000000	0.009123
2031.000000	0.009092
2030.000000	0.009035
2029.000000	0.009006
2028.000000	0.009038
2027.000000	0.009127
2026.000000	0.009307
2025.000000	0.009593
2024.000000	0.009855
2023.000000	0.009898
2022.000000	0.009696
2021.000000	0.009433
2020.000000	0.009293
2019.000000	0.009300
2018.000000	0.009400
2017.000000	0.009550
2016.000000	0.009697
2015.000000	0.009772
2014.000000	0.009745
2013.000000	0.009640
2012.000000	0.009490
2011.000000	0.009327
2010.000000	0.009212
2009.000000	0.009191
2008.000000	0.009225
2007.000000	0.009249
2006.000000	0.009273
2005.000000	0.009333
2004.000000	0.009387
2003.000000	0.009360
2002.000000	0.009265
2001.000000	0.009188
2000.000000	0.009188
1999.000000	0.009290
1998.000000	0.009514
1997.000000	0.009820
1996.000000	0.010070
1995.000000	0.010154
1994.000000	0.010122
1993.000000	0.010104
1992.000000	0.010125
1991.000000	0.010094
1990.000000	0.009966
1989.000000	0.009798
1988.000000	0.009663
1987.000000	0.009594
1986.000000	0.009620
1985.000000	0.009726
1984.000000	0.009806
1983.000000	0.009761
1982.000000	0.009641
1981.000000	0.009594
1980.000000	0.009685
1979.000000	0.009848
1978.000000	0.009993
1977.000000	0.010048
1976.000000	0.009936
1975.000000	0.009668
1974.000000	0.009409
1973.000000	0.009322
1972.000000	0.009365
1971.000000	0.009371
1970.000000	0.009286
1969.000000	0.009183
1968.000000	0.009124
1967.000000	0.009123
1966.000000	0.009216
1965.000000	0.009396
1964.000000	0.009536
1963.000000	0.009511
1962.000000	0.009386
1961.000000	0.009355
1960.000000	0.009496
1959.000000	0.009710
1958.000000	0.009887
1957.000000	0.009988
1956.000000	0.010010
1955.000000	0.009977
1954.000000	0.009972
1953.000000	0.010051
1952.000000	0.010156
1951.000000	0.010185
1950.000000	0.010138
1949.000000	0.010090
1948.000000	0.010045
1947.000000	0.009947
1946.000000	0.009815
1945.000000	0.009743
1944.000000	0.009754
1943.000000	0.009776
1942.000000	0.009763
1941.000000	0.009752
1940.000000	0.009773
1939.000000	0.009806
1938.000000	0.009838
1937.000000	0.009890
1936.000000	0.009951
1935.000000	0.009978
1934.000000	0.009957
1933.000000	0.009918
1932.000000	0.009890
1931.000000	0.009867
1930.000000	0.009858
1929.000000	0.009873
1928.000000	0.009883
1927.000000	0.009852
1926.000000	0.009794
1925.000000	0.009764
1924.000000	0.009760
1923.000000	0.009737
1922.000000	0.009706
1921.000000	0.009732
1920.000000	0.009819
1919.000000	0.009883
1918.000000	0.009856
1917.000000	0.009778
1916.000000	0.009731
1915.000000	0.009745
1914.000000	0.009805
1913.000000	0.009872
1912.000000	0.009903
1911.000000	0.009892
1910.000000	0.009894
1909.000000	0.009960
1908.000000	0.010050
1907.000000	0.010070
1906.000000	0.009975
1905.000000	0.009830
1904.000000	0.009714
1903.000000	0.009660
1902.000000	0.009684
1901.000000	0.009787
1900.000000	0.009921
1899.000000	0.010016
1898.000000	0.010044
1897.000000	0.010032
1896.000000	0.009999
1895.000000	0.009931
1894.000000	0.009837
1893.000000	0.009765
1892.000000	0.009740
1891.000000	0.009734
1890.000000	0.009713
1889.000000	0.009679
1888.000000	0.009643
1887.000000	0.009611
1886.000000	0.009592
1885.000000	0.009604
1884.000000	0.009636
1883.000000	0.009659
1882.000000	0.009672
1881.000000	0.009689
1880.000000	0.009699
1879.000000	0.009683
1878.000000	0.009650
1877.000000	0.009636
1876.000000	0.009646
1875.000000	0.009634
1874.000000	0.009570
1873.000000	0.009491
1872.000000	0.009451
1871.000000	0.009449
1870.000000	0.009445
1869.000000	0.009415
1868.000000	0.009384
1867.000000	0.009373
1866.000000	0.009389
1865.000000	0.009422
1864.000000	0.009452
1863.000000	0.009477
1862.000000	0.009520
1861.000000	0.009584
1860.000000	0.009622
1859.000000	0.009591
1858.000000	0.009516
1857.000000	0.009466
1856.000000	0.009478
1855.000000	0.009527
1854.000000	0.009575
1853.000000	0.009596
1852.000000	0.009576
1851.000000	0.009541
1850.000000	0.009503
1849.000000	0.009445
1848.000000	0.009351
1847.000000	0.009270
1846.000000	0.009276
1845.000000	0.009370
1844.000000	0.009460
1843.000000	0.009465
1842.000000	0.009424
1841.000000	0.009418
1840.000000	0.009446
1839.000000	0.009452
1838.000000	0.009432
1837.000000	0.009439
1836.000000	0.009466
1835.000000	0.009443
1834.000000	0.009356
1833.000000	0.009262
1832.000000	0.009192
1831.000000	0.009132
1830.000000	0.009058
1829.000000	0.009007
1828.000000	0.009027
1827.000000	0.009135
1826.000000	0.009290
1825.000000	0.009413
1824.000000	0.009461
1823.000000	0.009461
1822.000000	0.009475
1821.000000	0.009521
1820.000000	0.009567
1819.000000	0.009581
1818.000000	0.009574
1817.000000	0.009581
1816.000000	0.009591
1815.000000	0.009577
1814.000000	0.009543
1813.000000	0.009506
1812.000000	0.009476
1811.000000	0.009452
1810.000000	0.009460
1809.000000	0.009528
1808.000000	0.009629
1807.000000	0.009705
1806.000000	0.009740
1805.000000	0.009767
1804.000000	0.009810
1803.000000	0.009852
1802.000000	0.009877
1801.000000	0.009873
1800.000000	0.009865
1799.000000	0.009868
1798.000000	0.009880
1797.000000	0.009875
1796.000000	0.009836
1795.000000	0.009787
1794.000000	0.009769
1793.000000	0.009779
1792.000000	0.009782
1791.000000	0.009738
1790.000000	0.009670
1789.000000	0.009633
1788.000000	0.009648
1787.000000	0.009683
1786.000000	0.009691
1785.000000	0.009645
1784.000000	0.009528
1783.000000	0.009378
1782.000000	0.009295
1781.000000	0.009303
1780.000000	0.009365
1779.000000	0.009409
1778.000000	0.009402
1777.000000	0.009333
1776.000000	0.009210
1775.000000	0.009096
1774.000000	0.009038
1773.000000	0.009008
1772.000000	0.008973
1771.000000	0.008989
1770.000000	0.009150
1769.000000	0.009467
1768.000000	0.009759
1767.000000	0.009829
1766.000000	0.009728
1765.000000	0.009674
1764.000000	0.009786
1763.000000	0.009993
1762.000000	0.010193
1761.000000	0.010368
1760.000000	0.010581
1759.000000	0.010898
1758.000000	0.011380
1757.000000	0.011972
1756.000000	0.012530
1755.000000	0.013021
1754.000000	0.013587
1753.000000	0.014340
1752.000000	0.015158
1751.000000	0.015808
1750.000000	0.016260
1749.000000	0.016734
1748.000000	0.017323
1747.000000	0.017929
1746.000000	0.018462
1745.000000	0.018910
1744.000000	0.019240
1743.000000	0.019378
1742.000000	0.019369
1741.000000	0.019360
1740.000000	0.019351
1739.000000	0.019148
1738.000000	0.018752
1737.000000	0.018429
1736.000000	0.018333
1735.000000	0.018245
1734.000000	0.017861
1733.000000	0.017194
1732.000000	0.016467
1731.000000	0.015862
1730.000000	0.015413
1729.000000	0.015053
1728.000000	0.014700
1727.000000	0.014338
1726.000000	0.013987
1725.000000	0.013665
1724.000000	0.013356
1723.000000	0.012975
1722.000000	0.012537
1721.000000	0.012198
1720.000000	0.012068
1719.000000	0.012066
1718.000000	0.012040
1717.000000	0.011990
1716.000000	0.011981
1715.000000	0.012048
1714.000000	0.012227
1713.000000	0.012529
1712.000000	0.012901
1711.000000	0.013264
1710.000000	0.013594
1709.000000	0.013914
1708.000000	0.014276
1707.000000	0.014752
1706.000000	0.015354
1705.000000	0.015992
1704.000000	0.016601
1703.000000	0.017337
1702.000000	0.018408
1701.000000	0.019723
1700.000000	0.020833
1699.000000	0.021514
1698.000000	0.022243
1697.000000	0.023529
1696.000000	0.025174
1695.000000	0.026489
1694.000000	0.027254
1693.000000	0.027898
1692.000000	0.028756
1691.000000	0.029761
1690.000000	0.030740
1689.000000	0.031643
1688.000000	0.032537
1687.000000	0.033544
1686.000000	0.034722
1685.000000	0.036064
1684.000000	0.037400
1683.000000	0.038500
1682.000000	0.039488
1681.000000	0.040659
1680.000000	0.041968
1679.000000	0.043192
1678.000000	0.044353
1677.000000	0.045688
1676.000000	0.047246
1675.000000	0.048738
1674.000000	0.049936
1673.000000	0.051002
1672.000000	0.052230
1671.000000	0.053677
1670.000000	0.055269
1669.000000	0.056917
1668.000000	0.058465
1667.000000	0.059801
1666.000000	0.061019
1665.000000	0.062314
1664.000000	0.063748
1663.000000	0.065184
1662.000000	0.066517
1661.000000	0.067765
1660.000000	0.068981
1659.000000	0.070088
1658.000000	0.070973
1657.000000	0.071705
1656.000000	0.072546
1655.000000	0.073629
1654.000000	0.074807
1653.000000	0.075888
1652.000000	0.076515
1651.000000	0.076559
1650.000000	0.076574
1649.000000	0.076948
1648.000000	0.077610
1647.000000	0.078302
1646.000000	0.078867
1645.000000	0.079295
1644.000000	0.079630
1643.000000	0.079919
1642.000000	0.080174
1641.000000	0.080326
1640.000000	0.080342
1639.000000	0.080294
1638.000000	0.080267
1637.000000	0.080252
1636.000000	0.080166
1635.000000	0.080000
1634.000000	0.079765
1633.000000	0.079544
1632.000000	0.079356
1631.000000	0.079073
1630.000000	0.078544
1629.000000	0.077747
1628.000000	0.076783
1627.000000	0.075769
1626.000000	0.074760
1625.000000	0.073687
1624.000000	0.072438
1623.000000	0.071004
1622.000000	0.069558
1621.000000	0.068271
1620.000000	0.067187
1619.000000	0.066190
1618.000000	0.064989
1617.000000	0.063372
1616.000000	0.061533
1615.000000	0.059856
1614.000000	0.058494
1613.000000	0.057349
1612.000000	0.056212
1611.000000	0.054973
1610.000000	0.053701
1609.000000	0.052490
1608.000000	0.051361
1607.000000	0.050319
1606.000000	0.049387
1605.000000	0.048528
1604.000000	0.047690
1603.000000	0.046888
1602.000000	0.046172
1601.000000	0.045552
1600.000000	0.045002
1599.000000	0.044511
1598.000000	0.044084
1597.000000	0.043705
1596.000000	0.043361
1595.000000	0.043076
1594.000000	0.042877
1593.000000	0.042750
1592.000000	0.042665
1591.000000	0.042633
1590.000000	0.042685
1589.000000	0.042803
1588.000000	0.042946
1587.000000	0.043104
1586.000000	0.043310
1585.000000	0.043569
1584.000000	0.043852
1583.000000	0.044184
1582.000000	0.044557
1581.000000	0.044898
1580.000000	0.045191
1579.000000	0.045573
1578.000000	0.046148
1577.000000	0.046845
1576.000000	0.047470
1575.000000	0.047895
1574.000000	0.048207
1573.000000	0.048609
1572.000000	0.049181
1571.000000	0.049843
1570.000000	0.050532
1569.000000	0.051249
1568.000000	0.051967
1567.000000	0.052723
1566.000000	0.053577
1565.000000	0.054486
1564.000000	0.055327
1563.000000	0.056134
1562.000000	0.057038
1561.000000	0.058017
1560.000000	0.058831
1559.000000	0.059517
1558.000000	0.060306
1557.000000	0.061129
1556.000000	0.062047
1555.000000	0.063080
1554.000000	0.064032
1553.000000	0.064764
1552.000000	0.065396
1551.000000	0.066066
1550.000000	0.066720
1549.000000	0.067278
1548.000000	0.067750
1547.000000	0.068213
1546.000000	0.068642
1545.000000	0.068933
1544.000000	0.069075
1543.000000	0.069202
1542.000000	0.069409
1541.000000	0.069704
1540.000000	0.070025
1539.000000	0.070220
1538.000000	0.070147
1537.000000	0.069980
1536.000000	0.069923
1535.000000	0.069919
1534.000000	0.069772
1533.000000	0.069475
1532.000000	0.069212
1531.000000	0.069036
1530.000000	0.068872
1529.000000	0.068661
1528.000000	0.068384
1527.000000	0.068026
1526.000000	0.067573
1525.000000	0.067075
1524.000000	0.066667
1523.000000	0.066394
1522.000000	0.066108
1521.000000	0.065649
1520.000000	0.065052
1519.000000	0.064499
1518.000000	0.064111
1517.000000	0.063821
1516.000000	0.063510
1515.000000	0.063152
1514.000000	0.062781
1513.000000	0.062334
1512.000000	0.061685
1511.000000	0.060833
1510.000000	0.059966
1509.000000	0.059203
1508.000000	0.058422
1507.000000	0.057509
1506.000000	0.056645
1505.000000	0.055872
1504.000000	0.055141
1503.000000	0.054494
1502.000000	0.053892
1501.000000	0.053223
1500.000000	0.052444
1499.000000	0.051638
1498.000000	0.050897
1497.000000	0.050238
1496.000000	0.049579
1495.000000	0.048829
1494.000000	0.048057
1493.000000	0.047389
1492.000000	0.046809
1491.000000	0.046178
1490.000000	0.045501
1489.000000	0.044980
1488.000000	0.044732
1487.000000	0.044655
1486.000000	0.044631
1485.000000	0.044629
1484.000000	0.044652
1483.000000	0.044731
1482.000000	0.044872
1481.000000	0.045076
1480.000000	0.045325
1479.000000	0.045624
1478.000000	0.045993
1477.000000	0.046441
1476.000000	0.046952
1475.000000	0.047556
1474.000000	0.048381
1473.000000	0.049493
1472.000000	0.050716
1471.000000	0.051752
1470.000000	0.052558
1469.000000	0.053282
1468.000000	0.053999
1467.000000	0.054701
1466.000000	0.055436
1465.000000	0.056229
1464.000000	0.056981
1463.000000	0.057558
1462.000000	0.057970
1461.000000	0.058352
1460.000000	0.058834
1459.000000	0.059561
1458.000000	0.060693
1457.000000	0.062147
1456.000000	0.063308
1455.000000	0.063832
1454.000000	0.064097
1453.000000	0.064450
1452.000000	0.064865
1451.000000	0.065193
1450.000000	0.065444
1449.000000	0.065708
1448.000000	0.065953
1447.000000	0.066091
1446.000000	0.066166
1445.000000	0.066233
1444.000000	0.066305
1443.000000	0.066338
1442.000000	0.066284
1441.000000	0.066149
1440.000000	0.065995
1439.000000	0.065922
1438.000000	0.065958
1437.000000	0.066014
1436.000000	0.065891
1435.000000	0.065521
1434.000000	0.065079
1433.000000	0.064739
1432.000000	0.064487
1431.000000	0.064251
1430.000000	0.064059
1429.000000	0.063971
1428.000000	0.063930
1427.000000	0.063856
1426.000000	0.063796
1425.000000	0.063784
1424.000000	0.063771
1423.000000	0.063708
1422.000000	0.063678
1421.000000	0.063804
1420.000000	0.064063
1419.000000	0.064296
1418.000000	0.064386
1417.000000	0.064381
1416.000000	0.064372
1415.000000	0.064365
1414.000000	0.064330
1413.000000	0.064284
1412.000000	0.064266
1411.000000	0.064261
1410.000000	0.064229
1409.000000	0.064170
1408.000000	0.064099
1407.000000	0.064024
1406.000000	0.063981
1405.000000	0.063981
1404.000000	0.063959
1403.000000	0.063842
1402.000000	0.063661
1401.000000	0.063498
1400.000000	0.063347
1399.000000	0.063127
1398.000000	0.062828
1397.000000	0.062539
1396.000000	0.062308
1395.000000	0.062080
1394.000000	0.061791
1393.000000	0.061420
1392.000000	0.060997
1391.000000	0.060565
1390.000000	0.060154
1389.000000	0.059761
1388.000000	0.059347
1387.000000	0.058863
1386.000000	0.058323
1385.000000	0.057793
1384.000000	0.057313
1383.000000	0.056858
1382.000000	0.056391
1381.000000	0.055912
1380.000000	0.055417
1379.000000	0.054864
1378.000000	0.054217
1377.000000	0.053500
1376.000000	0.052771
1375.000000	0.052070
1374.000000	0.051415
1373.000000	0.050795
1372.000000	0.050192
1371.000000	0.049600
1370.000000	0.049021
1369.000000	0.048431
1368.000000	0.047808
1367.000000	0.047166
1366.000000	0.046542
1365.000000	0.045956
1364.000000	0.045406
1363.000000	0.044902
1362.000000	0.044469
1361.000000	0.044108
1360.000000	0.043799
1359.000000	0.043529
1358.000000	0.043306
1357.000000	0.043135
1356.000000	0.043011
1355.000000	0.042929
1354.000000	0.042885
1353.000000	0.042877
1352.000000	0.042904
1351.000000	0.042959
1350.000000	0.043048
1349.000000	0.043172
1348.000000	0.043330
1347.000000	0.043519
1346.000000	0.043730
1345.000000	0.043954
1344.000000	0.044181
1343.000000	0.044416
1342.000000	0.044666
1341.000000	0.044932
1340.000000	0.045195
1339.000000	0.045428
1338.000000	0.045611
1337.000000	0.045730
1336.000000	0.045771
1335.000000	0.045723
1334.000000	0.045586
1333.000000	0.045373
1332.000000	0.045098
1331.000000	0.044771
1330.000000	0.044410
1329.000000	0.044035
1328.000000	0.043666
1327.000000	0.043317
1326.000000	0.043000
1325.000000	0.042720
1324.000000	0.042472
1323.000000	0.042245
1322.000000	0.042038
1321.000000	0.041852
1320.000000	0.041688
1319.000000	0.041537
1318.000000	0.041385
1317.000000	0.041225
1316.000000	0.041052
1315.000000	0.040861
1314.000000	0.040645
1313.000000	0.040397
1312.000000	0.040117
1311.000000	0.039813
1310.000000	0.039504
1309.000000	0.039207
1308.000000	0.038932
1307.000000	0.038670
1306.000000	0.038409
1305.000000	0.038145
1304.000000	0.037882
1303.000000	0.037622
1302.000000	0.037360
1301.000000	0.037103
1300.000000	0.036860
1299.000000	0.036642
1298.000000	0.036446
1297.000000	0.036270
1296.000000	0.036124
1295.000000	0.036020
1294.000000	0.035967
1293.000000	0.035961
1292.000000	0.036001
1291.000000	0.036084
1290.000000	0.036205
1289.000000	0.036356
1288.000000	0.036530
1287.000000	0.036715
1286.000000	0.036897
1285.000000	0.037068
1284.000000	0.037228
1283.000000	0.037372
1282.000000	0.037486
1281.000000	0.037557
1280.000000	0.037592
1279.000000	0.037609
1278.000000	0.037624
1277.000000	0.037641
1276.000000	0.037659
1275.000000	0.037688
1274.000000	0.037745
1273.000000	0.037846
1272.000000	0.037999
1271.000000	0.038199
1270.000000	0.038437
1269.000000	0.038707
1268.000000	0.039002
1267.000000	0.039315
1266.000000	0.039644
1265.000000	0.039997
1264.000000	0.040385
1263.000000	0.040802
1262.000000	0.041228
1261.000000	0.041643
1260.000000	0.042041
1259.000000	0.042428
1258.000000	0.042814
1257.000000	0.043207
1256.000000	0.043607
1255.000000	0.044008
1254.000000	0.044402
1253.000000	0.044791
1252.000000	0.045177
1251.000000	0.045564
1250.000000	0.045958
1249.000000	0.046364
1248.000000	0.046784
1247.000000	0.047210
1246.000000	0.047640
1245.000000	0.048075
1244.000000	0.048506
1243.000000	0.048912
1242.000000	0.049277
1241.000000	0.049600
1240.000000	0.049873
1239.000000	0.050080
1238.000000	0.050209
1237.000000	0.050268
1236.000000	0.050260
1235.000000	0.050180
1234.000000	0.050022
1233.000000	0.049792
1232.000000	0.049488
1231.000000	0.049099
1230.000000	0.048615
1229.000000	0.048040
1228.000000	0.047386
1227.000000	0.046663
1226.000000	0.045883
1225.000000	0.045065
1224.000000	0.044220
1223.000000	0.043360
1222.000000	0.042499
1221.000000	0.041666
1220.000000	0.040893
1219.000000	0.040200
1218.000000	0.039595
1217.000000	0.039076
1216.000000	0.038641
1215.000000	0.038286
1214.000000	0.038010
1213.000000	0.037813
1212.000000	0.037690
1211.000000	0.037633
1210.000000	0.037629
1209.000000	0.037674
1208.000000	0.037764
1207.000000	0.037891
1206.000000	0.038029
1205.000000	0.038151
1204.000000	0.038236
1203.000000	0.038267
1202.000000	0.038234
1201.000000	0.038129
1200.000000	0.037952
1199.000000	0.037709
1198.000000	0.037414
1197.000000	0.037087
1196.000000	0.036746
1195.000000	0.036408
1194.000000	0.036076
1193.000000	0.035748
1192.000000	0.035417
1191.000000	0.035081
1190.000000	0.034754
1189.000000	0.034454
1188.000000	0.034196
1187.000000	0.033973
1186.000000	0.033776
1185.000000	0.033598
1184.000000	0.033448
1183.000000	0.033340
1182.000000	0.033290
1181.000000	0.033310
1180.000000	0.033399
1179.000000	0.033534
1178.000000	0.033684
1177.000000	0.033840
1176.000000	0.034009
1175.000000	0.034194
1174.000000	0.034389
1173.000000	0.034591
1172.000000	0.034805
1171.000000	0.035037
1170.000000	0.035275
1169.000000	0.035516
1168.000000	0.035768
1167.000000	0.036043
1166.000000	0.036328
1165.000000	0.036592
1164.000000	0.036811
1163.000000	0.036981
1162.000000	0.037103
1161.000000	0.037173
1160.000000	0.037176
1159.000000	0.037093
1158.000000	0.036916
1157.000000	0.036656
1156.000000	0.036339
1155.000000	0.035982
1154.000000	0.035584
1153.000000	0.035128
1152.000000	0.034606
1151.000000	0.034030
1150.000000	0.033427
1149.000000	0.032826
1148.000000	0.032249
1147.000000	0.031698
1146.000000	0.031157
1145.000000	0.030606
1144.000000	0.030043
1143.000000	0.029484
1142.000000	0.028951
1141.000000	0.028453
1140.000000	0.027995
1139.000000	0.027585
1138.000000	0.027225
1137.000000	0.026903
1136.000000	0.026607
1135.000000	0.026333
1134.000000	0.026086
1133.000000	0.025878
1132.000000	0.025716
1131.000000	0.025596
1130.000000	0.025509
1129.000000	0.025454
1128.000000	0.025444
1127.000000	0.025485
1126.000000	0.025557
1125.000000	0.025625
1124.000000	0.025678
1123.000000	0.025729
1122.000000	0.025797
1121.000000	0.025893
1120.000000	0.026029
1119.000000	0.026223
1118.000000	0.026480
1117.000000	0.026781
1116.000000	0.027098
1115.000000	0.027420
1114.000000	0.027754
1113.000000	0.028107
1112.000000	0.028472
1111.000000	0.028818
1110.000000	0.029113
1109.000000	0.029348
1108.000000	0.029540
1107.000000	0.029716
1106.000000	0.029886
1105.000000	0.030039
1104.000000	0.030167
1103.000000	0.030279
1102.000000	0.030395
1101.000000	0.030534
1100.000000	0.030697
1099.000000	0.030875
1098.000000	0.031057
1097.000000	0.031232
1096.000000	0.031400
1095.000000	0.031568
1094.000000	0.031745
1093.000000	0.031943
1092.000000	0.032179
1091.000000	0.032450
1090.000000	0.032738
1089.000000	0.033013
1088.000000	0.033270
1087.000000	0.033520
1086.000000	0.033772
1085.000000	0.034007
1084.000000	0.034184
1083.000000	0.034273
1082.000000	0.034255
1081.000000	0.034134
1080.000000	0.033931
1079.000000	0.033680
1078.000000	0.033399
1077.000000	0.033072
1076.000000	0.032675
1075.000000	0.032220
1074.000000	0.031765
1073.000000	0.031366
1072.000000	0.031037
1071.000000	0.030770
1070.000000	0.030564
1069.000000	0.030432
1068.000000	0.030372
1067.000000	0.030368
1066.000000	0.030393
1065.000000	0.030431
1064.000000	0.030474
1063.000000	0.030520
1062.000000	0.030567
1061.000000	0.030604
1060.000000	0.030624
1059.000000	0.030626
1058.000000	0.030622
1057.000000	0.030611
1056.000000	0.030577
1055.000000	0.030506
1054.000000	0.030410
1053.000000	0.030314
1052.000000	0.030236
1051.000000	0.030179
1050.000000	0.030139
1049.000000	0.030115
1048.000000	0.030099
1047.000000	0.030084
1046.000000	0.030077
1045.000000	0.030097
1044.000000	0.030149
1043.000000	0.030220
1042.000000	0.030296
1041.000000	0.030385
1040.000000	0.030509
1039.000000	0.030698
1038.000000	0.030978
1037.000000	0.031354
1036.000000	0.031794
1035.000000	0.032244
1034.000000	0.032656
1033.000000	0.033011
1032.000000	0.033299
1031.000000	0.033506
1030.000000	0.033625
1029.000000	0.033672
1028.000000	0.033664
1027.000000	0.033605
1026.000000	0.033495
1025.000000	0.033352
1024.000000	0.033205
1023.000000	0.033065
1022.000000	0.032922
1021.000000	0.032767
1020.000000	0.032604
1019.000000	0.032437
1018.000000	0.032257
1017.000000	0.032046
1016.000000	0.031789
1015.000000	0.031477
1014.000000	0.031105
1013.000000	0.030671
1012.000000	0.030183
1011.000000	0.029662
1010.000000	0.029137
1009.000000	0.028627
1008.000000	0.028135
1007.000000	0.027653
1006.000000	0.027172
1005.000000	0.026693
1004.000000	0.026231
1003.000000	0.025797
1002.000000	0.025388
1001.000000	0.024996
1000.000000	0.024609
999.000000	0.024221
998.000000	0.023838
997.000000	0.023483
996.000000	0.023177
995.000000	0.022921
994.000000	0.022682
993.000000	0.022418
992.000000	0.022111
991.000000	0.021782
990.000000	0.021466
989.000000	0.021188
988.000000	0.020942
987.000000	0.020715
986.000000	0.020493
985.000000	0.020277
984.000000	0.020068
983.000000	0.019873
982.000000	0.019705
981.000000	0.019580
980.000000	0.019497
979.000000	0.019433
978.000000	0.019361
977.000000	0.019278
976.000000	0.019201
975.000000	0.019138
974.000000	0.019070
973.000000	0.018979
972.000000	0.018868
971.000000	0.018747
970.000000	0.018605
969.000000	0.018430
968.000000	0.018233
967.000000	0.018035
966.000000	0.017842
965.000000	0.017642
964.000000	0.017430
963.000000	0.017214
962.000000	0.016996
961.000000	0.016772
960.000000	0.016542
959.000000	0.016324
958.000000	0.016129
957.000000	0.015947
956.000000	0.015764
955.000000	0.015581
954.000000	0.015401
953.000000	0.015223
952.000000	0.015040
951.000000	0.014849
950.000000	0.014659
949.000000	0.014489
948.000000	0.014352
947.000000	0.014249
946.000000	0.014162
945.000000	0.014081
944.000000	0.014012
943.000000	0.013974
942.000000	0.013968
941.000000	0.013974
940.000000	0.013978
939.000000	0.013972
938.000000	0.013943
937.000000	0.013870
936.000000	0.013753
935.000000	0.013622
934.000000	0.013502
933.000000	0.013389
932.000000	0.013270
931.000000	0.013143
930.000000	0.013027
929.000000	0.012934
928.000000	0.012860
927.000000	0.012798
926.000000	0.012742
925.000000	0.012683
924.000000	0.012612
923.000000	0.012529
922.000000	0.012438
921.000000	0.012341
920.000000	0.012232
919.000000	0.012104
918.000000	0.011960
917.000000	0.011806
916.000000	0.011647
915.000000	0.011489
914.000000	0.011331
913.000000	0.011172
912.000000	0.011006
911.000000	0.010829
910.000000	0.010645
909.000000	0.010468
908.000000	0.010320
907.000000	0.010211
906.000000	0.010133
905.000000	0.010069
904.000000	0.009999
903.000000	0.009907
902.000000	0.009781
901.000000	0.009626
900.000000	0.009468
899.000000	0.009343
898.000000	0.009268
897.000000	0.009226
896.000000	0.009186
895.000000	0.009123
894.000000	0.009038
893.000000	0.008953
892.000000	0.008906
891.000000	0.008931
890.000000	0.009049
889.000000	0.009294
888.000000	0.009725
887.000000	0.010414
886.000000	0.011379
885.000000	0.012542
884.000000	0.013773
883.000000	0.014980
882.000000	0.016189
881.000000	0.017511
880.000000	0.019026
879.000000	0.020696
878.000000	0.022367
877.000000	0.023860
876.000000	0.025028
875.000000	0.025765
874.000000	0.025992
873.000000	0.025667
872.000000	0.024809
871.000000	0.023515
870.000000	0.021948
869.000000	0.020302
868.000000	0.018753
867.000000	0.017420
866.000000	0.016336
865.000000	0.015462
864.000000	0.014734
863.000000	0.014101
862.000000	0.013545
861.000000	0.013058
860.000000	0.012627
859.000000	0.012243
858.000000	0.011905
857.000000	0.011629
856.000000	0.011433
855.000000	0.011312
854.000000	0.011233
853.000000	0.011167
852.000000	0.011132
851.000000	0.011178
850.000000	0.011319
849.000000	0.011471
848.000000	0.011492
847.000000	0.011307
846.000000	0.010975
845.000000	0.010627
844.000000	0.010346
843.000000	0.010131
842.000000	0.009952
841.000000	0.009806
840.000000	0.009701
839.000000	0.009624
838.000000	0.009555
837.000000	0.009497
836.000000	0.009462
835.000000	0.009434
834.000000	0.009375
833.000000	0.009285
832.000000	0.009208
831.000000	0.009185
830.000000	0.009203
829.000000	0.009217
828.000000	0.009200
827.000000	0.009159
826.000000	0.009111
825.000000	0.009070
824.000000	0.009050
823.000000	0.009055
822.000000	0.009077
821.000000	0.009101
820.000000	0.009124
819.000000	0.009156
818.000000	0.009206
817.000000	0.009266
816.000000	0.009306
815.000000	0.009297
814.000000	0.009240
813.000000	0.009184
812.000000	0.009185
811.000000	0.009249
810.000000	0.009317
809.000000	0.009320
808.000000	0.009246
807.000000	0.009140
806.000000	0.009062
805.000000	0.009036
804.000000	0.009054
803.000000	0.009098
802.000000	0.009153
801.000000	0.009209
800.000000	0.009255
799.000000	0.009295
798.000000	0.009350
797.000000	0.009434
796.000000	0.009534
795.000000	0.009613
794.000000	0.009654
793.000000	0.009683
792.000000	0.009742
791.000000	0.009851
790.000000	0.009989
789.000000	0.010124
788.000000	0.010232
787.000000	0.010301
786.000000	0.010333
785.000000	0.010351
784.000000	0.010383
783.000000	0.010437
782.000000	0.010497
781.000000	0.010548
780.000000	0.010598
779.000000	0.010669
778.000000	0.010765
777.000000	0.010864
776.000000	0.010937
775.000000	0.010975
774.000000	0.010991
773.000000	0.010999
772.000000	0.011010
771.000000	0.011034
770.000000	0.011081
769.000000	0.011153
768.000000	0.011232
767.000000	0.011301
766.000000	0.011360
765.000000	0.011424
764.000000	0.011503
763.000000	0.011595
762.000000	0.011699
761.000000	0.011822
760.000000	0.011961
759.000000	0.012103
758.000000	0.012228
757.000000	0.012325
756.000000	0.012384
755.000000	0.012408
754.000000	0.012422
753.000000	0.012451
752.000000	0.012488
751.000000	0.012500
750.000000	0.012485
749.000000	0.012473
748.000000	0.012490
747.000000	0.012517
746.000000	0.012532
745.000000	0.012555
744.000000	0.012628
743.000000	0.012760
742.000000	0.012921
741.000000	0.013077
740.000000	0.013218
739.000000	0.013350
738.000000	0.013483
737.000000	0.013617
736.000000	0.013740
735.000000	0.013837
734.000000	0.013918
733.000000	0.014031
732.000000	0.014228
731.000000	0.014504
730.000000	0.014794
729.000000	0.015037
728.000000	0.015221
727.000000	0.015388
726.000000	0.015583
725.000000	0.015817
724.000000	0.016067
723.000000	0.016306
722.000000	0.016530
721.000000	0.016753
720.000000	0.016983
719.000000	0.017239
718.000000	0.017584
717.000000	0.018129
716.000000	0.018953
715.000000	0.020001
714.000000	0.021052
713.000000	0.021810
712.000000	0.022066
711.000000	0.021841
710.000000	0.021372
709.000000	0.020949
708.000000	0.020737
707.000000	0.020710
706.000000	0.020766
705.000000	0.020842
704.000000	0.020922
703.000000	0.021000
702.000000	0.021060
701.000000	0.021091
700.000000	0.021088
699.000000	0.021059
698.000000	0.021032
697.000000	0.021052
696.000000	0.021134
695.000000	0.021237
694.000000	0.021314
693.000000	0.021360
692.000000	0.021399
691.000000	0.021432
690.000000	0.021434
689.000000	0.021409
688.000000	0.021404
687.000000	0.021458
686.000000	0.021562
685.000000	0.021672
684.000000	0.021761
683.000000	0.021829
682.000000	0.021887
681.000000	0.021932
680.000000	0.021959
679.000000	0.021968
678.000000	0.021975
677.000000	0.022020
676.000000	0.022131
675.000000	0.022288
674.000000	0.022432
673.000000	0.022510
672.000000	0.022503
671.000000	0.022421
670.000000	0.022282
669.000000	0.022119
668.000000	0.022018
667.000000	0.022085
666.000000	0.022223
665.000000	0.022368
664.000000	0.022509
663.000000	0.022610
662.000000	0.022658
661.000000	0.022690
660.000000	0.022743
659.000000	0.022812
658.000000	0.022881
657.000000	0.022966
656.000000	0.023054
655.000000	0.023073
654.000000	0.022985
653.000000	0.022868
652.000000	0.022819
651.000000	0.022847
650.000000	0.022900
649.000000	0.022957
648.000000	0.023050
647.000000	0.023193
646.000000	0.023363
645.000000	0.023512
644.000000	0.023607
643.000000	0.023665
642.000000	0.023754
641.000000	0.023918
640.000000	0.024113
639.000000	0.024249
638.000000	0.024319
637.000000	0.024398
636.000000	0.024511
635.000000	0.024581
634.000000	0.024558
633.000000	0.024512
632.000000	0.024532
631.000000	0.024608
630.000000	0.024674
629.000000	0.024712
628.000000	0.024747
627.000000	0.024775
626.000000	0.024768
625.000000	0.024731
624.000000	0.024692
623.000000	0.024657
622.000000	0.024632
621.000000	0.024662
620.000000	0.024793
619.000000	0.025008
618.000000	0.025235
617.000000	0.025412
616.000000	0.025517
615.000000	0.025559
614.000000	0.025576
613.000000	0.025614
612.000000	0.025670
611.000000	0.025681
610.000000	0.025609
609.000000	0.025492
608.000000	0.025385
607.000000	0.025290
606.000000	0.025195
605.000000	0.025116
604.000000	0.025064
603.000000	0.024994
602.000000	0.024844
601.000000	0.024610
600.000000	0.024336
599.000000	0.024059
598.000000	0.023804
597.000000	0.023588
596.000000	0.023400
595.000000	0.023206
594.000000	0.022998
593.000000	0.022806
592.000000	0.022643
591.000000	0.022479
590.000000	0.022313
589.000000	0.022203
588.000000	0.022187
587.000000	0.022232
586.000000	0.022285
585.000000	0.022322
584.000000	0.022323
583.000000	0.022241
582.000000	0.022083
581.000000	0.021944
580.000000	0.021911
579.000000	0.021974
578.000000	0.022072
577.000000	0.022165
576.000000	0.022229
575.000000	0.022255
574.000000	0.022312
573.000000	0.022510
572.000000	0.022830
571.000000	0.023084
570.000000	0.023135
569.000000	0.023067
568.000000	0.023036
567.000000	0.023041
566.000000	0.022994
565.000000	0.022917
564.000000	0.022903
563.000000	0.022951
562.000000	0.022981
561.000000	0.022986
560.000000	0.023028
559.000000	0.023102
558.000000	0.023151
557.000000	0.023175
556.000000	0.023227
555.000000	0.023296
554.000000	0.023321
553.000000	0.023294
552.000000	0.023266
551.000000	0.023234
550.000000	0.023143
549.000000	0.022963
548.000000	0.022706
547.000000	0.022401
546.000000	0.022131
545.000000	0.022022
544.000000	0.022086
543.000000	0.022153
542.000000	0.022086
541.000000	0.021991
540.000000	0.022096
539.000000	0.022444
538.000000	0.022851
537.000000	0.023120
536.000000	0.023183
535.000000	0.023051
534.000000	0.022806
533.000000	0.022612
532.000000	0.022609
531.000000	0.022753
530.000000	0.022866
529.000000	0.022824
528.000000	0.022633
527.000000	0.022362
526.000000	0.022119
525.000000	0.022011
524.000000	0.022012
523.000000	0.021931
522.000000	0.021638
521.000000	0.021231
520.000000	0.020896
519.000000	0.020655
518.000000	0.020411
517.000000	0.020169
516.000000	0.019999
515.000000	0.019831
514.000000	0.019511
513.000000	0.019071
512.000000	0.018745
511.000000	0.018672
510.000000	0.018743
509.000000	0.018761
508.000000	0.018648
507.000000	0.018437
506.000000	0.018205
505.000000	0.018054
504.000000	0.018046
503.000000	0.018094
502.000000	0.018018
501.000000	0.017741
500.000000	0.017355
499.000000	0.016972
498.000000	0.016630
497.000000	0.016355
496.000000	0.016184
495.000000	0.016103
494.000000	0.016043
493.000000	0.015962
492.000000	0.015843
491.000000	0.015624
490.000000	0.015269
489.000000	0.014871
488.000000	0.014564
487.000000	0.014343
486.000000	0.014106
485.000000	0.013888
484.000000	0.013873
483.000000	0.014113
482.000000	0.014398
481.000000	0.014508
480.000000	0.014415
479.000000	0.014210
478.000000	0.013952
477.000000	0.013667
476.000000	0.013371
475.000000	0.013078
474.000000	0.012840
473.000000	0.012788
472.000000	0.013009
471.000000	0.013354
470.000000	0.013585
469.000000	0.013658
468.000000	0.013686
467.000000	0.013704
466.000000	0.013646
465.000000	0.013514
464.000000	0.013392
463.000000	0.013234
462.000000	0.012839
461.000000	0.012102
460.000000	0.011122
459.000000	0.010107
458.000000	0.009333
457.000000	0.009059
456.000000	0.009234
455.000000	0.009499
454.000000	0.009560
453.000000	0.009436
452.000000	0.009346
451.000000	0.009358
450.000000	0.009278
