PE IR       SUBTECH     SPECTRUM    ASCII       PEDS        4.00        
   -1
3C-H10-F002_1.ASC
22/02/11
11:36:13.00
22/02/11
11:54:14.00
uco
Sample 002 By uco Date Friday, February 11 2022
450.000000
#HDR
-1
-1
#GR
cm-1
A
1.0
0.0
4000.000000
-1.000000
3551
8
0.005252
-0.000338
#DATA
4000.000000	-0.000044
3999.000000	-0.000060
3998.000000	-0.000071
3997.000000	-0.000072
3996.000000	-0.000047
3995.000000	-0.000027
3994.000000	-0.000013
3993.000000	-0.000010
3992.000000	-0.000017
3991.000000	-0.000022
3990.000000	-0.000013
3989.000000	0.000010
3988.000000	0.000035
3987.000000	0.000051
3986.000000	0.000055
3985.000000	0.000050
3984.000000	0.000043
3983.000000	0.000036
3982.000000	0.000029
3981.000000	0.000020
3980.000000	0.000011
3979.000000	0.000004
3978.000000	-0.000004
3977.000000	-0.000012
3976.000000	-0.000021
3975.000000	-0.000024
3974.000000	-0.000019
3973.000000	-0.000013
3972.000000	-0.000014
3971.000000	-0.000025
3970.000000	-0.000036
3969.000000	-0.000037
3968.000000	-0.000026
3967.000000	-0.000009
3966.000000	0.000004
3965.000000	0.000013
3964.000000	0.000020
3963.000000	0.000030
3962.000000	0.000039
3961.000000	0.000041
3960.000000	0.000037
3959.000000	0.000031
3958.000000	0.000028
3957.000000	0.000029
3956.000000	0.000030
3955.000000	0.000027
3954.000000	0.000016
3953.000000	0.000002
3952.000000	-0.000013
3951.000000	-0.000023
3950.000000	-0.000027
3949.000000	-0.000027
3948.000000	-0.000021
3947.000000	-0.000007
3946.000000	0.000018
3945.000000	0.000051
3944.000000	0.000080
3943.000000	0.000094
3942.000000	0.000088
3941.000000	0.000072
3940.000000	0.000063
3939.000000	0.000066
3938.000000	0.000074
3937.000000	0.000073
3936.000000	0.000053
3935.000000	0.000016
3934.000000	-0.000019
3933.000000	-0.000032
3932.000000	-0.000015
3931.000000	0.000022
3930.000000	0.000060
3929.000000	0.000084
3928.000000	0.000093
3927.000000	0.000095
3926.000000	0.000096
3925.000000	0.000101
3924.000000	0.000106
3923.000000	0.000108
3922.000000	0.000104
3921.000000	0.000092
3920.000000	0.000074
3919.000000	0.000060
3918.000000	0.000059
3917.000000	0.000073
3916.000000	0.000092
3915.000000	0.000104
3914.000000	0.000105
3913.000000	0.000105
3912.000000	0.000109
3911.000000	0.000118
3910.000000	0.000122
3909.000000	0.000116
3908.000000	0.000103
3907.000000	0.000091
3906.000000	0.000088
3905.000000	0.000089
3904.000000	0.000086
3903.000000	0.000076
3902.000000	0.000065
3901.000000	0.000068
3900.000000	0.000085
3899.000000	0.000105
3898.000000	0.000113
3897.000000	0.000104
3896.000000	0.000088
3895.000000	0.000075
3894.000000	0.000068
3893.000000	0.000066
3892.000000	0.000066
3891.000000	0.000070
3890.000000	0.000083
3889.000000	0.000103
3888.000000	0.000115
3887.000000	0.000102
3886.000000	0.000066
3885.000000	0.000031
3884.000000	0.000018
3883.000000	0.000036
3882.000000	0.000069
3881.000000	0.000097
3880.000000	0.000105
3879.000000	0.000096
3878.000000	0.000085
3877.000000	0.000079
3876.000000	0.000080
3875.000000	0.000084
3874.000000	0.000088
3873.000000	0.000087
3872.000000	0.000080
3871.000000	0.000069
3870.000000	0.000057
3869.000000	0.000046
3868.000000	0.000037
3867.000000	0.000031
3866.000000	0.000027
3865.000000	0.000027
3864.000000	0.000035
3863.000000	0.000048
3862.000000	0.000059
3861.000000	0.000064
3860.000000	0.000061
3859.000000	0.000052
3858.000000	0.000041
3857.000000	0.000027
3856.000000	0.000008
3855.000000	-0.000008
3854.000000	-0.000013
3853.000000	-0.000016
3852.000000	-0.000021
3851.000000	-0.000013
3850.000000	0.000009
3849.000000	0.000040
3848.000000	0.000076
3847.000000	0.000113
3846.000000	0.000142
3845.000000	0.000152
3844.000000	0.000144
3843.000000	0.000128
3842.000000	0.000123
3841.000000	0.000132
3840.000000	0.000144
3839.000000	0.000141
3838.000000	0.000119
3837.000000	0.000092
3836.000000	0.000083
3835.000000	0.000101
3834.000000	0.000133
3833.000000	0.000162
3832.000000	0.000174
3831.000000	0.000168
3830.000000	0.000153
3829.000000	0.000139
3828.000000	0.000132
3827.000000	0.000126
3826.000000	0.000117
3825.000000	0.000106
3824.000000	0.000099
3823.000000	0.000104
3822.000000	0.000122
3821.000000	0.000140
3820.000000	0.000141
3819.000000	0.000124
3818.000000	0.000097
3817.000000	0.000068
3816.000000	0.000043
3815.000000	0.000029
3814.000000	0.000029
3813.000000	0.000041
3812.000000	0.000056
3811.000000	0.000062
3810.000000	0.000060
3809.000000	0.000054
3808.000000	0.000056
3807.000000	0.000065
3806.000000	0.000069
3805.000000	0.000063
3804.000000	0.000048
3803.000000	0.000036
3802.000000	0.000033
3801.000000	0.000033
3800.000000	0.000030
3799.000000	0.000032
3798.000000	0.000049
3797.000000	0.000077
3796.000000	0.000110
3795.000000	0.000141
3794.000000	0.000170
3793.000000	0.000193
3792.000000	0.000206
3791.000000	0.000201
3790.000000	0.000185
3789.000000	0.000168
3788.000000	0.000160
3787.000000	0.000162
3786.000000	0.000166
3785.000000	0.000168
3784.000000	0.000167
3783.000000	0.000166
3782.000000	0.000164
3781.000000	0.000159
3780.000000	0.000149
3779.000000	0.000134
3778.000000	0.000119
3777.000000	0.000115
3776.000000	0.000125
3775.000000	0.000145
3774.000000	0.000164
3773.000000	0.000174
3772.000000	0.000174
3771.000000	0.000163
3770.000000	0.000142
3769.000000	0.000114
3768.000000	0.000093
3767.000000	0.000088
3766.000000	0.000091
3765.000000	0.000086
3764.000000	0.000062
3763.000000	0.000025
3762.000000	-0.000009
3761.000000	-0.000025
3760.000000	-0.000015
3759.000000	0.000015
3758.000000	0.000050
3757.000000	0.000077
3756.000000	0.000089
3755.000000	0.000081
3754.000000	0.000058
3753.000000	0.000031
3752.000000	0.000015
3751.000000	0.000005
3750.000000	-0.000014
3749.000000	-0.000044
3748.000000	-0.000068
3747.000000	-0.000074
3746.000000	-0.000062
3745.000000	-0.000038
3744.000000	-0.000024
3743.000000	-0.000025
3742.000000	-0.000029
3741.000000	-0.000031
3740.000000	-0.000040
3739.000000	-0.000057
3738.000000	-0.000069
3737.000000	-0.000065
3736.000000	-0.000050
3735.000000	-0.000042
3734.000000	-0.000051
3733.000000	-0.000065
3732.000000	-0.000067
3731.000000	-0.000054
3730.000000	-0.000037
3729.000000	-0.000027
3728.000000	-0.000026
3727.000000	-0.000025
3726.000000	-0.000018
3725.000000	-0.000011
3724.000000	-0.000009
3723.000000	-0.000007
3722.000000	-0.000004
3721.000000	-0.000000
3720.000000	-0.000002
3719.000000	-0.000010
3718.000000	-0.000015
3717.000000	-0.000013
3716.000000	-0.000003
3715.000000	0.000007
3714.000000	0.000006
3713.000000	-0.000007
3712.000000	-0.000030
3711.000000	-0.000055
3710.000000	-0.000075
3709.000000	-0.000084
3708.000000	-0.000081
3707.000000	-0.000067
3706.000000	-0.000044
3705.000000	-0.000016
3704.000000	0.000007
3703.000000	0.000017
3702.000000	0.000012
3701.000000	-0.000004
3700.000000	-0.000021
3699.000000	-0.000031
3698.000000	-0.000030
3697.000000	-0.000022
3696.000000	-0.000010
3695.000000	0.000002
3694.000000	0.000010
3693.000000	0.000009
3692.000000	0.000000
3691.000000	-0.000011
3690.000000	-0.000015
3689.000000	-0.000015
3688.000000	-0.000020
3687.000000	-0.000028
3686.000000	-0.000027
3685.000000	-0.000017
3684.000000	-0.000003
3683.000000	0.000008
3682.000000	0.000012
3681.000000	0.000007
3680.000000	-0.000010
3679.000000	-0.000037
3678.000000	-0.000071
3677.000000	-0.000097
3676.000000	-0.000100
3675.000000	-0.000085
3674.000000	-0.000057
3673.000000	-0.000015
3672.000000	0.000036
3671.000000	0.000073
3670.000000	0.000077
3669.000000	0.000048
3668.000000	0.000010
3667.000000	-0.000016
3666.000000	-0.000025
3665.000000	-0.000025
3664.000000	-0.000021
3663.000000	-0.000018
3662.000000	-0.000019
3661.000000	-0.000022
3660.000000	-0.000022
3659.000000	-0.000013
3658.000000	0.000001
3657.000000	0.000008
3656.000000	-0.000007
3655.000000	-0.000033
3654.000000	-0.000049
3653.000000	-0.000046
3652.000000	-0.000039
3651.000000	-0.000045
3650.000000	-0.000065
3649.000000	-0.000076
3648.000000	-0.000060
3647.000000	-0.000028
3646.000000	-0.000005
3645.000000	-0.000006
3644.000000	-0.000021
3643.000000	-0.000034
3642.000000	-0.000029
3641.000000	-0.000004
3640.000000	0.000028
3639.000000	0.000048
3638.000000	0.000047
3637.000000	0.000032
3636.000000	0.000018
3635.000000	0.000017
3634.000000	0.000024
3633.000000	0.000026
3632.000000	0.000013
3631.000000	-0.000009
3630.000000	-0.000020
3629.000000	-0.000003
3628.000000	0.000033
3627.000000	0.000066
3626.000000	0.000083
3625.000000	0.000075
3624.000000	0.000047
3623.000000	0.000019
3622.000000	0.000008
3621.000000	0.000018
3620.000000	0.000037
3619.000000	0.000051
3618.000000	0.000053
3617.000000	0.000051
3616.000000	0.000057
3615.000000	0.000072
3614.000000	0.000092
3613.000000	0.000109
3612.000000	0.000117
3611.000000	0.000118
3610.000000	0.000115
3609.000000	0.000112
3608.000000	0.000112
3607.000000	0.000118
3606.000000	0.000130
3605.000000	0.000144
3604.000000	0.000153
3603.000000	0.000158
3602.000000	0.000165
3601.000000	0.000178
3600.000000	0.000194
3599.000000	0.000204
3598.000000	0.000203
3597.000000	0.000195
3596.000000	0.000187
3595.000000	0.000186
3594.000000	0.000191
3593.000000	0.000199
3592.000000	0.000200
3591.000000	0.000186
3590.000000	0.000159
3589.000000	0.000131
3588.000000	0.000122
3587.000000	0.000137
3586.000000	0.000166
3585.000000	0.000201
3584.000000	0.000236
3583.000000	0.000264
3582.000000	0.000275
3581.000000	0.000269
3580.000000	0.000259
3579.000000	0.000257
3578.000000	0.000272
3577.000000	0.000300
3576.000000	0.000328
3575.000000	0.000345
3574.000000	0.000343
3573.000000	0.000324
3572.000000	0.000293
3571.000000	0.000259
3570.000000	0.000232
3569.000000	0.000222
3568.000000	0.000243
3567.000000	0.000290
3566.000000	0.000341
3565.000000	0.000376
3564.000000	0.000393
3563.000000	0.000396
3562.000000	0.000392
3561.000000	0.000389
3560.000000	0.000394
3559.000000	0.000410
3558.000000	0.000430
3557.000000	0.000438
3556.000000	0.000422
3555.000000	0.000385
3554.000000	0.000347
3553.000000	0.000327
3552.000000	0.000333
3551.000000	0.000358
3550.000000	0.000389
3549.000000	0.000419
3548.000000	0.000445
3547.000000	0.000464
3546.000000	0.000472
3545.000000	0.000471
3544.000000	0.000464
3543.000000	0.000460
3542.000000	0.000462
3541.000000	0.000470
3540.000000	0.000484
3539.000000	0.000505
3538.000000	0.000532
3537.000000	0.000561
3536.000000	0.000583
3535.000000	0.000587
3534.000000	0.000572
3533.000000	0.000545
3532.000000	0.000521
3531.000000	0.000513
3530.000000	0.000524
3529.000000	0.000546
3528.000000	0.000568
3527.000000	0.000581
3526.000000	0.000585
3525.000000	0.000590
3524.000000	0.000605
3523.000000	0.000630
3522.000000	0.000659
3521.000000	0.000694
3520.000000	0.000735
3519.000000	0.000775
3518.000000	0.000796
3517.000000	0.000789
3516.000000	0.000766
3515.000000	0.000744
3514.000000	0.000735
3513.000000	0.000738
3512.000000	0.000744
3511.000000	0.000746
3510.000000	0.000739
3509.000000	0.000723
3508.000000	0.000708
3507.000000	0.000702
3506.000000	0.000698
3505.000000	0.000687
3504.000000	0.000670
3503.000000	0.000664
3502.000000	0.000681
3501.000000	0.000719
3500.000000	0.000759
3499.000000	0.000783
3498.000000	0.000780
3497.000000	0.000758
3496.000000	0.000733
3495.000000	0.000725
3494.000000	0.000733
3493.000000	0.000748
3492.000000	0.000759
3491.000000	0.000769
3490.000000	0.000784
3489.000000	0.000802
3488.000000	0.000810
3487.000000	0.000802
3486.000000	0.000781
3485.000000	0.000760
3484.000000	0.000752
3483.000000	0.000761
3482.000000	0.000778
3481.000000	0.000792
3480.000000	0.000795
3479.000000	0.000794
3478.000000	0.000804
3477.000000	0.000832
3476.000000	0.000869
3475.000000	0.000901
3474.000000	0.000919
3473.000000	0.000924
3472.000000	0.000921
3471.000000	0.000914
3470.000000	0.000901
3469.000000	0.000883
3468.000000	0.000863
3467.000000	0.000847
3466.000000	0.000843
3465.000000	0.000852
3464.000000	0.000867
3463.000000	0.000877
3462.000000	0.000877
3461.000000	0.000876
3460.000000	0.000886
3459.000000	0.000915
3458.000000	0.000949
3457.000000	0.000973
3456.000000	0.000975
3455.000000	0.000960
3454.000000	0.000938
3453.000000	0.000921
3452.000000	0.000916
3451.000000	0.000924
3450.000000	0.000943
3449.000000	0.000967
3448.000000	0.000985
3447.000000	0.000988
3446.000000	0.000972
3445.000000	0.000945
3444.000000	0.000923
3443.000000	0.000920
3442.000000	0.000937
3441.000000	0.000967
3440.000000	0.000997
3439.000000	0.001018
3438.000000	0.001024
3437.000000	0.001015
3436.000000	0.000994
3435.000000	0.000971
3434.000000	0.000959
3433.000000	0.000962
3432.000000	0.000976
3431.000000	0.000993
3430.000000	0.001010
3429.000000	0.001025
3428.000000	0.001039
3427.000000	0.001046
3426.000000	0.001046
3425.000000	0.001045
3424.000000	0.001052
3423.000000	0.001073
3422.000000	0.001099
3421.000000	0.001117
3420.000000	0.001115
3419.000000	0.001099
3418.000000	0.001083
3417.000000	0.001078
3416.000000	0.001084
3415.000000	0.001094
3414.000000	0.001102
3413.000000	0.001109
3412.000000	0.001120
3411.000000	0.001134
3410.000000	0.001146
3409.000000	0.001150
3408.000000	0.001146
3407.000000	0.001140
3406.000000	0.001139
3405.000000	0.001143
3404.000000	0.001150
3403.000000	0.001154
3402.000000	0.001149
3401.000000	0.001130
3400.000000	0.001104
3399.000000	0.001084
3398.000000	0.001081
3397.000000	0.001099
3396.000000	0.001129
3395.000000	0.001162
3394.000000	0.001188
3393.000000	0.001199
3392.000000	0.001195
3391.000000	0.001182
3390.000000	0.001169
3389.000000	0.001162
3388.000000	0.001163
3387.000000	0.001173
3386.000000	0.001191
3385.000000	0.001212
3384.000000	0.001231
3383.000000	0.001246
3382.000000	0.001257
3381.000000	0.001269
3380.000000	0.001283
3379.000000	0.001296
3378.000000	0.001301
3377.000000	0.001294
3376.000000	0.001279
3375.000000	0.001264
3374.000000	0.001259
3373.000000	0.001261
3372.000000	0.001265
3371.000000	0.001266
3370.000000	0.001265
3369.000000	0.001265
3368.000000	0.001276
3367.000000	0.001297
3366.000000	0.001321
3365.000000	0.001338
3364.000000	0.001344
3363.000000	0.001347
3362.000000	0.001355
3361.000000	0.001369
3360.000000	0.001379
3359.000000	0.001380
3358.000000	0.001374
3357.000000	0.001368
3356.000000	0.001365
3355.000000	0.001371
3354.000000	0.001385
3353.000000	0.001406
3352.000000	0.001428
3351.000000	0.001446
3350.000000	0.001462
3349.000000	0.001482
3348.000000	0.001509
3347.000000	0.001538
3346.000000	0.001561
3345.000000	0.001574
3344.000000	0.001578
3343.000000	0.001570
3342.000000	0.001551
3341.000000	0.001529
3340.000000	0.001513
3339.000000	0.001509
3338.000000	0.001511
3337.000000	0.001515
3336.000000	0.001523
3335.000000	0.001538
3334.000000	0.001560
3333.000000	0.001580
3332.000000	0.001592
3331.000000	0.001600
3330.000000	0.001612
3329.000000	0.001633
3328.000000	0.001663
3327.000000	0.001693
3326.000000	0.001711
3325.000000	0.001707
3324.000000	0.001685
3323.000000	0.001660
3322.000000	0.001644
3321.000000	0.001642
3320.000000	0.001649
3319.000000	0.001662
3318.000000	0.001681
3317.000000	0.001701
3316.000000	0.001714
3315.000000	0.001714
3314.000000	0.001709
3313.000000	0.001711
3312.000000	0.001726
3311.000000	0.001748
3310.000000	0.001763
3309.000000	0.001767
3308.000000	0.001762
3307.000000	0.001757
3306.000000	0.001758
3305.000000	0.001765
3304.000000	0.001769
3303.000000	0.001760
3302.000000	0.001736
3301.000000	0.001704
3300.000000	0.001681
3299.000000	0.001676
3298.000000	0.001689
3297.000000	0.001705
3296.000000	0.001711
3295.000000	0.001698
3294.000000	0.001671
3293.000000	0.001645
3292.000000	0.001635
3291.000000	0.001648
3290.000000	0.001678
3289.000000	0.001709
3288.000000	0.001728
3287.000000	0.001731
3286.000000	0.001727
3285.000000	0.001726
3284.000000	0.001737
3283.000000	0.001754
3282.000000	0.001765
3281.000000	0.001762
3280.000000	0.001746
3279.000000	0.001727
3278.000000	0.001712
3277.000000	0.001699
3276.000000	0.001684
3275.000000	0.001665
3274.000000	0.001647
3273.000000	0.001638
3272.000000	0.001646
3271.000000	0.001669
3270.000000	0.001694
3269.000000	0.001709
3268.000000	0.001710
3267.000000	0.001706
3266.000000	0.001706
3265.000000	0.001711
3264.000000	0.001720
3263.000000	0.001729
3262.000000	0.001734
3261.000000	0.001731
3260.000000	0.001719
3259.000000	0.001701
3258.000000	0.001686
3257.000000	0.001674
3256.000000	0.001665
3255.000000	0.001658
3254.000000	0.001657
3253.000000	0.001662
3252.000000	0.001671
3251.000000	0.001674
3250.000000	0.001664
3249.000000	0.001643
3248.000000	0.001618
3247.000000	0.001599
3246.000000	0.001598
3245.000000	0.001613
3244.000000	0.001635
3243.000000	0.001647
3242.000000	0.001642
3241.000000	0.001626
3240.000000	0.001611
3239.000000	0.001603
3238.000000	0.001597
3237.000000	0.001585
3236.000000	0.001568
3235.000000	0.001551
3234.000000	0.001540
3233.000000	0.001533
3232.000000	0.001533
3231.000000	0.001545
3230.000000	0.001571
3229.000000	0.001602
3228.000000	0.001625
3227.000000	0.001632
3226.000000	0.001625
3225.000000	0.001612
3224.000000	0.001601
3223.000000	0.001594
3222.000000	0.001590
3221.000000	0.001588
3220.000000	0.001587
3219.000000	0.001587
3218.000000	0.001585
3217.000000	0.001579
3216.000000	0.001566
3215.000000	0.001543
3214.000000	0.001513
3213.000000	0.001480
3212.000000	0.001450
3211.000000	0.001429
3210.000000	0.001425
3209.000000	0.001438
3208.000000	0.001463
3207.000000	0.001488
3206.000000	0.001506
3205.000000	0.001517
3204.000000	0.001528
3203.000000	0.001539
3202.000000	0.001546
3201.000000	0.001546
3200.000000	0.001541
3199.000000	0.001537
3198.000000	0.001536
3197.000000	0.001535
3196.000000	0.001528
3195.000000	0.001518
3194.000000	0.001506
3193.000000	0.001500
3192.000000	0.001505
3191.000000	0.001523
3190.000000	0.001546
3189.000000	0.001558
3188.000000	0.001548
3187.000000	0.001517
3186.000000	0.001478
3185.000000	0.001447
3184.000000	0.001435
3183.000000	0.001437
3182.000000	0.001444
3181.000000	0.001450
3180.000000	0.001454
3179.000000	0.001453
3178.000000	0.001441
3177.000000	0.001411
3176.000000	0.001369
3175.000000	0.001336
3174.000000	0.001324
3173.000000	0.001332
3172.000000	0.001343
3171.000000	0.001348
3170.000000	0.001348
3169.000000	0.001347
3168.000000	0.001352
3167.000000	0.001363
3166.000000	0.001377
3165.000000	0.001390
3164.000000	0.001401
3163.000000	0.001410
3162.000000	0.001419
3161.000000	0.001422
3160.000000	0.001412
3159.000000	0.001389
3158.000000	0.001367
3157.000000	0.001356
3156.000000	0.001357
3155.000000	0.001358
3154.000000	0.001353
3153.000000	0.001340
3152.000000	0.001327
3151.000000	0.001312
3150.000000	0.001296
3149.000000	0.001280
3148.000000	0.001272
3147.000000	0.001273
3146.000000	0.001279
3145.000000	0.001282
3144.000000	0.001282
3143.000000	0.001282
3142.000000	0.001283
3141.000000	0.001281
3140.000000	0.001274
3139.000000	0.001269
3138.000000	0.001275
3137.000000	0.001294
3136.000000	0.001316
3135.000000	0.001329
3134.000000	0.001325
3133.000000	0.001307
3132.000000	0.001283
3131.000000	0.001262
3130.000000	0.001247
3129.000000	0.001235
3128.000000	0.001223
3127.000000	0.001211
3126.000000	0.001200
3125.000000	0.001190
3124.000000	0.001178
3123.000000	0.001168
3122.000000	0.001167
3121.000000	0.001176
3120.000000	0.001186
3119.000000	0.001188
3118.000000	0.001181
3117.000000	0.001176
3116.000000	0.001182
3115.000000	0.001198
3114.000000	0.001207
3113.000000	0.001200
3112.000000	0.001181
3111.000000	0.001167
3110.000000	0.001171
3109.000000	0.001195
3108.000000	0.001231
3107.000000	0.001267
3106.000000	0.001290
3105.000000	0.001292
3104.000000	0.001273
3103.000000	0.001242
3102.000000	0.001216
3101.000000	0.001209
3100.000000	0.001226
3099.000000	0.001261
3098.000000	0.001298
3097.000000	0.001318
3096.000000	0.001316
3095.000000	0.001295
3094.000000	0.001265
3093.000000	0.001235
3092.000000	0.001212
3091.000000	0.001203
3090.000000	0.001212
3089.000000	0.001234
3088.000000	0.001261
3087.000000	0.001282
3086.000000	0.001293
3085.000000	0.001294
3084.000000	0.001293
3083.000000	0.001295
3082.000000	0.001304
3081.000000	0.001320
3080.000000	0.001338
3079.000000	0.001357
3078.000000	0.001371
3077.000000	0.001372
3076.000000	0.001358
3075.000000	0.001335
3074.000000	0.001320
3073.000000	0.001322
3072.000000	0.001338
3071.000000	0.001354
3070.000000	0.001359
3069.000000	0.001352
3068.000000	0.001341
3067.000000	0.001330
3066.000000	0.001321
3065.000000	0.001316
3064.000000	0.001314
3063.000000	0.001314
3062.000000	0.001310
3061.000000	0.001297
3060.000000	0.001279
3059.000000	0.001267
3058.000000	0.001271
3057.000000	0.001291
3056.000000	0.001319
3055.000000	0.001342
3054.000000	0.001351
3053.000000	0.001340
3052.000000	0.001312
3051.000000	0.001275
3050.000000	0.001245
3049.000000	0.001235
3048.000000	0.001244
3047.000000	0.001258
3046.000000	0.001260
3045.000000	0.001246
3044.000000	0.001230
3043.000000	0.001220
3042.000000	0.001217
3041.000000	0.001220
3040.000000	0.001228
3039.000000	0.001241
3038.000000	0.001249
3037.000000	0.001240
3036.000000	0.001213
3035.000000	0.001181
3034.000000	0.001157
3033.000000	0.001144
3032.000000	0.001142
3031.000000	0.001153
3030.000000	0.001176
3029.000000	0.001201
3028.000000	0.001218
3027.000000	0.001218
3026.000000	0.001198
3025.000000	0.001162
3024.000000	0.001118
3023.000000	0.001082
3022.000000	0.001071
3021.000000	0.001084
3020.000000	0.001106
3019.000000	0.001124
3018.000000	0.001133
3017.000000	0.001136
3016.000000	0.001135
3015.000000	0.001130
3014.000000	0.001123
3013.000000	0.001116
3012.000000	0.001113
3011.000000	0.001113
3010.000000	0.001115
3009.000000	0.001118
3008.000000	0.001115
3007.000000	0.001105
3006.000000	0.001090
3005.000000	0.001075
3004.000000	0.001068
3003.000000	0.001072
3002.000000	0.001086
3001.000000	0.001106
3000.000000	0.001125
2999.000000	0.001141
2998.000000	0.001153
2997.000000	0.001161
2996.000000	0.001160
2995.000000	0.001150
2994.000000	0.001140
2993.000000	0.001142
2992.000000	0.001155
2991.000000	0.001170
2990.000000	0.001177
2989.000000	0.001176
2988.000000	0.001177
2987.000000	0.001184
2986.000000	0.001200
2985.000000	0.001220
2984.000000	0.001236
2983.000000	0.001242
2982.000000	0.001232
2981.000000	0.001213
2980.000000	0.001194
2979.000000	0.001186
2978.000000	0.001193
2977.000000	0.001212
2976.000000	0.001233
2975.000000	0.001249
2974.000000	0.001259
2973.000000	0.001268
2972.000000	0.001276
2971.000000	0.001282
2970.000000	0.001285
2969.000000	0.001288
2968.000000	0.001302
2967.000000	0.001326
2966.000000	0.001353
2965.000000	0.001376
2964.000000	0.001391
2963.000000	0.001405
2962.000000	0.001422
2961.000000	0.001442
2960.000000	0.001458
2959.000000	0.001465
2958.000000	0.001458
2957.000000	0.001439
2956.000000	0.001419
2955.000000	0.001405
2954.000000	0.001398
2953.000000	0.001401
2952.000000	0.001411
2951.000000	0.001426
2950.000000	0.001434
2949.000000	0.001427
2948.000000	0.001411
2947.000000	0.001400
2946.000000	0.001403
2945.000000	0.001420
2944.000000	0.001445
2943.000000	0.001476
2942.000000	0.001514
2941.000000	0.001560
2940.000000	0.001607
2939.000000	0.001646
2938.000000	0.001667
2937.000000	0.001672
2936.000000	0.001670
2935.000000	0.001678
2934.000000	0.001702
2933.000000	0.001736
2932.000000	0.001770
2931.000000	0.001804
2930.000000	0.001837
2929.000000	0.001868
2928.000000	0.001891
2927.000000	0.001903
2926.000000	0.001907
2925.000000	0.001902
2924.000000	0.001888
2923.000000	0.001875
2922.000000	0.001881
2921.000000	0.001913
2920.000000	0.001953
2919.000000	0.001966
2918.000000	0.001932
2917.000000	0.001860
2916.000000	0.001781
2915.000000	0.001723
2914.000000	0.001693
2913.000000	0.001679
2912.000000	0.001664
2911.000000	0.001643
2910.000000	0.001622
2909.000000	0.001606
2908.000000	0.001592
2907.000000	0.001573
2906.000000	0.001548
2905.000000	0.001524
2904.000000	0.001508
2903.000000	0.001500
2902.000000	0.001494
2901.000000	0.001487
2900.000000	0.001473
2899.000000	0.001449
2898.000000	0.001418
2897.000000	0.001391
2896.000000	0.001378
2895.000000	0.001381
2894.000000	0.001393
2893.000000	0.001407
2892.000000	0.001418
2891.000000	0.001429
2890.000000	0.001439
2889.000000	0.001447
2888.000000	0.001450
2887.000000	0.001445
2886.000000	0.001432
2885.000000	0.001416
2884.000000	0.001403
2883.000000	0.001395
2882.000000	0.001386
2881.000000	0.001372
2880.000000	0.001357
2879.000000	0.001351
2878.000000	0.001359
2877.000000	0.001372
2876.000000	0.001380
2875.000000	0.001378
2874.000000	0.001369
2873.000000	0.001358
2872.000000	0.001351
2871.000000	0.001357
2870.000000	0.001375
2869.000000	0.001398
2868.000000	0.001413
2867.000000	0.001414
2866.000000	0.001413
2865.000000	0.001425
2864.000000	0.001456
2863.000000	0.001496
2862.000000	0.001529
2861.000000	0.001540
2860.000000	0.001533
2859.000000	0.001519
2858.000000	0.001512
2857.000000	0.001516
2856.000000	0.001526
2855.000000	0.001532
2854.000000	0.001533
2853.000000	0.001534
2852.000000	0.001536
2851.000000	0.001539
2850.000000	0.001537
2849.000000	0.001527
2848.000000	0.001507
2847.000000	0.001478
2846.000000	0.001440
2845.000000	0.001392
2844.000000	0.001338
2843.000000	0.001286
2842.000000	0.001248
2841.000000	0.001233
2840.000000	0.001238
2839.000000	0.001251
2838.000000	0.001261
2837.000000	0.001260
2836.000000	0.001249
2835.000000	0.001236
2834.000000	0.001229
2833.000000	0.001236
2832.000000	0.001254
2831.000000	0.001275
2830.000000	0.001290
2829.000000	0.001294
2828.000000	0.001286
2827.000000	0.001274
2826.000000	0.001267
2825.000000	0.001267
2824.000000	0.001269
2823.000000	0.001256
2822.000000	0.001222
2821.000000	0.001181
2820.000000	0.001154
2819.000000	0.001157
2818.000000	0.001181
2817.000000	0.001199
2816.000000	0.001191
2815.000000	0.001160
2814.000000	0.001130
2813.000000	0.001120
2812.000000	0.001130
2811.000000	0.001152
2810.000000	0.001177
2809.000000	0.001199
2808.000000	0.001215
2807.000000	0.001222
2806.000000	0.001219
2805.000000	0.001208
2804.000000	0.001197
2803.000000	0.001188
2802.000000	0.001184
2801.000000	0.001183
2800.000000	0.001189
2799.000000	0.001205
2798.000000	0.001226
2797.000000	0.001238
2796.000000	0.001231
2795.000000	0.001210
2794.000000	0.001193
2793.000000	0.001192
2792.000000	0.001203
2791.000000	0.001211
2790.000000	0.001210
2789.000000	0.001196
2788.000000	0.001173
2787.000000	0.001147
2786.000000	0.001125
2785.000000	0.001114
2784.000000	0.001107
2783.000000	0.001098
2782.000000	0.001088
2781.000000	0.001084
2780.000000	0.001093
2779.000000	0.001107
2778.000000	0.001119
2777.000000	0.001127
2776.000000	0.001135
2775.000000	0.001145
2774.000000	0.001154
2773.000000	0.001153
2772.000000	0.001142
2771.000000	0.001126
2770.000000	0.001119
2769.000000	0.001130
2768.000000	0.001151
2767.000000	0.001165
2766.000000	0.001159
2765.000000	0.001139
2764.000000	0.001119
2763.000000	0.001109
2762.000000	0.001110
2761.000000	0.001115
2760.000000	0.001117
2759.000000	0.001115
2758.000000	0.001112
2757.000000	0.001116
2756.000000	0.001125
2755.000000	0.001131
2754.000000	0.001129
2753.000000	0.001122
2752.000000	0.001114
2751.000000	0.001110
2750.000000	0.001108
2749.000000	0.001108
2748.000000	0.001108
2747.000000	0.001103
2746.000000	0.001093
2745.000000	0.001081
2744.000000	0.001071
2743.000000	0.001060
2742.000000	0.001046
2741.000000	0.001031
2740.000000	0.001017
2739.000000	0.001005
2738.000000	0.000989
2737.000000	0.000971
2736.000000	0.000963
2735.000000	0.000972
2734.000000	0.000993
2733.000000	0.001015
2732.000000	0.001031
2731.000000	0.001041
2730.000000	0.001049
2729.000000	0.001057
2728.000000	0.001067
2727.000000	0.001078
2726.000000	0.001086
2725.000000	0.001091
2724.000000	0.001092
2723.000000	0.001090
2722.000000	0.001083
2721.000000	0.001069
2720.000000	0.001053
2719.000000	0.001041
2718.000000	0.001039
2717.000000	0.001043
2716.000000	0.001045
2715.000000	0.001041
2714.000000	0.001036
2713.000000	0.001035
2712.000000	0.001036
2711.000000	0.001036
2710.000000	0.001031
2709.000000	0.001027
2708.000000	0.001028
2707.000000	0.001032
2706.000000	0.001036
2705.000000	0.001040
2704.000000	0.001041
2703.000000	0.001037
2702.000000	0.001026
2701.000000	0.001005
2700.000000	0.000983
2699.000000	0.000970
2698.000000	0.000972
2697.000000	0.000986
2696.000000	0.001004
2695.000000	0.001021
2694.000000	0.001035
2693.000000	0.001048
2692.000000	0.001061
2691.000000	0.001071
2690.000000	0.001073
2689.000000	0.001066
2688.000000	0.001053
2687.000000	0.001044
2686.000000	0.001042
2685.000000	0.001049
2684.000000	0.001058
2683.000000	0.001061
2682.000000	0.001058
2681.000000	0.001052
2680.000000	0.001049
2679.000000	0.001053
2678.000000	0.001059
2677.000000	0.001064
2676.000000	0.001061
2675.000000	0.001052
2674.000000	0.001040
2673.000000	0.001030
2672.000000	0.001024
2671.000000	0.001020
2670.000000	0.001020
2669.000000	0.001023
2668.000000	0.001029
2667.000000	0.001038
2666.000000	0.001048
2665.000000	0.001059
2664.000000	0.001065
2663.000000	0.001065
2662.000000	0.001062
2661.000000	0.001065
2660.000000	0.001079
2659.000000	0.001096
2658.000000	0.001104
2657.000000	0.001099
2656.000000	0.001085
2655.000000	0.001072
2654.000000	0.001061
2653.000000	0.001043
2652.000000	0.001014
2651.000000	0.000983
2650.000000	0.000965
2649.000000	0.000964
2648.000000	0.000965
2647.000000	0.000954
2646.000000	0.000935
2645.000000	0.000924
2644.000000	0.000930
2643.000000	0.000941
2642.000000	0.000944
2641.000000	0.000940
2640.000000	0.000938
2639.000000	0.000942
2638.000000	0.000943
2637.000000	0.000935
2636.000000	0.000921
2635.000000	0.000909
2634.000000	0.000904
2633.000000	0.000900
2632.000000	0.000889
2631.000000	0.000868
2630.000000	0.000840
2629.000000	0.000814
2628.000000	0.000798
2627.000000	0.000797
2626.000000	0.000811
2625.000000	0.000831
2624.000000	0.000846
2623.000000	0.000848
2622.000000	0.000842
2621.000000	0.000839
2620.000000	0.000844
2619.000000	0.000850
2618.000000	0.000847
2617.000000	0.000838
2616.000000	0.000831
2615.000000	0.000830
2614.000000	0.000827
2613.000000	0.000816
2612.000000	0.000804
2611.000000	0.000800
2610.000000	0.000807
2609.000000	0.000816
2608.000000	0.000816
2607.000000	0.000806
2606.000000	0.000798
2605.000000	0.000799
2604.000000	0.000800
2603.000000	0.000785
2602.000000	0.000749
2601.000000	0.000712
2600.000000	0.000703
2599.000000	0.000729
2598.000000	0.000770
2597.000000	0.000798
2596.000000	0.000808
2595.000000	0.000816
2594.000000	0.000832
2593.000000	0.000848
2592.000000	0.000844
2591.000000	0.000813
2590.000000	0.000768
2589.000000	0.000727
2588.000000	0.000696
2587.000000	0.000677
2586.000000	0.000670
2585.000000	0.000671
2584.000000	0.000671
2583.000000	0.000661
2582.000000	0.000651
2581.000000	0.000657
2580.000000	0.000685
2579.000000	0.000718
2578.000000	0.000733
2577.000000	0.000720
2576.000000	0.000689
2575.000000	0.000659
2574.000000	0.000649
2573.000000	0.000664
2572.000000	0.000694
2571.000000	0.000713
2570.000000	0.000702
2569.000000	0.000664
2568.000000	0.000620
2567.000000	0.000591
2566.000000	0.000583
2565.000000	0.000594
2564.000000	0.000609
2563.000000	0.000615
2562.000000	0.000613
2561.000000	0.000615
2560.000000	0.000627
2559.000000	0.000637
2558.000000	0.000625
2557.000000	0.000595
2556.000000	0.000570
2555.000000	0.000570
2554.000000	0.000586
2553.000000	0.000598
2552.000000	0.000594
2551.000000	0.000581
2550.000000	0.000571
2549.000000	0.000567
2548.000000	0.000569
2547.000000	0.000573
2546.000000	0.000581
2545.000000	0.000598
2544.000000	0.000619
2543.000000	0.000633
2542.000000	0.000628
2541.000000	0.000609
2540.000000	0.000598
2539.000000	0.000610
2538.000000	0.000642
2537.000000	0.000677
2536.000000	0.000698
2535.000000	0.000698
2534.000000	0.000675
2533.000000	0.000629
2532.000000	0.000570
2531.000000	0.000513
2530.000000	0.000478
2529.000000	0.000483
2528.000000	0.000527
2527.000000	0.000593
2526.000000	0.000649
2525.000000	0.000667
2524.000000	0.000647
2523.000000	0.000614
2522.000000	0.000600
2521.000000	0.000615
2520.000000	0.000648
2519.000000	0.000671
2518.000000	0.000669
2517.000000	0.000651
2516.000000	0.000640
2515.000000	0.000653
2514.000000	0.000676
2513.000000	0.000682
2512.000000	0.000657
2511.000000	0.000622
2510.000000	0.000605
2509.000000	0.000610
2508.000000	0.000619
2507.000000	0.000617
2506.000000	0.000615
2505.000000	0.000629
2504.000000	0.000655
2503.000000	0.000673
2502.000000	0.000670
2501.000000	0.000654
2500.000000	0.000637
2499.000000	0.000626
2498.000000	0.000619
2497.000000	0.000618
2496.000000	0.000622
2495.000000	0.000629
2494.000000	0.000640
2493.000000	0.000658
2492.000000	0.000680
2491.000000	0.000692
2490.000000	0.000679
2489.000000	0.000647
2488.000000	0.000609
2487.000000	0.000576
2486.000000	0.000545
2485.000000	0.000517
2484.000000	0.000503
2483.000000	0.000506
2482.000000	0.000518
2481.000000	0.000526
2480.000000	0.000530
2479.000000	0.000538
2478.000000	0.000551
2477.000000	0.000557
2476.000000	0.000548
2475.000000	0.000534
2474.000000	0.000531
2473.000000	0.000540
2472.000000	0.000549
2471.000000	0.000548
2470.000000	0.000543
2469.000000	0.000550
2468.000000	0.000568
2467.000000	0.000581
2466.000000	0.000575
2465.000000	0.000560
2464.000000	0.000561
2463.000000	0.000587
2462.000000	0.000628
2461.000000	0.000668
2460.000000	0.000700
2459.000000	0.000729
2458.000000	0.000753
2457.000000	0.000763
2456.000000	0.000749
2455.000000	0.000717
2454.000000	0.000681
2453.000000	0.000657
2452.000000	0.000652
2451.000000	0.000662
2450.000000	0.000678
2449.000000	0.000690
2448.000000	0.000692
2447.000000	0.000684
2446.000000	0.000667
2445.000000	0.000641
2444.000000	0.000610
2443.000000	0.000583
2442.000000	0.000566
2441.000000	0.000558
2440.000000	0.000551
2439.000000	0.000549
2438.000000	0.000562
2437.000000	0.000600
2436.000000	0.000652
2435.000000	0.000692
2434.000000	0.000696
2433.000000	0.000666
2432.000000	0.000628
2431.000000	0.000606
2430.000000	0.000588
2429.000000	0.000545
2428.000000	0.000463
2427.000000	0.000375
2426.000000	0.000330
2425.000000	0.000354
2424.000000	0.000424
2423.000000	0.000500
2422.000000	0.000556
2421.000000	0.000588
2420.000000	0.000595
2419.000000	0.000580
2418.000000	0.000554
2417.000000	0.000531
2416.000000	0.000523
2415.000000	0.000529
2414.000000	0.000547
2413.000000	0.000572
2412.000000	0.000599
2411.000000	0.000620
2410.000000	0.000630
2409.000000	0.000630
2408.000000	0.000620
2407.000000	0.000606
2406.000000	0.000594
2405.000000	0.000592
2404.000000	0.000600
2403.000000	0.000611
2402.000000	0.000610
2401.000000	0.000589
2400.000000	0.000553
2399.000000	0.000518
2398.000000	0.000502
2397.000000	0.000511
2396.000000	0.000539
2395.000000	0.000576
2394.000000	0.000607
2393.000000	0.000620
2392.000000	0.000606
2391.000000	0.000578
2390.000000	0.000560
2389.000000	0.000560
2388.000000	0.000566
2387.000000	0.000562
2386.000000	0.000551
2385.000000	0.000546
2384.000000	0.000548
2383.000000	0.000541
2382.000000	0.000513
2381.000000	0.000468
2380.000000	0.000427
2379.000000	0.000414
2378.000000	0.000443
2377.000000	0.000503
2376.000000	0.000560
2375.000000	0.000584
2374.000000	0.000572
2373.000000	0.000550
2372.000000	0.000542
2371.000000	0.000544
2370.000000	0.000547
2369.000000	0.000546
2368.000000	0.000544
2367.000000	0.000540
2366.000000	0.000527
2365.000000	0.000516
2364.000000	0.000523
2363.000000	0.000545
2362.000000	0.000563
2361.000000	0.000569
2360.000000	0.000585
2359.000000	0.000633
2358.000000	0.000685
2357.000000	0.000691
2356.000000	0.000641
2355.000000	0.000566
2354.000000	0.000485
2353.000000	0.000406
2352.000000	0.000367
2351.000000	0.000407
2350.000000	0.000512
2349.000000	0.000624
2348.000000	0.000686
2347.000000	0.000679
2346.000000	0.000635
2345.000000	0.000613
2344.000000	0.000634
2343.000000	0.000668
2342.000000	0.000688
2341.000000	0.000686
2340.000000	0.000668
2339.000000	0.000644
2338.000000	0.000621
2337.000000	0.000608
2336.000000	0.000611
2335.000000	0.000629
2334.000000	0.000644
2333.000000	0.000644
2332.000000	0.000639
2331.000000	0.000652
2330.000000	0.000686
2329.000000	0.000734
2328.000000	0.000782
2327.000000	0.000819
2326.000000	0.000829
2325.000000	0.000802
2324.000000	0.000744
2323.000000	0.000679
2322.000000	0.000640
2321.000000	0.000647
2320.000000	0.000695
2319.000000	0.000759
2318.000000	0.000807
2317.000000	0.000813
2316.000000	0.000764
2315.000000	0.000674
2314.000000	0.000579
2313.000000	0.000516
2312.000000	0.000488
2311.000000	0.000476
2310.000000	0.000473
2309.000000	0.000490
2308.000000	0.000523
2307.000000	0.000543
2306.000000	0.000527
2305.000000	0.000493
2304.000000	0.000479
2303.000000	0.000498
2302.000000	0.000522
2301.000000	0.000525
2300.000000	0.000504
2299.000000	0.000479
2298.000000	0.000466
2297.000000	0.000477
2296.000000	0.000514
2295.000000	0.000564
2294.000000	0.000604
2293.000000	0.000618
2292.000000	0.000612
2291.000000	0.000606
2290.000000	0.000622
2289.000000	0.000665
2288.000000	0.000717
2287.000000	0.000746
2286.000000	0.000733
2285.000000	0.000686
2284.000000	0.000639
2283.000000	0.000623
2282.000000	0.000638
2281.000000	0.000665
2280.000000	0.000681
2279.000000	0.000678
2278.000000	0.000662
2277.000000	0.000640
2276.000000	0.000613
2275.000000	0.000572
2274.000000	0.000526
2273.000000	0.000505
2272.000000	0.000534
2271.000000	0.000599
2270.000000	0.000652
2269.000000	0.000663
2268.000000	0.000655
2267.000000	0.000664
2266.000000	0.000691
2265.000000	0.000705
2264.000000	0.000686
2263.000000	0.000640
2262.000000	0.000579
2261.000000	0.000514
2260.000000	0.000462
2259.000000	0.000444
2258.000000	0.000463
2257.000000	0.000496
2256.000000	0.000517
2255.000000	0.000523
2254.000000	0.000520
2253.000000	0.000508
2252.000000	0.000491
2251.000000	0.000498
2250.000000	0.000553
2249.000000	0.000635
2248.000000	0.000690
2247.000000	0.000686
2246.000000	0.000641
2245.000000	0.000589
2244.000000	0.000535
2243.000000	0.000478
2242.000000	0.000437
2241.000000	0.000439
2240.000000	0.000473
2239.000000	0.000487
2238.000000	0.000448
2237.000000	0.000383
2236.000000	0.000356
2235.000000	0.000404
2234.000000	0.000516
2233.000000	0.000650
2232.000000	0.000763
2231.000000	0.000823
2230.000000	0.000814
2229.000000	0.000727
2228.000000	0.000570
2227.000000	0.000379
2226.000000	0.000221
2225.000000	0.000165
2224.000000	0.000227
2223.000000	0.000354
2222.000000	0.000474
2221.000000	0.000548
2220.000000	0.000568
2219.000000	0.000529
2218.000000	0.000431
2217.000000	0.000299
2216.000000	0.000189
2215.000000	0.000159
2214.000000	0.000234
2213.000000	0.000399
2212.000000	0.000593
2211.000000	0.000730
2210.000000	0.000749
2209.000000	0.000673
2208.000000	0.000593
2207.000000	0.000572
2206.000000	0.000591
2205.000000	0.000591
2204.000000	0.000561
2203.000000	0.000543
2202.000000	0.000565
2201.000000	0.000594
2200.000000	0.000584
2199.000000	0.000538
2198.000000	0.000501
2197.000000	0.000506
2196.000000	0.000534
2195.000000	0.000546
2194.000000	0.000521
2193.000000	0.000474
2192.000000	0.000451
2191.000000	0.000497
2190.000000	0.000617
2189.000000	0.000761
2188.000000	0.000863
2187.000000	0.000903
2186.000000	0.000903
2185.000000	0.000877
2184.000000	0.000820
2183.000000	0.000751
2182.000000	0.000741
2181.000000	0.000832
2180.000000	0.000964
2179.000000	0.001010
2178.000000	0.000900
2177.000000	0.000690
2176.000000	0.000506
2175.000000	0.000441
2174.000000	0.000487
2173.000000	0.000547
2172.000000	0.000526
2171.000000	0.000423
2170.000000	0.000337
2169.000000	0.000368
2168.000000	0.000506
2167.000000	0.000635
2166.000000	0.000646
2165.000000	0.000521
2164.000000	0.000336
2163.000000	0.000203
2162.000000	0.000216
2161.000000	0.000378
2160.000000	0.000560
2159.000000	0.000588
2158.000000	0.000421
2157.000000	0.000179
2156.000000	-0.000024
2155.000000	-0.000168
2154.000000	-0.000251
2153.000000	-0.000226
2152.000000	-0.000066
2151.000000	0.000146
2150.000000	0.000273
2149.000000	0.000256
2148.000000	0.000169
2147.000000	0.000133
2146.000000	0.000200
2145.000000	0.000331
2144.000000	0.000453
2143.000000	0.000521
2142.000000	0.000525
2141.000000	0.000473
2140.000000	0.000384
2139.000000	0.000294
2138.000000	0.000242
2137.000000	0.000235
2136.000000	0.000235
2135.000000	0.000196
2134.000000	0.000118
2133.000000	0.000043
2132.000000	0.000014
2131.000000	0.000043
2130.000000	0.000109
2129.000000	0.000183
2128.000000	0.000236
2127.000000	0.000254
2126.000000	0.000246
2125.000000	0.000242
2124.000000	0.000261
2123.000000	0.000292
2122.000000	0.000315
2121.000000	0.000318
2120.000000	0.000309
2119.000000	0.000298
2118.000000	0.000297
2117.000000	0.000324
2116.000000	0.000390
2115.000000	0.000477
2114.000000	0.000543
2113.000000	0.000547
2112.000000	0.000496
2111.000000	0.000439
2110.000000	0.000421
2109.000000	0.000453
2108.000000	0.000503
2107.000000	0.000530
2106.000000	0.000510
2105.000000	0.000452
2104.000000	0.000400
2103.000000	0.000398
2102.000000	0.000454
2101.000000	0.000524
2100.000000	0.000560
2099.000000	0.000550
2098.000000	0.000524
2097.000000	0.000510
2096.000000	0.000501
2095.000000	0.000474
2094.000000	0.000407
2093.000000	0.000298
2092.000000	0.000177
2091.000000	0.000113
2090.000000	0.000167
2089.000000	0.000324
2088.000000	0.000486
2087.000000	0.000558
2086.000000	0.000538
2085.000000	0.000488
2084.000000	0.000458
2083.000000	0.000450
2082.000000	0.000449
2081.000000	0.000454
2080.000000	0.000457
2079.000000	0.000438
2078.000000	0.000396
2077.000000	0.000366
2076.000000	0.000392
2075.000000	0.000479
2074.000000	0.000594
2073.000000	0.000677
2072.000000	0.000684
2071.000000	0.000607
2070.000000	0.000488
2069.000000	0.000388
2068.000000	0.000346
2067.000000	0.000370
2066.000000	0.000460
2065.000000	0.000598
2064.000000	0.000727
2063.000000	0.000770
2062.000000	0.000687
2061.000000	0.000507
2060.000000	0.000298
2059.000000	0.000129
2058.000000	0.000044
2057.000000	0.000052
2056.000000	0.000114
2055.000000	0.000177
2054.000000	0.000224
2053.000000	0.000276
2052.000000	0.000340
2051.000000	0.000389
2050.000000	0.000387
2049.000000	0.000330
2048.000000	0.000253
2047.000000	0.000210
2046.000000	0.000256
2045.000000	0.000389
2044.000000	0.000530
2043.000000	0.000590
2042.000000	0.000575
2041.000000	0.000570
2040.000000	0.000605
2039.000000	0.000600
2038.000000	0.000496
2037.000000	0.000357
2036.000000	0.000280
2035.000000	0.000239
2034.000000	0.000131
2033.000000	-0.000052
2032.000000	-0.000196
2031.000000	-0.000218
2030.000000	-0.000168
2029.000000	-0.000141
2028.000000	-0.000145
2027.000000	-0.000095
2026.000000	0.000090
2025.000000	0.000387
2024.000000	0.000670
2023.000000	0.000816
2022.000000	0.000806
2021.000000	0.000716
2020.000000	0.000617
2019.000000	0.000526
2018.000000	0.000443
2017.000000	0.000395
2016.000000	0.000392
2015.000000	0.000392
2014.000000	0.000343
2013.000000	0.000254
2012.000000	0.000167
2011.000000	0.000106
2010.000000	0.000070
2009.000000	0.000060
2008.000000	0.000086
2007.000000	0.000135
2006.000000	0.000179
2005.000000	0.000194
2004.000000	0.000175
2003.000000	0.000137
2002.000000	0.000127
2001.000000	0.000181
2000.000000	0.000270
1999.000000	0.000309
1998.000000	0.000260
1997.000000	0.000187
1996.000000	0.000175
1995.000000	0.000237
1994.000000	0.000315
1993.000000	0.000363
1992.000000	0.000382
1991.000000	0.000391
1990.000000	0.000403
1989.000000	0.000434
1988.000000	0.000489
1987.000000	0.000540
1986.000000	0.000553
1985.000000	0.000529
1984.000000	0.000499
1983.000000	0.000480
1982.000000	0.000478
1981.000000	0.000506
1980.000000	0.000556
1979.000000	0.000554
1978.000000	0.000422
1977.000000	0.000207
1976.000000	0.000063
1975.000000	0.000063
1974.000000	0.000109
1973.000000	0.000077
1972.000000	-0.000037
1971.000000	-0.000142
1970.000000	-0.000178
1969.000000	-0.000148
1968.000000	-0.000082
1967.000000	-0.000007
1966.000000	0.000044
1965.000000	0.000053
1964.000000	0.000046
1963.000000	0.000055
1962.000000	0.000075
1961.000000	0.000064
1960.000000	0.000011
1959.000000	-0.000031
1958.000000	-0.000000
1957.000000	0.000101
1956.000000	0.000203
1955.000000	0.000226
1954.000000	0.000152
1953.000000	0.000040
1952.000000	-0.000016
1951.000000	0.000032
1950.000000	0.000148
1949.000000	0.000243
1948.000000	0.000268
1947.000000	0.000242
1946.000000	0.000211
1945.000000	0.000173
1944.000000	0.000094
1943.000000	-0.000027
1942.000000	-0.000119
1941.000000	-0.000110
1940.000000	0.000003
1939.000000	0.000164
1938.000000	0.000313
1937.000000	0.000409
1936.000000	0.000432
1935.000000	0.000369
1934.000000	0.000228
1933.000000	0.000044
1932.000000	-0.000120
1931.000000	-0.000193
1930.000000	-0.000139
1929.000000	0.000011
1928.000000	0.000169
1927.000000	0.000261
1926.000000	0.000282
1925.000000	0.000278
1924.000000	0.000290
1923.000000	0.000319
1922.000000	0.000346
1921.000000	0.000362
1920.000000	0.000363
1919.000000	0.000344
1918.000000	0.000313
1917.000000	0.000288
1916.000000	0.000284
1915.000000	0.000292
1914.000000	0.000294
1913.000000	0.000279
1912.000000	0.000250
1911.000000	0.000223
1910.000000	0.000207
1909.000000	0.000206
1908.000000	0.000217
1907.000000	0.000245
1906.000000	0.000288
1905.000000	0.000332
1904.000000	0.000352
1903.000000	0.000330
1902.000000	0.000275
1901.000000	0.000212
1900.000000	0.000158
1899.000000	0.000117
1898.000000	0.000095
1897.000000	0.000098
1896.000000	0.000118
1895.000000	0.000138
1894.000000	0.000150
1893.000000	0.000160
1892.000000	0.000175
1891.000000	0.000192
1890.000000	0.000215
1889.000000	0.000241
1888.000000	0.000253
1887.000000	0.000226
1886.000000	0.000166
1885.000000	0.000107
1884.000000	0.000085
1883.000000	0.000107
1882.000000	0.000147
1881.000000	0.000171
1880.000000	0.000155
1879.000000	0.000102
1878.000000	0.000039
1877.000000	-0.000003
1876.000000	-0.000011
1875.000000	0.000012
1874.000000	0.000055
1873.000000	0.000113
1872.000000	0.000176
1871.000000	0.000225
1870.000000	0.000249
1869.000000	0.000244
1868.000000	0.000212
1867.000000	0.000157
1866.000000	0.000100
1865.000000	0.000065
1864.000000	0.000055
1863.000000	0.000054
1862.000000	0.000046
1861.000000	0.000038
1860.000000	0.000042
1859.000000	0.000065
1858.000000	0.000111
1857.000000	0.000173
1856.000000	0.000231
1855.000000	0.000263
1854.000000	0.000267
1853.000000	0.000260
1852.000000	0.000259
1851.000000	0.000254
1850.000000	0.000222
1849.000000	0.000153
1848.000000	0.000068
1847.000000	0.000006
1846.000000	0.000004
1845.000000	0.000064
1844.000000	0.000137
1843.000000	0.000162
1842.000000	0.000124
1841.000000	0.000065
1840.000000	0.000024
1839.000000	0.000015
1838.000000	0.000030
1837.000000	0.000050
1836.000000	0.000063
1835.000000	0.000070
1834.000000	0.000074
1833.000000	0.000070
1832.000000	0.000055
1831.000000	0.000035
1830.000000	0.000034
1829.000000	0.000056
1828.000000	0.000073
1827.000000	0.000067
1826.000000	0.000053
1825.000000	0.000052
1824.000000	0.000056
1823.000000	0.000045
1822.000000	0.000028
1821.000000	0.000039
1820.000000	0.000090
1819.000000	0.000149
1818.000000	0.000176
1817.000000	0.000165
1816.000000	0.000136
1815.000000	0.000100
1814.000000	0.000060
1813.000000	0.000025
1812.000000	0.000013
1811.000000	0.000029
1810.000000	0.000066
1809.000000	0.000113
1808.000000	0.000160
1807.000000	0.000191
1806.000000	0.000191
1805.000000	0.000157
1804.000000	0.000097
1803.000000	0.000027
1802.000000	-0.000021
1801.000000	-0.000016
1800.000000	0.000041
1799.000000	0.000110
1798.000000	0.000149
1797.000000	0.000150
1796.000000	0.000127
1795.000000	0.000099
1794.000000	0.000079
1793.000000	0.000081
1792.000000	0.000102
1791.000000	0.000119
1790.000000	0.000113
1789.000000	0.000092
1788.000000	0.000071
1787.000000	0.000059
1786.000000	0.000054
1785.000000	0.000054
1784.000000	0.000051
1783.000000	0.000040
1782.000000	0.000029
1781.000000	0.000031
1780.000000	0.000046
1779.000000	0.000055
1778.000000	0.000051
1777.000000	0.000037
1776.000000	0.000019
1775.000000	-0.000000
1774.000000	-0.000017
1773.000000	-0.000020
1772.000000	-0.000001
1771.000000	0.000018
1770.000000	0.000013
1769.000000	-0.000008
1768.000000	-0.000028
1767.000000	-0.000036
1766.000000	-0.000035
1765.000000	-0.000026
1764.000000	-0.000014
1763.000000	-0.000003
1762.000000	0.000001
1761.000000	-0.000005
1760.000000	-0.000025
1759.000000	-0.000054
1758.000000	-0.000073
1757.000000	-0.000058
1756.000000	-0.000014
1755.000000	0.000030
1754.000000	0.000051
1753.000000	0.000053
1752.000000	0.000055
1751.000000	0.000069
1750.000000	0.000084
1749.000000	0.000089
1748.000000	0.000085
1747.000000	0.000076
1746.000000	0.000060
1745.000000	0.000045
1744.000000	0.000042
1743.000000	0.000056
1742.000000	0.000074
1741.000000	0.000075
1740.000000	0.000052
1739.000000	0.000020
1738.000000	-0.000003
1737.000000	-0.000007
1736.000000	0.000003
1735.000000	0.000011
1734.000000	0.000016
1733.000000	0.000012
1732.000000	-0.000007
1731.000000	-0.000025
1730.000000	-0.000027
1729.000000	-0.000015
1728.000000	-0.000007
1727.000000	-0.000021
1726.000000	-0.000053
1725.000000	-0.000072
1724.000000	-0.000063
1723.000000	-0.000045
1722.000000	-0.000043
1721.000000	-0.000058
1720.000000	-0.000071
1719.000000	-0.000074
1718.000000	-0.000066
1717.000000	-0.000038
1716.000000	0.000006
1715.000000	0.000048
1714.000000	0.000075
1713.000000	0.000084
1712.000000	0.000082
1711.000000	0.000075
1710.000000	0.000067
1709.000000	0.000070
1708.000000	0.000091
1707.000000	0.000132
1706.000000	0.000187
1705.000000	0.000245
1704.000000	0.000293
1703.000000	0.000324
1702.000000	0.000350
1701.000000	0.000402
1700.000000	0.000511
1699.000000	0.000619
1698.000000	0.000689
1697.000000	0.000756
1696.000000	0.000845
1695.000000	0.000937
1694.000000	0.001009
1693.000000	0.001076
1692.000000	0.001149
1691.000000	0.001215
1690.000000	0.001276
1689.000000	0.001344
1688.000000	0.001431
1687.000000	0.001521
1686.000000	0.001594
1685.000000	0.001650
1684.000000	0.001721
1683.000000	0.001805
1682.000000	0.001885
1681.000000	0.001984
1680.000000	0.002110
1679.000000	0.002243
1678.000000	0.002357
1677.000000	0.002446
1676.000000	0.002523
1675.000000	0.002607
1674.000000	0.002698
1673.000000	0.002785
1672.000000	0.002869
1671.000000	0.002961
1670.000000	0.003084
1669.000000	0.003248
1668.000000	0.003419
1667.000000	0.003566
1666.000000	0.003687
1665.000000	0.003794
1664.000000	0.003892
1663.000000	0.003984
1662.000000	0.004077
1661.000000	0.004173
1660.000000	0.004267
1659.000000	0.004354
1658.000000	0.004438
1657.000000	0.004533
1656.000000	0.004643
1655.000000	0.004739
1654.000000	0.004786
1653.000000	0.004810
1652.000000	0.004826
1651.000000	0.004834
1650.000000	0.004869
1649.000000	0.004925
1648.000000	0.004970
1647.000000	0.004989
1646.000000	0.004989
1645.000000	0.004987
1644.000000	0.005000
1643.000000	0.005033
1642.000000	0.005079
1641.000000	0.005131
1640.000000	0.005181
1639.000000	0.005223
1638.000000	0.005249
1637.000000	0.005252
1636.000000	0.005238
1635.000000	0.005224
1634.000000	0.005214
1633.000000	0.005213
1632.000000	0.005219
1631.000000	0.005215
1630.000000	0.005188
1629.000000	0.005141
1628.000000	0.005088
1627.000000	0.005038
1626.000000	0.004984
1625.000000	0.004912
1624.000000	0.004812
1623.000000	0.004691
1622.000000	0.004577
1621.000000	0.004488
1620.000000	0.004424
1619.000000	0.004363
1618.000000	0.004269
1617.000000	0.004122
1616.000000	0.003947
1615.000000	0.003790
1614.000000	0.003672
1613.000000	0.003577
1612.000000	0.003479
1611.000000	0.003372
1610.000000	0.003267
1609.000000	0.003173
1608.000000	0.003090
1607.000000	0.003020
1606.000000	0.002966
1605.000000	0.002917
1604.000000	0.002854
1603.000000	0.002774
1602.000000	0.002695
1601.000000	0.002630
1600.000000	0.002582
1599.000000	0.002549
1598.000000	0.002526
1597.000000	0.002502
1596.000000	0.002464
1595.000000	0.002418
1594.000000	0.002385
1593.000000	0.002380
1592.000000	0.002393
1591.000000	0.002404
1590.000000	0.002401
1589.000000	0.002389
1588.000000	0.002382
1587.000000	0.002394
1586.000000	0.002428
1585.000000	0.002468
1584.000000	0.002498
1583.000000	0.002517
1582.000000	0.002539
1581.000000	0.002569
1580.000000	0.002609
1579.000000	0.002655
1578.000000	0.002707
1577.000000	0.002756
1576.000000	0.002797
1575.000000	0.002833
1574.000000	0.002873
1573.000000	0.002919
1572.000000	0.002968
1571.000000	0.003019
1570.000000	0.003082
1569.000000	0.003159
1568.000000	0.003235
1567.000000	0.003311
1566.000000	0.003405
1565.000000	0.003517
1564.000000	0.003633
1563.000000	0.003743
1562.000000	0.003845
1561.000000	0.003915
1560.000000	0.003916
1559.000000	0.003909
1558.000000	0.003971
1557.000000	0.004027
1556.000000	0.004058
1555.000000	0.004086
1554.000000	0.004127
1553.000000	0.004181
1552.000000	0.004234
1551.000000	0.004267
1550.000000	0.004284
1549.000000	0.004307
1548.000000	0.004350
1547.000000	0.004397
1546.000000	0.004423
1545.000000	0.004423
1544.000000	0.004427
1543.000000	0.004458
1542.000000	0.004497
1541.000000	0.004497
1540.000000	0.004439
1539.000000	0.004358
1538.000000	0.004301
1537.000000	0.004291
1536.000000	0.004311
1535.000000	0.004316
1534.000000	0.004279
1533.000000	0.004228
1532.000000	0.004189
1531.000000	0.004150
1530.000000	0.004099
1529.000000	0.004035
1528.000000	0.003972
1527.000000	0.003920
1526.000000	0.003881
1525.000000	0.003855
1524.000000	0.003830
1523.000000	0.003780
1522.000000	0.003699
1521.000000	0.003627
1520.000000	0.003593
1519.000000	0.003572
1518.000000	0.003536
1517.000000	0.003481
1516.000000	0.003426
1515.000000	0.003377
1514.000000	0.003319
1513.000000	0.003251
1512.000000	0.003187
1511.000000	0.003142
1510.000000	0.003106
1509.000000	0.003059
1508.000000	0.002994
1507.000000	0.002940
1506.000000	0.002911
1505.000000	0.002863
1504.000000	0.002799
1503.000000	0.002748
1502.000000	0.002712
1501.000000	0.002688
1500.000000	0.002671
1499.000000	0.002649
1498.000000	0.002607
1497.000000	0.002546
1496.000000	0.002481
1495.000000	0.002418
1494.000000	0.002355
1493.000000	0.002292
1492.000000	0.002225
1491.000000	0.002143
1490.000000	0.002057
1489.000000	0.002000
1488.000000	0.001982
1487.000000	0.001983
1486.000000	0.001986
1485.000000	0.001994
1484.000000	0.002012
1483.000000	0.002036
1482.000000	0.002054
1481.000000	0.002062
1480.000000	0.002062
1479.000000	0.002057
1478.000000	0.002054
1477.000000	0.002065
1476.000000	0.002099
1475.000000	0.002138
1474.000000	0.002162
1473.000000	0.002183
1472.000000	0.002229
1471.000000	0.002293
1470.000000	0.002351
1469.000000	0.002402
1468.000000	0.002448
1467.000000	0.002489
1466.000000	0.002524
1465.000000	0.002564
1464.000000	0.002617
1463.000000	0.002673
1462.000000	0.002720
1461.000000	0.002758
1460.000000	0.002793
1459.000000	0.002830
1458.000000	0.002877
1457.000000	0.002941
1456.000000	0.002995
1455.000000	0.003016
1454.000000	0.003028
1453.000000	0.003050
1452.000000	0.003079
1451.000000	0.003103
1450.000000	0.003115
1449.000000	0.003119
1448.000000	0.003127
1447.000000	0.003136
1446.000000	0.003130
1445.000000	0.003105
1444.000000	0.003068
1443.000000	0.003027
1442.000000	0.002987
1441.000000	0.002950
1440.000000	0.002923
1439.000000	0.002901
1438.000000	0.002863
1437.000000	0.002798
1436.000000	0.002731
1435.000000	0.002689
1434.000000	0.002668
1433.000000	0.002655
1432.000000	0.002644
1431.000000	0.002636
1430.000000	0.002629
1429.000000	0.002617
1428.000000	0.002594
1427.000000	0.002563
1426.000000	0.002526
1425.000000	0.002489
1424.000000	0.002468
1423.000000	0.002479
1422.000000	0.002507
1421.000000	0.002513
1420.000000	0.002478
1419.000000	0.002434
1418.000000	0.002424
1417.000000	0.002447
1416.000000	0.002480
1415.000000	0.002506
1414.000000	0.002515
1413.000000	0.002510
1412.000000	0.002504
1411.000000	0.002514
1410.000000	0.002542
1409.000000	0.002575
1408.000000	0.002598
1407.000000	0.002602
1406.000000	0.002596
1405.000000	0.002599
1404.000000	0.002621
1403.000000	0.002650
1402.000000	0.002667
1401.000000	0.002659
1400.000000	0.002627
1399.000000	0.002583
1398.000000	0.002542
1397.000000	0.002522
1396.000000	0.002531
1395.000000	0.002560
1394.000000	0.002578
1393.000000	0.002566
1392.000000	0.002537
1391.000000	0.002511
1390.000000	0.002486
1389.000000	0.002450
1388.000000	0.002405
1387.000000	0.002369
1386.000000	0.002351
1385.000000	0.002336
1384.000000	0.002308
1383.000000	0.002266
1382.000000	0.002223
1381.000000	0.002189
1380.000000	0.002164
1379.000000	0.002143
1378.000000	0.002123
1377.000000	0.002108
1376.000000	0.002095
1375.000000	0.002078
1374.000000	0.002045
1373.000000	0.001991
1372.000000	0.001923
1371.000000	0.001855
1370.000000	0.001800
1369.000000	0.001769
1368.000000	0.001758
1367.000000	0.001754
1366.000000	0.001736
1365.000000	0.001691
1364.000000	0.001628
1363.000000	0.001576
1362.000000	0.001561
1361.000000	0.001577
1360.000000	0.001605
1359.000000	0.001629
1358.000000	0.001645
1357.000000	0.001648
1356.000000	0.001639
1355.000000	0.001626
1354.000000	0.001621
1353.000000	0.001632
1352.000000	0.001654
1351.000000	0.001679
1350.000000	0.001706
1349.000000	0.001741
1348.000000	0.001785
1347.000000	0.001834
1346.000000	0.001876
1345.000000	0.001906
1344.000000	0.001925
1343.000000	0.001940
1342.000000	0.001957
1341.000000	0.001975
1340.000000	0.001994
1339.000000	0.002013
1338.000000	0.002032
1337.000000	0.002051
1336.000000	0.002067
1335.000000	0.002077
1334.000000	0.002072
1333.000000	0.002052
1332.000000	0.002023
1331.000000	0.001996
1330.000000	0.001973
1329.000000	0.001949
1328.000000	0.001922
1327.000000	0.001899
1326.000000	0.001888
1325.000000	0.001881
1324.000000	0.001869
1323.000000	0.001848
1322.000000	0.001826
1321.000000	0.001811
1320.000000	0.001809
1319.000000	0.001814
1318.000000	0.001818
1317.000000	0.001814
1316.000000	0.001810
1315.000000	0.001815
1314.000000	0.001826
1313.000000	0.001830
1312.000000	0.001815
1311.000000	0.001783
1310.000000	0.001750
1309.000000	0.001723
1308.000000	0.001706
1307.000000	0.001697
1306.000000	0.001694
1305.000000	0.001695
1304.000000	0.001696
1303.000000	0.001691
1302.000000	0.001677
1301.000000	0.001657
1300.000000	0.001637
1299.000000	0.001623
1298.000000	0.001610
1297.000000	0.001594
1296.000000	0.001581
1295.000000	0.001585
1294.000000	0.001610
1293.000000	0.001644
1292.000000	0.001670
1291.000000	0.001685
1290.000000	0.001695
1289.000000	0.001704
1288.000000	0.001713
1287.000000	0.001726
1286.000000	0.001747
1285.000000	0.001779
1284.000000	0.001815
1283.000000	0.001848
1282.000000	0.001868
1281.000000	0.001865
1280.000000	0.001841
1279.000000	0.001809
1278.000000	0.001790
1277.000000	0.001788
1276.000000	0.001794
1275.000000	0.001793
1274.000000	0.001782
1273.000000	0.001772
1272.000000	0.001767
1271.000000	0.001768
1270.000000	0.001769
1269.000000	0.001769
1268.000000	0.001774
1267.000000	0.001793
1266.000000	0.001824
1265.000000	0.001855
1264.000000	0.001872
1263.000000	0.001877
1262.000000	0.001881
1261.000000	0.001894
1260.000000	0.001919
1259.000000	0.001957
1258.000000	0.002006
1257.000000	0.002055
1256.000000	0.002087
1255.000000	0.002093
1254.000000	0.002084
1253.000000	0.002083
1252.000000	0.002103
1251.000000	0.002131
1250.000000	0.002157
1249.000000	0.002182
1248.000000	0.002219
1247.000000	0.002272
1246.000000	0.002330
1245.000000	0.002377
1244.000000	0.002407
1243.000000	0.002430
1242.000000	0.002455
1241.000000	0.002486
1240.000000	0.002512
1239.000000	0.002521
1238.000000	0.002511
1237.000000	0.002491
1236.000000	0.002472
1235.000000	0.002453
1234.000000	0.002428
1233.000000	0.002394
1232.000000	0.002354
1231.000000	0.002314
1230.000000	0.002275
1229.000000	0.002237
1228.000000	0.002202
1227.000000	0.002169
1226.000000	0.002130
1225.000000	0.002080
1224.000000	0.002024
1223.000000	0.001967
1222.000000	0.001907
1221.000000	0.001833
1220.000000	0.001744
1219.000000	0.001660
1218.000000	0.001603
1217.000000	0.001585
1216.000000	0.001601
1215.000000	0.001633
1214.000000	0.001659
1213.000000	0.001662
1212.000000	0.001648
1211.000000	0.001632
1210.000000	0.001628
1209.000000	0.001631
1208.000000	0.001634
1207.000000	0.001638
1206.000000	0.001650
1205.000000	0.001667
1204.000000	0.001676
1203.000000	0.001671
1202.000000	0.001663
1201.000000	0.001665
1200.000000	0.001675
1199.000000	0.001684
1198.000000	0.001676
1197.000000	0.001646
1196.000000	0.001601
1195.000000	0.001554
1194.000000	0.001515
1193.000000	0.001482
1192.000000	0.001450
1191.000000	0.001420
1190.000000	0.001393
1189.000000	0.001369
1188.000000	0.001342
1187.000000	0.001317
1186.000000	0.001306
1185.000000	0.001318
1184.000000	0.001343
1183.000000	0.001365
1182.000000	0.001371
1181.000000	0.001361
1180.000000	0.001344
1179.000000	0.001328
1178.000000	0.001316
1177.000000	0.001313
1176.000000	0.001320
1175.000000	0.001330
1174.000000	0.001333
1173.000000	0.001322
1172.000000	0.001302
1171.000000	0.001281
1170.000000	0.001261
1169.000000	0.001242
1168.000000	0.001232
1167.000000	0.001246
1166.000000	0.001282
1165.000000	0.001321
1164.000000	0.001344
1163.000000	0.001351
1162.000000	0.001359
1161.000000	0.001369
1160.000000	0.001365
1159.000000	0.001341
1158.000000	0.001313
1157.000000	0.001301
1156.000000	0.001304
1155.000000	0.001302
1154.000000	0.001282
1153.000000	0.001248
1152.000000	0.001215
1151.000000	0.001194
1150.000000	0.001185
1149.000000	0.001182
1148.000000	0.001174
1147.000000	0.001157
1146.000000	0.001137
1145.000000	0.001122
1144.000000	0.001114
1143.000000	0.001106
1142.000000	0.001091
1141.000000	0.001070
1140.000000	0.001047
1139.000000	0.001023
1138.000000	0.000995
1137.000000	0.000962
1136.000000	0.000927
1135.000000	0.000901
1134.000000	0.000893
1133.000000	0.000903
1132.000000	0.000915
1131.000000	0.000916
1130.000000	0.000905
1129.000000	0.000895
1128.000000	0.000890
1127.000000	0.000884
1126.000000	0.000877
1125.000000	0.000883
1124.000000	0.000913
1123.000000	0.000947
1122.000000	0.000951
1121.000000	0.000915
1120.000000	0.000863
1119.000000	0.000829
1118.000000	0.000827
1117.000000	0.000849
1116.000000	0.000880
1115.000000	0.000914
1114.000000	0.000944
1113.000000	0.000960
1112.000000	0.000960
1111.000000	0.000955
1110.000000	0.000956
1109.000000	0.000970
1108.000000	0.000992
1107.000000	0.001016
1106.000000	0.001031
1105.000000	0.001032
1104.000000	0.001027
1103.000000	0.001031
1102.000000	0.001050
1101.000000	0.001065
1100.000000	0.001061
1099.000000	0.001045
1098.000000	0.001040
1097.000000	0.001051
1096.000000	0.001068
1095.000000	0.001080
1094.000000	0.001093
1093.000000	0.001114
1092.000000	0.001141
1091.000000	0.001172
1090.000000	0.001207
1089.000000	0.001241
1088.000000	0.001258
1087.000000	0.001256
1086.000000	0.001253
1085.000000	0.001271
1084.000000	0.001309
1083.000000	0.001343
1082.000000	0.001356
1081.000000	0.001361
1080.000000	0.001371
1079.000000	0.001386
1078.000000	0.001388
1077.000000	0.001369
1076.000000	0.001334
1075.000000	0.001295
1074.000000	0.001259
1073.000000	0.001223
1072.000000	0.001190
1071.000000	0.001169
1070.000000	0.001169
1069.000000	0.001183
1068.000000	0.001195
1067.000000	0.001198
1066.000000	0.001195
1065.000000	0.001197
1064.000000	0.001200
1063.000000	0.001197
1062.000000	0.001189
1061.000000	0.001179
1060.000000	0.001167
1059.000000	0.001150
1058.000000	0.001130
1057.000000	0.001122
1056.000000	0.001132
1055.000000	0.001150
1054.000000	0.001156
1053.000000	0.001143
1052.000000	0.001122
1051.000000	0.001105
1050.000000	0.001093
1049.000000	0.001078
1048.000000	0.001056
1047.000000	0.001038
1046.000000	0.001039
1045.000000	0.001061
1044.000000	0.001089
1043.000000	0.001107
1042.000000	0.001108
1041.000000	0.001098
1040.000000	0.001089
1039.000000	0.001090
1038.000000	0.001108
1037.000000	0.001131
1036.000000	0.001136
1035.000000	0.001117
1034.000000	0.001091
1033.000000	0.001083
1032.000000	0.001097
1031.000000	0.001118
1030.000000	0.001137
1029.000000	0.001157
1028.000000	0.001175
1027.000000	0.001174
1026.000000	0.001148
1025.000000	0.001105
1024.000000	0.001063
1023.000000	0.001035
1022.000000	0.001028
1021.000000	0.001039
1020.000000	0.001057
1019.000000	0.001061
1018.000000	0.001037
1017.000000	0.000996
1016.000000	0.000955
1015.000000	0.000923
1014.000000	0.000898
1013.000000	0.000875
1012.000000	0.000855
1011.000000	0.000837
1010.000000	0.000815
1009.000000	0.000787
1008.000000	0.000756
1007.000000	0.000736
1006.000000	0.000732
1005.000000	0.000737
1004.000000	0.000733
1003.000000	0.000712
1002.000000	0.000680
1001.000000	0.000652
1000.000000	0.000634
999.000000	0.000620
998.000000	0.000608
997.000000	0.000597
996.000000	0.000585
995.000000	0.000561
994.000000	0.000524
993.000000	0.000483
992.000000	0.000448
991.000000	0.000420
990.000000	0.000400
989.000000	0.000393
988.000000	0.000397
987.000000	0.000396
986.000000	0.000378
985.000000	0.000347
984.000000	0.000323
983.000000	0.000320
982.000000	0.000338
981.000000	0.000372
980.000000	0.000411
979.000000	0.000448
978.000000	0.000475
977.000000	0.000487
976.000000	0.000483
975.000000	0.000465
974.000000	0.000441
973.000000	0.000419
972.000000	0.000402
971.000000	0.000384
970.000000	0.000367
969.000000	0.000364
968.000000	0.000386
967.000000	0.000421
966.000000	0.000443
965.000000	0.000442
964.000000	0.000426
963.000000	0.000399
962.000000	0.000359
961.000000	0.000309
960.000000	0.000271
959.000000	0.000257
958.000000	0.000254
957.000000	0.000237
956.000000	0.000194
955.000000	0.000139
954.000000	0.000097
953.000000	0.000085
952.000000	0.000107
951.000000	0.000146
950.000000	0.000181
949.000000	0.000197
948.000000	0.000195
947.000000	0.000192
946.000000	0.000202
945.000000	0.000224
944.000000	0.000238
943.000000	0.000224
942.000000	0.000182
941.000000	0.000141
940.000000	0.000126
939.000000	0.000131
938.000000	0.000128
937.000000	0.000102
936.000000	0.000072
935.000000	0.000062
934.000000	0.000077
933.000000	0.000096
932.000000	0.000100
931.000000	0.000084
930.000000	0.000052
929.000000	0.000020
928.000000	0.000011
927.000000	0.000038
926.000000	0.000088
925.000000	0.000131
924.000000	0.000148
923.000000	0.000141
922.000000	0.000134
921.000000	0.000139
920.000000	0.000157
919.000000	0.000174
918.000000	0.000175
917.000000	0.000152
916.000000	0.000115
915.000000	0.000079
914.000000	0.000050
913.000000	0.000019
912.000000	-0.000021
911.000000	-0.000060
910.000000	-0.000077
909.000000	-0.000068
908.000000	-0.000052
907.000000	-0.000040
906.000000	-0.000025
905.000000	0.000010
904.000000	0.000059
903.000000	0.000098
902.000000	0.000113
901.000000	0.000108
900.000000	0.000090
899.000000	0.000059
898.000000	0.000018
897.000000	-0.000018
896.000000	-0.000040
895.000000	-0.000052
894.000000	-0.000066
893.000000	-0.000084
892.000000	-0.000092
891.000000	-0.000082
890.000000	-0.000057
889.000000	-0.000025
888.000000	0.000010
887.000000	0.000042
886.000000	0.000064
885.000000	0.000073
884.000000	0.000073
883.000000	0.000065
882.000000	0.000053
881.000000	0.000040
880.000000	0.000035
879.000000	0.000044
878.000000	0.000070
877.000000	0.000112
876.000000	0.000166
875.000000	0.000219
874.000000	0.000257
873.000000	0.000268
872.000000	0.000253
871.000000	0.000213
870.000000	0.000153
869.000000	0.000086
868.000000	0.000033
867.000000	0.000015
866.000000	0.000028
865.000000	0.000044
864.000000	0.000040
863.000000	0.000012
862.000000	-0.000026
861.000000	-0.000056
860.000000	-0.000066
859.000000	-0.000052
858.000000	-0.000020
857.000000	0.000012
856.000000	0.000034
855.000000	0.000047
854.000000	0.000051
853.000000	0.000039
852.000000	0.000013
851.000000	0.000002
850.000000	0.000030
849.000000	0.000090
848.000000	0.000138
847.000000	0.000147
846.000000	0.000129
845.000000	0.000121
844.000000	0.000138
843.000000	0.000168
842.000000	0.000185
841.000000	0.000173
840.000000	0.000129
839.000000	0.000070
838.000000	0.000024
837.000000	0.000009
836.000000	0.000011
835.000000	0.000001
834.000000	-0.000034
833.000000	-0.000075
832.000000	-0.000093
831.000000	-0.000082
830.000000	-0.000064
829.000000	-0.000063
828.000000	-0.000080
827.000000	-0.000088
826.000000	-0.000060
825.000000	-0.000001
824.000000	0.000050
823.000000	0.000056
822.000000	0.000016
821.000000	-0.000038
820.000000	-0.000067
819.000000	-0.000047
818.000000	0.000013
817.000000	0.000074
816.000000	0.000095
815.000000	0.000075
814.000000	0.000054
813.000000	0.000064
812.000000	0.000091
811.000000	0.000098
810.000000	0.000077
809.000000	0.000053
808.000000	0.000041
807.000000	0.000027
806.000000	0.000000
805.000000	-0.000025
804.000000	-0.000031
803.000000	-0.000016
802.000000	0.000005
801.000000	0.000024
800.000000	0.000031
799.000000	0.000016
798.000000	-0.000022
797.000000	-0.000069
796.000000	-0.000105
795.000000	-0.000120
794.000000	-0.000109
793.000000	-0.000070
792.000000	-0.000013
791.000000	0.000037
790.000000	0.000066
789.000000	0.000074
788.000000	0.000070
787.000000	0.000065
786.000000	0.000076
785.000000	0.000123
784.000000	0.000192
783.000000	0.000230
782.000000	0.000192
781.000000	0.000098
780.000000	0.000018
779.000000	0.000013
778.000000	0.000087
777.000000	0.000196
776.000000	0.000289
775.000000	0.000334
774.000000	0.000322
773.000000	0.000264
772.000000	0.000190
771.000000	0.000136
770.000000	0.000122
769.000000	0.000136
768.000000	0.000141
767.000000	0.000113
766.000000	0.000072
765.000000	0.000067
764.000000	0.000117
763.000000	0.000185
762.000000	0.000219
761.000000	0.000205
760.000000	0.000171
759.000000	0.000144
758.000000	0.000126
757.000000	0.000114
756.000000	0.000111
755.000000	0.000123
754.000000	0.000149
753.000000	0.000180
752.000000	0.000205
751.000000	0.000223
750.000000	0.000235
749.000000	0.000242
748.000000	0.000239
747.000000	0.000221
746.000000	0.000196
745.000000	0.000182
744.000000	0.000184
743.000000	0.000189
742.000000	0.000194
741.000000	0.000213
740.000000	0.000271
739.000000	0.000359
738.000000	0.000444
737.000000	0.000491
736.000000	0.000483
735.000000	0.000433
734.000000	0.000369
733.000000	0.000333
732.000000	0.000348
731.000000	0.000397
730.000000	0.000435
729.000000	0.000442
728.000000	0.000441
727.000000	0.000467
726.000000	0.000533
725.000000	0.000615
724.000000	0.000675
723.000000	0.000690
722.000000	0.000679
721.000000	0.000685
720.000000	0.000726
719.000000	0.000773
718.000000	0.000786
717.000000	0.000770
716.000000	0.000760
715.000000	0.000766
714.000000	0.000760
713.000000	0.000728
712.000000	0.000695
711.000000	0.000695
710.000000	0.000719
709.000000	0.000736
708.000000	0.000740
707.000000	0.000750
706.000000	0.000791
705.000000	0.000866
704.000000	0.000948
703.000000	0.000998
702.000000	0.000995
701.000000	0.000956
700.000000	0.000912
699.000000	0.000875
698.000000	0.000836
697.000000	0.000799
696.000000	0.000787
695.000000	0.000799
694.000000	0.000796
693.000000	0.000757
692.000000	0.000718
691.000000	0.000714
690.000000	0.000727
689.000000	0.000716
688.000000	0.000684
687.000000	0.000675
686.000000	0.000695
685.000000	0.000713
684.000000	0.000734
683.000000	0.000797
682.000000	0.000909
681.000000	0.001018
680.000000	0.001086
679.000000	0.001115
678.000000	0.001104
677.000000	0.001043
676.000000	0.000965
675.000000	0.000930
674.000000	0.000966
673.000000	0.001029
672.000000	0.001058
671.000000	0.001017
670.000000	0.000882
669.000000	0.000656
668.000000	0.000492
667.000000	0.000581
666.000000	0.000766
665.000000	0.000931
664.000000	0.001051
663.000000	0.001120
662.000000	0.001158
661.000000	0.001184
660.000000	0.001191
659.000000	0.001178
658.000000	0.001171
657.000000	0.001205
656.000000	0.001276
655.000000	0.001338
654.000000	0.001371
653.000000	0.001387
652.000000	0.001391
651.000000	0.001370
650.000000	0.001338
649.000000	0.001321
648.000000	0.001321
647.000000	0.001321
646.000000	0.001339
645.000000	0.001407
644.000000	0.001504
643.000000	0.001569
642.000000	0.001572
641.000000	0.001533
640.000000	0.001471
639.000000	0.001384
638.000000	0.001298
637.000000	0.001269
636.000000	0.001304
635.000000	0.001346
634.000000	0.001346
633.000000	0.001325
632.000000	0.001334
631.000000	0.001386
630.000000	0.001461
629.000000	0.001536
628.000000	0.001590
627.000000	0.001593
626.000000	0.001539
625.000000	0.001477
624.000000	0.001471
623.000000	0.001530
622.000000	0.001601
621.000000	0.001633
620.000000	0.001629
619.000000	0.001625
618.000000	0.001631
617.000000	0.001617
616.000000	0.001565
615.000000	0.001498
614.000000	0.001459
613.000000	0.001449
612.000000	0.001426
611.000000	0.001366
610.000000	0.001300
609.000000	0.001275
608.000000	0.001295
607.000000	0.001325
606.000000	0.001342
605.000000	0.001354
604.000000	0.001380
603.000000	0.001416
602.000000	0.001437
601.000000	0.001429
600.000000	0.001409
599.000000	0.001421
598.000000	0.001479
597.000000	0.001539
596.000000	0.001544
595.000000	0.001497
594.000000	0.001454
593.000000	0.001451
592.000000	0.001477
591.000000	0.001509
590.000000	0.001544
589.000000	0.001553
588.000000	0.001496
587.000000	0.001387
586.000000	0.001312
585.000000	0.001332
584.000000	0.001409
583.000000	0.001468
582.000000	0.001501
581.000000	0.001541
580.000000	0.001588
579.000000	0.001621
578.000000	0.001644
577.000000	0.001666
576.000000	0.001651
575.000000	0.001563
574.000000	0.001445
573.000000	0.001373
572.000000	0.001355
571.000000	0.001347
570.000000	0.001351
569.000000	0.001418
568.000000	0.001544
567.000000	0.001632
566.000000	0.001609
565.000000	0.001508
564.000000	0.001420
563.000000	0.001390
562.000000	0.001418
561.000000	0.001490
560.000000	0.001597
559.000000	0.001713
558.000000	0.001807
557.000000	0.001848
556.000000	0.001824
555.000000	0.001760
554.000000	0.001720
553.000000	0.001736
552.000000	0.001758
551.000000	0.001702
550.000000	0.001561
549.000000	0.001413
548.000000	0.001328
547.000000	0.001310
546.000000	0.001330
545.000000	0.001372
544.000000	0.001433
543.000000	0.001516
542.000000	0.001626
541.000000	0.001742
540.000000	0.001806
539.000000	0.001769
538.000000	0.001656
537.000000	0.001545
536.000000	0.001480
535.000000	0.001451
534.000000	0.001439
533.000000	0.001448
532.000000	0.001482
531.000000	0.001548
530.000000	0.001643
529.000000	0.001719
528.000000	0.001658
527.000000	0.001404
526.000000	0.001100
525.000000	0.000999
524.000000	0.001171
523.000000	0.001446
522.000000	0.001628
521.000000	0.001666
520.000000	0.001616
519.000000	0.001524
518.000000	0.001418
517.000000	0.001321
516.000000	0.001232
515.000000	0.001135
514.000000	0.001059
513.000000	0.001074
512.000000	0.001182
511.000000	0.001289
510.000000	0.001305
509.000000	0.001241
508.000000	0.001142
507.000000	0.001026
506.000000	0.000926
505.000000	0.000927
504.000000	0.001067
503.000000	0.001251
502.000000	0.001329
501.000000	0.001258
500.000000	0.001125
499.000000	0.001024
498.000000	0.000986
497.000000	0.001006
496.000000	0.001062
495.000000	0.001112
494.000000	0.001115
493.000000	0.001056
492.000000	0.000953
491.000000	0.000859
490.000000	0.000847
489.000000	0.000943
488.000000	0.001087
487.000000	0.001195
486.000000	0.001247
485.000000	0.001263
484.000000	0.001212
483.000000	0.001034
482.000000	0.000791
481.000000	0.000640
480.000000	0.000629
479.000000	0.000632
478.000000	0.000532
477.000000	0.000378
476.000000	0.000280
475.000000	0.000235
474.000000	0.000165
473.000000	0.000072
472.000000	0.000035
471.000000	0.000085
470.000000	0.000183
469.000000	0.000320
468.000000	0.000496
467.000000	0.000643
466.000000	0.000666
465.000000	0.000574
464.000000	0.000465
463.000000	0.000400
462.000000	0.000370
461.000000	0.000366
460.000000	0.000383
459.000000	0.000361
458.000000	0.000214
457.000000	-0.000038
456.000000	-0.000256
455.000000	-0.000338
454.000000	-0.000295
453.000000	-0.000193
452.000000	-0.000105
451.000000	-0.000047
450.000000	0.000057
