PE IR       SUBTECH     SPECTRUM    ASCII       PEDS        4.00        
   -1
3C-H10-C023_1.ASC
22/02/11
15:05:54.00
22/02/11
15:21:17.00
uco
Sample 023 By uco Date Friday, February 11 2022
450.000000
#HDR
-1
-1
#GR
cm-1
A
1.0
0.0
4000.000000
-1.000000
3551
8
0.042010
0.004664
#DATA
4000.000000	0.005245
3999.000000	0.005251
3998.000000	0.005251
3997.000000	0.005256
3996.000000	0.005264
3995.000000	0.005278
3994.000000	0.005297
3993.000000	0.005318
3992.000000	0.005335
3991.000000	0.005343
3990.000000	0.005335
3989.000000	0.005311
3988.000000	0.005280
3987.000000	0.005256
3986.000000	0.005250
3985.000000	0.005257
3984.000000	0.005264
3983.000000	0.005261
3982.000000	0.005245
3981.000000	0.005226
3980.000000	0.005214
3979.000000	0.005217
3978.000000	0.005238
3977.000000	0.005271
3976.000000	0.005305
3975.000000	0.005326
3974.000000	0.005325
3973.000000	0.005304
3972.000000	0.005277
3971.000000	0.005258
3970.000000	0.005259
3969.000000	0.005276
3968.000000	0.005300
3967.000000	0.005320
3966.000000	0.005332
3965.000000	0.005339
3964.000000	0.005347
3963.000000	0.005360
3962.000000	0.005377
3961.000000	0.005389
3960.000000	0.005389
3959.000000	0.005379
3958.000000	0.005364
3957.000000	0.005351
3956.000000	0.005343
3955.000000	0.005340
3954.000000	0.005343
3953.000000	0.005355
3952.000000	0.005376
3951.000000	0.005401
3950.000000	0.005419
3949.000000	0.005424
3948.000000	0.005418
3947.000000	0.005409
3946.000000	0.005404
3945.000000	0.005404
3944.000000	0.005403
3943.000000	0.005397
3942.000000	0.005392
3941.000000	0.005393
3940.000000	0.005400
3939.000000	0.005406
3938.000000	0.005405
3937.000000	0.005398
3936.000000	0.005393
3935.000000	0.005396
3934.000000	0.005406
3933.000000	0.005416
3932.000000	0.005422
3931.000000	0.005422
3930.000000	0.005416
3929.000000	0.005406
3928.000000	0.005398
3927.000000	0.005395
3926.000000	0.005395
3925.000000	0.005398
3924.000000	0.005408
3923.000000	0.005431
3922.000000	0.005464
3921.000000	0.005495
3920.000000	0.005515
3919.000000	0.005520
3918.000000	0.005515
3917.000000	0.005501
3916.000000	0.005481
3915.000000	0.005463
3914.000000	0.005454
3913.000000	0.005457
3912.000000	0.005472
3911.000000	0.005490
3910.000000	0.005503
3909.000000	0.005504
3908.000000	0.005502
3907.000000	0.005508
3906.000000	0.005522
3905.000000	0.005532
3904.000000	0.005529
3903.000000	0.005516
3902.000000	0.005506
3901.000000	0.005501
3900.000000	0.005491
3899.000000	0.005473
3898.000000	0.005455
3897.000000	0.005449
3896.000000	0.005458
3895.000000	0.005477
3894.000000	0.005501
3893.000000	0.005517
3892.000000	0.005511
3891.000000	0.005476
3890.000000	0.005433
3889.000000	0.005405
3888.000000	0.005403
3887.000000	0.005411
3886.000000	0.005407
3885.000000	0.005392
3884.000000	0.005388
3883.000000	0.005405
3882.000000	0.005429
3881.000000	0.005438
3880.000000	0.005426
3879.000000	0.005409
3878.000000	0.005405
3877.000000	0.005416
3876.000000	0.005433
3875.000000	0.005444
3874.000000	0.005449
3873.000000	0.005456
3872.000000	0.005464
3871.000000	0.005450
3870.000000	0.005402
3869.000000	0.005345
3868.000000	0.005318
3867.000000	0.005334
3866.000000	0.005371
3865.000000	0.005406
3864.000000	0.005429
3863.000000	0.005446
3862.000000	0.005458
3861.000000	0.005461
3860.000000	0.005451
3859.000000	0.005427
3858.000000	0.005393
3857.000000	0.005360
3856.000000	0.005334
3855.000000	0.005305
3854.000000	0.005258
3853.000000	0.005224
3852.000000	0.005238
3851.000000	0.005295
3850.000000	0.005361
3849.000000	0.005410
3848.000000	0.005432
3847.000000	0.005433
3846.000000	0.005425
3845.000000	0.005416
3844.000000	0.005409
3843.000000	0.005398
3842.000000	0.005382
3841.000000	0.005367
3840.000000	0.005359
3839.000000	0.005362
3838.000000	0.005369
3837.000000	0.005370
3836.000000	0.005368
3835.000000	0.005373
3834.000000	0.005388
3833.000000	0.005403
3832.000000	0.005409
3831.000000	0.005406
3830.000000	0.005408
3829.000000	0.005423
3828.000000	0.005441
3827.000000	0.005445
3826.000000	0.005429
3825.000000	0.005408
3824.000000	0.005406
3823.000000	0.005427
3822.000000	0.005452
3821.000000	0.005459
3820.000000	0.005451
3819.000000	0.005444
3818.000000	0.005443
3817.000000	0.005437
3816.000000	0.005423
3815.000000	0.005423
3814.000000	0.005448
3813.000000	0.005480
3812.000000	0.005491
3811.000000	0.005475
3810.000000	0.005453
3809.000000	0.005443
3808.000000	0.005437
3807.000000	0.005412
3806.000000	0.005361
3805.000000	0.005308
3804.000000	0.005281
3803.000000	0.005291
3802.000000	0.005323
3801.000000	0.005359
3800.000000	0.005392
3799.000000	0.005423
3798.000000	0.005444
3797.000000	0.005450
3796.000000	0.005446
3795.000000	0.005447
3794.000000	0.005463
3793.000000	0.005488
3792.000000	0.005507
3791.000000	0.005509
3790.000000	0.005491
3789.000000	0.005460
3788.000000	0.005432
3787.000000	0.005422
3786.000000	0.005434
3785.000000	0.005457
3784.000000	0.005480
3783.000000	0.005494
3782.000000	0.005499
3781.000000	0.005494
3780.000000	0.005479
3779.000000	0.005462
3778.000000	0.005451
3777.000000	0.005450
3776.000000	0.005457
3775.000000	0.005467
3774.000000	0.005472
3773.000000	0.005472
3772.000000	0.005468
3771.000000	0.005466
3770.000000	0.005467
3769.000000	0.005469
3768.000000	0.005471
3767.000000	0.005473
3766.000000	0.005472
3765.000000	0.005469
3764.000000	0.005468
3763.000000	0.005472
3762.000000	0.005475
3761.000000	0.005463
3760.000000	0.005436
3759.000000	0.005403
3758.000000	0.005372
3757.000000	0.005339
3756.000000	0.005303
3755.000000	0.005270
3754.000000	0.005243
3753.000000	0.005219
3752.000000	0.005204
3751.000000	0.005207
3750.000000	0.005222
3749.000000	0.005237
3748.000000	0.005255
3747.000000	0.005287
3746.000000	0.005333
3745.000000	0.005368
3744.000000	0.005385
3743.000000	0.005401
3742.000000	0.005422
3741.000000	0.005426
3740.000000	0.005402
3739.000000	0.005359
3738.000000	0.005315
3737.000000	0.005281
3736.000000	0.005268
3735.000000	0.005283
3734.000000	0.005315
3733.000000	0.005342
3732.000000	0.005347
3731.000000	0.005338
3730.000000	0.005334
3729.000000	0.005346
3728.000000	0.005371
3727.000000	0.005390
3726.000000	0.005390
3725.000000	0.005376
3724.000000	0.005366
3723.000000	0.005374
3722.000000	0.005395
3721.000000	0.005409
3720.000000	0.005403
3719.000000	0.005379
3718.000000	0.005350
3717.000000	0.005325
3716.000000	0.005309
3715.000000	0.005299
3714.000000	0.005282
3713.000000	0.005250
3712.000000	0.005215
3711.000000	0.005209
3710.000000	0.005246
3709.000000	0.005308
3708.000000	0.005366
3707.000000	0.005398
3706.000000	0.005402
3705.000000	0.005390
3704.000000	0.005379
3703.000000	0.005374
3702.000000	0.005374
3701.000000	0.005370
3700.000000	0.005361
3699.000000	0.005350
3698.000000	0.005335
3697.000000	0.005313
3696.000000	0.005290
3695.000000	0.005269
3694.000000	0.005247
3693.000000	0.005217
3692.000000	0.005188
3691.000000	0.005184
3690.000000	0.005219
3689.000000	0.005272
3688.000000	0.005310
3687.000000	0.005324
3686.000000	0.005326
3685.000000	0.005326
3684.000000	0.005325
3683.000000	0.005320
3682.000000	0.005306
3681.000000	0.005279
3680.000000	0.005242
3679.000000	0.005218
3678.000000	0.005228
3677.000000	0.005270
3676.000000	0.005312
3675.000000	0.005327
3674.000000	0.005316
3673.000000	0.005294
3672.000000	0.005277
3671.000000	0.005269
3670.000000	0.005270
3669.000000	0.005278
3668.000000	0.005289
3667.000000	0.005303
3666.000000	0.005325
3665.000000	0.005355
3664.000000	0.005394
3663.000000	0.005435
3662.000000	0.005468
3661.000000	0.005486
3660.000000	0.005491
3659.000000	0.005493
3658.000000	0.005494
3657.000000	0.005490
3656.000000	0.005483
3655.000000	0.005486
3654.000000	0.005506
3653.000000	0.005537
3652.000000	0.005564
3651.000000	0.005578
3650.000000	0.005589
3649.000000	0.005610
3648.000000	0.005637
3647.000000	0.005659
3646.000000	0.005671
3645.000000	0.005676
3644.000000	0.005675
3643.000000	0.005674
3642.000000	0.005679
3641.000000	0.005693
3640.000000	0.005711
3639.000000	0.005724
3638.000000	0.005728
3637.000000	0.005735
3636.000000	0.005756
3635.000000	0.005789
3634.000000	0.005819
3633.000000	0.005842
3632.000000	0.005874
3631.000000	0.005936
3630.000000	0.006015
3629.000000	0.006071
3628.000000	0.006080
3627.000000	0.006055
3626.000000	0.006026
3625.000000	0.006014
3624.000000	0.006029
3623.000000	0.006075
3622.000000	0.006140
3621.000000	0.006200
3620.000000	0.006234
3619.000000	0.006242
3618.000000	0.006239
3617.000000	0.006243
3616.000000	0.006264
3615.000000	0.006297
3614.000000	0.006325
3613.000000	0.006338
3612.000000	0.006343
3611.000000	0.006356
3610.000000	0.006383
3609.000000	0.006418
3608.000000	0.006452
3607.000000	0.006490
3606.000000	0.006535
3605.000000	0.006581
3604.000000	0.006622
3603.000000	0.006661
3602.000000	0.006705
3601.000000	0.006756
3600.000000	0.006803
3599.000000	0.006832
3598.000000	0.006841
3597.000000	0.006841
3596.000000	0.006850
3595.000000	0.006881
3594.000000	0.006929
3593.000000	0.006983
3592.000000	0.007030
3591.000000	0.007064
3590.000000	0.007087
3589.000000	0.007101
3588.000000	0.007116
3587.000000	0.007140
3586.000000	0.007171
3585.000000	0.007205
3584.000000	0.007243
3583.000000	0.007286
3582.000000	0.007331
3581.000000	0.007376
3580.000000	0.007421
3579.000000	0.007465
3578.000000	0.007505
3577.000000	0.007537
3576.000000	0.007561
3575.000000	0.007586
3574.000000	0.007615
3573.000000	0.007647
3572.000000	0.007680
3571.000000	0.007716
3570.000000	0.007760
3569.000000	0.007814
3568.000000	0.007870
3567.000000	0.007919
3566.000000	0.007954
3565.000000	0.007979
3564.000000	0.008008
3563.000000	0.008055
3562.000000	0.008121
3561.000000	0.008197
3560.000000	0.008267
3559.000000	0.008315
3558.000000	0.008339
3557.000000	0.008347
3556.000000	0.008359
3555.000000	0.008394
3554.000000	0.008456
3553.000000	0.008533
3552.000000	0.008606
3551.000000	0.008661
3550.000000	0.008693
3549.000000	0.008708
3548.000000	0.008720
3547.000000	0.008744
3546.000000	0.008787
3545.000000	0.008842
3544.000000	0.008901
3543.000000	0.008957
3542.000000	0.009008
3541.000000	0.009056
3540.000000	0.009102
3539.000000	0.009150
3538.000000	0.009195
3537.000000	0.009234
3536.000000	0.009270
3535.000000	0.009317
3534.000000	0.009382
3533.000000	0.009462
3532.000000	0.009545
3531.000000	0.009617
3530.000000	0.009671
3529.000000	0.009704
3528.000000	0.009724
3527.000000	0.009745
3526.000000	0.009775
3525.000000	0.009818
3524.000000	0.009868
3523.000000	0.009916
3522.000000	0.009957
3521.000000	0.009991
3520.000000	0.010025
3519.000000	0.010070
3518.000000	0.010126
3517.000000	0.010181
3516.000000	0.010224
3515.000000	0.010256
3514.000000	0.010290
3513.000000	0.010330
3512.000000	0.010373
3511.000000	0.010412
3510.000000	0.010443
3509.000000	0.010469
3508.000000	0.010495
3507.000000	0.010522
3506.000000	0.010547
3505.000000	0.010570
3504.000000	0.010598
3503.000000	0.010636
3502.000000	0.010683
3501.000000	0.010737
3500.000000	0.010794
3499.000000	0.010847
3498.000000	0.010891
3497.000000	0.010922
3496.000000	0.010951
3495.000000	0.010988
3494.000000	0.011034
3493.000000	0.011076
3492.000000	0.011108
3491.000000	0.011128
3490.000000	0.011143
3489.000000	0.011158
3488.000000	0.011183
3487.000000	0.011226
3486.000000	0.011286
3485.000000	0.011353
3484.000000	0.011419
3483.000000	0.011480
3482.000000	0.011535
3481.000000	0.011575
3480.000000	0.011596
3479.000000	0.011606
3478.000000	0.011624
3477.000000	0.011658
3476.000000	0.011706
3475.000000	0.011756
3474.000000	0.011797
3473.000000	0.011824
3472.000000	0.011845
3471.000000	0.011870
3470.000000	0.011903
3469.000000	0.011934
3468.000000	0.011951
3467.000000	0.011954
3466.000000	0.011960
3465.000000	0.011984
3464.000000	0.012035
3463.000000	0.012099
3462.000000	0.012154
3461.000000	0.012188
3460.000000	0.012204
3459.000000	0.012221
3458.000000	0.012251
3457.000000	0.012294
3456.000000	0.012341
3455.000000	0.012381
3454.000000	0.012406
3453.000000	0.012418
3452.000000	0.012431
3451.000000	0.012461
3450.000000	0.012512
3449.000000	0.012570
3448.000000	0.012615
3447.000000	0.012640
3446.000000	0.012657
3445.000000	0.012680
3444.000000	0.012715
3443.000000	0.012755
3442.000000	0.012789
3441.000000	0.012813
3440.000000	0.012836
3439.000000	0.012864
3438.000000	0.012904
3437.000000	0.012955
3436.000000	0.013015
3435.000000	0.013086
3434.000000	0.013161
3433.000000	0.013229
3432.000000	0.013281
3431.000000	0.013314
3430.000000	0.013337
3429.000000	0.013358
3428.000000	0.013381
3427.000000	0.013404
3426.000000	0.013425
3425.000000	0.013451
3424.000000	0.013490
3423.000000	0.013540
3422.000000	0.013591
3421.000000	0.013635
3420.000000	0.013672
3419.000000	0.013711
3418.000000	0.013750
3417.000000	0.013782
3416.000000	0.013806
3415.000000	0.013827
3414.000000	0.013853
3413.000000	0.013887
3412.000000	0.013928
3411.000000	0.013978
3410.000000	0.014036
3409.000000	0.014097
3408.000000	0.014149
3407.000000	0.014186
3406.000000	0.014212
3405.000000	0.014236
3404.000000	0.014268
3403.000000	0.014309
3402.000000	0.014351
3401.000000	0.014388
3400.000000	0.014428
3399.000000	0.014479
3398.000000	0.014540
3397.000000	0.014596
3396.000000	0.014631
3395.000000	0.014639
3394.000000	0.014626
3393.000000	0.014608
3392.000000	0.014602
3391.000000	0.014619
3390.000000	0.014659
3389.000000	0.014716
3388.000000	0.014788
3387.000000	0.014872
3386.000000	0.014954
3385.000000	0.015015
3384.000000	0.015053
3383.000000	0.015082
3382.000000	0.015121
3381.000000	0.015171
3380.000000	0.015222
3379.000000	0.015266
3378.000000	0.015304
3377.000000	0.015344
3376.000000	0.015390
3375.000000	0.015441
3374.000000	0.015494
3373.000000	0.015549
3372.000000	0.015608
3371.000000	0.015670
3370.000000	0.015726
3369.000000	0.015769
3368.000000	0.015800
3367.000000	0.015831
3366.000000	0.015867
3365.000000	0.015909
3364.000000	0.015960
3363.000000	0.016028
3362.000000	0.016113
3361.000000	0.016207
3360.000000	0.016300
3359.000000	0.016392
3358.000000	0.016487
3357.000000	0.016583
3356.000000	0.016674
3355.000000	0.016751
3354.000000	0.016812
3353.000000	0.016857
3352.000000	0.016897
3351.000000	0.016942
3350.000000	0.016998
3349.000000	0.017062
3348.000000	0.017125
3347.000000	0.017182
3346.000000	0.017231
3345.000000	0.017275
3344.000000	0.017320
3343.000000	0.017376
3342.000000	0.017447
3341.000000	0.017530
3340.000000	0.017619
3339.000000	0.017705
3338.000000	0.017783
3337.000000	0.017848
3336.000000	0.017901
3335.000000	0.017949
3334.000000	0.017999
3333.000000	0.018055
3332.000000	0.018114
3331.000000	0.018174
3330.000000	0.018227
3329.000000	0.018269
3328.000000	0.018306
3327.000000	0.018348
3326.000000	0.018398
3325.000000	0.018451
3324.000000	0.018503
3323.000000	0.018554
3322.000000	0.018609
3321.000000	0.018665
3320.000000	0.018717
3319.000000	0.018759
3318.000000	0.018794
3317.000000	0.018824
3316.000000	0.018852
3315.000000	0.018884
3314.000000	0.018920
3313.000000	0.018956
3312.000000	0.018988
3311.000000	0.019012
3310.000000	0.019029
3309.000000	0.019045
3308.000000	0.019063
3307.000000	0.019091
3306.000000	0.019131
3305.000000	0.019180
3304.000000	0.019230
3303.000000	0.019271
3302.000000	0.019297
3301.000000	0.019310
3300.000000	0.019320
3299.000000	0.019332
3298.000000	0.019344
3297.000000	0.019347
3296.000000	0.019336
3295.000000	0.019317
3294.000000	0.019302
3293.000000	0.019301
3292.000000	0.019321
3291.000000	0.019359
3290.000000	0.019409
3289.000000	0.019458
3288.000000	0.019494
3287.000000	0.019506
3286.000000	0.019489
3285.000000	0.019457
3284.000000	0.019428
3283.000000	0.019417
3282.000000	0.019416
3281.000000	0.019416
3280.000000	0.019420
3279.000000	0.019437
3278.000000	0.019462
3277.000000	0.019477
3276.000000	0.019465
3275.000000	0.019425
3274.000000	0.019372
3273.000000	0.019321
3272.000000	0.019282
3271.000000	0.019258
3270.000000	0.019249
3269.000000	0.019249
3268.000000	0.019248
3267.000000	0.019239
3266.000000	0.019216
3265.000000	0.019179
3264.000000	0.019140
3263.000000	0.019108
3262.000000	0.019087
3261.000000	0.019066
3260.000000	0.019036
3259.000000	0.018994
3258.000000	0.018947
3257.000000	0.018901
3256.000000	0.018858
3255.000000	0.018816
3254.000000	0.018771
3253.000000	0.018722
3252.000000	0.018675
3251.000000	0.018631
3250.000000	0.018593
3249.000000	0.018568
3248.000000	0.018561
3247.000000	0.018571
3246.000000	0.018581
3245.000000	0.018569
3244.000000	0.018533
3243.000000	0.018483
3242.000000	0.018434
3241.000000	0.018393
3240.000000	0.018363
3239.000000	0.018342
3238.000000	0.018326
3237.000000	0.018306
3236.000000	0.018281
3235.000000	0.018252
3234.000000	0.018224
3233.000000	0.018196
3232.000000	0.018164
3231.000000	0.018127
3230.000000	0.018088
3229.000000	0.018051
3228.000000	0.018019
3227.000000	0.017988
3226.000000	0.017954
3225.000000	0.017917
3224.000000	0.017883
3223.000000	0.017860
3222.000000	0.017843
3221.000000	0.017824
3220.000000	0.017800
3219.000000	0.017775
3218.000000	0.017756
3217.000000	0.017741
3216.000000	0.017726
3215.000000	0.017706
3214.000000	0.017677
3213.000000	0.017641
3212.000000	0.017601
3211.000000	0.017561
3210.000000	0.017526
3209.000000	0.017495
3208.000000	0.017467
3207.000000	0.017435
3206.000000	0.017397
3205.000000	0.017357
3204.000000	0.017328
3203.000000	0.017311
3202.000000	0.017298
3201.000000	0.017277
3200.000000	0.017246
3199.000000	0.017212
3198.000000	0.017179
3197.000000	0.017147
3196.000000	0.017117
3195.000000	0.017094
3194.000000	0.017073
3193.000000	0.017043
3192.000000	0.016993
3191.000000	0.016933
3190.000000	0.016874
3189.000000	0.016822
3188.000000	0.016777
3187.000000	0.016736
3186.000000	0.016694
3185.000000	0.016651
3184.000000	0.016607
3183.000000	0.016565
3182.000000	0.016530
3181.000000	0.016497
3180.000000	0.016461
3179.000000	0.016417
3178.000000	0.016366
3177.000000	0.016313
3176.000000	0.016266
3175.000000	0.016226
3174.000000	0.016185
3173.000000	0.016140
3172.000000	0.016099
3171.000000	0.016069
3170.000000	0.016047
3169.000000	0.016016
3168.000000	0.015967
3167.000000	0.015909
3166.000000	0.015854
3165.000000	0.015808
3164.000000	0.015762
3163.000000	0.015708
3162.000000	0.015645
3161.000000	0.015583
3160.000000	0.015533
3159.000000	0.015497
3158.000000	0.015469
3157.000000	0.015441
3156.000000	0.015407
3155.000000	0.015369
3154.000000	0.015325
3153.000000	0.015275
3152.000000	0.015220
3151.000000	0.015167
3150.000000	0.015121
3149.000000	0.015081
3148.000000	0.015042
3147.000000	0.014996
3146.000000	0.014944
3145.000000	0.014895
3144.000000	0.014865
3143.000000	0.014864
3142.000000	0.014883
3141.000000	0.014899
3140.000000	0.014892
3139.000000	0.014856
3138.000000	0.014803
3137.000000	0.014747
3136.000000	0.014704
3135.000000	0.014675
3134.000000	0.014650
3133.000000	0.014619
3132.000000	0.014585
3131.000000	0.014556
3130.000000	0.014537
3129.000000	0.014524
3128.000000	0.014511
3127.000000	0.014496
3126.000000	0.014476
3125.000000	0.014449
3124.000000	0.014414
3123.000000	0.014378
3122.000000	0.014350
3121.000000	0.014337
3120.000000	0.014338
3119.000000	0.014344
3118.000000	0.014346
3117.000000	0.014342
3116.000000	0.014339
3115.000000	0.014346
3114.000000	0.014357
3113.000000	0.014367
3112.000000	0.014371
3111.000000	0.014372
3110.000000	0.014371
3109.000000	0.014371
3108.000000	0.014375
3107.000000	0.014385
3106.000000	0.014397
3105.000000	0.014403
3104.000000	0.014400
3103.000000	0.014393
3102.000000	0.014389
3101.000000	0.014391
3100.000000	0.014402
3099.000000	0.014424
3098.000000	0.014452
3097.000000	0.014476
3096.000000	0.014490
3095.000000	0.014495
3094.000000	0.014501
3093.000000	0.014517
3092.000000	0.014544
3091.000000	0.014581
3090.000000	0.014616
3089.000000	0.014640
3088.000000	0.014647
3087.000000	0.014645
3086.000000	0.014645
3085.000000	0.014650
3084.000000	0.014652
3083.000000	0.014646
3082.000000	0.014632
3081.000000	0.014621
3080.000000	0.014630
3079.000000	0.014668
3078.000000	0.014729
3077.000000	0.014790
3076.000000	0.014829
3075.000000	0.014841
3074.000000	0.014834
3073.000000	0.014822
3072.000000	0.014807
3071.000000	0.014790
3070.000000	0.014774
3069.000000	0.014770
3068.000000	0.014779
3067.000000	0.014790
3066.000000	0.014783
3065.000000	0.014751
3064.000000	0.014702
3063.000000	0.014656
3062.000000	0.014625
3061.000000	0.014610
3060.000000	0.014604
3059.000000	0.014602
3058.000000	0.014598
3057.000000	0.014594
3056.000000	0.014585
3055.000000	0.014562
3054.000000	0.014515
3053.000000	0.014447
3052.000000	0.014378
3051.000000	0.014329
3050.000000	0.014300
3049.000000	0.014272
3048.000000	0.014229
3047.000000	0.014174
3046.000000	0.014123
3045.000000	0.014087
3044.000000	0.014064
3043.000000	0.014042
3042.000000	0.014012
3041.000000	0.013972
3040.000000	0.013925
3039.000000	0.013875
3038.000000	0.013823
3037.000000	0.013772
3036.000000	0.013729
3035.000000	0.013699
3034.000000	0.013676
3033.000000	0.013647
3032.000000	0.013599
3031.000000	0.013532
3030.000000	0.013462
3029.000000	0.013412
3028.000000	0.013391
3027.000000	0.013386
3026.000000	0.013377
3025.000000	0.013354
3024.000000	0.013324
3023.000000	0.013293
3022.000000	0.013259
3021.000000	0.013216
3020.000000	0.013168
3019.000000	0.013129
3018.000000	0.013106
3017.000000	0.013094
3016.000000	0.013085
3015.000000	0.013077
3014.000000	0.013078
3013.000000	0.013095
3012.000000	0.013125
3011.000000	0.013152
3010.000000	0.013166
3009.000000	0.013165
3008.000000	0.013160
3007.000000	0.013153
3006.000000	0.013142
3005.000000	0.013125
3004.000000	0.013108
3003.000000	0.013096
3002.000000	0.013086
3001.000000	0.013068
3000.000000	0.013043
2999.000000	0.013024
2998.000000	0.013020
2997.000000	0.013035
2996.000000	0.013064
2995.000000	0.013099
2994.000000	0.013135
2993.000000	0.013167
2992.000000	0.013196
2991.000000	0.013225
2990.000000	0.013256
2989.000000	0.013295
2988.000000	0.013348
2987.000000	0.013417
2986.000000	0.013494
2985.000000	0.013565
2984.000000	0.013625
2983.000000	0.013678
2982.000000	0.013733
2981.000000	0.013791
2980.000000	0.013853
2979.000000	0.013912
2978.000000	0.013966
2977.000000	0.014013
2976.000000	0.014057
2975.000000	0.014106
2974.000000	0.014170
2973.000000	0.014252
2972.000000	0.014350
2971.000000	0.014458
2970.000000	0.014569
2969.000000	0.014677
2968.000000	0.014787
2967.000000	0.014909
2966.000000	0.015048
2965.000000	0.015195
2964.000000	0.015332
2963.000000	0.015446
2962.000000	0.015538
2961.000000	0.015619
2960.000000	0.015694
2959.000000	0.015767
2958.000000	0.015834
2957.000000	0.015895
2956.000000	0.015949
2955.000000	0.016001
2954.000000	0.016051
2953.000000	0.016095
2952.000000	0.016124
2951.000000	0.016135
2950.000000	0.016137
2949.000000	0.016148
2948.000000	0.016178
2947.000000	0.016226
2946.000000	0.016290
2945.000000	0.016374
2944.000000	0.016488
2943.000000	0.016640
2942.000000	0.016827
2941.000000	0.017041
2940.000000	0.017268
2939.000000	0.017500
2938.000000	0.017728
2937.000000	0.017953
2936.000000	0.018175
2935.000000	0.018397
2934.000000	0.018624
2933.000000	0.018867
2932.000000	0.019130
2931.000000	0.019405
2930.000000	0.019666
2929.000000	0.019893
2928.000000	0.020084
2927.000000	0.020246
2926.000000	0.020385
2925.000000	0.020499
2924.000000	0.020581
2923.000000	0.020618
2922.000000	0.020596
2921.000000	0.020516
2920.000000	0.020384
2919.000000	0.020210
2918.000000	0.019992
2917.000000	0.019727
2916.000000	0.019423
2915.000000	0.019108
2914.000000	0.018806
2913.000000	0.018526
2912.000000	0.018261
2911.000000	0.018003
2910.000000	0.017748
2909.000000	0.017499
2908.000000	0.017262
2907.000000	0.017046
2906.000000	0.016859
2905.000000	0.016701
2904.000000	0.016564
2903.000000	0.016437
2902.000000	0.016315
2901.000000	0.016197
2900.000000	0.016085
2899.000000	0.015975
2898.000000	0.015862
2897.000000	0.015746
2896.000000	0.015632
2895.000000	0.015528
2894.000000	0.015437
2893.000000	0.015364
2892.000000	0.015306
2891.000000	0.015258
2890.000000	0.015208
2889.000000	0.015155
2888.000000	0.015103
2887.000000	0.015058
2886.000000	0.015015
2885.000000	0.014967
2884.000000	0.014913
2883.000000	0.014867
2882.000000	0.014844
2881.000000	0.014848
2880.000000	0.014874
2879.000000	0.014905
2878.000000	0.014931
2877.000000	0.014952
2876.000000	0.014977
2875.000000	0.015010
2874.000000	0.015044
2873.000000	0.015070
2872.000000	0.015085
2871.000000	0.015089
2870.000000	0.015083
2869.000000	0.015068
2868.000000	0.015051
2867.000000	0.015046
2866.000000	0.015061
2865.000000	0.015095
2864.000000	0.015146
2863.000000	0.015223
2862.000000	0.015333
2861.000000	0.015482
2860.000000	0.015661
2859.000000	0.015857
2858.000000	0.016057
2857.000000	0.016252
2856.000000	0.016431
2855.000000	0.016580
2854.000000	0.016685
2853.000000	0.016729
2852.000000	0.016706
2851.000000	0.016608
2850.000000	0.016433
2849.000000	0.016186
2848.000000	0.015884
2847.000000	0.015553
2846.000000	0.015221
2845.000000	0.014905
2844.000000	0.014614
2843.000000	0.014349
2842.000000	0.014111
2841.000000	0.013897
2840.000000	0.013707
2839.000000	0.013541
2838.000000	0.013400
2837.000000	0.013282
2836.000000	0.013184
2835.000000	0.013101
2834.000000	0.013025
2833.000000	0.012953
2832.000000	0.012886
2831.000000	0.012823
2830.000000	0.012763
2829.000000	0.012706
2828.000000	0.012655
2827.000000	0.012612
2826.000000	0.012577
2825.000000	0.012546
2824.000000	0.012515
2823.000000	0.012482
2822.000000	0.012443
2821.000000	0.012403
2820.000000	0.012361
2819.000000	0.012318
2818.000000	0.012272
2817.000000	0.012225
2816.000000	0.012183
2815.000000	0.012150
2814.000000	0.012131
2813.000000	0.012124
2812.000000	0.012125
2811.000000	0.012122
2810.000000	0.012110
2809.000000	0.012089
2808.000000	0.012069
2807.000000	0.012052
2806.000000	0.012034
2805.000000	0.012008
2804.000000	0.011972
2803.000000	0.011933
2802.000000	0.011898
2801.000000	0.011870
2800.000000	0.011848
2799.000000	0.011829
2798.000000	0.011810
2797.000000	0.011792
2796.000000	0.011774
2795.000000	0.011752
2794.000000	0.011724
2793.000000	0.011689
2792.000000	0.011651
2791.000000	0.011616
2790.000000	0.011593
2789.000000	0.011587
2788.000000	0.011597
2787.000000	0.011607
2786.000000	0.011603
2785.000000	0.011584
2784.000000	0.011560
2783.000000	0.011543
2782.000000	0.011531
2781.000000	0.011520
2780.000000	0.011505
2779.000000	0.011483
2778.000000	0.011454
2777.000000	0.011419
2776.000000	0.011384
2775.000000	0.011351
2774.000000	0.011326
2773.000000	0.011314
2772.000000	0.011317
2771.000000	0.011326
2770.000000	0.011329
2769.000000	0.011318
2768.000000	0.011297
2767.000000	0.011278
2766.000000	0.011263
2765.000000	0.011248
2764.000000	0.011226
2763.000000	0.011198
2762.000000	0.011173
2761.000000	0.011160
2760.000000	0.011159
2759.000000	0.011161
2758.000000	0.011156
2757.000000	0.011140
2756.000000	0.011116
2755.000000	0.011090
2754.000000	0.011069
2753.000000	0.011059
2752.000000	0.011055
2751.000000	0.011045
2750.000000	0.011021
2749.000000	0.010988
2748.000000	0.010963
2747.000000	0.010955
2746.000000	0.010962
2745.000000	0.010973
2744.000000	0.010976
2743.000000	0.010963
2742.000000	0.010935
2741.000000	0.010900
2740.000000	0.010868
2739.000000	0.010844
2738.000000	0.010827
2737.000000	0.010814
2736.000000	0.010803
2735.000000	0.010791
2734.000000	0.010777
2733.000000	0.010765
2732.000000	0.010756
2731.000000	0.010751
2730.000000	0.010746
2729.000000	0.010743
2728.000000	0.010745
2727.000000	0.010744
2726.000000	0.010731
2725.000000	0.010706
2724.000000	0.010683
2723.000000	0.010671
2722.000000	0.010667
2721.000000	0.010664
2720.000000	0.010654
2719.000000	0.010636
2718.000000	0.010611
2717.000000	0.010586
2716.000000	0.010570
2715.000000	0.010566
2714.000000	0.010567
2713.000000	0.010565
2712.000000	0.010557
2711.000000	0.010543
2710.000000	0.010527
2709.000000	0.010513
2708.000000	0.010499
2707.000000	0.010482
2706.000000	0.010460
2705.000000	0.010436
2704.000000	0.010421
2703.000000	0.010416
2702.000000	0.010418
2701.000000	0.010419
2700.000000	0.010419
2699.000000	0.010415
2698.000000	0.010405
2697.000000	0.010390
2696.000000	0.010378
2695.000000	0.010373
2694.000000	0.010371
2693.000000	0.010367
2692.000000	0.010358
2691.000000	0.010347
2690.000000	0.010334
2689.000000	0.010318
2688.000000	0.010304
2687.000000	0.010294
2686.000000	0.010290
2685.000000	0.010293
2684.000000	0.010299
2683.000000	0.010307
2682.000000	0.010317
2681.000000	0.010331
2680.000000	0.010344
2679.000000	0.010342
2678.000000	0.010317
2677.000000	0.010277
2676.000000	0.010240
2675.000000	0.010222
2674.000000	0.010220
2673.000000	0.010230
2672.000000	0.010248
2671.000000	0.010266
2670.000000	0.010269
2669.000000	0.010250
2668.000000	0.010217
2667.000000	0.010192
2666.000000	0.010186
2665.000000	0.010197
2664.000000	0.010211
2663.000000	0.010218
2662.000000	0.010214
2661.000000	0.010207
2660.000000	0.010202
2659.000000	0.010199
2658.000000	0.010196
2657.000000	0.010193
2656.000000	0.010193
2655.000000	0.010197
2654.000000	0.010194
2653.000000	0.010177
2652.000000	0.010147
2651.000000	0.010113
2650.000000	0.010084
2649.000000	0.010063
2648.000000	0.010049
2647.000000	0.010036
2646.000000	0.010020
2645.000000	0.009993
2644.000000	0.009951
2643.000000	0.009901
2642.000000	0.009851
2641.000000	0.009815
2640.000000	0.009793
2639.000000	0.009779
2638.000000	0.009763
2637.000000	0.009746
2636.000000	0.009737
2635.000000	0.009737
2634.000000	0.009736
2633.000000	0.009727
2632.000000	0.009707
2631.000000	0.009681
2630.000000	0.009651
2629.000000	0.009619
2628.000000	0.009588
2627.000000	0.009562
2626.000000	0.009543
2625.000000	0.009529
2624.000000	0.009517
2623.000000	0.009502
2622.000000	0.009480
2621.000000	0.009453
2620.000000	0.009429
2619.000000	0.009411
2618.000000	0.009395
2617.000000	0.009375
2616.000000	0.009353
2615.000000	0.009336
2614.000000	0.009329
2613.000000	0.009331
2612.000000	0.009336
2611.000000	0.009334
2610.000000	0.009320
2609.000000	0.009297
2608.000000	0.009277
2607.000000	0.009264
2606.000000	0.009249
2605.000000	0.009223
2604.000000	0.009187
2603.000000	0.009150
2602.000000	0.009122
2601.000000	0.009104
2600.000000	0.009094
2599.000000	0.009083
2598.000000	0.009066
2597.000000	0.009040
2596.000000	0.009007
2595.000000	0.008979
2594.000000	0.008969
2593.000000	0.008983
2592.000000	0.009008
2591.000000	0.009025
2590.000000	0.009020
2589.000000	0.008995
2588.000000	0.008966
2587.000000	0.008939
2586.000000	0.008916
2585.000000	0.008893
2584.000000	0.008873
2583.000000	0.008855
2582.000000	0.008836
2581.000000	0.008817
2580.000000	0.008804
2579.000000	0.008796
2578.000000	0.008796
2577.000000	0.008803
2576.000000	0.008815
2575.000000	0.008820
2574.000000	0.008802
2573.000000	0.008763
2572.000000	0.008724
2571.000000	0.008703
2570.000000	0.008704
2569.000000	0.008716
2568.000000	0.008726
2567.000000	0.008726
2566.000000	0.008714
2565.000000	0.008696
2564.000000	0.008681
2563.000000	0.008667
2562.000000	0.008638
2561.000000	0.008586
2560.000000	0.008523
2559.000000	0.008478
2558.000000	0.008469
2557.000000	0.008494
2556.000000	0.008528
2555.000000	0.008551
2554.000000	0.008560
2553.000000	0.008568
2552.000000	0.008587
2551.000000	0.008600
2550.000000	0.008586
2549.000000	0.008546
2548.000000	0.008510
2547.000000	0.008505
2546.000000	0.008528
2545.000000	0.008547
2544.000000	0.008544
2543.000000	0.008526
2542.000000	0.008510
2541.000000	0.008500
2540.000000	0.008489
2539.000000	0.008476
2538.000000	0.008475
2537.000000	0.008501
2536.000000	0.008546
2535.000000	0.008583
2534.000000	0.008593
2533.000000	0.008578
2532.000000	0.008562
2531.000000	0.008569
2530.000000	0.008598
2529.000000	0.008630
2528.000000	0.008634
2527.000000	0.008594
2526.000000	0.008522
2525.000000	0.008445
2524.000000	0.008386
2523.000000	0.008356
2522.000000	0.008352
2521.000000	0.008368
2520.000000	0.008391
2519.000000	0.008402
2518.000000	0.008392
2517.000000	0.008371
2516.000000	0.008363
2515.000000	0.008381
2514.000000	0.008421
2513.000000	0.008472
2512.000000	0.008515
2511.000000	0.008533
2510.000000	0.008517
2509.000000	0.008471
2508.000000	0.008408
2507.000000	0.008338
2506.000000	0.008275
2505.000000	0.008232
2504.000000	0.008223
2503.000000	0.008245
2502.000000	0.008278
2501.000000	0.008300
2500.000000	0.008298
2499.000000	0.008275
2498.000000	0.008245
2497.000000	0.008223
2496.000000	0.008218
2495.000000	0.008236
2494.000000	0.008273
2493.000000	0.008312
2492.000000	0.008328
2491.000000	0.008306
2490.000000	0.008258
2489.000000	0.008213
2488.000000	0.008184
2487.000000	0.008161
2486.000000	0.008133
2485.000000	0.008110
2484.000000	0.008103
2483.000000	0.008107
2482.000000	0.008101
2481.000000	0.008079
2480.000000	0.008049
2479.000000	0.008035
2478.000000	0.008048
2477.000000	0.008086
2476.000000	0.008119
2475.000000	0.008119
2474.000000	0.008086
2473.000000	0.008052
2472.000000	0.008049
2471.000000	0.008074
2470.000000	0.008105
2469.000000	0.008126
2468.000000	0.008138
2467.000000	0.008148
2466.000000	0.008156
2465.000000	0.008162
2464.000000	0.008165
2463.000000	0.008162
2462.000000	0.008153
2461.000000	0.008150
2460.000000	0.008159
2459.000000	0.008178
2458.000000	0.008199
2457.000000	0.008216
2456.000000	0.008220
2455.000000	0.008194
2454.000000	0.008139
2453.000000	0.008082
2452.000000	0.008051
2451.000000	0.008044
2450.000000	0.008036
2449.000000	0.008022
2448.000000	0.008020
2447.000000	0.008047
2446.000000	0.008096
2445.000000	0.008137
2444.000000	0.008143
2443.000000	0.008107
2442.000000	0.008055
2441.000000	0.008031
2440.000000	0.008053
2439.000000	0.008097
2438.000000	0.008123
2437.000000	0.008114
2436.000000	0.008085
2435.000000	0.008055
2434.000000	0.008033
2433.000000	0.008020
2432.000000	0.008012
2431.000000	0.007998
2430.000000	0.007977
2429.000000	0.007966
2428.000000	0.007975
2427.000000	0.007992
2426.000000	0.007989
2425.000000	0.007959
2424.000000	0.007922
2423.000000	0.007898
2422.000000	0.007888
2421.000000	0.007886
2420.000000	0.007893
2419.000000	0.007913
2418.000000	0.007939
2417.000000	0.007959
2416.000000	0.007960
2415.000000	0.007943
2414.000000	0.007916
2413.000000	0.007891
2412.000000	0.007875
2411.000000	0.007871
2410.000000	0.007881
2409.000000	0.007900
2408.000000	0.007913
2407.000000	0.007908
2406.000000	0.007888
2405.000000	0.007872
2404.000000	0.007864
2403.000000	0.007854
2402.000000	0.007834
2401.000000	0.007813
2400.000000	0.007805
2399.000000	0.007813
2398.000000	0.007830
2397.000000	0.007856
2396.000000	0.007887
2395.000000	0.007908
2394.000000	0.007902
2393.000000	0.007873
2392.000000	0.007835
2391.000000	0.007805
2390.000000	0.007791
2389.000000	0.007800
2388.000000	0.007830
2387.000000	0.007869
2386.000000	0.007901
2385.000000	0.007930
2384.000000	0.007963
2383.000000	0.007999
2382.000000	0.008030
2381.000000	0.008056
2380.000000	0.008079
2379.000000	0.008080
2378.000000	0.008041
2377.000000	0.007966
2376.000000	0.007886
2375.000000	0.007830
2374.000000	0.007811
2373.000000	0.007839
2372.000000	0.007910
2371.000000	0.007986
2370.000000	0.008018
2369.000000	0.007999
2368.000000	0.007967
2367.000000	0.007949
2366.000000	0.007940
2365.000000	0.007930
2364.000000	0.007938
2363.000000	0.007976
2362.000000	0.008035
2361.000000	0.008110
2360.000000	0.008193
2359.000000	0.008261
2358.000000	0.008287
2357.000000	0.008271
2356.000000	0.008231
2355.000000	0.008164
2354.000000	0.008077
2353.000000	0.008003
2352.000000	0.007986
2351.000000	0.008036
2350.000000	0.008112
2349.000000	0.008172
2348.000000	0.008200
2347.000000	0.008205
2346.000000	0.008199
2345.000000	0.008185
2344.000000	0.008173
2343.000000	0.008172
2342.000000	0.008181
2341.000000	0.008194
2340.000000	0.008205
2339.000000	0.008211
2338.000000	0.008211
2337.000000	0.008208
2336.000000	0.008211
2335.000000	0.008219
2334.000000	0.008233
2333.000000	0.008245
2332.000000	0.008238
2331.000000	0.008209
2330.000000	0.008178
2329.000000	0.008181
2328.000000	0.008234
2327.000000	0.008333
2326.000000	0.008447
2325.000000	0.008533
2324.000000	0.008548
2323.000000	0.008471
2322.000000	0.008328
2321.000000	0.008169
2320.000000	0.008041
2319.000000	0.007956
2318.000000	0.007912
2317.000000	0.007903
2316.000000	0.007923
2315.000000	0.007951
2314.000000	0.007962
2313.000000	0.007945
2312.000000	0.007904
2311.000000	0.007861
2310.000000	0.007840
2309.000000	0.007856
2308.000000	0.007902
2307.000000	0.007956
2306.000000	0.008000
2305.000000	0.008029
2304.000000	0.008044
2303.000000	0.008037
2302.000000	0.008001
2301.000000	0.007946
2300.000000	0.007900
2299.000000	0.007882
2298.000000	0.007891
2297.000000	0.007915
2296.000000	0.007933
2295.000000	0.007937
2294.000000	0.007929
2293.000000	0.007927
2292.000000	0.007944
2291.000000	0.007977
2290.000000	0.008008
2289.000000	0.008023
2288.000000	0.008015
2287.000000	0.007981
2286.000000	0.007928
2285.000000	0.007872
2284.000000	0.007824
2283.000000	0.007791
2282.000000	0.007773
2281.000000	0.007773
2280.000000	0.007785
2279.000000	0.007792
2278.000000	0.007786
2277.000000	0.007776
2276.000000	0.007764
2275.000000	0.007734
2274.000000	0.007675
2273.000000	0.007603
2272.000000	0.007552
2271.000000	0.007529
2270.000000	0.007512
2269.000000	0.007482
2268.000000	0.007440
2267.000000	0.007412
2266.000000	0.007423
2265.000000	0.007477
2264.000000	0.007532
2263.000000	0.007527
2262.000000	0.007445
2261.000000	0.007343
2260.000000	0.007305
2259.000000	0.007364
2258.000000	0.007476
2257.000000	0.007571
2256.000000	0.007604
2255.000000	0.007570
2254.000000	0.007489
2253.000000	0.007385
2252.000000	0.007277
2251.000000	0.007182
2250.000000	0.007128
2249.000000	0.007139
2248.000000	0.007203
2247.000000	0.007270
2246.000000	0.007296
2245.000000	0.007281
2244.000000	0.007255
2243.000000	0.007240
2242.000000	0.007240
2241.000000	0.007243
2240.000000	0.007228
2239.000000	0.007185
2238.000000	0.007133
2237.000000	0.007106
2236.000000	0.007102
2235.000000	0.007087
2234.000000	0.007061
2233.000000	0.007070
2232.000000	0.007144
2231.000000	0.007235
2230.000000	0.007274
2229.000000	0.007241
2228.000000	0.007168
2227.000000	0.007098
2226.000000	0.007065
2225.000000	0.007083
2224.000000	0.007120
2223.000000	0.007113
2222.000000	0.007052
2221.000000	0.007017
2220.000000	0.007084
2219.000000	0.007213
2218.000000	0.007290
2217.000000	0.007252
2216.000000	0.007143
2215.000000	0.007040
2214.000000	0.006993
2213.000000	0.007004
2212.000000	0.007047
2211.000000	0.007077
2210.000000	0.007073
2209.000000	0.007062
2208.000000	0.007094
2207.000000	0.007185
2206.000000	0.007311
2205.000000	0.007430
2204.000000	0.007490
2203.000000	0.007449
2202.000000	0.007314
2201.000000	0.007147
2200.000000	0.007010
2199.000000	0.006902
2198.000000	0.006797
2197.000000	0.006700
2196.000000	0.006643
2195.000000	0.006639
2194.000000	0.006675
2193.000000	0.006731
2192.000000	0.006785
2191.000000	0.006830
2190.000000	0.006884
2189.000000	0.006966
2188.000000	0.007037
2187.000000	0.007039
2186.000000	0.006998
2185.000000	0.007022
2184.000000	0.007142
2183.000000	0.007219
2182.000000	0.007095
2181.000000	0.006800
2180.000000	0.006534
2179.000000	0.006454
2178.000000	0.006573
2177.000000	0.006788
2176.000000	0.006957
2175.000000	0.006964
2174.000000	0.006818
2173.000000	0.006671
2172.000000	0.006671
2171.000000	0.006802
2170.000000	0.006907
2169.000000	0.006849
2168.000000	0.006625
2167.000000	0.006344
2166.000000	0.006131
2165.000000	0.006067
2164.000000	0.006152
2163.000000	0.006316
2162.000000	0.006475
2161.000000	0.006554
2160.000000	0.006488
2159.000000	0.006264
2158.000000	0.005996
2157.000000	0.005833
2156.000000	0.005804
2155.000000	0.005839
2154.000000	0.005905
2153.000000	0.006007
2152.000000	0.006093
2151.000000	0.006065
2150.000000	0.005939
2149.000000	0.005866
2148.000000	0.005953
2147.000000	0.006131
2146.000000	0.006247
2145.000000	0.006241
2144.000000	0.006156
2143.000000	0.006044
2142.000000	0.005931
2141.000000	0.005842
2140.000000	0.005801
2139.000000	0.005817
2138.000000	0.005888
2137.000000	0.006003
2136.000000	0.006128
2135.000000	0.006215
2134.000000	0.006249
2133.000000	0.006254
2132.000000	0.006247
2131.000000	0.006225
2130.000000	0.006202
2129.000000	0.006213
2128.000000	0.006270
2127.000000	0.006344
2126.000000	0.006418
2125.000000	0.006504
2124.000000	0.006600
2123.000000	0.006661
2122.000000	0.006663
2121.000000	0.006638
2120.000000	0.006630
2119.000000	0.006639
2118.000000	0.006646
2117.000000	0.006665
2116.000000	0.006725
2115.000000	0.006817
2114.000000	0.006897
2113.000000	0.006932
2112.000000	0.006922
2111.000000	0.006885
2110.000000	0.006843
2109.000000	0.006807
2108.000000	0.006780
2107.000000	0.006769
2106.000000	0.006806
2105.000000	0.006911
2104.000000	0.007043
2103.000000	0.007116
2102.000000	0.007094
2101.000000	0.007023
2100.000000	0.006950
2099.000000	0.006863
2098.000000	0.006751
2097.000000	0.006666
2096.000000	0.006656
2095.000000	0.006687
2094.000000	0.006687
2093.000000	0.006663
2092.000000	0.006682
2091.000000	0.006772
2090.000000	0.006878
2089.000000	0.006931
2088.000000	0.006918
2087.000000	0.006871
2086.000000	0.006838
2085.000000	0.006848
2084.000000	0.006895
2083.000000	0.006937
2082.000000	0.006943
2081.000000	0.006928
2080.000000	0.006915
2079.000000	0.006898
2078.000000	0.006855
2077.000000	0.006797
2076.000000	0.006746
2075.000000	0.006704
2074.000000	0.006647
2073.000000	0.006580
2072.000000	0.006536
2071.000000	0.006531
2070.000000	0.006546
2069.000000	0.006540
2068.000000	0.006489
2067.000000	0.006408
2066.000000	0.006354
2065.000000	0.006377
2064.000000	0.006452
2063.000000	0.006494
2062.000000	0.006451
2061.000000	0.006356
2060.000000	0.006260
2059.000000	0.006185
2058.000000	0.006138
2057.000000	0.006144
2056.000000	0.006200
2055.000000	0.006261
2054.000000	0.006299
2053.000000	0.006356
2052.000000	0.006466
2051.000000	0.006580
2050.000000	0.006609
2049.000000	0.006532
2048.000000	0.006407
2047.000000	0.006286
2046.000000	0.006165
2045.000000	0.006033
2044.000000	0.005891
2043.000000	0.005738
2042.000000	0.005600
2041.000000	0.005542
2040.000000	0.005623
2039.000000	0.005819
2038.000000	0.006032
2037.000000	0.006153
2036.000000	0.006106
2035.000000	0.005902
2034.000000	0.005647
2033.000000	0.005454
2032.000000	0.005320
2031.000000	0.005170
2030.000000	0.005032
2029.000000	0.005038
2028.000000	0.005221
2027.000000	0.005421
2026.000000	0.005485
2025.000000	0.005433
2024.000000	0.005387
2023.000000	0.005398
2022.000000	0.005433
2021.000000	0.005450
2020.000000	0.005410
2019.000000	0.005284
2018.000000	0.005124
2017.000000	0.005063
2016.000000	0.005178
2015.000000	0.005409
2014.000000	0.005639
2013.000000	0.005789
2012.000000	0.005826
2011.000000	0.005752
2010.000000	0.005640
2009.000000	0.005581
2008.000000	0.005555
2007.000000	0.005437
2006.000000	0.005188
2005.000000	0.004953
2004.000000	0.004894
2003.000000	0.005028
2002.000000	0.005263
2001.000000	0.005502
2000.000000	0.005669
1999.000000	0.005723
1998.000000	0.005698
1997.000000	0.005673
1996.000000	0.005677
1995.000000	0.005682
1994.000000	0.005679
1993.000000	0.005716
1992.000000	0.005797
1991.000000	0.005849
1990.000000	0.005818
1989.000000	0.005745
1988.000000	0.005695
1987.000000	0.005697
1986.000000	0.005769
1985.000000	0.005918
1984.000000	0.006082
1983.000000	0.006148
1982.000000	0.006086
1981.000000	0.005971
1980.000000	0.005850
1979.000000	0.005680
1978.000000	0.005465
1977.000000	0.005337
1976.000000	0.005391
1975.000000	0.005536
1974.000000	0.005635
1973.000000	0.005646
1972.000000	0.005581
1971.000000	0.005438
1970.000000	0.005253
1969.000000	0.005129
1968.000000	0.005123
1967.000000	0.005179
1966.000000	0.005235
1965.000000	0.005289
1964.000000	0.005334
1963.000000	0.005326
1962.000000	0.005279
1961.000000	0.005288
1960.000000	0.005397
1959.000000	0.005518
1958.000000	0.005547
1957.000000	0.005485
1956.000000	0.005394
1955.000000	0.005316
1954.000000	0.005270
1953.000000	0.005272
1952.000000	0.005291
1951.000000	0.005259
1950.000000	0.005167
1949.000000	0.005103
1948.000000	0.005144
1947.000000	0.005267
1946.000000	0.005394
1945.000000	0.005476
1944.000000	0.005499
1943.000000	0.005465
1942.000000	0.005410
1941.000000	0.005396
1940.000000	0.005454
1939.000000	0.005564
1938.000000	0.005686
1937.000000	0.005772
1936.000000	0.005766
1935.000000	0.005647
1934.000000	0.005496
1933.000000	0.005437
1932.000000	0.005504
1931.000000	0.005614
1930.000000	0.005698
1929.000000	0.005766
1928.000000	0.005825
1927.000000	0.005823
1926.000000	0.005728
1925.000000	0.005603
1924.000000	0.005529
1923.000000	0.005519
1922.000000	0.005542
1921.000000	0.005584
1920.000000	0.005646
1919.000000	0.005697
1918.000000	0.005706
1917.000000	0.005692
1916.000000	0.005698
1915.000000	0.005736
1914.000000	0.005796
1913.000000	0.005861
1912.000000	0.005905
1911.000000	0.005893
1910.000000	0.005827
1909.000000	0.005747
1908.000000	0.005690
1907.000000	0.005659
1906.000000	0.005655
1905.000000	0.005697
1904.000000	0.005776
1903.000000	0.005847
1902.000000	0.005889
1901.000000	0.005915
1900.000000	0.005932
1899.000000	0.005916
1898.000000	0.005862
1897.000000	0.005811
1896.000000	0.005794
1895.000000	0.005785
1894.000000	0.005759
1893.000000	0.005730
1892.000000	0.005718
1891.000000	0.005716
1890.000000	0.005714
1889.000000	0.005727
1888.000000	0.005755
1887.000000	0.005768
1886.000000	0.005742
1885.000000	0.005695
1884.000000	0.005657
1883.000000	0.005629
1882.000000	0.005602
1881.000000	0.005579
1880.000000	0.005572
1879.000000	0.005587
1878.000000	0.005625
1877.000000	0.005688
1876.000000	0.005757
1875.000000	0.005791
1874.000000	0.005768
1873.000000	0.005715
1872.000000	0.005670
1871.000000	0.005646
1870.000000	0.005640
1869.000000	0.005645
1868.000000	0.005653
1867.000000	0.005659
1866.000000	0.005682
1865.000000	0.005735
1864.000000	0.005786
1863.000000	0.005786
1862.000000	0.005734
1861.000000	0.005675
1860.000000	0.005635
1859.000000	0.005602
1858.000000	0.005572
1857.000000	0.005574
1856.000000	0.005621
1855.000000	0.005675
1854.000000	0.005698
1853.000000	0.005690
1852.000000	0.005665
1851.000000	0.005632
1850.000000	0.005587
1849.000000	0.005533
1848.000000	0.005482
1847.000000	0.005449
1846.000000	0.005451
1845.000000	0.005478
1844.000000	0.005490
1843.000000	0.005472
1842.000000	0.005473
1841.000000	0.005531
1840.000000	0.005614
1839.000000	0.005650
1838.000000	0.005621
1837.000000	0.005573
1836.000000	0.005539
1835.000000	0.005491
1834.000000	0.005412
1833.000000	0.005338
1832.000000	0.005318
1831.000000	0.005353
1830.000000	0.005403
1829.000000	0.005443
1828.000000	0.005490
1827.000000	0.005556
1826.000000	0.005621
1825.000000	0.005651
1824.000000	0.005624
1823.000000	0.005546
1822.000000	0.005451
1821.000000	0.005374
1820.000000	0.005333
1819.000000	0.005315
1818.000000	0.005305
1817.000000	0.005308
1816.000000	0.005327
1815.000000	0.005345
1814.000000	0.005352
1813.000000	0.005359
1812.000000	0.005376
1811.000000	0.005395
1810.000000	0.005412
1809.000000	0.005440
1808.000000	0.005475
1807.000000	0.005494
1806.000000	0.005492
1805.000000	0.005490
1804.000000	0.005497
1803.000000	0.005496
1802.000000	0.005477
1801.000000	0.005446
1800.000000	0.005420
1799.000000	0.005409
1798.000000	0.005414
1797.000000	0.005433
1796.000000	0.005443
1795.000000	0.005429
1794.000000	0.005404
1793.000000	0.005386
1792.000000	0.005374
1791.000000	0.005352
1790.000000	0.005336
1789.000000	0.005351
1788.000000	0.005384
1787.000000	0.005400
1786.000000	0.005392
1785.000000	0.005385
1784.000000	0.005376
1783.000000	0.005350
1782.000000	0.005322
1781.000000	0.005311
1780.000000	0.005319
1779.000000	0.005326
1778.000000	0.005321
1777.000000	0.005310
1776.000000	0.005285
1775.000000	0.005247
1774.000000	0.005211
1773.000000	0.005188
1772.000000	0.005177
1771.000000	0.005177
1770.000000	0.005201
1769.000000	0.005256
1768.000000	0.005302
1767.000000	0.005293
1766.000000	0.005251
1765.000000	0.005251
1764.000000	0.005321
1763.000000	0.005416
1762.000000	0.005477
1761.000000	0.005505
1760.000000	0.005549
1759.000000	0.005637
1758.000000	0.005773
1757.000000	0.005938
1756.000000	0.006091
1755.000000	0.006229
1754.000000	0.006392
1753.000000	0.006614
1752.000000	0.006868
1751.000000	0.007074
1750.000000	0.007205
1749.000000	0.007319
1748.000000	0.007445
1747.000000	0.007556
1746.000000	0.007630
1745.000000	0.007660
1744.000000	0.007633
1743.000000	0.007527
1742.000000	0.007372
1741.000000	0.007230
1740.000000	0.007093
1739.000000	0.006896
1738.000000	0.006659
1737.000000	0.006477
1736.000000	0.006383
1735.000000	0.006278
1734.000000	0.006065
1733.000000	0.005824
1732.000000	0.005689
1731.000000	0.005660
1730.000000	0.005661
1729.000000	0.005647
1728.000000	0.005605
1727.000000	0.005543
1726.000000	0.005475
1725.000000	0.005424
1724.000000	0.005392
1723.000000	0.005342
1722.000000	0.005262
1721.000000	0.005201
1720.000000	0.005194
1719.000000	0.005205
1718.000000	0.005181
1717.000000	0.005163
1716.000000	0.005212
1715.000000	0.005310
1714.000000	0.005431
1713.000000	0.005592
1712.000000	0.005793
1711.000000	0.006001
1710.000000	0.006196
1709.000000	0.006392
1708.000000	0.006623
1707.000000	0.006904
1706.000000	0.007218
1705.000000	0.007527
1704.000000	0.007796
1703.000000	0.008069
1702.000000	0.008453
1701.000000	0.008998
1700.000000	0.009534
1699.000000	0.009898
1698.000000	0.010238
1697.000000	0.010766
1696.000000	0.011447
1695.000000	0.012054
1694.000000	0.012511
1693.000000	0.012954
1692.000000	0.013453
1691.000000	0.013964
1690.000000	0.014435
1689.000000	0.014860
1688.000000	0.015252
1687.000000	0.015644
1686.000000	0.016113
1685.000000	0.016754
1684.000000	0.017477
1683.000000	0.018097
1682.000000	0.018655
1681.000000	0.019285
1680.000000	0.019962
1679.000000	0.020587
1678.000000	0.021157
1677.000000	0.021802
1676.000000	0.022599
1675.000000	0.023432
1674.000000	0.024145
1673.000000	0.024770
1672.000000	0.025432
1671.000000	0.026185
1670.000000	0.027027
1669.000000	0.027910
1668.000000	0.028736
1667.000000	0.029433
1666.000000	0.030036
1665.000000	0.030663
1664.000000	0.031395
1663.000000	0.032177
1662.000000	0.032904
1661.000000	0.033551
1660.000000	0.034154
1659.000000	0.034704
1658.000000	0.035146
1657.000000	0.035469
1656.000000	0.035756
1655.000000	0.036135
1654.000000	0.036735
1653.000000	0.037458
1652.000000	0.037949
1651.000000	0.038141
1650.000000	0.038262
1649.000000	0.038486
1648.000000	0.038865
1647.000000	0.039314
1646.000000	0.039690
1645.000000	0.039973
1644.000000	0.040221
1643.000000	0.040453
1642.000000	0.040673
1641.000000	0.040869
1640.000000	0.041018
1639.000000	0.041106
1638.000000	0.041180
1637.000000	0.041339
1636.000000	0.041611
1635.000000	0.041862
1634.000000	0.041973
1633.000000	0.042002
1632.000000	0.042010
1631.000000	0.041978
1630.000000	0.041868
1629.000000	0.041676
1628.000000	0.041407
1627.000000	0.041059
1626.000000	0.040644
1625.000000	0.040191
1624.000000	0.039707
1623.000000	0.039164
1622.000000	0.038552
1621.000000	0.037903
1620.000000	0.037252
1619.000000	0.036599
1618.000000	0.035905
1617.000000	0.035140
1616.000000	0.034333
1615.000000	0.033563
1614.000000	0.032869
1613.000000	0.032227
1612.000000	0.031591
1611.000000	0.030944
1610.000000	0.030298
1609.000000	0.029662
1608.000000	0.029030
1607.000000	0.028410
1606.000000	0.027829
1605.000000	0.027291
1604.000000	0.026793
1603.000000	0.026331
1602.000000	0.025906
1601.000000	0.025513
1600.000000	0.025153
1599.000000	0.024832
1598.000000	0.024550
1597.000000	0.024298
1596.000000	0.024071
1595.000000	0.023878
1594.000000	0.023728
1593.000000	0.023616
1592.000000	0.023534
1591.000000	0.023474
1590.000000	0.023430
1589.000000	0.023395
1588.000000	0.023370
1587.000000	0.023374
1586.000000	0.023421
1585.000000	0.023502
1584.000000	0.023603
1583.000000	0.023732
1582.000000	0.023890
1581.000000	0.024043
1580.000000	0.024167
1579.000000	0.024296
1578.000000	0.024489
1577.000000	0.024771
1576.000000	0.025095
1575.000000	0.025389
1574.000000	0.025644
1573.000000	0.025900
1572.000000	0.026198
1571.000000	0.026554
1570.000000	0.026954
1569.000000	0.027345
1568.000000	0.027707
1567.000000	0.028083
1566.000000	0.028513
1565.000000	0.028961
1564.000000	0.029349
1563.000000	0.029641
1562.000000	0.029894
1561.000000	0.030215
1560.000000	0.030742
1559.000000	0.031457
1558.000000	0.032068
1557.000000	0.032489
1556.000000	0.032902
1555.000000	0.033378
1554.000000	0.033846
1553.000000	0.034225
1552.000000	0.034542
1551.000000	0.034860
1550.000000	0.035164
1549.000000	0.035417
1548.000000	0.035620
1547.000000	0.035818
1546.000000	0.036016
1545.000000	0.036162
1544.000000	0.036220
1543.000000	0.036221
1542.000000	0.036237
1541.000000	0.036349
1540.000000	0.036541
1539.000000	0.036673
1538.000000	0.036662
1537.000000	0.036580
1536.000000	0.036510
1535.000000	0.036484
1534.000000	0.036484
1533.000000	0.036453
1532.000000	0.036368
1531.000000	0.036241
1530.000000	0.036089
1529.000000	0.035932
1528.000000	0.035785
1527.000000	0.035624
1526.000000	0.035407
1525.000000	0.035118
1524.000000	0.034813
1523.000000	0.034549
1522.000000	0.034330
1521.000000	0.034101
1520.000000	0.033838
1519.000000	0.033586
1518.000000	0.033387
1517.000000	0.033223
1516.000000	0.033031
1515.000000	0.032782
1514.000000	0.032494
1513.000000	0.032178
1512.000000	0.031812
1511.000000	0.031374
1510.000000	0.030886
1509.000000	0.030392
1508.000000	0.029897
1507.000000	0.029363
1506.000000	0.028813
1505.000000	0.028335
1504.000000	0.027941
1503.000000	0.027572
1502.000000	0.027171
1501.000000	0.026729
1500.000000	0.026263
1499.000000	0.025786
1498.000000	0.025293
1497.000000	0.024799
1496.000000	0.024318
1495.000000	0.023839
1494.000000	0.023377
1493.000000	0.022964
1492.000000	0.022596
1491.000000	0.022212
1490.000000	0.021780
1489.000000	0.021363
1488.000000	0.021032
1487.000000	0.020769
1486.000000	0.020551
1485.000000	0.020391
1484.000000	0.020286
1483.000000	0.020214
1482.000000	0.020153
1481.000000	0.020114
1480.000000	0.020108
1479.000000	0.020134
1478.000000	0.020192
1477.000000	0.020290
1476.000000	0.020427
1475.000000	0.020601
1474.000000	0.020868
1473.000000	0.021278
1472.000000	0.021772
1471.000000	0.022224
1470.000000	0.022608
1469.000000	0.022978
1468.000000	0.023351
1467.000000	0.023704
1466.000000	0.024041
1465.000000	0.024386
1464.000000	0.024723
1463.000000	0.025013
1462.000000	0.025254
1461.000000	0.025482
1460.000000	0.025728
1459.000000	0.026026
1458.000000	0.026440
1457.000000	0.026971
1456.000000	0.027450
1455.000000	0.027764
1454.000000	0.027987
1453.000000	0.028198
1452.000000	0.028391
1451.000000	0.028521
1450.000000	0.028593
1449.000000	0.028656
1448.000000	0.028707
1447.000000	0.028698
1446.000000	0.028633
1445.000000	0.028561
1444.000000	0.028510
1443.000000	0.028454
1442.000000	0.028349
1441.000000	0.028189
1440.000000	0.028003
1439.000000	0.027819
1438.000000	0.027638
1437.000000	0.027445
1436.000000	0.027217
1435.000000	0.026961
1434.000000	0.026711
1433.000000	0.026491
1432.000000	0.026293
1431.000000	0.026092
1430.000000	0.025882
1429.000000	0.025688
1428.000000	0.025526
1427.000000	0.025386
1426.000000	0.025270
1425.000000	0.025170
1424.000000	0.025071
1423.000000	0.024959
1422.000000	0.024854
1421.000000	0.024801
1420.000000	0.024815
1419.000000	0.024839
1418.000000	0.024817
1417.000000	0.024785
1416.000000	0.024793
1415.000000	0.024825
1414.000000	0.024844
1413.000000	0.024853
1412.000000	0.024881
1411.000000	0.024932
1410.000000	0.024992
1409.000000	0.025069
1408.000000	0.025172
1407.000000	0.025280
1406.000000	0.025369
1405.000000	0.025446
1404.000000	0.025519
1403.000000	0.025579
1402.000000	0.025619
1401.000000	0.025657
1400.000000	0.025697
1399.000000	0.025704
1398.000000	0.025662
1397.000000	0.025611
1396.000000	0.025574
1395.000000	0.025517
1394.000000	0.025401
1393.000000	0.025248
1392.000000	0.025104
1391.000000	0.024984
1390.000000	0.024876
1389.000000	0.024783
1388.000000	0.024698
1387.000000	0.024586
1386.000000	0.024427
1385.000000	0.024254
1384.000000	0.024101
1383.000000	0.023959
1382.000000	0.023805
1381.000000	0.023650
1380.000000	0.023510
1379.000000	0.023366
1378.000000	0.023186
1377.000000	0.022969
1376.000000	0.022737
1375.000000	0.022505
1374.000000	0.022273
1373.000000	0.022050
1372.000000	0.021838
1371.000000	0.021618
1370.000000	0.021371
1369.000000	0.021094
1368.000000	0.020802
1367.000000	0.020511
1366.000000	0.020234
1365.000000	0.019985
1364.000000	0.019765
1363.000000	0.019561
1362.000000	0.019359
1361.000000	0.019174
1360.000000	0.019021
1359.000000	0.018899
1358.000000	0.018802
1357.000000	0.018735
1356.000000	0.018706
1355.000000	0.018709
1354.000000	0.018740
1353.000000	0.018809
1352.000000	0.018913
1351.000000	0.019031
1350.000000	0.019145
1349.000000	0.019265
1348.000000	0.019407
1347.000000	0.019573
1346.000000	0.019754
1345.000000	0.019950
1344.000000	0.020158
1343.000000	0.020365
1342.000000	0.020564
1341.000000	0.020759
1340.000000	0.020947
1339.000000	0.021105
1338.000000	0.021216
1337.000000	0.021292
1336.000000	0.021337
1335.000000	0.021330
1334.000000	0.021261
1333.000000	0.021154
1332.000000	0.021041
1331.000000	0.020923
1330.000000	0.020787
1329.000000	0.020634
1328.000000	0.020473
1327.000000	0.020308
1326.000000	0.020147
1325.000000	0.020014
1324.000000	0.019921
1323.000000	0.019855
1322.000000	0.019798
1321.000000	0.019758
1320.000000	0.019742
1319.000000	0.019735
1318.000000	0.019714
1317.000000	0.019676
1316.000000	0.019633
1315.000000	0.019583
1314.000000	0.019511
1313.000000	0.019410
1312.000000	0.019288
1311.000000	0.019156
1310.000000	0.019027
1309.000000	0.018915
1308.000000	0.018812
1307.000000	0.018691
1306.000000	0.018544
1305.000000	0.018398
1304.000000	0.018283
1303.000000	0.018192
1302.000000	0.018104
1301.000000	0.018011
1300.000000	0.017914
1299.000000	0.017813
1298.000000	0.017712
1297.000000	0.017634
1296.000000	0.017598
1295.000000	0.017593
1294.000000	0.017601
1293.000000	0.017624
1292.000000	0.017670
1291.000000	0.017730
1290.000000	0.017797
1289.000000	0.017888
1288.000000	0.018020
1287.000000	0.018176
1286.000000	0.018326
1285.000000	0.018460
1284.000000	0.018580
1283.000000	0.018679
1282.000000	0.018751
1281.000000	0.018807
1280.000000	0.018859
1279.000000	0.018901
1278.000000	0.018919
1277.000000	0.018917
1276.000000	0.018908
1275.000000	0.018894
1274.000000	0.018872
1273.000000	0.018855
1272.000000	0.018854
1271.000000	0.018862
1270.000000	0.018876
1269.000000	0.018904
1268.000000	0.018953
1267.000000	0.019010
1266.000000	0.019065
1265.000000	0.019129
1264.000000	0.019209
1263.000000	0.019294
1262.000000	0.019384
1261.000000	0.019498
1260.000000	0.019648
1259.000000	0.019804
1258.000000	0.019939
1257.000000	0.020060
1256.000000	0.020188
1255.000000	0.020331
1254.000000	0.020495
1253.000000	0.020704
1252.000000	0.020967
1251.000000	0.021253
1250.000000	0.021527
1249.000000	0.021788
1248.000000	0.022050
1247.000000	0.022303
1246.000000	0.022536
1245.000000	0.022766
1244.000000	0.023013
1243.000000	0.023270
1242.000000	0.023517
1241.000000	0.023748
1240.000000	0.023963
1239.000000	0.024148
1238.000000	0.024286
1237.000000	0.024385
1236.000000	0.024459
1235.000000	0.024508
1234.000000	0.024529
1233.000000	0.024525
1232.000000	0.024488
1231.000000	0.024389
1230.000000	0.024219
1229.000000	0.024000
1228.000000	0.023744
1227.000000	0.023437
1226.000000	0.023075
1225.000000	0.022686
1224.000000	0.022299
1223.000000	0.021914
1222.000000	0.021522
1221.000000	0.021139
1220.000000	0.020783
1219.000000	0.020453
1218.000000	0.020149
1217.000000	0.019891
1216.000000	0.019693
1215.000000	0.019535
1214.000000	0.019399
1213.000000	0.019297
1212.000000	0.019250
1211.000000	0.019256
1210.000000	0.019297
1209.000000	0.019369
1208.000000	0.019467
1207.000000	0.019573
1206.000000	0.019675
1205.000000	0.019779
1204.000000	0.019873
1203.000000	0.019917
1202.000000	0.019882
1201.000000	0.019787
1200.000000	0.019668
1199.000000	0.019531
1198.000000	0.019363
1197.000000	0.019163
1196.000000	0.018940
1195.000000	0.018696
1194.000000	0.018441
1193.000000	0.018192
1192.000000	0.017953
1191.000000	0.017703
1190.000000	0.017440
1189.000000	0.017201
1188.000000	0.017014
1187.000000	0.016863
1186.000000	0.016719
1185.000000	0.016580
1184.000000	0.016452
1183.000000	0.016328
1182.000000	0.016203
1181.000000	0.016107
1180.000000	0.016059
1179.000000	0.016032
1178.000000	0.015990
1177.000000	0.015944
1176.000000	0.015926
1175.000000	0.015941
1174.000000	0.015973
1173.000000	0.016017
1172.000000	0.016077
1171.000000	0.016155
1170.000000	0.016248
1169.000000	0.016368
1168.000000	0.016514
1167.000000	0.016654
1166.000000	0.016771
1165.000000	0.016883
1164.000000	0.017010
1163.000000	0.017127
1162.000000	0.017194
1161.000000	0.017213
1160.000000	0.017204
1159.000000	0.017177
1158.000000	0.017127
1157.000000	0.017064
1156.000000	0.016993
1155.000000	0.016894
1154.000000	0.016746
1153.000000	0.016563
1152.000000	0.016375
1151.000000	0.016193
1150.000000	0.016014
1149.000000	0.015839
1148.000000	0.015658
1147.000000	0.015454
1146.000000	0.015234
1145.000000	0.015040
1144.000000	0.014890
1143.000000	0.014752
1142.000000	0.014589
1141.000000	0.014412
1140.000000	0.014250
1139.000000	0.014102
1138.000000	0.013955
1137.000000	0.013816
1136.000000	0.013699
1135.000000	0.013596
1134.000000	0.013496
1133.000000	0.013411
1132.000000	0.013363
1131.000000	0.013351
1130.000000	0.013367
1129.000000	0.013418
1128.000000	0.013498
1127.000000	0.013576
1126.000000	0.013625
1125.000000	0.013659
1124.000000	0.013696
1123.000000	0.013732
1122.000000	0.013765
1121.000000	0.013816
1120.000000	0.013895
1119.000000	0.013974
1118.000000	0.014025
1117.000000	0.014059
1116.000000	0.014098
1115.000000	0.014143
1114.000000	0.014189
1113.000000	0.014246
1112.000000	0.014317
1111.000000	0.014373
1110.000000	0.014405
1109.000000	0.014444
1108.000000	0.014515
1107.000000	0.014598
1106.000000	0.014666
1105.000000	0.014732
1104.000000	0.014813
1103.000000	0.014893
1102.000000	0.014961
1101.000000	0.015035
1100.000000	0.015127
1099.000000	0.015205
1098.000000	0.015246
1097.000000	0.015283
1096.000000	0.015357
1095.000000	0.015459
1094.000000	0.015564
1093.000000	0.015688
1092.000000	0.015862
1091.000000	0.016078
1090.000000	0.016316
1089.000000	0.016599
1088.000000	0.016952
1087.000000	0.017344
1086.000000	0.017703
1085.000000	0.017992
1084.000000	0.018218
1083.000000	0.018395
1082.000000	0.018535
1081.000000	0.018648
1080.000000	0.018718
1079.000000	0.018697
1078.000000	0.018562
1077.000000	0.018355
1076.000000	0.018130
1075.000000	0.017900
1074.000000	0.017660
1073.000000	0.017427
1072.000000	0.017233
1071.000000	0.017085
1070.000000	0.016986
1069.000000	0.016952
1068.000000	0.016979
1067.000000	0.017031
1066.000000	0.017075
1065.000000	0.017129
1064.000000	0.017211
1063.000000	0.017309
1062.000000	0.017397
1061.000000	0.017470
1060.000000	0.017521
1059.000000	0.017526
1058.000000	0.017481
1057.000000	0.017422
1056.000000	0.017383
1055.000000	0.017356
1054.000000	0.017326
1053.000000	0.017308
1052.000000	0.017308
1051.000000	0.017303
1050.000000	0.017281
1049.000000	0.017265
1048.000000	0.017266
1047.000000	0.017256
1046.000000	0.017223
1045.000000	0.017203
1044.000000	0.017224
1043.000000	0.017261
1042.000000	0.017292
1041.000000	0.017337
1040.000000	0.017424
1039.000000	0.017541
1038.000000	0.017685
1037.000000	0.017884
1036.000000	0.018148
1035.000000	0.018423
1034.000000	0.018645
1033.000000	0.018811
1032.000000	0.018944
1031.000000	0.019043
1030.000000	0.019093
1029.000000	0.019103
1028.000000	0.019087
1027.000000	0.019034
1026.000000	0.018941
1025.000000	0.018831
1024.000000	0.018714
1023.000000	0.018568
1022.000000	0.018388
1021.000000	0.018212
1020.000000	0.018066
1019.000000	0.017927
1018.000000	0.017776
1017.000000	0.017627
1016.000000	0.017484
1015.000000	0.017311
1014.000000	0.017093
1013.000000	0.016873
1012.000000	0.016679
1011.000000	0.016486
1010.000000	0.016268
1009.000000	0.016048
1008.000000	0.015849
1007.000000	0.015646
1006.000000	0.015415
1005.000000	0.015184
1004.000000	0.014982
1003.000000	0.014796
1002.000000	0.014601
1001.000000	0.014411
1000.000000	0.014242
999.000000	0.014067
998.000000	0.013867
997.000000	0.013664
996.000000	0.013474
995.000000	0.013273
994.000000	0.013037
993.000000	0.012803
992.000000	0.012611
991.000000	0.012445
990.000000	0.012272
989.000000	0.012103
988.000000	0.011962
987.000000	0.011839
986.000000	0.011718
985.000000	0.011613
984.000000	0.011533
983.000000	0.011445
982.000000	0.011322
981.000000	0.011195
980.000000	0.011112
979.000000	0.011071
978.000000	0.011041
977.000000	0.011009
976.000000	0.010969
975.000000	0.010903
974.000000	0.010808
973.000000	0.010722
972.000000	0.010667
971.000000	0.010610
970.000000	0.010516
969.000000	0.010398
968.000000	0.010282
967.000000	0.010154
966.000000	0.009996
965.000000	0.009834
964.000000	0.009701
963.000000	0.009583
962.000000	0.009446
961.000000	0.009288
960.000000	0.009131
959.000000	0.008973
958.000000	0.008808
957.000000	0.008657
956.000000	0.008532
955.000000	0.008411
954.000000	0.008278
953.000000	0.008156
952.000000	0.008067
951.000000	0.008003
950.000000	0.007952
949.000000	0.007921
948.000000	0.007899
947.000000	0.007840
946.000000	0.007729
945.000000	0.007620
944.000000	0.007561
943.000000	0.007537
942.000000	0.007515
941.000000	0.007505
940.000000	0.007523
939.000000	0.007541
938.000000	0.007526
937.000000	0.007489
936.000000	0.007444
935.000000	0.007370
934.000000	0.007248
933.000000	0.007116
932.000000	0.007017
931.000000	0.006949
930.000000	0.006900
929.000000	0.006883
928.000000	0.006900
927.000000	0.006903
926.000000	0.006862
925.000000	0.006814
924.000000	0.006802
923.000000	0.006804
922.000000	0.006775
921.000000	0.006717
920.000000	0.006653
919.000000	0.006574
918.000000	0.006467
917.000000	0.006358
916.000000	0.006269
915.000000	0.006173
914.000000	0.006045
913.000000	0.005919
912.000000	0.005842
911.000000	0.005803
910.000000	0.005769
909.000000	0.005737
908.000000	0.005708
907.000000	0.005655
906.000000	0.005570
905.000000	0.005502
904.000000	0.005493
903.000000	0.005513
902.000000	0.005515
901.000000	0.005502
900.000000	0.005486
899.000000	0.005438
898.000000	0.005337
897.000000	0.005233
896.000000	0.005196
895.000000	0.005224
894.000000	0.005263
893.000000	0.005285
892.000000	0.005288
891.000000	0.005261
890.000000	0.005208
889.000000	0.005172
888.000000	0.005182
887.000000	0.005216
886.000000	0.005244
885.000000	0.005293
884.000000	0.005396
883.000000	0.005541
882.000000	0.005711
881.000000	0.005929
880.000000	0.006211
879.000000	0.006523
878.000000	0.006811
877.000000	0.007055
876.000000	0.007228
875.000000	0.007271
874.000000	0.007167
873.000000	0.006979
872.000000	0.006779
871.000000	0.006576
870.000000	0.006369
869.000000	0.006197
868.000000	0.006089
867.000000	0.006002
866.000000	0.005895
865.000000	0.005792
864.000000	0.005727
863.000000	0.005683
862.000000	0.005635
861.000000	0.005614
860.000000	0.005651
859.000000	0.005712
858.000000	0.005750
857.000000	0.005777
856.000000	0.005821
855.000000	0.005870
854.000000	0.005901
853.000000	0.005920
852.000000	0.005933
851.000000	0.005917
850.000000	0.005867
849.000000	0.005825
848.000000	0.005808
847.000000	0.005772
846.000000	0.005688
845.000000	0.005593
844.000000	0.005520
843.000000	0.005450
842.000000	0.005381
841.000000	0.005353
840.000000	0.005377
839.000000	0.005394
838.000000	0.005362
837.000000	0.005322
836.000000	0.005311
835.000000	0.005296
834.000000	0.005248
833.000000	0.005203
832.000000	0.005187
831.000000	0.005163
830.000000	0.005113
829.000000	0.005105
828.000000	0.005182
827.000000	0.005283
826.000000	0.005323
825.000000	0.005306
824.000000	0.005261
823.000000	0.005179
822.000000	0.005075
821.000000	0.005042
820.000000	0.005127
819.000000	0.005259
818.000000	0.005353
817.000000	0.005419
816.000000	0.005494
815.000000	0.005541
814.000000	0.005506
813.000000	0.005421
812.000000	0.005341
811.000000	0.005269
810.000000	0.005193
809.000000	0.005148
808.000000	0.005164
807.000000	0.005202
806.000000	0.005221
805.000000	0.005239
804.000000	0.005271
803.000000	0.005278
802.000000	0.005241
801.000000	0.005213
800.000000	0.005230
799.000000	0.005242
798.000000	0.005207
797.000000	0.005175
796.000000	0.005204
795.000000	0.005263
794.000000	0.005300
793.000000	0.005322
792.000000	0.005347
791.000000	0.005349
790.000000	0.005313
789.000000	0.005289
788.000000	0.005313
787.000000	0.005343
786.000000	0.005337
785.000000	0.005322
784.000000	0.005324
783.000000	0.005317
782.000000	0.005288
781.000000	0.005302
780.000000	0.005399
779.000000	0.005518
778.000000	0.005573
777.000000	0.005560
776.000000	0.005512
775.000000	0.005437
774.000000	0.005345
773.000000	0.005282
772.000000	0.005267
771.000000	0.005258
770.000000	0.005227
769.000000	0.005210
768.000000	0.005233
767.000000	0.005252
766.000000	0.005239
765.000000	0.005230
764.000000	0.005253
763.000000	0.005266
762.000000	0.005241
761.000000	0.005215
760.000000	0.005217
759.000000	0.005219
758.000000	0.005206
757.000000	0.005222
756.000000	0.005277
755.000000	0.005304
754.000000	0.005277
753.000000	0.005262
752.000000	0.005302
751.000000	0.005341
750.000000	0.005325
749.000000	0.005295
748.000000	0.005304
747.000000	0.005322
746.000000	0.005318
745.000000	0.005329
744.000000	0.005383
743.000000	0.005431
742.000000	0.005438
741.000000	0.005457
740.000000	0.005531
739.000000	0.005604
738.000000	0.005615
737.000000	0.005597
736.000000	0.005603
735.000000	0.005625
734.000000	0.005647
733.000000	0.005696
732.000000	0.005785
731.000000	0.005865
730.000000	0.005918
729.000000	0.005997
728.000000	0.006118
727.000000	0.006208
726.000000	0.006222
725.000000	0.006225
724.000000	0.006290
723.000000	0.006400
722.000000	0.006525
721.000000	0.006680
720.000000	0.006858
719.000000	0.006978
718.000000	0.007000
717.000000	0.006983
716.000000	0.006985
715.000000	0.006988
714.000000	0.006989
713.000000	0.007049
712.000000	0.007178
711.000000	0.007282
710.000000	0.007300
709.000000	0.007294
708.000000	0.007328
707.000000	0.007373
706.000000	0.007410
705.000000	0.007505
704.000000	0.007681
703.000000	0.007835
702.000000	0.007879
701.000000	0.007869
700.000000	0.007891
699.000000	0.007929
698.000000	0.007932
697.000000	0.007915
696.000000	0.007905
695.000000	0.007866
694.000000	0.007785
693.000000	0.007735
692.000000	0.007756
691.000000	0.007795
690.000000	0.007823
689.000000	0.007907
688.000000	0.008072
687.000000	0.008213
686.000000	0.008256
685.000000	0.008260
684.000000	0.008287
683.000000	0.008301
682.000000	0.008301
681.000000	0.008378
680.000000	0.008546
679.000000	0.008673
678.000000	0.008676
677.000000	0.008636
676.000000	0.008640
675.000000	0.008662
674.000000	0.008694
673.000000	0.008821
672.000000	0.009060
671.000000	0.009283
670.000000	0.009407
669.000000	0.009476
668.000000	0.009489
667.000000	0.009450
666.000000	0.009440
665.000000	0.009381
664.000000	0.009315
663.000000	0.009277
662.000000	0.009276
661.000000	0.009324
660.000000	0.009395
659.000000	0.009416
658.000000	0.009376
657.000000	0.009365
656.000000	0.009440
655.000000	0.009524
654.000000	0.009527
653.000000	0.009477
652.000000	0.009453
651.000000	0.009455
650.000000	0.009448
649.000000	0.009452
648.000000	0.009490
647.000000	0.009508
646.000000	0.009459
645.000000	0.009391
644.000000	0.009370
643.000000	0.009378
642.000000	0.009378
641.000000	0.009377
640.000000	0.009352
639.000000	0.009223
638.000000	0.008993
637.000000	0.008814
636.000000	0.008810
635.000000	0.008926
634.000000	0.009044
633.000000	0.009130
632.000000	0.009177
631.000000	0.009140
630.000000	0.009034
629.000000	0.008987
628.000000	0.009066
627.000000	0.009165
626.000000	0.009170
625.000000	0.009139
624.000000	0.009181
623.000000	0.009274
622.000000	0.009334
621.000000	0.009350
620.000000	0.009336
619.000000	0.009261
618.000000	0.009145
617.000000	0.009113
616.000000	0.009219
615.000000	0.009335
614.000000	0.009336
613.000000	0.009266
612.000000	0.009213
611.000000	0.009160
610.000000	0.009084
609.000000	0.009068
608.000000	0.009175
607.000000	0.009331
606.000000	0.009454
605.000000	0.009568
604.000000	0.009669
603.000000	0.009634
602.000000	0.009426
601.000000	0.009222
600.000000	0.009186
599.000000	0.009260
598.000000	0.009327
597.000000	0.009394
596.000000	0.009487
595.000000	0.009518
594.000000	0.009438
593.000000	0.009369
592.000000	0.009418
591.000000	0.009505
590.000000	0.009529
589.000000	0.009549
588.000000	0.009636
587.000000	0.009710
586.000000	0.009704
585.000000	0.009715
584.000000	0.009828
583.000000	0.009928
582.000000	0.009879
581.000000	0.009744
580.000000	0.009659
579.000000	0.009628
578.000000	0.009614
577.000000	0.009660
576.000000	0.009778
575.000000	0.009857
574.000000	0.009851
573.000000	0.009881
572.000000	0.010005
571.000000	0.010095
570.000000	0.010080
569.000000	0.010120
568.000000	0.010342
567.000000	0.010602
566.000000	0.010715
565.000000	0.010726
564.000000	0.010761
563.000000	0.010792
562.000000	0.010771
561.000000	0.010777
560.000000	0.010841
559.000000	0.010820
558.000000	0.010649
557.000000	0.010521
556.000000	0.010598
555.000000	0.010755
554.000000	0.010810
553.000000	0.010805
552.000000	0.010842
551.000000	0.010850
550.000000	0.010730
549.000000	0.010577
548.000000	0.010504
547.000000	0.010444
546.000000	0.010310
545.000000	0.010182
544.000000	0.010131
543.000000	0.010077
542.000000	0.009990
541.000000	0.010022
540.000000	0.010232
539.000000	0.010421
538.000000	0.010438
537.000000	0.010430
536.000000	0.010556
535.000000	0.010704
534.000000	0.010727
533.000000	0.010729
532.000000	0.010846
531.000000	0.010986
530.000000	0.011025
529.000000	0.011047
528.000000	0.011148
527.000000	0.011207
526.000000	0.011100
525.000000	0.010937
524.000000	0.010833
523.000000	0.010681
522.000000	0.010394
521.000000	0.010128
520.000000	0.010027
519.000000	0.009970
518.000000	0.009808
517.000000	0.009638
516.000000	0.009580
515.000000	0.009542
514.000000	0.009448
513.000000	0.009431
512.000000	0.009546
511.000000	0.009560
510.000000	0.009300
509.000000	0.008974
508.000000	0.008868
507.000000	0.008944
506.000000	0.008992
505.000000	0.008959
504.000000	0.008876
503.000000	0.008665
502.000000	0.008319
501.000000	0.008051
500.000000	0.007983
499.000000	0.007948
498.000000	0.007809
497.000000	0.007708
496.000000	0.007776
495.000000	0.007855
494.000000	0.007759
493.000000	0.007564
492.000000	0.007400
491.000000	0.007226
490.000000	0.007025
489.000000	0.006968
488.000000	0.007093
487.000000	0.007135
486.000000	0.006918
485.000000	0.006654
484.000000	0.006587
483.000000	0.006613
482.000000	0.006549
481.000000	0.006454
480.000000	0.006409
479.000000	0.006315
478.000000	0.006200
477.000000	0.006342
476.000000	0.006792
475.000000	0.007114
474.000000	0.006945
473.000000	0.006483
472.000000	0.006106
471.000000	0.005820
470.000000	0.005529
469.000000	0.005421
468.000000	0.005601
467.000000	0.005744
466.000000	0.005569
465.000000	0.005333
464.000000	0.005359
463.000000	0.005465
462.000000	0.005350
461.000000	0.005219
460.000000	0.005462
459.000000	0.005953
458.000000	0.006168
457.000000	0.005913
456.000000	0.005454
455.000000	0.005005
454.000000	0.004682
453.000000	0.004664
452.000000	0.004941
451.000000	0.005137
450.000000	0.005037
