PE IR       SUBTECH     SPECTRUM    ASCII       PEDS        4.00        
   -1
3C-H10-C008_1.ASC
22/02/24
11:35:05.00
22/02/24
11:45:29.00
uco
Sample 017 By uco Date Thursday, February 24 2022
450.000000
#HDR
-1
-1
#GR
cm-1
A
1.0
0.0
4000.000000
-1.000000
3551
8
0.026896
0.004007
#DATA
4000.000000	0.004580
3999.000000	0.004589
3998.000000	0.004599
3997.000000	0.004602
3996.000000	0.004598
3995.000000	0.004590
3994.000000	0.004585
3993.000000	0.004583
3992.000000	0.004585
3991.000000	0.004589
3990.000000	0.004593
3989.000000	0.004598
3988.000000	0.004603
3987.000000	0.004608
3986.000000	0.004614
3985.000000	0.004623
3984.000000	0.004636
3983.000000	0.004654
3982.000000	0.004673
3981.000000	0.004689
3980.000000	0.004701
3979.000000	0.004709
3978.000000	0.004718
3977.000000	0.004724
3976.000000	0.004722
3975.000000	0.004707
3974.000000	0.004678
3973.000000	0.004643
3972.000000	0.004612
3971.000000	0.004593
3970.000000	0.004588
3969.000000	0.004600
3968.000000	0.004625
3967.000000	0.004657
3966.000000	0.004689
3965.000000	0.004711
3964.000000	0.004717
3963.000000	0.004710
3962.000000	0.004695
3961.000000	0.004676
3960.000000	0.004658
3959.000000	0.004643
3958.000000	0.004637
3957.000000	0.004644
3956.000000	0.004668
3955.000000	0.004702
3954.000000	0.004730
3953.000000	0.004739
3952.000000	0.004731
3951.000000	0.004716
3950.000000	0.004709
3949.000000	0.004716
3948.000000	0.004730
3947.000000	0.004741
3946.000000	0.004737
3945.000000	0.004718
3944.000000	0.004692
3943.000000	0.004674
3942.000000	0.004676
3941.000000	0.004697
3940.000000	0.004721
3939.000000	0.004735
3938.000000	0.004732
3937.000000	0.004717
3936.000000	0.004703
3935.000000	0.004696
3934.000000	0.004697
3933.000000	0.004702
3932.000000	0.004709
3931.000000	0.004720
3930.000000	0.004735
3929.000000	0.004750
3928.000000	0.004761
3927.000000	0.004766
3926.000000	0.004763
3925.000000	0.004752
3924.000000	0.004739
3923.000000	0.004733
3922.000000	0.004737
3921.000000	0.004744
3920.000000	0.004745
3919.000000	0.004734
3918.000000	0.004718
3917.000000	0.004708
3916.000000	0.004711
3915.000000	0.004725
3914.000000	0.004740
3913.000000	0.004747
3912.000000	0.004743
3911.000000	0.004739
3910.000000	0.004742
3909.000000	0.004753
3908.000000	0.004762
3907.000000	0.004761
3906.000000	0.004753
3905.000000	0.004748
3904.000000	0.004760
3903.000000	0.004795
3902.000000	0.004839
3901.000000	0.004873
3900.000000	0.004881
3899.000000	0.004864
3898.000000	0.004836
3897.000000	0.004810
3896.000000	0.004790
3895.000000	0.004775
3894.000000	0.004766
3893.000000	0.004765
3892.000000	0.004774
3891.000000	0.004789
3890.000000	0.004804
3889.000000	0.004816
3888.000000	0.004828
3887.000000	0.004840
3886.000000	0.004843
3885.000000	0.004837
3884.000000	0.004827
3883.000000	0.004813
3882.000000	0.004793
3881.000000	0.004771
3880.000000	0.004762
3879.000000	0.004775
3878.000000	0.004803
3877.000000	0.004828
3876.000000	0.004837
3875.000000	0.004823
3874.000000	0.004795
3873.000000	0.004769
3872.000000	0.004756
3871.000000	0.004752
3870.000000	0.004754
3869.000000	0.004768
3868.000000	0.004800
3867.000000	0.004842
3866.000000	0.004871
3865.000000	0.004863
3864.000000	0.004823
3863.000000	0.004778
3862.000000	0.004754
3861.000000	0.004759
3860.000000	0.004783
3859.000000	0.004802
3858.000000	0.004795
3857.000000	0.004762
3856.000000	0.004723
3855.000000	0.004701
3854.000000	0.004703
3853.000000	0.004735
3852.000000	0.004792
3851.000000	0.004849
3850.000000	0.004889
3849.000000	0.004909
3848.000000	0.004913
3847.000000	0.004907
3846.000000	0.004893
3845.000000	0.004878
3844.000000	0.004871
3843.000000	0.004872
3842.000000	0.004876
3841.000000	0.004875
3840.000000	0.004861
3839.000000	0.004841
3838.000000	0.004828
3837.000000	0.004826
3836.000000	0.004824
3835.000000	0.004815
3834.000000	0.004801
3833.000000	0.004794
3832.000000	0.004799
3831.000000	0.004820
3830.000000	0.004851
3829.000000	0.004883
3828.000000	0.004907
3827.000000	0.004921
3826.000000	0.004926
3825.000000	0.004930
3824.000000	0.004939
3823.000000	0.004945
3822.000000	0.004930
3821.000000	0.004895
3820.000000	0.004865
3819.000000	0.004857
3818.000000	0.004868
3817.000000	0.004883
3816.000000	0.004885
3815.000000	0.004872
3814.000000	0.004854
3813.000000	0.004839
3812.000000	0.004828
3811.000000	0.004817
3810.000000	0.004808
3809.000000	0.004801
3808.000000	0.004800
3807.000000	0.004808
3806.000000	0.004827
3805.000000	0.004853
3804.000000	0.004876
3803.000000	0.004884
3802.000000	0.004869
3801.000000	0.004847
3800.000000	0.004840
3799.000000	0.004846
3798.000000	0.004846
3797.000000	0.004827
3796.000000	0.004796
3795.000000	0.004773
3794.000000	0.004769
3793.000000	0.004777
3792.000000	0.004783
3791.000000	0.004782
3790.000000	0.004776
3789.000000	0.004775
3788.000000	0.004778
3787.000000	0.004777
3786.000000	0.004767
3785.000000	0.004751
3784.000000	0.004746
3783.000000	0.004765
3782.000000	0.004808
3781.000000	0.004846
3780.000000	0.004850
3779.000000	0.004813
3778.000000	0.004762
3777.000000	0.004725
3776.000000	0.004717
3775.000000	0.004730
3774.000000	0.004752
3773.000000	0.004771
3772.000000	0.004780
3771.000000	0.004778
3770.000000	0.004770
3769.000000	0.004768
3768.000000	0.004772
3767.000000	0.004772
3766.000000	0.004761
3765.000000	0.004744
3764.000000	0.004736
3763.000000	0.004746
3762.000000	0.004768
3761.000000	0.004781
3760.000000	0.004774
3759.000000	0.004764
3758.000000	0.004771
3757.000000	0.004795
3756.000000	0.004819
3755.000000	0.004831
3754.000000	0.004832
3753.000000	0.004829
3752.000000	0.004832
3751.000000	0.004851
3750.000000	0.004879
3749.000000	0.004892
3748.000000	0.004880
3747.000000	0.004867
3746.000000	0.004882
3745.000000	0.004917
3744.000000	0.004943
3743.000000	0.004939
3742.000000	0.004908
3741.000000	0.004860
3740.000000	0.004812
3739.000000	0.004782
3738.000000	0.004781
3737.000000	0.004793
3736.000000	0.004773
3735.000000	0.004697
3734.000000	0.004595
3733.000000	0.004516
3732.000000	0.004487
3731.000000	0.004503
3730.000000	0.004547
3729.000000	0.004601
3728.000000	0.004648
3727.000000	0.004676
3726.000000	0.004686
3725.000000	0.004690
3724.000000	0.004693
3723.000000	0.004686
3722.000000	0.004663
3721.000000	0.004637
3720.000000	0.004628
3719.000000	0.004644
3718.000000	0.004677
3717.000000	0.004706
3716.000000	0.004720
3715.000000	0.004731
3714.000000	0.004763
3713.000000	0.004823
3712.000000	0.004881
3711.000000	0.004899
3710.000000	0.004864
3709.000000	0.004797
3708.000000	0.004729
3707.000000	0.004678
3706.000000	0.004642
3705.000000	0.004614
3704.000000	0.004588
3703.000000	0.004562
3702.000000	0.004542
3701.000000	0.004534
3700.000000	0.004544
3699.000000	0.004570
3698.000000	0.004605
3697.000000	0.004637
3696.000000	0.004663
3695.000000	0.004689
3694.000000	0.004717
3693.000000	0.004732
3692.000000	0.004717
3691.000000	0.004672
3690.000000	0.004626
3689.000000	0.004615
3688.000000	0.004645
3687.000000	0.004693
3686.000000	0.004733
3685.000000	0.004761
3684.000000	0.004780
3683.000000	0.004796
3682.000000	0.004816
3681.000000	0.004850
3680.000000	0.004903
3679.000000	0.004978
3678.000000	0.005072
3677.000000	0.005149
3676.000000	0.005157
3675.000000	0.005100
3674.000000	0.005039
3673.000000	0.005011
3672.000000	0.005016
3671.000000	0.005028
3670.000000	0.005021
3669.000000	0.004994
3668.000000	0.004959
3667.000000	0.004922
3666.000000	0.004888
3665.000000	0.004865
3664.000000	0.004851
3663.000000	0.004841
3662.000000	0.004830
3661.000000	0.004814
3660.000000	0.004794
3659.000000	0.004776
3658.000000	0.004771
3657.000000	0.004784
3656.000000	0.004820
3655.000000	0.004877
3654.000000	0.004945
3653.000000	0.005018
3652.000000	0.005079
3651.000000	0.005102
3650.000000	0.005074
3649.000000	0.005024
3648.000000	0.004989
3647.000000	0.004982
3646.000000	0.004995
3645.000000	0.005017
3644.000000	0.005038
3643.000000	0.005054
3642.000000	0.005063
3641.000000	0.005072
3640.000000	0.005084
3639.000000	0.005098
3638.000000	0.005107
3637.000000	0.005111
3636.000000	0.005111
3635.000000	0.005105
3634.000000	0.005098
3633.000000	0.005104
3632.000000	0.005136
3631.000000	0.005197
3630.000000	0.005259
3629.000000	0.005285
3628.000000	0.005277
3627.000000	0.005256
3626.000000	0.005227
3625.000000	0.005197
3624.000000	0.005172
3623.000000	0.005158
3622.000000	0.005158
3621.000000	0.005171
3620.000000	0.005195
3619.000000	0.005232
3618.000000	0.005282
3617.000000	0.005339
3616.000000	0.005397
3615.000000	0.005449
3614.000000	0.005487
3613.000000	0.005513
3612.000000	0.005537
3611.000000	0.005568
3610.000000	0.005608
3609.000000	0.005641
3608.000000	0.005648
3607.000000	0.005631
3606.000000	0.005603
3605.000000	0.005582
3604.000000	0.005576
3603.000000	0.005583
3602.000000	0.005597
3601.000000	0.005610
3600.000000	0.005619
3599.000000	0.005636
3598.000000	0.005670
3597.000000	0.005716
3596.000000	0.005760
3595.000000	0.005785
3594.000000	0.005790
3593.000000	0.005791
3592.000000	0.005801
3591.000000	0.005823
3590.000000	0.005849
3589.000000	0.005864
3588.000000	0.005872
3587.000000	0.005894
3586.000000	0.005937
3585.000000	0.005982
3584.000000	0.006008
3583.000000	0.006013
3582.000000	0.006014
3581.000000	0.006024
3580.000000	0.006047
3579.000000	0.006082
3578.000000	0.006127
3577.000000	0.006181
3576.000000	0.006237
3575.000000	0.006288
3574.000000	0.006330
3573.000000	0.006360
3572.000000	0.006377
3571.000000	0.006391
3570.000000	0.006411
3569.000000	0.006442
3568.000000	0.006475
3567.000000	0.006504
3566.000000	0.006529
3565.000000	0.006552
3564.000000	0.006565
3563.000000	0.006568
3562.000000	0.006566
3561.000000	0.006566
3560.000000	0.006573
3559.000000	0.006593
3558.000000	0.006630
3557.000000	0.006683
3556.000000	0.006746
3555.000000	0.006804
3554.000000	0.006847
3553.000000	0.006870
3552.000000	0.006876
3551.000000	0.006876
3550.000000	0.006880
3549.000000	0.006895
3548.000000	0.006913
3547.000000	0.006927
3546.000000	0.006937
3545.000000	0.006952
3544.000000	0.006974
3543.000000	0.007002
3542.000000	0.007031
3541.000000	0.007058
3540.000000	0.007081
3539.000000	0.007100
3538.000000	0.007121
3537.000000	0.007148
3536.000000	0.007180
3535.000000	0.007207
3534.000000	0.007223
3533.000000	0.007232
3532.000000	0.007246
3531.000000	0.007276
3530.000000	0.007325
3529.000000	0.007389
3528.000000	0.007454
3527.000000	0.007510
3526.000000	0.007548
3525.000000	0.007570
3524.000000	0.007578
3523.000000	0.007580
3522.000000	0.007587
3521.000000	0.007611
3520.000000	0.007654
3519.000000	0.007707
3518.000000	0.007757
3517.000000	0.007793
3516.000000	0.007808
3515.000000	0.007807
3514.000000	0.007800
3513.000000	0.007802
3512.000000	0.007824
3511.000000	0.007863
3510.000000	0.007906
3509.000000	0.007945
3508.000000	0.007979
3507.000000	0.008016
3506.000000	0.008060
3505.000000	0.008107
3504.000000	0.008145
3503.000000	0.008165
3502.000000	0.008165
3501.000000	0.008153
3500.000000	0.008140
3499.000000	0.008138
3498.000000	0.008150
3497.000000	0.008176
3496.000000	0.008211
3495.000000	0.008250
3494.000000	0.008290
3493.000000	0.008324
3492.000000	0.008351
3491.000000	0.008369
3490.000000	0.008379
3489.000000	0.008387
3488.000000	0.008397
3487.000000	0.008416
3486.000000	0.008445
3485.000000	0.008483
3484.000000	0.008519
3483.000000	0.008543
3482.000000	0.008552
3481.000000	0.008555
3480.000000	0.008559
3479.000000	0.008569
3478.000000	0.008587
3477.000000	0.008615
3476.000000	0.008648
3475.000000	0.008676
3474.000000	0.008696
3473.000000	0.008710
3472.000000	0.008724
3471.000000	0.008744
3470.000000	0.008772
3469.000000	0.008812
3468.000000	0.008865
3467.000000	0.008923
3466.000000	0.008977
3465.000000	0.009012
3464.000000	0.009026
3463.000000	0.009022
3462.000000	0.009012
3461.000000	0.009004
3460.000000	0.009002
3459.000000	0.009008
3458.000000	0.009029
3457.000000	0.009069
3456.000000	0.009128
3455.000000	0.009189
3454.000000	0.009235
3453.000000	0.009258
3452.000000	0.009262
3451.000000	0.009263
3450.000000	0.009277
3449.000000	0.009308
3448.000000	0.009347
3447.000000	0.009383
3446.000000	0.009415
3445.000000	0.009448
3444.000000	0.009483
3443.000000	0.009512
3442.000000	0.009525
3441.000000	0.009525
3440.000000	0.009528
3439.000000	0.009543
3438.000000	0.009570
3437.000000	0.009595
3436.000000	0.009614
3435.000000	0.009628
3434.000000	0.009648
3433.000000	0.009675
3432.000000	0.009710
3431.000000	0.009749
3430.000000	0.009793
3429.000000	0.009837
3428.000000	0.009872
3427.000000	0.009892
3426.000000	0.009902
3425.000000	0.009917
3424.000000	0.009946
3423.000000	0.009986
3422.000000	0.010028
3421.000000	0.010069
3420.000000	0.010108
3419.000000	0.010140
3418.000000	0.010158
3417.000000	0.010162
3416.000000	0.010164
3415.000000	0.010173
3414.000000	0.010192
3413.000000	0.010210
3412.000000	0.010219
3411.000000	0.010224
3410.000000	0.010239
3409.000000	0.010272
3408.000000	0.010314
3407.000000	0.010348
3406.000000	0.010365
3405.000000	0.010375
3404.000000	0.010391
3403.000000	0.010417
3402.000000	0.010446
3401.000000	0.010469
3400.000000	0.010485
3399.000000	0.010496
3398.000000	0.010510
3397.000000	0.010532
3396.000000	0.010564
3395.000000	0.010600
3394.000000	0.010632
3393.000000	0.010654
3392.000000	0.010674
3391.000000	0.010698
3390.000000	0.010726
3389.000000	0.010748
3388.000000	0.010762
3387.000000	0.010775
3386.000000	0.010798
3385.000000	0.010831
3384.000000	0.010871
3383.000000	0.010908
3382.000000	0.010932
3381.000000	0.010938
3380.000000	0.010934
3379.000000	0.010935
3378.000000	0.010956
3377.000000	0.010997
3376.000000	0.011048
3375.000000	0.011093
3374.000000	0.011119
3373.000000	0.011127
3372.000000	0.011131
3371.000000	0.011149
3370.000000	0.011188
3369.000000	0.011239
3368.000000	0.011290
3367.000000	0.011333
3366.000000	0.011369
3365.000000	0.011399
3364.000000	0.011424
3363.000000	0.011448
3362.000000	0.011479
3361.000000	0.011519
3360.000000	0.011560
3359.000000	0.011594
3358.000000	0.011624
3357.000000	0.011657
3356.000000	0.011696
3355.000000	0.011739
3354.000000	0.011782
3353.000000	0.011823
3352.000000	0.011864
3351.000000	0.011905
3350.000000	0.011946
3349.000000	0.011987
3348.000000	0.012026
3347.000000	0.012063
3346.000000	0.012096
3345.000000	0.012125
3344.000000	0.012151
3343.000000	0.012183
3342.000000	0.012226
3341.000000	0.012279
3340.000000	0.012327
3339.000000	0.012360
3338.000000	0.012378
3337.000000	0.012390
3336.000000	0.012408
3335.000000	0.012434
3334.000000	0.012461
3333.000000	0.012482
3332.000000	0.012498
3331.000000	0.012517
3330.000000	0.012544
3329.000000	0.012574
3328.000000	0.012599
3327.000000	0.012617
3326.000000	0.012637
3325.000000	0.012669
3324.000000	0.012715
3323.000000	0.012770
3322.000000	0.012823
3321.000000	0.012865
3320.000000	0.012889
3319.000000	0.012900
3318.000000	0.012913
3317.000000	0.012937
3316.000000	0.012975
3315.000000	0.013015
3314.000000	0.013052
3313.000000	0.013082
3312.000000	0.013106
3311.000000	0.013126
3310.000000	0.013144
3309.000000	0.013162
3308.000000	0.013182
3307.000000	0.013205
3306.000000	0.013228
3305.000000	0.013249
3304.000000	0.013268
3303.000000	0.013288
3302.000000	0.013316
3301.000000	0.013350
3300.000000	0.013383
3299.000000	0.013404
3298.000000	0.013413
3297.000000	0.013419
3296.000000	0.013435
3295.000000	0.013464
3294.000000	0.013500
3293.000000	0.013531
3292.000000	0.013551
3291.000000	0.013559
3290.000000	0.013559
3289.000000	0.013560
3288.000000	0.013564
3287.000000	0.013568
3286.000000	0.013566
3285.000000	0.013556
3284.000000	0.013542
3283.000000	0.013533
3282.000000	0.013537
3281.000000	0.013550
3280.000000	0.013561
3279.000000	0.013563
3278.000000	0.013554
3277.000000	0.013544
3276.000000	0.013535
3275.000000	0.013528
3274.000000	0.013520
3273.000000	0.013507
3272.000000	0.013487
3271.000000	0.013461
3270.000000	0.013433
3269.000000	0.013416
3268.000000	0.013416
3267.000000	0.013425
3266.000000	0.013429
3265.000000	0.013412
3264.000000	0.013379
3263.000000	0.013344
3262.000000	0.013321
3261.000000	0.013312
3260.000000	0.013307
3259.000000	0.013292
3258.000000	0.013262
3257.000000	0.013225
3256.000000	0.013186
3255.000000	0.013147
3254.000000	0.013106
3253.000000	0.013064
3252.000000	0.013026
3251.000000	0.012995
3250.000000	0.012975
3249.000000	0.012961
3248.000000	0.012945
3247.000000	0.012920
3246.000000	0.012886
3245.000000	0.012851
3244.000000	0.012819
3243.000000	0.012792
3242.000000	0.012768
3241.000000	0.012748
3240.000000	0.012731
3239.000000	0.012714
3238.000000	0.012690
3237.000000	0.012664
3236.000000	0.012642
3235.000000	0.012631
3234.000000	0.012625
3233.000000	0.012613
3232.000000	0.012589
3231.000000	0.012559
3230.000000	0.012528
3229.000000	0.012503
3228.000000	0.012486
3227.000000	0.012478
3226.000000	0.012475
3225.000000	0.012469
3224.000000	0.012455
3223.000000	0.012441
3222.000000	0.012432
3221.000000	0.012429
3220.000000	0.012422
3219.000000	0.012408
3218.000000	0.012393
3217.000000	0.012387
3216.000000	0.012390
3215.000000	0.012392
3214.000000	0.012383
3213.000000	0.012357
3212.000000	0.012318
3211.000000	0.012274
3210.000000	0.012236
3209.000000	0.012212
3208.000000	0.012203
3207.000000	0.012206
3206.000000	0.012209
3205.000000	0.012205
3204.000000	0.012189
3203.000000	0.012165
3202.000000	0.012142
3201.000000	0.012129
3200.000000	0.012124
3199.000000	0.012112
3198.000000	0.012079
3197.000000	0.012031
3196.000000	0.011986
3195.000000	0.011962
3194.000000	0.011959
3193.000000	0.011964
3192.000000	0.011963
3191.000000	0.011946
3190.000000	0.011911
3189.000000	0.011868
3188.000000	0.011830
3187.000000	0.011806
3186.000000	0.011791
3185.000000	0.011774
3184.000000	0.011750
3183.000000	0.011726
3182.000000	0.011706
3181.000000	0.011691
3180.000000	0.011676
3179.000000	0.011656
3178.000000	0.011627
3177.000000	0.011589
3176.000000	0.011552
3175.000000	0.011529
3174.000000	0.011521
3173.000000	0.011519
3172.000000	0.011508
3171.000000	0.011485
3170.000000	0.011458
3169.000000	0.011432
3168.000000	0.011401
3167.000000	0.011356
3166.000000	0.011298
3165.000000	0.011237
3164.000000	0.011187
3163.000000	0.011157
3162.000000	0.011143
3161.000000	0.011137
3160.000000	0.011129
3159.000000	0.011115
3158.000000	0.011097
3157.000000	0.011076
3156.000000	0.011049
3155.000000	0.011010
3154.000000	0.010964
3153.000000	0.010927
3152.000000	0.010916
3151.000000	0.010926
3150.000000	0.010935
3149.000000	0.010920
3148.000000	0.010879
3147.000000	0.010834
3146.000000	0.010807
3145.000000	0.010809
3144.000000	0.010829
3143.000000	0.010844
3142.000000	0.010839
3141.000000	0.010811
3140.000000	0.010771
3139.000000	0.010729
3138.000000	0.010694
3137.000000	0.010670
3136.000000	0.010656
3135.000000	0.010651
3134.000000	0.010644
3133.000000	0.010624
3132.000000	0.010588
3131.000000	0.010546
3130.000000	0.010514
3129.000000	0.010495
3128.000000	0.010488
3127.000000	0.010485
3126.000000	0.010486
3125.000000	0.010487
3124.000000	0.010485
3123.000000	0.010479
3122.000000	0.010467
3121.000000	0.010450
3120.000000	0.010430
3119.000000	0.010414
3118.000000	0.010406
3117.000000	0.010412
3116.000000	0.010426
3115.000000	0.010440
3114.000000	0.010444
3113.000000	0.010435
3112.000000	0.010417
3111.000000	0.010404
3110.000000	0.010409
3109.000000	0.010430
3108.000000	0.010457
3107.000000	0.010477
3106.000000	0.010480
3105.000000	0.010469
3104.000000	0.010450
3103.000000	0.010429
3102.000000	0.010410
3101.000000	0.010397
3100.000000	0.010392
3099.000000	0.010400
3098.000000	0.010418
3097.000000	0.010441
3096.000000	0.010463
3095.000000	0.010481
3094.000000	0.010494
3093.000000	0.010496
3092.000000	0.010484
3091.000000	0.010468
3090.000000	0.010466
3089.000000	0.010489
3088.000000	0.010524
3087.000000	0.010549
3086.000000	0.010548
3085.000000	0.010526
3084.000000	0.010504
3083.000000	0.010498
3082.000000	0.010511
3081.000000	0.010535
3080.000000	0.010558
3079.000000	0.010571
3078.000000	0.010569
3077.000000	0.010557
3076.000000	0.010539
3075.000000	0.010528
3074.000000	0.010529
3073.000000	0.010540
3072.000000	0.010555
3071.000000	0.010570
3070.000000	0.010584
3069.000000	0.010594
3068.000000	0.010596
3067.000000	0.010589
3066.000000	0.010575
3065.000000	0.010557
3064.000000	0.010537
3063.000000	0.010520
3062.000000	0.010511
3061.000000	0.010510
3060.000000	0.010508
3059.000000	0.010498
3058.000000	0.010475
3057.000000	0.010445
3056.000000	0.010419
3055.000000	0.010404
3054.000000	0.010402
3053.000000	0.010405
3052.000000	0.010404
3051.000000	0.010394
3050.000000	0.010376
3049.000000	0.010352
3048.000000	0.010324
3047.000000	0.010290
3046.000000	0.010258
3045.000000	0.010233
3044.000000	0.010216
3043.000000	0.010203
3042.000000	0.010185
3041.000000	0.010162
3040.000000	0.010134
3039.000000	0.010107
3038.000000	0.010084
3037.000000	0.010067
3036.000000	0.010057
3035.000000	0.010049
3034.000000	0.010034
3033.000000	0.010011
3032.000000	0.009984
3031.000000	0.009961
3030.000000	0.009944
3029.000000	0.009926
3028.000000	0.009902
3027.000000	0.009870
3026.000000	0.009836
3025.000000	0.009804
3024.000000	0.009779
3023.000000	0.009766
3022.000000	0.009765
3021.000000	0.009772
3020.000000	0.009776
3019.000000	0.009768
3018.000000	0.009750
3017.000000	0.009730
3016.000000	0.009713
3015.000000	0.009704
3014.000000	0.009701
3013.000000	0.009702
3012.000000	0.009699
3011.000000	0.009686
3010.000000	0.009667
3009.000000	0.009650
3008.000000	0.009645
3007.000000	0.009650
3006.000000	0.009658
3005.000000	0.009659
3004.000000	0.009652
3003.000000	0.009643
3002.000000	0.009636
3001.000000	0.009630
3000.000000	0.009623
2999.000000	0.009616
2998.000000	0.009616
2997.000000	0.009628
2996.000000	0.009653
2995.000000	0.009684
2994.000000	0.009717
2993.000000	0.009746
2992.000000	0.009767
2991.000000	0.009781
2990.000000	0.009793
2989.000000	0.009815
2988.000000	0.009846
2987.000000	0.009878
2986.000000	0.009906
2985.000000	0.009933
2984.000000	0.009973
2983.000000	0.010031
2982.000000	0.010105
2981.000000	0.010186
2980.000000	0.010262
2979.000000	0.010328
2978.000000	0.010382
2977.000000	0.010429
2976.000000	0.010478
2975.000000	0.010534
2974.000000	0.010605
2973.000000	0.010690
2972.000000	0.010787
2971.000000	0.010889
2970.000000	0.010995
2969.000000	0.011114
2968.000000	0.011253
2967.000000	0.011406
2966.000000	0.011561
2965.000000	0.011708
2964.000000	0.011851
2963.000000	0.011992
2962.000000	0.012128
2961.000000	0.012248
2960.000000	0.012348
2959.000000	0.012431
2958.000000	0.012508
2957.000000	0.012585
2956.000000	0.012657
2955.000000	0.012711
2954.000000	0.012735
2953.000000	0.012728
2952.000000	0.012698
2951.000000	0.012661
2950.000000	0.012635
2949.000000	0.012632
2948.000000	0.012652
2947.000000	0.012690
2946.000000	0.012741
2945.000000	0.012815
2944.000000	0.012920
2943.000000	0.013058
2942.000000	0.013214
2941.000000	0.013379
2940.000000	0.013552
2939.000000	0.013748
2938.000000	0.013980
2937.000000	0.014248
2936.000000	0.014544
2935.000000	0.014855
2934.000000	0.015183
2933.000000	0.015535
2932.000000	0.015915
2931.000000	0.016316
2930.000000	0.016720
2929.000000	0.017108
2928.000000	0.017471
2927.000000	0.017814
2926.000000	0.018150
2925.000000	0.018485
2924.000000	0.018810
2923.000000	0.019103
2922.000000	0.019345
2921.000000	0.019529
2920.000000	0.019654
2919.000000	0.019705
2918.000000	0.019650
2917.000000	0.019452
2916.000000	0.019095
2915.000000	0.018596
2914.000000	0.018001
2913.000000	0.017373
2912.000000	0.016771
2911.000000	0.016238
2910.000000	0.015787
2909.000000	0.015411
2908.000000	0.015090
2907.000000	0.014805
2906.000000	0.014546
2905.000000	0.014314
2904.000000	0.014112
2903.000000	0.013939
2902.000000	0.013780
2901.000000	0.013624
2900.000000	0.013475
2899.000000	0.013347
2898.000000	0.013247
2897.000000	0.013162
2896.000000	0.013070
2895.000000	0.012960
2894.000000	0.012833
2893.000000	0.012701
2892.000000	0.012572
2891.000000	0.012448
2890.000000	0.012334
2889.000000	0.012233
2888.000000	0.012157
2887.000000	0.012107
2886.000000	0.012077
2885.000000	0.012049
2884.000000	0.012010
2883.000000	0.011964
2882.000000	0.011922
2881.000000	0.011894
2880.000000	0.011884
2879.000000	0.011887
2878.000000	0.011897
2877.000000	0.011912
2876.000000	0.011933
2875.000000	0.011963
2874.000000	0.011999
2873.000000	0.012029
2872.000000	0.012042
2871.000000	0.012038
2870.000000	0.012026
2869.000000	0.012021
2868.000000	0.012034
2867.000000	0.012065
2866.000000	0.012117
2865.000000	0.012188
2864.000000	0.012281
2863.000000	0.012398
2862.000000	0.012545
2861.000000	0.012723
2860.000000	0.012932
2859.000000	0.013168
2858.000000	0.013428
2857.000000	0.013711
2856.000000	0.014018
2855.000000	0.014347
2854.000000	0.014686
2853.000000	0.015013
2852.000000	0.015290
2851.000000	0.015470
2850.000000	0.015500
2849.000000	0.015346
2848.000000	0.015006
2847.000000	0.014519
2846.000000	0.013953
2845.000000	0.013380
2844.000000	0.012849
2843.000000	0.012385
2842.000000	0.011994
2841.000000	0.011677
2840.000000	0.011431
2839.000000	0.011241
2838.000000	0.011086
2837.000000	0.010948
2836.000000	0.010819
2835.000000	0.010701
2834.000000	0.010596
2833.000000	0.010503
2832.000000	0.010424
2831.000000	0.010361
2830.000000	0.010310
2829.000000	0.010262
2828.000000	0.010206
2827.000000	0.010144
2826.000000	0.010081
2825.000000	0.010031
2824.000000	0.009997
2823.000000	0.009973
2822.000000	0.009942
2821.000000	0.009894
2820.000000	0.009838
2819.000000	0.009791
2818.000000	0.009764
2817.000000	0.009752
2816.000000	0.009740
2815.000000	0.009723
2814.000000	0.009696
2813.000000	0.009660
2812.000000	0.009612
2811.000000	0.009558
2810.000000	0.009507
2809.000000	0.009469
2808.000000	0.009447
2807.000000	0.009437
2806.000000	0.009429
2805.000000	0.009418
2804.000000	0.009404
2803.000000	0.009391
2802.000000	0.009377
2801.000000	0.009356
2800.000000	0.009333
2799.000000	0.009316
2798.000000	0.009311
2797.000000	0.009312
2796.000000	0.009306
2795.000000	0.009288
2794.000000	0.009260
2793.000000	0.009230
2792.000000	0.009204
2791.000000	0.009190
2790.000000	0.009184
2789.000000	0.009178
2788.000000	0.009160
2787.000000	0.009134
2786.000000	0.009110
2785.000000	0.009094
2784.000000	0.009084
2783.000000	0.009075
2782.000000	0.009067
2781.000000	0.009060
2780.000000	0.009050
2779.000000	0.009036
2778.000000	0.009019
2777.000000	0.009003
2776.000000	0.008993
2775.000000	0.008988
2774.000000	0.008987
2773.000000	0.008984
2772.000000	0.008974
2771.000000	0.008957
2770.000000	0.008935
2769.000000	0.008913
2768.000000	0.008892
2767.000000	0.008877
2766.000000	0.008869
2765.000000	0.008864
2764.000000	0.008858
2763.000000	0.008851
2762.000000	0.008843
2761.000000	0.008830
2760.000000	0.008809
2759.000000	0.008783
2758.000000	0.008766
2757.000000	0.008768
2756.000000	0.008780
2755.000000	0.008787
2754.000000	0.008782
2753.000000	0.008769
2752.000000	0.008755
2751.000000	0.008744
2750.000000	0.008735
2749.000000	0.008727
2748.000000	0.008719
2747.000000	0.008710
2746.000000	0.008694
2745.000000	0.008671
2744.000000	0.008643
2743.000000	0.008618
2742.000000	0.008602
2741.000000	0.008601
2740.000000	0.008613
2739.000000	0.008635
2738.000000	0.008655
2737.000000	0.008663
2736.000000	0.008654
2735.000000	0.008632
2734.000000	0.008607
2733.000000	0.008589
2732.000000	0.008581
2731.000000	0.008585
2730.000000	0.008597
2729.000000	0.008613
2728.000000	0.008622
2727.000000	0.008619
2726.000000	0.008604
2725.000000	0.008581
2724.000000	0.008556
2723.000000	0.008538
2722.000000	0.008526
2721.000000	0.008520
2720.000000	0.008516
2719.000000	0.008512
2718.000000	0.008505
2717.000000	0.008491
2716.000000	0.008470
2715.000000	0.008442
2714.000000	0.008415
2713.000000	0.008394
2712.000000	0.008385
2711.000000	0.008393
2710.000000	0.008409
2709.000000	0.008422
2708.000000	0.008420
2707.000000	0.008407
2706.000000	0.008394
2705.000000	0.008387
2704.000000	0.008386
2703.000000	0.008392
2702.000000	0.008406
2701.000000	0.008423
2700.000000	0.008433
2699.000000	0.008430
2698.000000	0.008415
2697.000000	0.008396
2696.000000	0.008380
2695.000000	0.008366
2694.000000	0.008353
2693.000000	0.008339
2692.000000	0.008325
2691.000000	0.008316
2690.000000	0.008314
2689.000000	0.008317
2688.000000	0.008317
2687.000000	0.008314
2686.000000	0.008311
2685.000000	0.008316
2684.000000	0.008327
2683.000000	0.008339
2682.000000	0.008346
2681.000000	0.008344
2680.000000	0.008337
2679.000000	0.008329
2678.000000	0.008322
2677.000000	0.008312
2676.000000	0.008296
2675.000000	0.008272
2674.000000	0.008245
2673.000000	0.008220
2672.000000	0.008208
2671.000000	0.008212
2670.000000	0.008231
2669.000000	0.008252
2668.000000	0.008267
2667.000000	0.008270
2666.000000	0.008265
2665.000000	0.008257
2664.000000	0.008251
2663.000000	0.008252
2662.000000	0.008259
2661.000000	0.008262
2660.000000	0.008254
2659.000000	0.008236
2658.000000	0.008217
2657.000000	0.008201
2656.000000	0.008185
2655.000000	0.008163
2654.000000	0.008136
2653.000000	0.008114
2652.000000	0.008099
2651.000000	0.008091
2650.000000	0.008086
2649.000000	0.008082
2648.000000	0.008077
2647.000000	0.008064
2646.000000	0.008039
2645.000000	0.008002
2644.000000	0.007963
2643.000000	0.007932
2642.000000	0.007909
2641.000000	0.007885
2640.000000	0.007862
2639.000000	0.007849
2638.000000	0.007849
2637.000000	0.007851
2636.000000	0.007838
2635.000000	0.007809
2634.000000	0.007779
2633.000000	0.007760
2632.000000	0.007741
2631.000000	0.007712
2630.000000	0.007676
2629.000000	0.007651
2628.000000	0.007645
2627.000000	0.007648
2626.000000	0.007643
2625.000000	0.007624
2624.000000	0.007597
2623.000000	0.007571
2622.000000	0.007550
2621.000000	0.007532
2620.000000	0.007517
2619.000000	0.007504
2618.000000	0.007487
2617.000000	0.007458
2616.000000	0.007421
2615.000000	0.007388
2614.000000	0.007371
2613.000000	0.007370
2612.000000	0.007375
2611.000000	0.007385
2610.000000	0.007405
2609.000000	0.007429
2608.000000	0.007446
2607.000000	0.007446
2606.000000	0.007434
2605.000000	0.007414
2604.000000	0.007382
2603.000000	0.007340
2602.000000	0.007299
2601.000000	0.007275
2600.000000	0.007270
2599.000000	0.007275
2598.000000	0.007277
2597.000000	0.007270
2596.000000	0.007258
2595.000000	0.007245
2594.000000	0.007234
2593.000000	0.007225
2592.000000	0.007214
2591.000000	0.007208
2590.000000	0.007215
2589.000000	0.007232
2588.000000	0.007243
2587.000000	0.007230
2586.000000	0.007196
2585.000000	0.007164
2584.000000	0.007151
2583.000000	0.007158
2582.000000	0.007169
2581.000000	0.007168
2580.000000	0.007149
2579.000000	0.007125
2578.000000	0.007113
2577.000000	0.007121
2576.000000	0.007132
2575.000000	0.007125
2574.000000	0.007093
2573.000000	0.007046
2572.000000	0.007002
2571.000000	0.006979
2570.000000	0.006985
2569.000000	0.007012
2568.000000	0.007040
2567.000000	0.007050
2566.000000	0.007035
2565.000000	0.007003
2564.000000	0.006962
2563.000000	0.006924
2562.000000	0.006905
2561.000000	0.006907
2560.000000	0.006922
2559.000000	0.006939
2558.000000	0.006954
2557.000000	0.006976
2556.000000	0.007006
2555.000000	0.007029
2554.000000	0.007030
2553.000000	0.007004
2552.000000	0.006964
2551.000000	0.006922
2550.000000	0.006887
2549.000000	0.006864
2548.000000	0.006855
2547.000000	0.006862
2546.000000	0.006885
2545.000000	0.006915
2544.000000	0.006942
2543.000000	0.006955
2542.000000	0.006946
2541.000000	0.006919
2540.000000	0.006889
2539.000000	0.006871
2538.000000	0.006871
2537.000000	0.006877
2536.000000	0.006875
2535.000000	0.006865
2534.000000	0.006856
2533.000000	0.006852
2532.000000	0.006846
2531.000000	0.006830
2530.000000	0.006808
2529.000000	0.006790
2528.000000	0.006787
2527.000000	0.006800
2526.000000	0.006825
2525.000000	0.006854
2524.000000	0.006876
2523.000000	0.006883
2522.000000	0.006876
2521.000000	0.006856
2520.000000	0.006819
2519.000000	0.006771
2518.000000	0.006727
2517.000000	0.006709
2516.000000	0.006730
2515.000000	0.006784
2514.000000	0.006847
2513.000000	0.006897
2512.000000	0.006922
2511.000000	0.006924
2510.000000	0.006915
2509.000000	0.006902
2508.000000	0.006883
2507.000000	0.006857
2506.000000	0.006829
2505.000000	0.006812
2504.000000	0.006818
2503.000000	0.006844
2502.000000	0.006867
2501.000000	0.006863
2500.000000	0.006833
2499.000000	0.006800
2498.000000	0.006789
2497.000000	0.006791
2496.000000	0.006775
2495.000000	0.006728
2494.000000	0.006668
2493.000000	0.006623
2492.000000	0.006604
2491.000000	0.006604
2490.000000	0.006616
2489.000000	0.006636
2488.000000	0.006661
2487.000000	0.006677
2486.000000	0.006674
2485.000000	0.006655
2484.000000	0.006640
2483.000000	0.006645
2482.000000	0.006666
2481.000000	0.006681
2480.000000	0.006680
2479.000000	0.006679
2478.000000	0.006697
2477.000000	0.006728
2476.000000	0.006749
2475.000000	0.006750
2474.000000	0.006737
2473.000000	0.006723
2472.000000	0.006715
2471.000000	0.006716
2470.000000	0.006723
2469.000000	0.006720
2468.000000	0.006686
2467.000000	0.006628
2466.000000	0.006580
2465.000000	0.006566
2464.000000	0.006575
2463.000000	0.006591
2462.000000	0.006614
2461.000000	0.006654
2460.000000	0.006704
2459.000000	0.006742
2458.000000	0.006759
2457.000000	0.006762
2456.000000	0.006759
2455.000000	0.006743
2454.000000	0.006713
2453.000000	0.006682
2452.000000	0.006663
2451.000000	0.006657
2450.000000	0.006653
2449.000000	0.006645
2448.000000	0.006639
2447.000000	0.006648
2446.000000	0.006672
2445.000000	0.006693
2444.000000	0.006690
2443.000000	0.006662
2442.000000	0.006630
2441.000000	0.006611
2440.000000	0.006605
2439.000000	0.006596
2438.000000	0.006575
2437.000000	0.006541
2436.000000	0.006502
2435.000000	0.006473
2434.000000	0.006470
2433.000000	0.006495
2432.000000	0.006534
2431.000000	0.006568
2430.000000	0.006588
2429.000000	0.006590
2428.000000	0.006575
2427.000000	0.006548
2426.000000	0.006522
2425.000000	0.006508
2424.000000	0.006506
2423.000000	0.006506
2422.000000	0.006506
2421.000000	0.006515
2420.000000	0.006540
2419.000000	0.006574
2418.000000	0.006597
2417.000000	0.006592
2416.000000	0.006563
2415.000000	0.006534
2414.000000	0.006525
2413.000000	0.006534
2412.000000	0.006544
2411.000000	0.006549
2410.000000	0.006556
2409.000000	0.006569
2408.000000	0.006580
2407.000000	0.006577
2406.000000	0.006560
2405.000000	0.006533
2404.000000	0.006505
2403.000000	0.006488
2402.000000	0.006491
2401.000000	0.006504
2400.000000	0.006504
2399.000000	0.006479
2398.000000	0.006449
2397.000000	0.006439
2396.000000	0.006461
2395.000000	0.006508
2394.000000	0.006565
2393.000000	0.006617
2392.000000	0.006643
2391.000000	0.006630
2390.000000	0.006588
2389.000000	0.006546
2388.000000	0.006527
2387.000000	0.006536
2386.000000	0.006551
2385.000000	0.006543
2384.000000	0.006497
2383.000000	0.006420
2382.000000	0.006334
2381.000000	0.006253
2380.000000	0.006187
2379.000000	0.006168
2378.000000	0.006230
2377.000000	0.006368
2376.000000	0.006518
2375.000000	0.006614
2374.000000	0.006631
2373.000000	0.006574
2372.000000	0.006456
2371.000000	0.006308
2370.000000	0.006181
2369.000000	0.006107
2368.000000	0.006083
2367.000000	0.006099
2366.000000	0.006154
2365.000000	0.006222
2364.000000	0.006268
2363.000000	0.006308
2362.000000	0.006392
2361.000000	0.006509
2360.000000	0.006602
2359.000000	0.006615
2358.000000	0.006551
2357.000000	0.006454
2356.000000	0.006377
2355.000000	0.006372
2354.000000	0.006378
2353.000000	0.006293
2352.000000	0.006116
2351.000000	0.005973
2350.000000	0.005974
2349.000000	0.006117
2348.000000	0.006311
2347.000000	0.006422
2346.000000	0.006413
2345.000000	0.006395
2344.000000	0.006469
2343.000000	0.006605
2342.000000	0.006685
2341.000000	0.006657
2340.000000	0.006579
2339.000000	0.006530
2338.000000	0.006518
2337.000000	0.006510
2336.000000	0.006496
2335.000000	0.006474
2334.000000	0.006426
2333.000000	0.006344
2332.000000	0.006281
2331.000000	0.006287
2330.000000	0.006373
2329.000000	0.006479
2328.000000	0.006587
2327.000000	0.006674
2326.000000	0.006728
2325.000000	0.006724
2324.000000	0.006668
2323.000000	0.006594
2322.000000	0.006549
2321.000000	0.006573
2320.000000	0.006680
2319.000000	0.006832
2318.000000	0.006970
2317.000000	0.007034
2316.000000	0.007015
2315.000000	0.006918
2314.000000	0.006784
2313.000000	0.006651
2312.000000	0.006560
2311.000000	0.006503
2310.000000	0.006459
2309.000000	0.006400
2308.000000	0.006328
2307.000000	0.006245
2306.000000	0.006175
2305.000000	0.006147
2304.000000	0.006180
2303.000000	0.006251
2302.000000	0.006315
2301.000000	0.006346
2300.000000	0.006358
2299.000000	0.006370
2298.000000	0.006390
2297.000000	0.006408
2296.000000	0.006418
2295.000000	0.006410
2294.000000	0.006388
2293.000000	0.006363
2292.000000	0.006357
2291.000000	0.006369
2290.000000	0.006381
2289.000000	0.006384
2288.000000	0.006392
2287.000000	0.006420
2286.000000	0.006453
2285.000000	0.006469
2284.000000	0.006459
2283.000000	0.006441
2282.000000	0.006433
2281.000000	0.006435
2280.000000	0.006434
2279.000000	0.006411
2278.000000	0.006356
2277.000000	0.006276
2276.000000	0.006205
2275.000000	0.006175
2274.000000	0.006189
2273.000000	0.006224
2272.000000	0.006261
2271.000000	0.006304
2270.000000	0.006359
2269.000000	0.006410
2268.000000	0.006429
2267.000000	0.006398
2266.000000	0.006329
2265.000000	0.006244
2264.000000	0.006149
2263.000000	0.006045
2262.000000	0.005947
2261.000000	0.005885
2260.000000	0.005880
2259.000000	0.005926
2258.000000	0.005995
2257.000000	0.006054
2256.000000	0.006085
2255.000000	0.006080
2254.000000	0.006045
2253.000000	0.006002
2252.000000	0.005974
2251.000000	0.005971
2250.000000	0.005976
2249.000000	0.005955
2248.000000	0.005895
2247.000000	0.005824
2246.000000	0.005794
2245.000000	0.005826
2244.000000	0.005883
2243.000000	0.005905
2242.000000	0.005874
2241.000000	0.005827
2240.000000	0.005808
2239.000000	0.005830
2238.000000	0.005872
2237.000000	0.005911
2236.000000	0.005933
2235.000000	0.005923
2234.000000	0.005881
2233.000000	0.005829
2232.000000	0.005807
2231.000000	0.005838
2230.000000	0.005908
2229.000000	0.005984
2228.000000	0.006042
2227.000000	0.006067
2226.000000	0.006047
2225.000000	0.005975
2224.000000	0.005875
2223.000000	0.005802
2222.000000	0.005806
2221.000000	0.005889
2220.000000	0.005995
2219.000000	0.006052
2218.000000	0.006020
2217.000000	0.005922
2216.000000	0.005828
2215.000000	0.005806
2214.000000	0.005872
2213.000000	0.005974
2212.000000	0.006044
2211.000000	0.006055
2210.000000	0.006010
2209.000000	0.005907
2208.000000	0.005754
2207.000000	0.005618
2206.000000	0.005599
2205.000000	0.005717
2204.000000	0.005857
2203.000000	0.005876
2202.000000	0.005743
2201.000000	0.005561
2200.000000	0.005443
2199.000000	0.005427
2198.000000	0.005477
2197.000000	0.005544
2196.000000	0.005605
2195.000000	0.005670
2194.000000	0.005765
2193.000000	0.005887
2192.000000	0.005980
2191.000000	0.005989
2190.000000	0.005914
2189.000000	0.005801
2188.000000	0.005692
2187.000000	0.005620
2186.000000	0.005634
2185.000000	0.005763
2184.000000	0.005949
2183.000000	0.006061
2182.000000	0.006011
2181.000000	0.005831
2180.000000	0.005633
2179.000000	0.005502
2178.000000	0.005459
2177.000000	0.005458
2176.000000	0.005425
2175.000000	0.005319
2174.000000	0.005188
2173.000000	0.005134
2172.000000	0.005205
2171.000000	0.005346
2170.000000	0.005453
2169.000000	0.005462
2168.000000	0.005375
2167.000000	0.005255
2166.000000	0.005205
2165.000000	0.005293
2164.000000	0.005462
2163.000000	0.005562
2162.000000	0.005488
2161.000000	0.005276
2160.000000	0.005043
2159.000000	0.004869
2158.000000	0.004775
2157.000000	0.004752
2156.000000	0.004768
2155.000000	0.004779
2154.000000	0.004795
2153.000000	0.004887
2152.000000	0.005111
2151.000000	0.005419
2150.000000	0.005702
2149.000000	0.005875
2148.000000	0.005913
2147.000000	0.005827
2146.000000	0.005651
2145.000000	0.005462
2144.000000	0.005360
2143.000000	0.005386
2142.000000	0.005478
2141.000000	0.005522
2140.000000	0.005453
2139.000000	0.005315
2138.000000	0.005206
2137.000000	0.005186
2136.000000	0.005231
2135.000000	0.005285
2134.000000	0.005336
2133.000000	0.005411
2132.000000	0.005513
2131.000000	0.005601
2130.000000	0.005641
2129.000000	0.005646
2128.000000	0.005643
2127.000000	0.005635
2126.000000	0.005611
2125.000000	0.005592
2124.000000	0.005629
2123.000000	0.005749
2122.000000	0.005916
2121.000000	0.006054
2120.000000	0.006098
2119.000000	0.006038
2118.000000	0.005928
2117.000000	0.005853
2116.000000	0.005868
2115.000000	0.005961
2114.000000	0.006071
2113.000000	0.006132
2112.000000	0.006106
2111.000000	0.006000
2110.000000	0.005861
2109.000000	0.005764
2108.000000	0.005759
2107.000000	0.005831
2106.000000	0.005909
2105.000000	0.005946
2104.000000	0.005947
2103.000000	0.005936
2102.000000	0.005923
2101.000000	0.005906
2100.000000	0.005907
2099.000000	0.005944
2098.000000	0.006001
2097.000000	0.006027
2096.000000	0.005992
2095.000000	0.005922
2094.000000	0.005874
2093.000000	0.005895
2092.000000	0.005983
2091.000000	0.006088
2090.000000	0.006137
2089.000000	0.006091
2088.000000	0.005980
2087.000000	0.005873
2086.000000	0.005813
2085.000000	0.005789
2084.000000	0.005766
2083.000000	0.005744
2082.000000	0.005757
2081.000000	0.005828
2080.000000	0.005931
2079.000000	0.005998
2078.000000	0.005965
2077.000000	0.005841
2076.000000	0.005709
2075.000000	0.005665
2074.000000	0.005735
2073.000000	0.005867
2072.000000	0.005988
2071.000000	0.006058
2070.000000	0.006074
2069.000000	0.006048
2068.000000	0.005999
2067.000000	0.005953
2066.000000	0.005920
2065.000000	0.005882
2064.000000	0.005811
2063.000000	0.005702
2062.000000	0.005581
2061.000000	0.005487
2060.000000	0.005455
2059.000000	0.005493
2058.000000	0.005572
2057.000000	0.005641
2056.000000	0.005672
2055.000000	0.005673
2054.000000	0.005651
2053.000000	0.005599
2052.000000	0.005536
2051.000000	0.005521
2050.000000	0.005590
2049.000000	0.005682
2048.000000	0.005699
2047.000000	0.005637
2046.000000	0.005584
2045.000000	0.005587
2044.000000	0.005598
2043.000000	0.005562
2042.000000	0.005478
2041.000000	0.005358
2040.000000	0.005191
2039.000000	0.005013
2038.000000	0.004922
2037.000000	0.004977
2036.000000	0.005106
2035.000000	0.005180
2034.000000	0.005153
2033.000000	0.005068
2032.000000	0.004957
2031.000000	0.004823
2030.000000	0.004703
2029.000000	0.004666
2028.000000	0.004731
2027.000000	0.004825
2026.000000	0.004853
2025.000000	0.004773
2024.000000	0.004628
2023.000000	0.004500
2022.000000	0.004451
2021.000000	0.004474
2020.000000	0.004508
2019.000000	0.004521
2018.000000	0.004552
2017.000000	0.004665
2016.000000	0.004872
2015.000000	0.005121
2014.000000	0.005333
2013.000000	0.005441
2012.000000	0.005435
2011.000000	0.005367
2010.000000	0.005280
2009.000000	0.005142
2008.000000	0.004898
2007.000000	0.004601
2006.000000	0.004423
2005.000000	0.004488
2004.000000	0.004762
2003.000000	0.005115
2002.000000	0.005444
2001.000000	0.005687
2000.000000	0.005790
1999.000000	0.005748
1998.000000	0.005631
1997.000000	0.005555
1996.000000	0.005589
1995.000000	0.005717
1994.000000	0.005862
1993.000000	0.005928
1992.000000	0.005866
1991.000000	0.005718
1990.000000	0.005566
1989.000000	0.005450
1988.000000	0.005363
1987.000000	0.005334
1986.000000	0.005442
1985.000000	0.005704
1984.000000	0.006010
1983.000000	0.006229
1982.000000	0.006352
1981.000000	0.006444
1980.000000	0.006502
1979.000000	0.006435
1978.000000	0.006194
1977.000000	0.005862
1976.000000	0.005571
1975.000000	0.005393
1974.000000	0.005336
1973.000000	0.005357
1972.000000	0.005365
1971.000000	0.005269
1970.000000	0.005063
1969.000000	0.004840
1968.000000	0.004710
1967.000000	0.004729
1966.000000	0.004884
1965.000000	0.005108
1964.000000	0.005313
1963.000000	0.005444
1962.000000	0.005499
1961.000000	0.005488
1960.000000	0.005402
1959.000000	0.005250
1958.000000	0.005094
1957.000000	0.005012
1956.000000	0.005021
1955.000000	0.005085
1954.000000	0.005169
1953.000000	0.005259
1952.000000	0.005333
1951.000000	0.005363
1950.000000	0.005350
1949.000000	0.005325
1948.000000	0.005320
1947.000000	0.005342
1946.000000	0.005377
1945.000000	0.005392
1944.000000	0.005357
1943.000000	0.005284
1942.000000	0.005238
1941.000000	0.005263
1940.000000	0.005339
1939.000000	0.005413
1938.000000	0.005472
1937.000000	0.005528
1936.000000	0.005577
1935.000000	0.005598
1934.000000	0.005589
1933.000000	0.005566
1932.000000	0.005523
1931.000000	0.005438
1930.000000	0.005335
1929.000000	0.005280
1928.000000	0.005314
1927.000000	0.005397
1926.000000	0.005444
1925.000000	0.005414
1924.000000	0.005334
1923.000000	0.005265
1922.000000	0.005247
1921.000000	0.005267
1920.000000	0.005276
1919.000000	0.005236
1918.000000	0.005151
1917.000000	0.005073
1916.000000	0.005049
1915.000000	0.005081
1914.000000	0.005146
1913.000000	0.005221
1912.000000	0.005291
1911.000000	0.005352
1910.000000	0.005405
1909.000000	0.005451
1908.000000	0.005479
1907.000000	0.005473
1906.000000	0.005425
1905.000000	0.005351
1904.000000	0.005284
1903.000000	0.005247
1902.000000	0.005246
1901.000000	0.005265
1900.000000	0.005279
1899.000000	0.005279
1898.000000	0.005288
1897.000000	0.005329
1896.000000	0.005391
1895.000000	0.005427
1894.000000	0.005409
1893.000000	0.005359
1892.000000	0.005325
1891.000000	0.005316
1890.000000	0.005312
1889.000000	0.005303
1888.000000	0.005295
1887.000000	0.005284
1886.000000	0.005250
1885.000000	0.005191
1884.000000	0.005144
1883.000000	0.005142
1882.000000	0.005181
1881.000000	0.005223
1880.000000	0.005244
1879.000000	0.005249
1878.000000	0.005245
1877.000000	0.005239
1876.000000	0.005245
1875.000000	0.005278
1874.000000	0.005318
1873.000000	0.005319
1872.000000	0.005256
1871.000000	0.005150
1870.000000	0.005050
1869.000000	0.004988
1868.000000	0.004981
1867.000000	0.005030
1866.000000	0.005117
1865.000000	0.005206
1864.000000	0.005263
1863.000000	0.005269
1862.000000	0.005236
1861.000000	0.005185
1860.000000	0.005140
1859.000000	0.005121
1858.000000	0.005128
1857.000000	0.005138
1856.000000	0.005125
1855.000000	0.005088
1854.000000	0.005051
1853.000000	0.005035
1852.000000	0.005036
1851.000000	0.005044
1850.000000	0.005045
1849.000000	0.005023
1848.000000	0.004973
1847.000000	0.004920
1846.000000	0.004904
1845.000000	0.004934
1844.000000	0.004969
1843.000000	0.004981
1842.000000	0.004988
1841.000000	0.005013
1840.000000	0.005038
1839.000000	0.005035
1838.000000	0.005011
1837.000000	0.005008
1836.000000	0.005037
1835.000000	0.005056
1834.000000	0.005028
1833.000000	0.004965
1832.000000	0.004907
1831.000000	0.004885
1830.000000	0.004899
1829.000000	0.004931
1828.000000	0.004959
1827.000000	0.004981
1826.000000	0.005008
1825.000000	0.005031
1824.000000	0.005039
1823.000000	0.005035
1822.000000	0.005036
1821.000000	0.005043
1820.000000	0.005043
1819.000000	0.005032
1818.000000	0.005026
1817.000000	0.005037
1816.000000	0.005051
1815.000000	0.005052
1814.000000	0.005040
1813.000000	0.005016
1812.000000	0.004979
1811.000000	0.004933
1810.000000	0.004901
1809.000000	0.004902
1808.000000	0.004932
1807.000000	0.004964
1806.000000	0.004971
1805.000000	0.004949
1804.000000	0.004915
1803.000000	0.004899
1802.000000	0.004918
1801.000000	0.004954
1800.000000	0.004984
1799.000000	0.004991
1798.000000	0.004975
1797.000000	0.004944
1796.000000	0.004916
1795.000000	0.004912
1794.000000	0.004934
1793.000000	0.004951
1792.000000	0.004934
1791.000000	0.004906
1790.000000	0.004899
1789.000000	0.004912
1788.000000	0.004928
1787.000000	0.004935
1786.000000	0.004932
1785.000000	0.004920
1784.000000	0.004901
1783.000000	0.004881
1782.000000	0.004874
1781.000000	0.004875
1780.000000	0.004868
1779.000000	0.004845
1778.000000	0.004814
1777.000000	0.004772
1776.000000	0.004707
1775.000000	0.004629
1774.000000	0.004573
1773.000000	0.004555
1772.000000	0.004546
1771.000000	0.004531
1770.000000	0.004531
1769.000000	0.004571
1768.000000	0.004626
1767.000000	0.004646
1766.000000	0.004621
1765.000000	0.004582
1764.000000	0.004558
1763.000000	0.004548
1762.000000	0.004542
1761.000000	0.004542
1760.000000	0.004558
1759.000000	0.004597
1758.000000	0.004673
1757.000000	0.004774
1756.000000	0.004858
1755.000000	0.004903
1754.000000	0.004947
1753.000000	0.005034
1752.000000	0.005155
1751.000000	0.005260
1750.000000	0.005335
1749.000000	0.005423
1748.000000	0.005522
1747.000000	0.005599
1746.000000	0.005652
1745.000000	0.005704
1744.000000	0.005750
1743.000000	0.005761
1742.000000	0.005750
1741.000000	0.005761
1740.000000	0.005788
1739.000000	0.005766
1738.000000	0.005676
1737.000000	0.005570
1736.000000	0.005507
1735.000000	0.005493
1734.000000	0.005478
1733.000000	0.005457
1732.000000	0.005445
1731.000000	0.005432
1730.000000	0.005409
1729.000000	0.005382
1728.000000	0.005352
1727.000000	0.005317
1726.000000	0.005282
1725.000000	0.005259
1724.000000	0.005244
1723.000000	0.005208
1722.000000	0.005143
1721.000000	0.005074
1720.000000	0.005018
1719.000000	0.004965
1718.000000	0.004917
1717.000000	0.004920
1716.000000	0.005008
1715.000000	0.005149
1714.000000	0.005285
1713.000000	0.005397
1712.000000	0.005505
1711.000000	0.005625
1710.000000	0.005759
1709.000000	0.005899
1708.000000	0.006039
1707.000000	0.006193
1706.000000	0.006360
1705.000000	0.006510
1704.000000	0.006620
1703.000000	0.006742
1702.000000	0.006992
1701.000000	0.007400
1700.000000	0.007760
1699.000000	0.007952
1698.000000	0.008115
1697.000000	0.008430
1696.000000	0.008926
1695.000000	0.009447
1694.000000	0.009864
1693.000000	0.010207
1692.000000	0.010537
1691.000000	0.010862
1690.000000	0.011158
1689.000000	0.011403
1688.000000	0.011593
1687.000000	0.011773
1686.000000	0.012044
1685.000000	0.012482
1684.000000	0.013004
1683.000000	0.013459
1682.000000	0.013831
1681.000000	0.014208
1680.000000	0.014600
1679.000000	0.014954
1678.000000	0.015270
1677.000000	0.015634
1676.000000	0.016088
1675.000000	0.016537
1674.000000	0.016886
1673.000000	0.017185
1672.000000	0.017536
1671.000000	0.017979
1670.000000	0.018487
1669.000000	0.019005
1668.000000	0.019475
1667.000000	0.019865
1666.000000	0.020212
1665.000000	0.020590
1664.000000	0.021038
1663.000000	0.021511
1662.000000	0.021946
1661.000000	0.022335
1660.000000	0.022710
1659.000000	0.023067
1658.000000	0.023365
1657.000000	0.023575
1656.000000	0.023732
1655.000000	0.023941
1654.000000	0.024315
1653.000000	0.024817
1652.000000	0.025223
1651.000000	0.025425
1650.000000	0.025549
1649.000000	0.025674
1648.000000	0.025826
1647.000000	0.025980
1646.000000	0.026101
1645.000000	0.026178
1644.000000	0.026229
1643.000000	0.026267
1642.000000	0.026283
1641.000000	0.026259
1640.000000	0.026182
1639.000000	0.026060
1638.000000	0.025934
1637.000000	0.025857
1636.000000	0.025837
1635.000000	0.025813
1634.000000	0.025732
1633.000000	0.025622
1632.000000	0.025510
1631.000000	0.025384
1630.000000	0.025217
1629.000000	0.025006
1628.000000	0.024766
1627.000000	0.024512
1626.000000	0.024253
1625.000000	0.023996
1624.000000	0.023729
1623.000000	0.023418
1622.000000	0.023060
1621.000000	0.022685
1620.000000	0.022320
1619.000000	0.021966
1618.000000	0.021604
1617.000000	0.021241
1616.000000	0.020918
1615.000000	0.020655
1614.000000	0.020417
1613.000000	0.020177
1612.000000	0.019925
1611.000000	0.019664
1610.000000	0.019396
1609.000000	0.019133
1608.000000	0.018893
1607.000000	0.018680
1606.000000	0.018486
1605.000000	0.018299
1604.000000	0.018119
1603.000000	0.017955
1602.000000	0.017818
1601.000000	0.017718
1600.000000	0.017655
1599.000000	0.017609
1598.000000	0.017555
1597.000000	0.017476
1596.000000	0.017377
1595.000000	0.017273
1594.000000	0.017175
1593.000000	0.017084
1592.000000	0.017002
1591.000000	0.016925
1590.000000	0.016848
1589.000000	0.016780
1588.000000	0.016736
1587.000000	0.016719
1586.000000	0.016715
1585.000000	0.016719
1584.000000	0.016744
1583.000000	0.016804
1582.000000	0.016885
1581.000000	0.016949
1580.000000	0.016975
1579.000000	0.016982
1578.000000	0.017010
1577.000000	0.017097
1576.000000	0.017234
1575.000000	0.017358
1574.000000	0.017435
1573.000000	0.017493
1572.000000	0.017580
1571.000000	0.017730
1570.000000	0.017928
1569.000000	0.018130
1568.000000	0.018306
1567.000000	0.018468
1566.000000	0.018640
1565.000000	0.018816
1564.000000	0.018951
1563.000000	0.019022
1562.000000	0.019070
1561.000000	0.019209
1560.000000	0.019529
1559.000000	0.019972
1558.000000	0.020392
1557.000000	0.020696
1556.000000	0.020978
1555.000000	0.021314
1554.000000	0.021680
1553.000000	0.022019
1552.000000	0.022337
1551.000000	0.022676
1550.000000	0.023038
1549.000000	0.023384
1548.000000	0.023693
1547.000000	0.023997
1546.000000	0.024327
1545.000000	0.024670
1544.000000	0.025013
1543.000000	0.025381
1542.000000	0.025800
1541.000000	0.026258
1540.000000	0.026674
1539.000000	0.026896
1538.000000	0.026842
1537.000000	0.026606
1536.000000	0.026289
1535.000000	0.025921
1534.000000	0.025491
1533.000000	0.025032
1532.000000	0.024631
1531.000000	0.024320
1530.000000	0.024055
1529.000000	0.023780
1528.000000	0.023476
1527.000000	0.023168
1526.000000	0.022882
1525.000000	0.022607
1524.000000	0.022327
1523.000000	0.022048
1522.000000	0.021783
1521.000000	0.021552
1520.000000	0.021380
1519.000000	0.021276
1518.000000	0.021222
1517.000000	0.021171
1516.000000	0.021080
1515.000000	0.020949
1514.000000	0.020799
1513.000000	0.020620
1512.000000	0.020367
1511.000000	0.020021
1510.000000	0.019627
1509.000000	0.019236
1508.000000	0.018867
1507.000000	0.018557
1506.000000	0.018349
1505.000000	0.018172
1504.000000	0.017991
1503.000000	0.017819
1502.000000	0.017645
1501.000000	0.017450
1500.000000	0.017211
1499.000000	0.016920
1498.000000	0.016607
1497.000000	0.016318
1496.000000	0.016082
1495.000000	0.015894
1494.000000	0.015738
1493.000000	0.015589
1492.000000	0.015414
1491.000000	0.015185
1490.000000	0.014931
1489.000000	0.014731
1488.000000	0.014619
1487.000000	0.014557
1486.000000	0.014500
1485.000000	0.014442
1484.000000	0.014393
1483.000000	0.014360
1482.000000	0.014339
1481.000000	0.014334
1480.000000	0.014358
1479.000000	0.014419
1478.000000	0.014516
1477.000000	0.014624
1476.000000	0.014724
1475.000000	0.014842
1474.000000	0.015057
1473.000000	0.015419
1472.000000	0.015887
1471.000000	0.016346
1470.000000	0.016732
1469.000000	0.017043
1468.000000	0.017289
1467.000000	0.017488
1466.000000	0.017667
1465.000000	0.017825
1464.000000	0.017936
1463.000000	0.017998
1462.000000	0.018041
1461.000000	0.018079
1460.000000	0.018098
1459.000000	0.018113
1458.000000	0.018197
1457.000000	0.018408
1456.000000	0.018658
1455.000000	0.018838
1454.000000	0.018964
1453.000000	0.019051
1452.000000	0.019081
1451.000000	0.019046
1450.000000	0.018983
1449.000000	0.018934
1448.000000	0.018900
1447.000000	0.018866
1446.000000	0.018835
1445.000000	0.018804
1444.000000	0.018769
1443.000000	0.018727
1442.000000	0.018680
1441.000000	0.018624
1440.000000	0.018550
1439.000000	0.018463
1438.000000	0.018382
1437.000000	0.018302
1436.000000	0.018200
1435.000000	0.018096
1434.000000	0.018031
1433.000000	0.018004
1432.000000	0.017978
1431.000000	0.017918
1430.000000	0.017837
1429.000000	0.017768
1428.000000	0.017719
1427.000000	0.017680
1426.000000	0.017663
1425.000000	0.017671
1424.000000	0.017672
1423.000000	0.017632
1422.000000	0.017568
1421.000000	0.017535
1420.000000	0.017564
1419.000000	0.017641
1418.000000	0.017757
1417.000000	0.017897
1416.000000	0.018022
1415.000000	0.018108
1414.000000	0.018167
1413.000000	0.018221
1412.000000	0.018265
1411.000000	0.018279
1410.000000	0.018266
1409.000000	0.018251
1408.000000	0.018244
1407.000000	0.018235
1406.000000	0.018235
1405.000000	0.018264
1404.000000	0.018309
1403.000000	0.018340
1402.000000	0.018357
1401.000000	0.018380
1400.000000	0.018391
1399.000000	0.018339
1398.000000	0.018206
1397.000000	0.018028
1396.000000	0.017838
1395.000000	0.017652
1394.000000	0.017481
1393.000000	0.017331
1392.000000	0.017179
1391.000000	0.017004
1390.000000	0.016809
1389.000000	0.016614
1388.000000	0.016431
1387.000000	0.016261
1386.000000	0.016105
1385.000000	0.015966
1384.000000	0.015831
1383.000000	0.015686
1382.000000	0.015521
1381.000000	0.015344
1380.000000	0.015167
1379.000000	0.014999
1378.000000	0.014840
1377.000000	0.014681
1376.000000	0.014509
1375.000000	0.014319
1374.000000	0.014131
1373.000000	0.013967
1372.000000	0.013827
1371.000000	0.013700
1370.000000	0.013581
1369.000000	0.013468
1368.000000	0.013347
1367.000000	0.013202
1366.000000	0.013033
1365.000000	0.012861
1364.000000	0.012711
1363.000000	0.012600
1362.000000	0.012533
1361.000000	0.012497
1360.000000	0.012477
1359.000000	0.012456
1358.000000	0.012427
1357.000000	0.012386
1356.000000	0.012344
1355.000000	0.012321
1354.000000	0.012328
1353.000000	0.012359
1352.000000	0.012396
1351.000000	0.012431
1350.000000	0.012469
1349.000000	0.012517
1348.000000	0.012574
1347.000000	0.012634
1346.000000	0.012690
1345.000000	0.012746
1344.000000	0.012805
1343.000000	0.012866
1342.000000	0.012918
1341.000000	0.012956
1340.000000	0.012979
1339.000000	0.012998
1338.000000	0.013027
1337.000000	0.013069
1336.000000	0.013109
1335.000000	0.013127
1334.000000	0.013114
1333.000000	0.013079
1332.000000	0.013034
1331.000000	0.012990
1330.000000	0.012954
1329.000000	0.012930
1328.000000	0.012916
1327.000000	0.012899
1326.000000	0.012874
1325.000000	0.012851
1324.000000	0.012843
1323.000000	0.012850
1322.000000	0.012861
1321.000000	0.012867
1320.000000	0.012862
1319.000000	0.012841
1318.000000	0.012803
1317.000000	0.012757
1316.000000	0.012713
1315.000000	0.012672
1314.000000	0.012631
1313.000000	0.012589
1312.000000	0.012542
1311.000000	0.012489
1310.000000	0.012431
1309.000000	0.012375
1308.000000	0.012325
1307.000000	0.012281
1306.000000	0.012242
1305.000000	0.012212
1304.000000	0.012186
1303.000000	0.012154
1302.000000	0.012115
1301.000000	0.012080
1300.000000	0.012050
1299.000000	0.012015
1298.000000	0.011970
1297.000000	0.011927
1296.000000	0.011899
1295.000000	0.011888
1294.000000	0.011886
1293.000000	0.011889
1292.000000	0.011897
1291.000000	0.011905
1290.000000	0.011913
1289.000000	0.011925
1288.000000	0.011946
1287.000000	0.011969
1286.000000	0.011992
1285.000000	0.012018
1284.000000	0.012054
1283.000000	0.012093
1282.000000	0.012123
1281.000000	0.012142
1280.000000	0.012158
1279.000000	0.012177
1278.000000	0.012205
1277.000000	0.012247
1276.000000	0.012300
1275.000000	0.012348
1274.000000	0.012381
1273.000000	0.012400
1272.000000	0.012418
1271.000000	0.012436
1270.000000	0.012452
1269.000000	0.012475
1268.000000	0.012512
1267.000000	0.012562
1266.000000	0.012613
1265.000000	0.012664
1264.000000	0.012720
1263.000000	0.012781
1262.000000	0.012835
1261.000000	0.012876
1260.000000	0.012919
1259.000000	0.012981
1258.000000	0.013063
1257.000000	0.013150
1256.000000	0.013218
1255.000000	0.013255
1254.000000	0.013274
1253.000000	0.013304
1252.000000	0.013368
1251.000000	0.013457
1250.000000	0.013546
1249.000000	0.013620
1248.000000	0.013686
1247.000000	0.013758
1246.000000	0.013841
1245.000000	0.013924
1244.000000	0.014000
1243.000000	0.014065
1242.000000	0.014117
1241.000000	0.014153
1240.000000	0.014168
1239.000000	0.014156
1238.000000	0.014126
1237.000000	0.014092
1236.000000	0.014054
1235.000000	0.014001
1234.000000	0.013917
1233.000000	0.013804
1232.000000	0.013679
1231.000000	0.013560
1230.000000	0.013456
1229.000000	0.013359
1228.000000	0.013253
1227.000000	0.013129
1226.000000	0.012989
1225.000000	0.012847
1224.000000	0.012708
1223.000000	0.012564
1222.000000	0.012402
1221.000000	0.012217
1220.000000	0.012014
1219.000000	0.011809
1218.000000	0.011627
1217.000000	0.011498
1216.000000	0.011434
1215.000000	0.011412
1214.000000	0.011393
1213.000000	0.011345
1212.000000	0.011274
1211.000000	0.011202
1210.000000	0.011155
1209.000000	0.011143
1208.000000	0.011160
1207.000000	0.011190
1206.000000	0.011217
1205.000000	0.011234
1204.000000	0.011243
1203.000000	0.011244
1202.000000	0.011234
1201.000000	0.011206
1200.000000	0.011165
1199.000000	0.011119
1198.000000	0.011078
1197.000000	0.011042
1196.000000	0.011000
1195.000000	0.010941
1194.000000	0.010866
1193.000000	0.010783
1192.000000	0.010700
1191.000000	0.010617
1190.000000	0.010538
1189.000000	0.010471
1188.000000	0.010421
1187.000000	0.010378
1186.000000	0.010331
1185.000000	0.010277
1184.000000	0.010228
1183.000000	0.010198
1182.000000	0.010185
1181.000000	0.010184
1180.000000	0.010192
1179.000000	0.010213
1178.000000	0.010245
1177.000000	0.010282
1176.000000	0.010317
1175.000000	0.010345
1174.000000	0.010361
1173.000000	0.010364
1172.000000	0.010365
1171.000000	0.010376
1170.000000	0.010406
1169.000000	0.010451
1168.000000	0.010505
1167.000000	0.010562
1166.000000	0.010624
1165.000000	0.010694
1164.000000	0.010765
1163.000000	0.010830
1162.000000	0.010882
1161.000000	0.010919
1160.000000	0.010935
1159.000000	0.010932
1158.000000	0.010916
1157.000000	0.010900
1156.000000	0.010889
1155.000000	0.010874
1154.000000	0.010844
1153.000000	0.010796
1152.000000	0.010741
1151.000000	0.010691
1150.000000	0.010645
1149.000000	0.010594
1148.000000	0.010533
1147.000000	0.010472
1146.000000	0.010420
1145.000000	0.010374
1144.000000	0.010315
1143.000000	0.010234
1142.000000	0.010146
1141.000000	0.010074
1140.000000	0.010029
1139.000000	0.009996
1138.000000	0.009960
1137.000000	0.009920
1136.000000	0.009889
1135.000000	0.009878
1134.000000	0.009890
1133.000000	0.009915
1132.000000	0.009944
1131.000000	0.009969
1130.000000	0.009998
1129.000000	0.010044
1128.000000	0.010102
1127.000000	0.010153
1126.000000	0.010185
1125.000000	0.010212
1124.000000	0.010259
1123.000000	0.010331
1122.000000	0.010411
1121.000000	0.010482
1120.000000	0.010543
1119.000000	0.010601
1118.000000	0.010653
1117.000000	0.010692
1116.000000	0.010718
1115.000000	0.010733
1114.000000	0.010734
1113.000000	0.010726
1112.000000	0.010725
1111.000000	0.010745
1110.000000	0.010782
1109.000000	0.010817
1108.000000	0.010835
1107.000000	0.010838
1106.000000	0.010835
1105.000000	0.010831
1104.000000	0.010829
1103.000000	0.010831
1102.000000	0.010835
1101.000000	0.010835
1100.000000	0.010836
1099.000000	0.010853
1098.000000	0.010905
1097.000000	0.010988
1096.000000	0.011070
1095.000000	0.011124
1094.000000	0.011150
1093.000000	0.011175
1092.000000	0.011228
1091.000000	0.011315
1090.000000	0.011419
1089.000000	0.011520
1088.000000	0.011610
1087.000000	0.011693
1086.000000	0.011782
1085.000000	0.011889
1084.000000	0.012016
1083.000000	0.012148
1082.000000	0.012256
1081.000000	0.012319
1080.000000	0.012333
1079.000000	0.012311
1078.000000	0.012277
1077.000000	0.012248
1076.000000	0.012223
1075.000000	0.012180
1074.000000	0.012098
1073.000000	0.011977
1072.000000	0.011847
1071.000000	0.011746
1070.000000	0.011689
1069.000000	0.011664
1068.000000	0.011650
1067.000000	0.011635
1066.000000	0.011621
1065.000000	0.011620
1064.000000	0.011642
1063.000000	0.011688
1062.000000	0.011750
1061.000000	0.011819
1060.000000	0.011885
1059.000000	0.011935
1058.000000	0.011955
1057.000000	0.011949
1056.000000	0.011944
1055.000000	0.011977
1054.000000	0.012065
1053.000000	0.012191
1052.000000	0.012324
1051.000000	0.012452
1050.000000	0.012582
1049.000000	0.012716
1048.000000	0.012837
1047.000000	0.012921
1046.000000	0.012955
1045.000000	0.012953
1044.000000	0.012938
1043.000000	0.012929
1042.000000	0.012930
1041.000000	0.012931
1040.000000	0.012934
1039.000000	0.012951
1038.000000	0.012999
1037.000000	0.013081
1036.000000	0.013184
1035.000000	0.013296
1034.000000	0.013419
1033.000000	0.013558
1032.000000	0.013718
1031.000000	0.013889
1030.000000	0.014059
1029.000000	0.014219
1028.000000	0.014369
1027.000000	0.014516
1026.000000	0.014672
1025.000000	0.014842
1024.000000	0.015042
1023.000000	0.015289
1022.000000	0.015595
1021.000000	0.015939
1020.000000	0.016275
1019.000000	0.016548
1018.000000	0.016715
1017.000000	0.016752
1016.000000	0.016645
1015.000000	0.016392
1014.000000	0.016014
1013.000000	0.015546
1012.000000	0.015040
1011.000000	0.014541
1010.000000	0.014079
1009.000000	0.013660
1008.000000	0.013279
1007.000000	0.012934
1006.000000	0.012624
1005.000000	0.012343
1004.000000	0.012084
1003.000000	0.011846
1002.000000	0.011633
1001.000000	0.011440
1000.000000	0.011254
999.000000	0.011070
998.000000	0.010899
997.000000	0.010743
996.000000	0.010592
995.000000	0.010437
994.000000	0.010286
993.000000	0.010149
992.000000	0.010020
991.000000	0.009880
990.000000	0.009718
989.000000	0.009542
988.000000	0.009371
987.000000	0.009215
986.000000	0.009073
985.000000	0.008938
984.000000	0.008808
983.000000	0.008688
982.000000	0.008582
981.000000	0.008486
980.000000	0.008390
979.000000	0.008288
978.000000	0.008180
977.000000	0.008067
976.000000	0.007955
975.000000	0.007859
974.000000	0.007790
973.000000	0.007741
972.000000	0.007691
971.000000	0.007625
970.000000	0.007548
969.000000	0.007467
968.000000	0.007387
967.000000	0.007309
966.000000	0.007236
965.000000	0.007163
964.000000	0.007080
963.000000	0.006984
962.000000	0.006887
961.000000	0.006797
960.000000	0.006712
959.000000	0.006629
958.000000	0.006557
957.000000	0.006500
956.000000	0.006450
955.000000	0.006399
954.000000	0.006352
953.000000	0.006319
952.000000	0.006291
951.000000	0.006250
950.000000	0.006187
949.000000	0.006116
948.000000	0.006051
947.000000	0.005995
946.000000	0.005948
945.000000	0.005919
944.000000	0.005913
943.000000	0.005927
942.000000	0.005948
941.000000	0.005958
940.000000	0.005950
939.000000	0.005923
938.000000	0.005879
937.000000	0.005821
936.000000	0.005759
935.000000	0.005715
934.000000	0.005713
933.000000	0.005753
932.000000	0.005802
931.000000	0.005817
930.000000	0.005782
929.000000	0.005721
928.000000	0.005671
927.000000	0.005655
926.000000	0.005666
925.000000	0.005680
924.000000	0.005675
923.000000	0.005644
922.000000	0.005600
921.000000	0.005558
920.000000	0.005519
919.000000	0.005476
918.000000	0.005423
917.000000	0.005369
916.000000	0.005322
915.000000	0.005286
914.000000	0.005259
913.000000	0.005240
912.000000	0.005222
911.000000	0.005186
910.000000	0.005122
909.000000	0.005041
908.000000	0.004977
907.000000	0.004952
906.000000	0.004959
905.000000	0.004966
904.000000	0.004953
903.000000	0.004924
902.000000	0.004889
901.000000	0.004850
900.000000	0.004807
899.000000	0.004761
898.000000	0.004717
897.000000	0.004679
896.000000	0.004647
895.000000	0.004625
894.000000	0.004615
893.000000	0.004611
892.000000	0.004600
891.000000	0.004576
890.000000	0.004547
889.000000	0.004520
888.000000	0.004503
887.000000	0.004510
886.000000	0.004561
885.000000	0.004658
884.000000	0.004784
883.000000	0.004916
882.000000	0.005056
881.000000	0.005228
880.000000	0.005446
879.000000	0.005695
878.000000	0.005931
877.000000	0.006108
876.000000	0.006197
875.000000	0.006190
874.000000	0.006101
873.000000	0.005946
872.000000	0.005739
871.000000	0.005501
870.000000	0.005266
869.000000	0.005067
868.000000	0.004920
867.000000	0.004832
866.000000	0.004799
865.000000	0.004811
864.000000	0.004838
863.000000	0.004844
862.000000	0.004810
861.000000	0.004747
860.000000	0.004678
859.000000	0.004624
858.000000	0.004597
857.000000	0.004598
856.000000	0.004618
855.000000	0.004647
854.000000	0.004680
853.000000	0.004715
852.000000	0.004751
851.000000	0.004789
850.000000	0.004830
849.000000	0.004858
848.000000	0.004839
847.000000	0.004751
846.000000	0.004626
845.000000	0.004536
844.000000	0.004522
843.000000	0.004565
842.000000	0.004620
841.000000	0.004660
840.000000	0.004679
839.000000	0.004667
838.000000	0.004622
837.000000	0.004567
836.000000	0.004538
835.000000	0.004544
834.000000	0.004566
833.000000	0.004584
832.000000	0.004596
831.000000	0.004602
830.000000	0.004595
829.000000	0.004572
828.000000	0.004544
827.000000	0.004522
826.000000	0.004512
825.000000	0.004520
824.000000	0.004558
823.000000	0.004624
822.000000	0.004691
821.000000	0.004732
820.000000	0.004743
819.000000	0.004731
818.000000	0.004698
817.000000	0.004647
816.000000	0.004598
815.000000	0.004575
814.000000	0.004592
813.000000	0.004637
812.000000	0.004690
811.000000	0.004721
810.000000	0.004712
809.000000	0.004666
808.000000	0.004616
807.000000	0.004587
806.000000	0.004575
805.000000	0.004555
804.000000	0.004522
803.000000	0.004497
802.000000	0.004503
801.000000	0.004538
800.000000	0.004586
799.000000	0.004633
798.000000	0.004675
797.000000	0.004704
796.000000	0.004704
795.000000	0.004663
794.000000	0.004594
793.000000	0.004543
792.000000	0.004552
791.000000	0.004617
790.000000	0.004684
789.000000	0.004707
788.000000	0.004687
787.000000	0.004660
786.000000	0.004647
785.000000	0.004634
784.000000	0.004605
783.000000	0.004575
782.000000	0.004575
781.000000	0.004614
780.000000	0.004663
779.000000	0.004683
778.000000	0.004662
777.000000	0.004623
776.000000	0.004600
775.000000	0.004610
774.000000	0.004646
773.000000	0.004689
772.000000	0.004719
771.000000	0.004723
770.000000	0.004714
769.000000	0.004718
768.000000	0.004742
767.000000	0.004752
766.000000	0.004706
765.000000	0.004618
764.000000	0.004548
763.000000	0.004536
762.000000	0.004564
761.000000	0.004590
760.000000	0.004607
759.000000	0.004623
758.000000	0.004635
757.000000	0.004632
756.000000	0.004623
755.000000	0.004623
754.000000	0.004632
753.000000	0.004636
752.000000	0.004640
751.000000	0.004661
750.000000	0.004701
749.000000	0.004744
748.000000	0.004786
747.000000	0.004828
746.000000	0.004859
745.000000	0.004869
744.000000	0.004875
743.000000	0.004900
742.000000	0.004942
741.000000	0.004975
740.000000	0.004991
739.000000	0.005006
738.000000	0.005027
737.000000	0.005048
736.000000	0.005073
735.000000	0.005116
734.000000	0.005162
733.000000	0.005175
732.000000	0.005147
731.000000	0.005103
730.000000	0.005064
729.000000	0.005041
728.000000	0.005054
727.000000	0.005130
726.000000	0.005265
725.000000	0.005425
724.000000	0.005569
723.000000	0.005688
722.000000	0.005796
721.000000	0.005902
720.000000	0.005988
719.000000	0.006018
718.000000	0.005970
717.000000	0.005864
716.000000	0.005772
715.000000	0.005754
714.000000	0.005803
713.000000	0.005861
712.000000	0.005889
711.000000	0.005895
710.000000	0.005892
709.000000	0.005894
708.000000	0.005917
707.000000	0.005961
706.000000	0.006009
705.000000	0.006053
704.000000	0.006114
703.000000	0.006202
702.000000	0.006276
701.000000	0.006274
700.000000	0.006203
699.000000	0.006119
698.000000	0.006052
697.000000	0.005992
696.000000	0.005944
695.000000	0.005939
694.000000	0.005962
693.000000	0.005942
692.000000	0.005863
691.000000	0.005794
690.000000	0.005784
689.000000	0.005807
688.000000	0.005822
687.000000	0.005859
686.000000	0.005936
685.000000	0.005996
684.000000	0.006000
683.000000	0.005978
682.000000	0.005968
681.000000	0.005958
680.000000	0.005955
679.000000	0.005996
678.000000	0.006058
677.000000	0.006105
676.000000	0.006162
675.000000	0.006298
674.000000	0.006494
673.000000	0.006614
672.000000	0.006543
671.000000	0.006294
670.000000	0.005912
669.000000	0.005454
668.000000	0.005309
667.000000	0.005766
666.000000	0.006122
665.000000	0.006342
664.000000	0.006602
663.000000	0.006801
662.000000	0.006831
661.000000	0.006737
660.000000	0.006622
659.000000	0.006509
658.000000	0.006384
657.000000	0.006310
656.000000	0.006319
655.000000	0.006335
654.000000	0.006300
653.000000	0.006246
652.000000	0.006193
651.000000	0.006129
650.000000	0.006091
649.000000	0.006148
648.000000	0.006237
647.000000	0.006210
646.000000	0.006069
645.000000	0.005979
644.000000	0.006040
643.000000	0.006183
642.000000	0.006297
641.000000	0.006360
640.000000	0.006389
639.000000	0.006364
638.000000	0.006296
637.000000	0.006251
636.000000	0.006247
635.000000	0.006233
634.000000	0.006187
633.000000	0.006160
632.000000	0.006192
631.000000	0.006250
630.000000	0.006293
629.000000	0.006324
628.000000	0.006350
627.000000	0.006354
626.000000	0.006354
625.000000	0.006388
624.000000	0.006445
623.000000	0.006478
622.000000	0.006479
621.000000	0.006483
620.000000	0.006504
619.000000	0.006519
618.000000	0.006530
617.000000	0.006559
616.000000	0.006584
615.000000	0.006554
614.000000	0.006479
613.000000	0.006432
612.000000	0.006439
611.000000	0.006462
610.000000	0.006493
609.000000	0.006574
608.000000	0.006696
607.000000	0.006765
606.000000	0.006723
605.000000	0.006617
604.000000	0.006522
603.000000	0.006453
602.000000	0.006383
601.000000	0.006306
600.000000	0.006233
599.000000	0.006175
598.000000	0.006146
597.000000	0.006150
596.000000	0.006151
595.000000	0.006092
594.000000	0.005975
593.000000	0.005873
592.000000	0.005854
591.000000	0.005905
590.000000	0.005954
589.000000	0.005948
588.000000	0.005884
587.000000	0.005802
586.000000	0.005768
585.000000	0.005813
584.000000	0.005899
583.000000	0.005966
582.000000	0.006017
581.000000	0.006097
580.000000	0.006202
579.000000	0.006260
578.000000	0.006212
577.000000	0.006081
576.000000	0.005943
575.000000	0.005882
574.000000	0.005958
573.000000	0.006160
572.000000	0.006373
571.000000	0.006457
570.000000	0.006370
569.000000	0.006207
568.000000	0.006087
567.000000	0.006071
566.000000	0.006161
565.000000	0.006316
564.000000	0.006453
563.000000	0.006514
562.000000	0.006530
561.000000	0.006563
560.000000	0.006605
559.000000	0.006603
558.000000	0.006574
557.000000	0.006593
556.000000	0.006671
555.000000	0.006734
554.000000	0.006731
553.000000	0.006685
552.000000	0.006622
551.000000	0.006550
550.000000	0.006504
549.000000	0.006527
548.000000	0.006586
547.000000	0.006602
546.000000	0.006572
545.000000	0.006569
544.000000	0.006603
543.000000	0.006597
542.000000	0.006532
541.000000	0.006488
540.000000	0.006500
539.000000	0.006492
538.000000	0.006410
537.000000	0.006339
536.000000	0.006414
535.000000	0.006662
534.000000	0.006973
533.000000	0.007184
532.000000	0.007178
531.000000	0.006959
530.000000	0.006663
529.000000	0.006439
528.000000	0.006316
527.000000	0.006217
526.000000	0.006100
525.000000	0.005999
524.000000	0.005926
523.000000	0.005846
522.000000	0.005756
521.000000	0.005673
520.000000	0.005563
519.000000	0.005371
518.000000	0.005152
517.000000	0.005044
516.000000	0.005077
515.000000	0.005150
514.000000	0.005200
513.000000	0.005258
512.000000	0.005331
511.000000	0.005364
510.000000	0.005348
509.000000	0.005361
508.000000	0.005439
507.000000	0.005504
506.000000	0.005479
505.000000	0.005368
504.000000	0.005192
503.000000	0.004948
502.000000	0.004707
501.000000	0.004606
500.000000	0.004663
499.000000	0.004736
498.000000	0.004726
497.000000	0.004691
496.000000	0.004711
495.000000	0.004755
494.000000	0.004764
493.000000	0.004768
492.000000	0.004814
491.000000	0.004850
490.000000	0.004795
489.000000	0.004664
488.000000	0.004524
487.000000	0.004400
486.000000	0.004323
485.000000	0.004374
484.000000	0.004589
483.000000	0.004852
482.000000	0.005016
481.000000	0.005055
480.000000	0.004998
479.000000	0.004800
478.000000	0.004451
477.000000	0.004115
476.000000	0.004007
475.000000	0.004155
474.000000	0.004409
473.000000	0.004634
472.000000	0.004824
471.000000	0.005036
470.000000	0.005344
469.000000	0.005809
468.000000	0.006354
467.000000	0.006738
466.000000	0.006769
465.000000	0.006494
464.000000	0.006090
463.000000	0.005669
462.000000	0.005270
461.000000	0.004910
460.000000	0.004566
459.000000	0.004226
458.000000	0.004037
457.000000	0.004222
456.000000	0.004701
455.000000	0.005096
454.000000	0.005178
453.000000	0.005059
452.000000	0.004937
451.000000	0.004788
450.000000	0.004474
