PE IR       SUBTECH     SPECTRUM    ASCII       PEDS        4.00        
   -1
3C-H10-C027_1.ASC
22/02/11
15:10:56.00
22/02/11
15:21:17.00
uco
Sample 027 By uco Date Friday, February 11 2022
450.000000
#HDR
-1
-1
#GR
cm-1
A
1.0
0.0
4000.000000
-1.000000
3551
8
0.032230
0.002682
#DATA
4000.000000	0.003156
3999.000000	0.003164
3998.000000	0.003163
3997.000000	0.003157
3996.000000	0.003151
3995.000000	0.003150
3994.000000	0.003154
3993.000000	0.003160
3992.000000	0.003167
3991.000000	0.003172
3990.000000	0.003171
3989.000000	0.003163
3988.000000	0.003153
3987.000000	0.003147
3986.000000	0.003147
3985.000000	0.003150
3984.000000	0.003150
3983.000000	0.003144
3982.000000	0.003135
3981.000000	0.003132
3980.000000	0.003140
3979.000000	0.003157
3978.000000	0.003178
3977.000000	0.003197
3976.000000	0.003210
3975.000000	0.003215
3974.000000	0.003210
3973.000000	0.003194
3972.000000	0.003172
3971.000000	0.003156
3970.000000	0.003155
3969.000000	0.003170
3968.000000	0.003194
3967.000000	0.003212
3966.000000	0.003217
3965.000000	0.003211
3964.000000	0.003204
3963.000000	0.003209
3962.000000	0.003225
3961.000000	0.003245
3960.000000	0.003257
3959.000000	0.003256
3958.000000	0.003245
3957.000000	0.003231
3956.000000	0.003215
3955.000000	0.003200
3954.000000	0.003190
3953.000000	0.003191
3952.000000	0.003206
3951.000000	0.003230
3950.000000	0.003255
3949.000000	0.003272
3948.000000	0.003277
3947.000000	0.003268
3946.000000	0.003250
3945.000000	0.003229
3944.000000	0.003212
3943.000000	0.003202
3942.000000	0.003196
3941.000000	0.003193
3940.000000	0.003196
3939.000000	0.003208
3938.000000	0.003228
3937.000000	0.003250
3936.000000	0.003268
3935.000000	0.003279
3934.000000	0.003286
3933.000000	0.003288
3932.000000	0.003288
3931.000000	0.003289
3930.000000	0.003288
3929.000000	0.003284
3928.000000	0.003272
3927.000000	0.003255
3926.000000	0.003239
3925.000000	0.003231
3924.000000	0.003235
3923.000000	0.003252
3922.000000	0.003278
3921.000000	0.003304
3920.000000	0.003320
3919.000000	0.003325
3918.000000	0.003322
3917.000000	0.003318
3916.000000	0.003318
3915.000000	0.003323
3914.000000	0.003334
3913.000000	0.003347
3912.000000	0.003358
3911.000000	0.003364
3910.000000	0.003363
3909.000000	0.003354
3908.000000	0.003342
3907.000000	0.003333
3906.000000	0.003328
3905.000000	0.003318
3904.000000	0.003294
3903.000000	0.003262
3902.000000	0.003239
3901.000000	0.003240
3900.000000	0.003261
3899.000000	0.003284
3898.000000	0.003296
3897.000000	0.003294
3896.000000	0.003284
3895.000000	0.003274
3894.000000	0.003274
3893.000000	0.003289
3892.000000	0.003312
3891.000000	0.003322
3890.000000	0.003305
3889.000000	0.003276
3888.000000	0.003259
3887.000000	0.003266
3886.000000	0.003283
3885.000000	0.003290
3884.000000	0.003286
3883.000000	0.003287
3882.000000	0.003295
3881.000000	0.003301
3880.000000	0.003296
3879.000000	0.003286
3878.000000	0.003286
3877.000000	0.003306
3876.000000	0.003338
3875.000000	0.003362
3874.000000	0.003366
3873.000000	0.003353
3872.000000	0.003339
3871.000000	0.003329
3870.000000	0.003306
3869.000000	0.003262
3868.000000	0.003218
3867.000000	0.003205
3866.000000	0.003223
3865.000000	0.003241
3864.000000	0.003241
3863.000000	0.003229
3862.000000	0.003221
3861.000000	0.003224
3860.000000	0.003236
3859.000000	0.003256
3858.000000	0.003286
3857.000000	0.003317
3856.000000	0.003342
3855.000000	0.003346
3854.000000	0.003317
3853.000000	0.003255
3852.000000	0.003195
3851.000000	0.003173
3850.000000	0.003196
3849.000000	0.003238
3848.000000	0.003272
3847.000000	0.003293
3846.000000	0.003307
3845.000000	0.003323
3844.000000	0.003341
3843.000000	0.003355
3842.000000	0.003360
3841.000000	0.003358
3840.000000	0.003353
3839.000000	0.003342
3838.000000	0.003317
3837.000000	0.003281
3836.000000	0.003253
3835.000000	0.003248
3834.000000	0.003269
3833.000000	0.003298
3832.000000	0.003315
3831.000000	0.003306
3830.000000	0.003282
3829.000000	0.003264
3828.000000	0.003269
3827.000000	0.003289
3826.000000	0.003302
3825.000000	0.003294
3824.000000	0.003276
3823.000000	0.003267
3822.000000	0.003269
3821.000000	0.003267
3820.000000	0.003248
3819.000000	0.003231
3818.000000	0.003235
3817.000000	0.003255
3816.000000	0.003271
3815.000000	0.003274
3814.000000	0.003281
3813.000000	0.003308
3812.000000	0.003342
3811.000000	0.003362
3810.000000	0.003363
3809.000000	0.003352
3808.000000	0.003332
3807.000000	0.003292
3806.000000	0.003230
3805.000000	0.003168
3804.000000	0.003143
3803.000000	0.003168
3802.000000	0.003222
3801.000000	0.003261
3800.000000	0.003272
3799.000000	0.003281
3798.000000	0.003308
3797.000000	0.003343
3796.000000	0.003363
3795.000000	0.003360
3794.000000	0.003345
3793.000000	0.003332
3792.000000	0.003324
3791.000000	0.003317
3790.000000	0.003309
3789.000000	0.003301
3788.000000	0.003298
3787.000000	0.003302
3786.000000	0.003313
3785.000000	0.003327
3784.000000	0.003336
3783.000000	0.003335
3782.000000	0.003331
3781.000000	0.003329
3780.000000	0.003334
3779.000000	0.003334
3778.000000	0.003322
3777.000000	0.003301
3776.000000	0.003285
3775.000000	0.003282
3774.000000	0.003289
3773.000000	0.003301
3772.000000	0.003318
3771.000000	0.003341
3770.000000	0.003358
3769.000000	0.003350
3768.000000	0.003314
3767.000000	0.003268
3766.000000	0.003232
3765.000000	0.003207
3764.000000	0.003189
3763.000000	0.003180
3762.000000	0.003182
3761.000000	0.003193
3760.000000	0.003210
3759.000000	0.003232
3758.000000	0.003259
3757.000000	0.003281
3756.000000	0.003287
3755.000000	0.003276
3754.000000	0.003250
3753.000000	0.003213
3752.000000	0.003172
3751.000000	0.003143
3750.000000	0.003131
3749.000000	0.003122
3748.000000	0.003112
3747.000000	0.003117
3746.000000	0.003147
3745.000000	0.003191
3744.000000	0.003216
3743.000000	0.003216
3742.000000	0.003220
3741.000000	0.003234
3740.000000	0.003236
3739.000000	0.003213
3738.000000	0.003178
3737.000000	0.003157
3736.000000	0.003160
3735.000000	0.003186
3734.000000	0.003225
3733.000000	0.003257
3732.000000	0.003258
3731.000000	0.003225
3730.000000	0.003175
3729.000000	0.003136
3728.000000	0.003118
3727.000000	0.003117
3726.000000	0.003118
3725.000000	0.003123
3724.000000	0.003142
3723.000000	0.003174
3722.000000	0.003208
3721.000000	0.003233
3720.000000	0.003252
3719.000000	0.003269
3718.000000	0.003278
3717.000000	0.003267
3716.000000	0.003239
3715.000000	0.003212
3714.000000	0.003196
3713.000000	0.003184
3712.000000	0.003160
3711.000000	0.003131
3710.000000	0.003121
3709.000000	0.003144
3708.000000	0.003191
3707.000000	0.003238
3706.000000	0.003265
3705.000000	0.003270
3704.000000	0.003269
3703.000000	0.003273
3702.000000	0.003282
3701.000000	0.003284
3700.000000	0.003277
3699.000000	0.003270
3698.000000	0.003269
3697.000000	0.003268
3696.000000	0.003256
3695.000000	0.003233
3694.000000	0.003205
3693.000000	0.003181
3692.000000	0.003171
3691.000000	0.003185
3690.000000	0.003225
3689.000000	0.003274
3688.000000	0.003303
3687.000000	0.003302
3686.000000	0.003286
3685.000000	0.003271
3684.000000	0.003264
3683.000000	0.003262
3682.000000	0.003256
3681.000000	0.003241
3680.000000	0.003212
3679.000000	0.003178
3678.000000	0.003161
3677.000000	0.003174
3676.000000	0.003202
3675.000000	0.003206
3674.000000	0.003175
3673.000000	0.003137
3672.000000	0.003119
3671.000000	0.003125
3670.000000	0.003137
3669.000000	0.003142
3668.000000	0.003145
3667.000000	0.003160
3666.000000	0.003189
3665.000000	0.003224
3664.000000	0.003253
3663.000000	0.003270
3662.000000	0.003275
3661.000000	0.003272
3660.000000	0.003267
3659.000000	0.003267
3658.000000	0.003277
3657.000000	0.003292
3656.000000	0.003299
3655.000000	0.003294
3654.000000	0.003284
3653.000000	0.003281
3652.000000	0.003287
3651.000000	0.003295
3650.000000	0.003303
3649.000000	0.003317
3648.000000	0.003345
3647.000000	0.003383
3646.000000	0.003420
3645.000000	0.003449
3644.000000	0.003470
3643.000000	0.003488
3642.000000	0.003504
3641.000000	0.003514
3640.000000	0.003521
3639.000000	0.003530
3638.000000	0.003543
3637.000000	0.003554
3636.000000	0.003560
3635.000000	0.003563
3634.000000	0.003562
3633.000000	0.003563
3632.000000	0.003573
3631.000000	0.003605
3630.000000	0.003657
3629.000000	0.003699
3628.000000	0.003701
3627.000000	0.003668
3626.000000	0.003633
3625.000000	0.003618
3624.000000	0.003625
3623.000000	0.003649
3622.000000	0.003681
3621.000000	0.003708
3620.000000	0.003723
3619.000000	0.003727
3618.000000	0.003733
3617.000000	0.003749
3616.000000	0.003781
3615.000000	0.003820
3614.000000	0.003855
3613.000000	0.003881
3612.000000	0.003908
3611.000000	0.003947
3610.000000	0.003993
3609.000000	0.004031
3608.000000	0.004051
3607.000000	0.004067
3606.000000	0.004091
3605.000000	0.004126
3604.000000	0.004162
3603.000000	0.004193
3602.000000	0.004221
3601.000000	0.004252
3600.000000	0.004287
3599.000000	0.004319
3598.000000	0.004339
3597.000000	0.004339
3596.000000	0.004327
3595.000000	0.004314
3594.000000	0.004306
3593.000000	0.004302
3592.000000	0.004295
3591.000000	0.004286
3590.000000	0.004283
3589.000000	0.004296
3588.000000	0.004331
3587.000000	0.004384
3586.000000	0.004438
3585.000000	0.004480
3584.000000	0.004513
3583.000000	0.004546
3582.000000	0.004583
3581.000000	0.004627
3580.000000	0.004678
3579.000000	0.004734
3578.000000	0.004781
3577.000000	0.004809
3576.000000	0.004820
3575.000000	0.004826
3574.000000	0.004836
3573.000000	0.004848
3572.000000	0.004857
3571.000000	0.004867
3570.000000	0.004883
3569.000000	0.004906
3568.000000	0.004930
3567.000000	0.004952
3566.000000	0.004978
3565.000000	0.005013
3564.000000	0.005061
3563.000000	0.005118
3562.000000	0.005178
3561.000000	0.005236
3560.000000	0.005292
3559.000000	0.005343
3558.000000	0.005382
3557.000000	0.005401
3556.000000	0.005406
3555.000000	0.005410
3554.000000	0.005430
3553.000000	0.005472
3552.000000	0.005531
3551.000000	0.005590
3550.000000	0.005631
3549.000000	0.005646
3548.000000	0.005641
3547.000000	0.005639
3546.000000	0.005656
3545.000000	0.005696
3544.000000	0.005749
3543.000000	0.005804
3542.000000	0.005854
3541.000000	0.005894
3540.000000	0.005925
3539.000000	0.005953
3538.000000	0.005983
3537.000000	0.006012
3536.000000	0.006040
3535.000000	0.006070
3534.000000	0.006112
3533.000000	0.006167
3532.000000	0.006226
3531.000000	0.006278
3530.000000	0.006310
3529.000000	0.006323
3528.000000	0.006326
3527.000000	0.006330
3526.000000	0.006343
3525.000000	0.006367
3524.000000	0.006398
3523.000000	0.006432
3522.000000	0.006464
3521.000000	0.006493
3520.000000	0.006521
3519.000000	0.006553
3518.000000	0.006587
3517.000000	0.006618
3516.000000	0.006651
3515.000000	0.006690
3514.000000	0.006736
3513.000000	0.006784
3512.000000	0.006824
3511.000000	0.006850
3510.000000	0.006865
3509.000000	0.006880
3508.000000	0.006905
3507.000000	0.006942
3506.000000	0.006983
3505.000000	0.007016
3504.000000	0.007041
3503.000000	0.007064
3502.000000	0.007089
3501.000000	0.007114
3500.000000	0.007136
3499.000000	0.007156
3498.000000	0.007177
3497.000000	0.007202
3496.000000	0.007236
3495.000000	0.007275
3494.000000	0.007307
3493.000000	0.007321
3492.000000	0.007322
3491.000000	0.007329
3490.000000	0.007354
3489.000000	0.007393
3488.000000	0.007436
3487.000000	0.007472
3486.000000	0.007498
3485.000000	0.007517
3484.000000	0.007537
3483.000000	0.007570
3482.000000	0.007612
3481.000000	0.007651
3480.000000	0.007676
3479.000000	0.007694
3478.000000	0.007719
3477.000000	0.007754
3476.000000	0.007795
3475.000000	0.007834
3474.000000	0.007867
3473.000000	0.007895
3472.000000	0.007919
3471.000000	0.007938
3470.000000	0.007949
3469.000000	0.007949
3468.000000	0.007940
3467.000000	0.007930
3466.000000	0.007928
3465.000000	0.007940
3464.000000	0.007970
3463.000000	0.008016
3462.000000	0.008070
3461.000000	0.008120
3460.000000	0.008163
3459.000000	0.008203
3458.000000	0.008244
3457.000000	0.008280
3456.000000	0.008306
3455.000000	0.008321
3454.000000	0.008325
3453.000000	0.008322
3452.000000	0.008323
3451.000000	0.008338
3450.000000	0.008371
3449.000000	0.008413
3448.000000	0.008450
3447.000000	0.008471
3446.000000	0.008479
3445.000000	0.008484
3444.000000	0.008500
3443.000000	0.008531
3442.000000	0.008572
3441.000000	0.008609
3440.000000	0.008636
3439.000000	0.008657
3438.000000	0.008679
3437.000000	0.008706
3436.000000	0.008740
3435.000000	0.008775
3434.000000	0.008808
3433.000000	0.008835
3432.000000	0.008861
3431.000000	0.008891
3430.000000	0.008926
3429.000000	0.008956
3428.000000	0.008979
3427.000000	0.009002
3426.000000	0.009032
3425.000000	0.009073
3424.000000	0.009119
3423.000000	0.009160
3422.000000	0.009188
3421.000000	0.009204
3420.000000	0.009219
3419.000000	0.009247
3418.000000	0.009284
3417.000000	0.009315
3416.000000	0.009326
3415.000000	0.009323
3414.000000	0.009323
3413.000000	0.009339
3412.000000	0.009372
3411.000000	0.009418
3410.000000	0.009468
3409.000000	0.009513
3408.000000	0.009547
3407.000000	0.009572
3406.000000	0.009596
3405.000000	0.009626
3404.000000	0.009658
3403.000000	0.009684
3402.000000	0.009697
3401.000000	0.009702
3400.000000	0.009714
3399.000000	0.009742
3398.000000	0.009784
3397.000000	0.009831
3396.000000	0.009871
3395.000000	0.009900
3394.000000	0.009910
3393.000000	0.009900
3392.000000	0.009879
3391.000000	0.009866
3390.000000	0.009872
3389.000000	0.009898
3388.000000	0.009943
3387.000000	0.010006
3386.000000	0.010072
3385.000000	0.010122
3384.000000	0.010145
3383.000000	0.010158
3382.000000	0.010181
3381.000000	0.010221
3380.000000	0.010267
3379.000000	0.010302
3378.000000	0.010323
3377.000000	0.010333
3376.000000	0.010345
3375.000000	0.010370
3374.000000	0.010416
3373.000000	0.010474
3372.000000	0.010531
3371.000000	0.010573
3370.000000	0.010600
3369.000000	0.010621
3368.000000	0.010650
3367.000000	0.010686
3366.000000	0.010722
3365.000000	0.010750
3364.000000	0.010779
3363.000000	0.010828
3362.000000	0.010903
3361.000000	0.010991
3360.000000	0.011068
3359.000000	0.011130
3358.000000	0.011183
3357.000000	0.011241
3356.000000	0.011304
3355.000000	0.011364
3354.000000	0.011412
3353.000000	0.011447
3352.000000	0.011473
3351.000000	0.011502
3350.000000	0.011541
3349.000000	0.011590
3348.000000	0.011641
3347.000000	0.011686
3346.000000	0.011724
3345.000000	0.011761
3344.000000	0.011810
3343.000000	0.011875
3342.000000	0.011950
3341.000000	0.012019
3340.000000	0.012075
3339.000000	0.012124
3338.000000	0.012175
3337.000000	0.012228
3336.000000	0.012276
3335.000000	0.012318
3334.000000	0.012358
3333.000000	0.012401
3332.000000	0.012448
3331.000000	0.012497
3330.000000	0.012540
3329.000000	0.012575
3328.000000	0.012612
3327.000000	0.012660
3326.000000	0.012722
3325.000000	0.012788
3324.000000	0.012850
3323.000000	0.012908
3322.000000	0.012964
3321.000000	0.013016
3320.000000	0.013055
3319.000000	0.013076
3318.000000	0.013085
3317.000000	0.013095
3316.000000	0.013116
3315.000000	0.013151
3314.000000	0.013195
3313.000000	0.013236
3312.000000	0.013270
3311.000000	0.013298
3310.000000	0.013325
3309.000000	0.013351
3308.000000	0.013371
3307.000000	0.013384
3306.000000	0.013393
3305.000000	0.013407
3304.000000	0.013430
3303.000000	0.013458
3302.000000	0.013492
3301.000000	0.013530
3300.000000	0.013574
3299.000000	0.013614
3298.000000	0.013634
3297.000000	0.013627
3296.000000	0.013599
3295.000000	0.013568
3294.000000	0.013548
3293.000000	0.013543
3292.000000	0.013551
3291.000000	0.013567
3290.000000	0.013586
3289.000000	0.013604
3288.000000	0.013615
3287.000000	0.013620
3286.000000	0.013621
3285.000000	0.013630
3284.000000	0.013655
3283.000000	0.013691
3282.000000	0.013721
3281.000000	0.013729
3280.000000	0.013717
3279.000000	0.013696
3278.000000	0.013675
3277.000000	0.013649
3276.000000	0.013614
3275.000000	0.013570
3274.000000	0.013523
3273.000000	0.013481
3272.000000	0.013451
3271.000000	0.013439
3270.000000	0.013449
3269.000000	0.013472
3268.000000	0.013489
3267.000000	0.013480
3266.000000	0.013439
3265.000000	0.013379
3264.000000	0.013328
3263.000000	0.013305
3262.000000	0.013305
3261.000000	0.013307
3260.000000	0.013292
3259.000000	0.013257
3258.000000	0.013207
3257.000000	0.013156
3256.000000	0.013117
3255.000000	0.013091
3254.000000	0.013069
3253.000000	0.013033
3252.000000	0.012980
3251.000000	0.012925
3250.000000	0.012886
3249.000000	0.012874
3248.000000	0.012882
3247.000000	0.012897
3246.000000	0.012904
3245.000000	0.012900
3244.000000	0.012892
3243.000000	0.012885
3242.000000	0.012872
3241.000000	0.012843
3240.000000	0.012803
3239.000000	0.012768
3238.000000	0.012750
3237.000000	0.012746
3236.000000	0.012739
3235.000000	0.012717
3234.000000	0.012675
3233.000000	0.012623
3232.000000	0.012574
3231.000000	0.012541
3230.000000	0.012525
3229.000000	0.012516
3228.000000	0.012498
3227.000000	0.012458
3226.000000	0.012399
3225.000000	0.012338
3224.000000	0.012296
3223.000000	0.012284
3222.000000	0.012294
3221.000000	0.012305
3220.000000	0.012304
3219.000000	0.012287
3218.000000	0.012259
3217.000000	0.012228
3216.000000	0.012202
3215.000000	0.012188
3214.000000	0.012181
3213.000000	0.012167
3212.000000	0.012136
3211.000000	0.012089
3210.000000	0.012043
3209.000000	0.012014
3208.000000	0.012012
3207.000000	0.012026
3206.000000	0.012038
3205.000000	0.012032
3204.000000	0.012003
3203.000000	0.011958
3202.000000	0.011908
3201.000000	0.011868
3200.000000	0.011850
3199.000000	0.011851
3198.000000	0.011858
3197.000000	0.011856
3196.000000	0.011842
3195.000000	0.011818
3194.000000	0.011787
3193.000000	0.011745
3192.000000	0.011696
3191.000000	0.011647
3190.000000	0.011604
3189.000000	0.011567
3188.000000	0.011534
3187.000000	0.011506
3186.000000	0.011480
3185.000000	0.011455
3184.000000	0.011431
3183.000000	0.011411
3182.000000	0.011399
3181.000000	0.011387
3180.000000	0.011363
3179.000000	0.011322
3178.000000	0.011268
3177.000000	0.011217
3176.000000	0.011181
3175.000000	0.011161
3174.000000	0.011152
3173.000000	0.011145
3172.000000	0.011136
3171.000000	0.011122
3170.000000	0.011098
3169.000000	0.011060
3168.000000	0.011015
3167.000000	0.010972
3166.000000	0.010934
3165.000000	0.010899
3164.000000	0.010859
3163.000000	0.010816
3162.000000	0.010775
3161.000000	0.010739
3160.000000	0.010709
3159.000000	0.010686
3158.000000	0.010665
3157.000000	0.010642
3156.000000	0.010619
3155.000000	0.010596
3154.000000	0.010575
3153.000000	0.010555
3152.000000	0.010535
3151.000000	0.010510
3150.000000	0.010476
3149.000000	0.010433
3148.000000	0.010385
3147.000000	0.010337
3146.000000	0.010290
3145.000000	0.010247
3144.000000	0.010219
3143.000000	0.010215
3142.000000	0.010230
3141.000000	0.010250
3140.000000	0.010257
3139.000000	0.010243
3138.000000	0.010209
3137.000000	0.010165
3136.000000	0.010124
3135.000000	0.010093
3134.000000	0.010069
3133.000000	0.010045
3132.000000	0.010019
3131.000000	0.009997
3130.000000	0.009979
3129.000000	0.009957
3128.000000	0.009928
3127.000000	0.009898
3126.000000	0.009873
3125.000000	0.009851
3124.000000	0.009822
3123.000000	0.009788
3122.000000	0.009762
3121.000000	0.009756
3120.000000	0.009769
3119.000000	0.009785
3118.000000	0.009793
3117.000000	0.009793
3116.000000	0.009792
3115.000000	0.009796
3114.000000	0.009802
3113.000000	0.009804
3112.000000	0.009798
3111.000000	0.009790
3110.000000	0.009785
3109.000000	0.009786
3108.000000	0.009799
3107.000000	0.009824
3106.000000	0.009853
3105.000000	0.009874
3104.000000	0.009884
3103.000000	0.009888
3102.000000	0.009894
3101.000000	0.009905
3100.000000	0.009917
3099.000000	0.009924
3098.000000	0.009925
3097.000000	0.009921
3096.000000	0.009914
3095.000000	0.009909
3094.000000	0.009912
3093.000000	0.009931
3092.000000	0.009966
3091.000000	0.010007
3090.000000	0.010041
3089.000000	0.010059
3088.000000	0.010067
3087.000000	0.010073
3086.000000	0.010079
3085.000000	0.010081
3084.000000	0.010076
3083.000000	0.010065
3082.000000	0.010059
3081.000000	0.010068
3080.000000	0.010091
3079.000000	0.010119
3078.000000	0.010139
3077.000000	0.010150
3076.000000	0.010157
3075.000000	0.010167
3074.000000	0.010179
3073.000000	0.010183
3072.000000	0.010174
3071.000000	0.010156
3070.000000	0.010141
3069.000000	0.010137
3068.000000	0.010142
3067.000000	0.010145
3066.000000	0.010132
3065.000000	0.010105
3064.000000	0.010074
3063.000000	0.010050
3062.000000	0.010035
3061.000000	0.010030
3060.000000	0.010039
3059.000000	0.010060
3058.000000	0.010080
3057.000000	0.010086
3056.000000	0.010074
3055.000000	0.010045
3054.000000	0.010003
3053.000000	0.009955
3052.000000	0.009907
3051.000000	0.009867
3050.000000	0.009837
3049.000000	0.009813
3048.000000	0.009792
3047.000000	0.009769
3046.000000	0.009739
3045.000000	0.009703
3044.000000	0.009673
3043.000000	0.009655
3042.000000	0.009642
3041.000000	0.009625
3040.000000	0.009599
3039.000000	0.009571
3038.000000	0.009549
3037.000000	0.009532
3036.000000	0.009514
3035.000000	0.009488
3034.000000	0.009449
3033.000000	0.009400
3032.000000	0.009350
3031.000000	0.009310
3030.000000	0.009281
3029.000000	0.009260
3028.000000	0.009243
3027.000000	0.009232
3026.000000	0.009224
3025.000000	0.009220
3024.000000	0.009220
3023.000000	0.009221
3022.000000	0.009214
3021.000000	0.009192
3020.000000	0.009159
3019.000000	0.009128
3018.000000	0.009107
3017.000000	0.009092
3016.000000	0.009077
3015.000000	0.009059
3014.000000	0.009046
3013.000000	0.009045
3012.000000	0.009061
3011.000000	0.009093
3010.000000	0.009130
3009.000000	0.009155
3008.000000	0.009156
3007.000000	0.009138
3006.000000	0.009113
3005.000000	0.009094
3004.000000	0.009082
3003.000000	0.009070
3002.000000	0.009056
3001.000000	0.009040
3000.000000	0.009028
2999.000000	0.009021
2998.000000	0.009016
2997.000000	0.009013
2996.000000	0.009016
2995.000000	0.009030
2994.000000	0.009055
2993.000000	0.009089
2992.000000	0.009126
2991.000000	0.009162
2990.000000	0.009191
2989.000000	0.009218
2988.000000	0.009253
2987.000000	0.009303
2986.000000	0.009361
2985.000000	0.009413
2984.000000	0.009451
2983.000000	0.009477
2982.000000	0.009495
2981.000000	0.009513
2980.000000	0.009540
2979.000000	0.009589
2978.000000	0.009657
2977.000000	0.009730
2976.000000	0.009793
2975.000000	0.009845
2974.000000	0.009895
2973.000000	0.009955
2972.000000	0.010028
2971.000000	0.010110
2970.000000	0.010196
2969.000000	0.010283
2968.000000	0.010375
2967.000000	0.010478
2966.000000	0.010591
2965.000000	0.010708
2964.000000	0.010822
2963.000000	0.010932
2962.000000	0.011039
2961.000000	0.011142
2960.000000	0.011231
2959.000000	0.011298
2958.000000	0.011347
2957.000000	0.011388
2956.000000	0.011433
2955.000000	0.011479
2954.000000	0.011516
2953.000000	0.011536
2952.000000	0.011538
2951.000000	0.011532
2950.000000	0.011527
2949.000000	0.011536
2948.000000	0.011563
2947.000000	0.011609
2946.000000	0.011672
2945.000000	0.011756
2944.000000	0.011867
2943.000000	0.012006
2942.000000	0.012164
2941.000000	0.012335
2940.000000	0.012521
2939.000000	0.012725
2938.000000	0.012941
2937.000000	0.013156
2936.000000	0.013363
2935.000000	0.013561
2934.000000	0.013755
2933.000000	0.013952
2932.000000	0.014164
2931.000000	0.014397
2930.000000	0.014645
2929.000000	0.014891
2928.000000	0.015117
2927.000000	0.015308
2926.000000	0.015463
2925.000000	0.015579
2924.000000	0.015656
2923.000000	0.015686
2922.000000	0.015666
2921.000000	0.015598
2920.000000	0.015492
2919.000000	0.015352
2918.000000	0.015177
2917.000000	0.014958
2916.000000	0.014698
2915.000000	0.014407
2914.000000	0.014102
2913.000000	0.013797
2912.000000	0.013504
2911.000000	0.013232
2910.000000	0.012989
2909.000000	0.012778
2908.000000	0.012597
2907.000000	0.012438
2906.000000	0.012293
2905.000000	0.012162
2904.000000	0.012047
2903.000000	0.011942
2902.000000	0.011840
2901.000000	0.011733
2900.000000	0.011620
2899.000000	0.011506
2898.000000	0.011395
2897.000000	0.011294
2896.000000	0.011203
2895.000000	0.011118
2894.000000	0.011037
2893.000000	0.010961
2892.000000	0.010896
2891.000000	0.010843
2890.000000	0.010799
2889.000000	0.010759
2888.000000	0.010720
2887.000000	0.010679
2886.000000	0.010639
2885.000000	0.010602
2884.000000	0.010571
2883.000000	0.010542
2882.000000	0.010513
2881.000000	0.010494
2880.000000	0.010495
2879.000000	0.010517
2878.000000	0.010549
2877.000000	0.010581
2876.000000	0.010613
2875.000000	0.010648
2874.000000	0.010683
2873.000000	0.010710
2872.000000	0.010728
2871.000000	0.010736
2870.000000	0.010737
2869.000000	0.010732
2868.000000	0.010723
2867.000000	0.010720
2866.000000	0.010734
2865.000000	0.010776
2864.000000	0.010851
2863.000000	0.010956
2862.000000	0.011086
2861.000000	0.011238
2860.000000	0.011413
2859.000000	0.011602
2858.000000	0.011795
2857.000000	0.011987
2856.000000	0.012170
2855.000000	0.012331
2854.000000	0.012449
2853.000000	0.012505
2852.000000	0.012486
2851.000000	0.012389
2850.000000	0.012216
2849.000000	0.011979
2848.000000	0.011697
2847.000000	0.011386
2846.000000	0.011065
2845.000000	0.010758
2844.000000	0.010488
2843.000000	0.010262
2842.000000	0.010067
2841.000000	0.009887
2840.000000	0.009719
2839.000000	0.009574
2838.000000	0.009455
2837.000000	0.009364
2836.000000	0.009295
2835.000000	0.009240
2834.000000	0.009186
2833.000000	0.009121
2832.000000	0.009046
2831.000000	0.008972
2830.000000	0.008908
2829.000000	0.008852
2828.000000	0.008798
2827.000000	0.008744
2826.000000	0.008697
2825.000000	0.008666
2824.000000	0.008651
2823.000000	0.008641
2822.000000	0.008624
2821.000000	0.008590
2820.000000	0.008547
2819.000000	0.008506
2818.000000	0.008476
2817.000000	0.008453
2816.000000	0.008433
2815.000000	0.008407
2814.000000	0.008379
2813.000000	0.008354
2812.000000	0.008335
2811.000000	0.008315
2810.000000	0.008290
2809.000000	0.008263
2808.000000	0.008246
2807.000000	0.008243
2806.000000	0.008247
2805.000000	0.008246
2804.000000	0.008231
2803.000000	0.008197
2802.000000	0.008147
2801.000000	0.008092
2800.000000	0.008050
2799.000000	0.008031
2798.000000	0.008035
2797.000000	0.008048
2796.000000	0.008057
2795.000000	0.008052
2794.000000	0.008032
2793.000000	0.008006
2792.000000	0.007984
2791.000000	0.007971
2790.000000	0.007969
2789.000000	0.007976
2788.000000	0.007988
2787.000000	0.007989
2786.000000	0.007968
2785.000000	0.007928
2784.000000	0.007885
2783.000000	0.007852
2782.000000	0.007830
2781.000000	0.007816
2780.000000	0.007808
2779.000000	0.007802
2778.000000	0.007790
2777.000000	0.007771
2776.000000	0.007750
2775.000000	0.007734
2774.000000	0.007727
2773.000000	0.007726
2772.000000	0.007728
2771.000000	0.007731
2770.000000	0.007730
2769.000000	0.007724
2768.000000	0.007717
2767.000000	0.007712
2766.000000	0.007705
2765.000000	0.007694
2764.000000	0.007679
2763.000000	0.007663
2762.000000	0.007649
2761.000000	0.007639
2760.000000	0.007635
2759.000000	0.007636
2758.000000	0.007637
2757.000000	0.007632
2756.000000	0.007622
2755.000000	0.007611
2754.000000	0.007600
2753.000000	0.007589
2752.000000	0.007574
2751.000000	0.007558
2750.000000	0.007540
2749.000000	0.007523
2748.000000	0.007509
2747.000000	0.007499
2746.000000	0.007492
2745.000000	0.007485
2744.000000	0.007473
2743.000000	0.007456
2742.000000	0.007441
2741.000000	0.007434
2740.000000	0.007438
2739.000000	0.007445
2738.000000	0.007442
2737.000000	0.007421
2736.000000	0.007388
2735.000000	0.007353
2734.000000	0.007325
2733.000000	0.007312
2732.000000	0.007316
2731.000000	0.007335
2730.000000	0.007360
2729.000000	0.007384
2728.000000	0.007400
2727.000000	0.007402
2726.000000	0.007387
2725.000000	0.007362
2724.000000	0.007341
2723.000000	0.007334
2722.000000	0.007337
2721.000000	0.007342
2720.000000	0.007344
2719.000000	0.007341
2718.000000	0.007330
2717.000000	0.007309
2716.000000	0.007280
2715.000000	0.007248
2714.000000	0.007216
2713.000000	0.007189
2712.000000	0.007171
2711.000000	0.007163
2710.000000	0.007162
2709.000000	0.007164
2708.000000	0.007161
2707.000000	0.007146
2706.000000	0.007118
2705.000000	0.007090
2704.000000	0.007072
2703.000000	0.007070
2702.000000	0.007075
2701.000000	0.007079
2700.000000	0.007082
2699.000000	0.007083
2698.000000	0.007077
2697.000000	0.007063
2696.000000	0.007047
2695.000000	0.007042
2694.000000	0.007049
2693.000000	0.007057
2692.000000	0.007053
2691.000000	0.007033
2690.000000	0.007001
2689.000000	0.006974
2688.000000	0.006967
2687.000000	0.006981
2686.000000	0.007003
2685.000000	0.007019
2684.000000	0.007023
2683.000000	0.007019
2682.000000	0.007012
2681.000000	0.007013
2680.000000	0.007019
2679.000000	0.007021
2678.000000	0.007004
2677.000000	0.006970
2676.000000	0.006937
2675.000000	0.006924
2674.000000	0.006934
2673.000000	0.006955
2672.000000	0.006974
2671.000000	0.006981
2670.000000	0.006970
2669.000000	0.006948
2668.000000	0.006925
2667.000000	0.006913
2666.000000	0.006908
2665.000000	0.006908
2664.000000	0.006910
2663.000000	0.006920
2662.000000	0.006938
2661.000000	0.006957
2660.000000	0.006972
2659.000000	0.006978
2658.000000	0.006978
2657.000000	0.006976
2656.000000	0.006978
2655.000000	0.006981
2654.000000	0.006978
2653.000000	0.006964
2652.000000	0.006940
2651.000000	0.006909
2650.000000	0.006873
2649.000000	0.006835
2648.000000	0.006804
2647.000000	0.006786
2646.000000	0.006776
2645.000000	0.006764
2644.000000	0.006741
2643.000000	0.006715
2642.000000	0.006693
2641.000000	0.006679
2640.000000	0.006661
2639.000000	0.006627
2638.000000	0.006580
2637.000000	0.006540
2636.000000	0.006526
2635.000000	0.006540
2634.000000	0.006569
2633.000000	0.006596
2632.000000	0.006610
2631.000000	0.006607
2630.000000	0.006586
2629.000000	0.006556
2628.000000	0.006529
2627.000000	0.006511
2626.000000	0.006498
2625.000000	0.006483
2624.000000	0.006460
2623.000000	0.006427
2622.000000	0.006390
2621.000000	0.006362
2620.000000	0.006349
2619.000000	0.006345
2618.000000	0.006334
2617.000000	0.006316
2616.000000	0.006303
2615.000000	0.006309
2614.000000	0.006325
2613.000000	0.006336
2612.000000	0.006334
2611.000000	0.006316
2610.000000	0.006285
2609.000000	0.006247
2608.000000	0.006220
2607.000000	0.006217
2606.000000	0.006232
2605.000000	0.006249
2604.000000	0.006258
2603.000000	0.006264
2602.000000	0.006269
2601.000000	0.006274
2600.000000	0.006273
2599.000000	0.006260
2598.000000	0.006236
2597.000000	0.006204
2596.000000	0.006172
2595.000000	0.006149
2594.000000	0.006140
2593.000000	0.006142
2592.000000	0.006151
2591.000000	0.006161
2590.000000	0.006164
2589.000000	0.006157
2588.000000	0.006135
2587.000000	0.006100
2586.000000	0.006060
2585.000000	0.006026
2584.000000	0.006006
2583.000000	0.005999
2582.000000	0.006007
2581.000000	0.006033
2580.000000	0.006069
2579.000000	0.006087
2578.000000	0.006064
2577.000000	0.006011
2576.000000	0.005969
2575.000000	0.005955
2574.000000	0.005954
2573.000000	0.005944
2572.000000	0.005929
2571.000000	0.005928
2570.000000	0.005945
2569.000000	0.005963
2568.000000	0.005963
2567.000000	0.005944
2566.000000	0.005920
2565.000000	0.005909
2564.000000	0.005914
2563.000000	0.005926
2562.000000	0.005926
2561.000000	0.005904
2560.000000	0.005868
2559.000000	0.005831
2558.000000	0.005803
2557.000000	0.005791
2556.000000	0.005798
2555.000000	0.005815
2554.000000	0.005830
2553.000000	0.005838
2552.000000	0.005842
2551.000000	0.005840
2550.000000	0.005821
2549.000000	0.005785
2548.000000	0.005753
2547.000000	0.005748
2546.000000	0.005774
2545.000000	0.005809
2544.000000	0.005833
2543.000000	0.005843
2542.000000	0.005844
2541.000000	0.005838
2540.000000	0.005827
2539.000000	0.005812
2538.000000	0.005800
2537.000000	0.005803
2536.000000	0.005823
2535.000000	0.005846
2534.000000	0.005852
2533.000000	0.005838
2532.000000	0.005818
2531.000000	0.005803
2530.000000	0.005792
2529.000000	0.005772
2528.000000	0.005742
2527.000000	0.005716
2526.000000	0.005702
2525.000000	0.005697
2524.000000	0.005687
2523.000000	0.005662
2522.000000	0.005629
2521.000000	0.005602
2520.000000	0.005591
2519.000000	0.005585
2518.000000	0.005567
2517.000000	0.005538
2516.000000	0.005518
2515.000000	0.005528
2514.000000	0.005571
2513.000000	0.005631
2512.000000	0.005688
2511.000000	0.005731
2510.000000	0.005753
2509.000000	0.005744
2508.000000	0.005699
2507.000000	0.005626
2506.000000	0.005552
2505.000000	0.005508
2504.000000	0.005502
2503.000000	0.005521
2502.000000	0.005548
2501.000000	0.005583
2500.000000	0.005621
2499.000000	0.005638
2498.000000	0.005614
2497.000000	0.005556
2496.000000	0.005505
2495.000000	0.005495
2494.000000	0.005526
2493.000000	0.005568
2492.000000	0.005585
2491.000000	0.005562
2490.000000	0.005517
2489.000000	0.005479
2488.000000	0.005465
2487.000000	0.005464
2486.000000	0.005459
2485.000000	0.005450
2484.000000	0.005444
2483.000000	0.005439
2482.000000	0.005423
2481.000000	0.005400
2480.000000	0.005384
2479.000000	0.005389
2478.000000	0.005408
2477.000000	0.005427
2476.000000	0.005435
2475.000000	0.005426
2474.000000	0.005407
2473.000000	0.005391
2472.000000	0.005392
2471.000000	0.005413
2470.000000	0.005444
2469.000000	0.005473
2468.000000	0.005499
2467.000000	0.005520
2466.000000	0.005534
2465.000000	0.005546
2464.000000	0.005556
2463.000000	0.005557
2462.000000	0.005545
2461.000000	0.005529
2460.000000	0.005522
2459.000000	0.005527
2458.000000	0.005533
2457.000000	0.005530
2456.000000	0.005511
2455.000000	0.005474
2454.000000	0.005420
2453.000000	0.005371
2452.000000	0.005354
2451.000000	0.005376
2450.000000	0.005420
2449.000000	0.005461
2448.000000	0.005487
2447.000000	0.005504
2446.000000	0.005515
2445.000000	0.005515
2444.000000	0.005499
2443.000000	0.005472
2442.000000	0.005450
2441.000000	0.005451
2440.000000	0.005475
2439.000000	0.005497
2438.000000	0.005488
2437.000000	0.005449
2436.000000	0.005409
2435.000000	0.005395
2434.000000	0.005405
2433.000000	0.005420
2432.000000	0.005428
2431.000000	0.005426
2430.000000	0.005417
2429.000000	0.005408
2428.000000	0.005400
2427.000000	0.005388
2426.000000	0.005362
2425.000000	0.005326
2424.000000	0.005299
2423.000000	0.005299
2422.000000	0.005327
2421.000000	0.005363
2420.000000	0.005389
2419.000000	0.005402
2418.000000	0.005408
2417.000000	0.005406
2416.000000	0.005392
2415.000000	0.005365
2414.000000	0.005340
2413.000000	0.005336
2412.000000	0.005350
2411.000000	0.005364
2410.000000	0.005361
2409.000000	0.005341
2408.000000	0.005315
2407.000000	0.005295
2406.000000	0.005291
2405.000000	0.005302
2404.000000	0.005311
2403.000000	0.005293
2402.000000	0.005240
2401.000000	0.005179
2400.000000	0.005146
2399.000000	0.005153
2398.000000	0.005183
2397.000000	0.005214
2396.000000	0.005238
2395.000000	0.005258
2394.000000	0.005279
2393.000000	0.005305
2392.000000	0.005328
2391.000000	0.005337
2390.000000	0.005328
2389.000000	0.005310
2388.000000	0.005296
2387.000000	0.005288
2386.000000	0.005290
2385.000000	0.005308
2384.000000	0.005342
2383.000000	0.005377
2382.000000	0.005400
2381.000000	0.005413
2380.000000	0.005422
2379.000000	0.005417
2378.000000	0.005379
2377.000000	0.005308
2376.000000	0.005235
2375.000000	0.005194
2374.000000	0.005198
2373.000000	0.005244
2372.000000	0.005312
2371.000000	0.005370
2370.000000	0.005386
2369.000000	0.005364
2368.000000	0.005335
2367.000000	0.005309
2366.000000	0.005269
2365.000000	0.005212
2364.000000	0.005182
2363.000000	0.005221
2362.000000	0.005318
2361.000000	0.005428
2360.000000	0.005505
2359.000000	0.005535
2358.000000	0.005536
2357.000000	0.005522
2356.000000	0.005485
2355.000000	0.005412
2354.000000	0.005332
2353.000000	0.005299
2352.000000	0.005339
2351.000000	0.005414
2350.000000	0.005472
2349.000000	0.005486
2348.000000	0.005470
2347.000000	0.005464
2346.000000	0.005490
2345.000000	0.005525
2344.000000	0.005535
2343.000000	0.005518
2342.000000	0.005505
2341.000000	0.005520
2340.000000	0.005549
2339.000000	0.005557
2338.000000	0.005536
2337.000000	0.005511
2336.000000	0.005515
2335.000000	0.005552
2334.000000	0.005603
2333.000000	0.005641
2332.000000	0.005637
2331.000000	0.005590
2330.000000	0.005538
2329.000000	0.005538
2328.000000	0.005604
2327.000000	0.005705
2326.000000	0.005796
2325.000000	0.005856
2324.000000	0.005873
2323.000000	0.005833
2322.000000	0.005730
2321.000000	0.005590
2320.000000	0.005457
2319.000000	0.005366
2318.000000	0.005325
2317.000000	0.005327
2316.000000	0.005349
2315.000000	0.005367
2314.000000	0.005365
2313.000000	0.005354
2312.000000	0.005353
2311.000000	0.005369
2310.000000	0.005394
2309.000000	0.005421
2308.000000	0.005448
2307.000000	0.005473
2306.000000	0.005491
2305.000000	0.005501
2304.000000	0.005506
2303.000000	0.005503
2302.000000	0.005486
2301.000000	0.005460
2300.000000	0.005437
2299.000000	0.005431
2298.000000	0.005444
2297.000000	0.005472
2296.000000	0.005507
2295.000000	0.005540
2294.000000	0.005564
2293.000000	0.005577
2292.000000	0.005577
2291.000000	0.005563
2290.000000	0.005547
2289.000000	0.005537
2288.000000	0.005530
2287.000000	0.005508
2286.000000	0.005459
2285.000000	0.005398
2284.000000	0.005346
2283.000000	0.005316
2282.000000	0.005312
2281.000000	0.005326
2280.000000	0.005332
2279.000000	0.005304
2278.000000	0.005243
2277.000000	0.005195
2276.000000	0.005197
2275.000000	0.005234
2274.000000	0.005258
2273.000000	0.005238
2272.000000	0.005179
2271.000000	0.005111
2270.000000	0.005071
2269.000000	0.005088
2268.000000	0.005147
2267.000000	0.005193
2266.000000	0.005190
2265.000000	0.005158
2264.000000	0.005130
2263.000000	0.005107
2262.000000	0.005073
2261.000000	0.005038
2260.000000	0.005024
2259.000000	0.005024
2258.000000	0.005011
2257.000000	0.004985
2256.000000	0.004981
2255.000000	0.005016
2254.000000	0.005058
2253.000000	0.005057
2252.000000	0.004987
2251.000000	0.004868
2250.000000	0.004760
2249.000000	0.004728
2248.000000	0.004785
2247.000000	0.004873
2246.000000	0.004924
2245.000000	0.004920
2244.000000	0.004896
2243.000000	0.004876
2242.000000	0.004857
2241.000000	0.004835
2240.000000	0.004823
2239.000000	0.004836
2238.000000	0.004878
2237.000000	0.004922
2236.000000	0.004926
2235.000000	0.004870
2234.000000	0.004793
2233.000000	0.004761
2232.000000	0.004785
2231.000000	0.004803
2230.000000	0.004765
2229.000000	0.004697
2228.000000	0.004658
2227.000000	0.004674
2226.000000	0.004748
2225.000000	0.004888
2224.000000	0.005054
2223.000000	0.005147
2222.000000	0.005106
2221.000000	0.004987
2220.000000	0.004898
2219.000000	0.004861
2218.000000	0.004813
2217.000000	0.004720
2216.000000	0.004628
2215.000000	0.004595
2214.000000	0.004632
2213.000000	0.004716
2212.000000	0.004795
2211.000000	0.004810
2210.000000	0.004751
2209.000000	0.004688
2208.000000	0.004710
2207.000000	0.004820
2206.000000	0.004936
2205.000000	0.004979
2204.000000	0.004922
2203.000000	0.004776
2202.000000	0.004586
2201.000000	0.004440
2200.000000	0.004412
2199.000000	0.004491
2198.000000	0.004586
2197.000000	0.004621
2196.000000	0.004597
2195.000000	0.004559
2194.000000	0.004553
2193.000000	0.004597
2192.000000	0.004681
2191.000000	0.004784
2190.000000	0.004900
2189.000000	0.005033
2188.000000	0.005152
2187.000000	0.005187
2186.000000	0.005103
2185.000000	0.004950
2184.000000	0.004795
2183.000000	0.004637
2182.000000	0.004445
2181.000000	0.004253
2180.000000	0.004139
2179.000000	0.004146
2178.000000	0.004250
2177.000000	0.004391
2176.000000	0.004483
2175.000000	0.004439
2174.000000	0.004267
2173.000000	0.004103
2172.000000	0.004108
2171.000000	0.004304
2170.000000	0.004559
2169.000000	0.004714
2168.000000	0.004691
2167.000000	0.004528
2166.000000	0.004334
2165.000000	0.004212
2164.000000	0.004189
2163.000000	0.004219
2162.000000	0.004257
2161.000000	0.004273
2160.000000	0.004224
2159.000000	0.004080
2158.000000	0.003917
2157.000000	0.003835
2156.000000	0.003817
2155.000000	0.003776
2154.000000	0.003747
2153.000000	0.003846
2152.000000	0.004060
2151.000000	0.004210
2150.000000	0.004166
2149.000000	0.004011
2148.000000	0.003899
2147.000000	0.003873
2146.000000	0.003872
2145.000000	0.003870
2144.000000	0.003880
2143.000000	0.003888
2142.000000	0.003861
2141.000000	0.003812
2140.000000	0.003785
2139.000000	0.003809
2138.000000	0.003889
2137.000000	0.004018
2136.000000	0.004153
2135.000000	0.004232
2134.000000	0.004227
2133.000000	0.004174
2132.000000	0.004112
2131.000000	0.004047
2130.000000	0.003987
2129.000000	0.003966
2128.000000	0.004000
2127.000000	0.004061
2126.000000	0.004129
2125.000000	0.004219
2124.000000	0.004333
2123.000000	0.004423
2122.000000	0.004457
2121.000000	0.004460
2120.000000	0.004472
2119.000000	0.004482
2118.000000	0.004470
2117.000000	0.004466
2116.000000	0.004514
2115.000000	0.004595
2114.000000	0.004653
2113.000000	0.004671
2112.000000	0.004683
2111.000000	0.004716
2110.000000	0.004755
2109.000000	0.004781
2108.000000	0.004786
2107.000000	0.004764
2106.000000	0.004720
2105.000000	0.004681
2104.000000	0.004674
2103.000000	0.004688
2102.000000	0.004690
2101.000000	0.004668
2100.000000	0.004620
2099.000000	0.004533
2098.000000	0.004411
2097.000000	0.004316
2096.000000	0.004307
2095.000000	0.004367
2094.000000	0.004426
2093.000000	0.004453
2092.000000	0.004485
2091.000000	0.004552
2090.000000	0.004631
2089.000000	0.004676
2088.000000	0.004670
2087.000000	0.004635
2086.000000	0.004619
2085.000000	0.004648
2084.000000	0.004696
2083.000000	0.004694
2082.000000	0.004616
2081.000000	0.004522
2080.000000	0.004486
2079.000000	0.004514
2078.000000	0.004547
2077.000000	0.004546
2076.000000	0.004517
2075.000000	0.004479
2074.000000	0.004442
2073.000000	0.004419
2072.000000	0.004416
2071.000000	0.004416
2070.000000	0.004403
2069.000000	0.004388
2068.000000	0.004385
2067.000000	0.004380
2066.000000	0.004354
2065.000000	0.004320
2064.000000	0.004295
2063.000000	0.004267
2062.000000	0.004223
2061.000000	0.004185
2060.000000	0.004175
2059.000000	0.004170
2058.000000	0.004143
2057.000000	0.004115
2056.000000	0.004128
2055.000000	0.004181
2054.000000	0.004256
2053.000000	0.004359
2052.000000	0.004494
2051.000000	0.004618
2050.000000	0.004671
2049.000000	0.004658
2048.000000	0.004628
2047.000000	0.004585
2046.000000	0.004474
2045.000000	0.004275
2044.000000	0.004025
2043.000000	0.003761
2042.000000	0.003509
2041.000000	0.003328
2040.000000	0.003287
2039.000000	0.003409
2038.000000	0.003651
2037.000000	0.003931
2036.000000	0.004133
2035.000000	0.004148
2034.000000	0.003962
2033.000000	0.003657
2032.000000	0.003316
2031.000000	0.002971
2030.000000	0.002709
2029.000000	0.002682
2028.000000	0.002931
2027.000000	0.003278
2026.000000	0.003507
2025.000000	0.003564
2024.000000	0.003537
2023.000000	0.003504
2022.000000	0.003500
2021.000000	0.003541
2020.000000	0.003591
2019.000000	0.003553
2018.000000	0.003414
2017.000000	0.003309
2016.000000	0.003354
2015.000000	0.003481
2014.000000	0.003540
2013.000000	0.003503
2012.000000	0.003459
2011.000000	0.003471
2010.000000	0.003528
2009.000000	0.003609
2008.000000	0.003679
2007.000000	0.003669
2006.000000	0.003551
2005.000000	0.003413
2004.000000	0.003381
2003.000000	0.003479
2002.000000	0.003634
2001.000000	0.003766
2000.000000	0.003834
1999.000000	0.003839
1998.000000	0.003814
1997.000000	0.003798
1996.000000	0.003777
1995.000000	0.003705
1994.000000	0.003601
1993.000000	0.003565
1992.000000	0.003653
1991.000000	0.003785
1990.000000	0.003844
1989.000000	0.003824
1988.000000	0.003798
1987.000000	0.003809
1986.000000	0.003862
1985.000000	0.003964
1984.000000	0.004108
1983.000000	0.004236
1982.000000	0.004281
1981.000000	0.004238
1980.000000	0.004131
1979.000000	0.003961
1978.000000	0.003741
1977.000000	0.003538
1976.000000	0.003417
1975.000000	0.003369
1974.000000	0.003342
1973.000000	0.003303
1972.000000	0.003223
1971.000000	0.003090
1970.000000	0.002963
1969.000000	0.002943
1968.000000	0.003057
1967.000000	0.003221
1966.000000	0.003345
1965.000000	0.003398
1964.000000	0.003374
1963.000000	0.003275
1962.000000	0.003176
1961.000000	0.003197
1960.000000	0.003364
1959.000000	0.003557
1958.000000	0.003651
1957.000000	0.003620
1956.000000	0.003500
1955.000000	0.003332
1954.000000	0.003191
1953.000000	0.003169
1952.000000	0.003263
1951.000000	0.003364
1950.000000	0.003387
1949.000000	0.003377
1948.000000	0.003415
1947.000000	0.003498
1946.000000	0.003563
1945.000000	0.003573
1944.000000	0.003543
1943.000000	0.003498
1942.000000	0.003464
1941.000000	0.003462
1940.000000	0.003493
1939.000000	0.003542
1938.000000	0.003599
1937.000000	0.003653
1936.000000	0.003665
1935.000000	0.003604
1934.000000	0.003517
1933.000000	0.003488
1932.000000	0.003538
1931.000000	0.003598
1930.000000	0.003621
1929.000000	0.003633
1928.000000	0.003649
1927.000000	0.003627
1926.000000	0.003540
1925.000000	0.003443
1924.000000	0.003403
1923.000000	0.003412
1922.000000	0.003433
1921.000000	0.003466
1920.000000	0.003527
1919.000000	0.003593
1918.000000	0.003626
1917.000000	0.003637
1916.000000	0.003662
1915.000000	0.003713
1914.000000	0.003771
1913.000000	0.003807
1912.000000	0.003792
1911.000000	0.003709
1910.000000	0.003603
1909.000000	0.003552
1908.000000	0.003582
1907.000000	0.003641
1906.000000	0.003673
1905.000000	0.003687
1904.000000	0.003706
1903.000000	0.003716
1902.000000	0.003701
1901.000000	0.003686
1900.000000	0.003691
1899.000000	0.003699
1898.000000	0.003691
1897.000000	0.003691
1896.000000	0.003727
1895.000000	0.003775
1894.000000	0.003793
1893.000000	0.003768
1892.000000	0.003713
1891.000000	0.003636
1890.000000	0.003560
1889.000000	0.003536
1888.000000	0.003580
1887.000000	0.003644
1886.000000	0.003678
1885.000000	0.003690
1884.000000	0.003708
1883.000000	0.003722
1882.000000	0.003704
1881.000000	0.003651
1880.000000	0.003590
1879.000000	0.003554
1878.000000	0.003566
1877.000000	0.003631
1876.000000	0.003723
1875.000000	0.003787
1874.000000	0.003785
1873.000000	0.003731
1872.000000	0.003662
1871.000000	0.003594
1870.000000	0.003530
1869.000000	0.003484
1868.000000	0.003471
1867.000000	0.003488
1866.000000	0.003535
1865.000000	0.003617
1864.000000	0.003700
1863.000000	0.003725
1862.000000	0.003682
1861.000000	0.003631
1860.000000	0.003628
1859.000000	0.003665
1858.000000	0.003706
1857.000000	0.003741
1856.000000	0.003767
1855.000000	0.003761
1854.000000	0.003709
1853.000000	0.003637
1852.000000	0.003573
1851.000000	0.003527
1850.000000	0.003489
1849.000000	0.003451
1848.000000	0.003419
1847.000000	0.003410
1846.000000	0.003436
1845.000000	0.003488
1844.000000	0.003529
1843.000000	0.003527
1842.000000	0.003498
1841.000000	0.003494
1840.000000	0.003528
1839.000000	0.003549
1838.000000	0.003522
1837.000000	0.003480
1836.000000	0.003459
1835.000000	0.003438
1834.000000	0.003389
1833.000000	0.003323
1832.000000	0.003263
1831.000000	0.003216
1830.000000	0.003181
1829.000000	0.003173
1828.000000	0.003204
1827.000000	0.003263
1826.000000	0.003336
1825.000000	0.003403
1824.000000	0.003443
1823.000000	0.003441
1822.000000	0.003413
1821.000000	0.003393
1820.000000	0.003389
1819.000000	0.003381
1818.000000	0.003356
1817.000000	0.003345
1816.000000	0.003372
1815.000000	0.003407
1814.000000	0.003409
1813.000000	0.003373
1812.000000	0.003334
1811.000000	0.003317
1810.000000	0.003324
1809.000000	0.003352
1808.000000	0.003390
1807.000000	0.003416
1806.000000	0.003423
1805.000000	0.003422
1804.000000	0.003422
1803.000000	0.003400
1802.000000	0.003344
1801.000000	0.003266
1800.000000	0.003209
1799.000000	0.003190
1798.000000	0.003200
1797.000000	0.003224
1796.000000	0.003249
1795.000000	0.003269
1794.000000	0.003285
1793.000000	0.003295
1792.000000	0.003301
1791.000000	0.003300
1790.000000	0.003296
1789.000000	0.003312
1788.000000	0.003352
1787.000000	0.003395
1786.000000	0.003420
1785.000000	0.003423
1784.000000	0.003395
1783.000000	0.003326
1782.000000	0.003259
1781.000000	0.003233
1780.000000	0.003250
1779.000000	0.003263
1778.000000	0.003237
1777.000000	0.003187
1776.000000	0.003142
1775.000000	0.003126
1774.000000	0.003133
1773.000000	0.003128
1772.000000	0.003100
1771.000000	0.003076
1770.000000	0.003088
1769.000000	0.003159
1768.000000	0.003251
1767.000000	0.003284
1766.000000	0.003245
1765.000000	0.003207
1764.000000	0.003235
1763.000000	0.003310
1762.000000	0.003392
1761.000000	0.003463
1760.000000	0.003531
1759.000000	0.003604
1758.000000	0.003708
1757.000000	0.003854
1756.000000	0.004019
1755.000000	0.004185
1754.000000	0.004386
1753.000000	0.004646
1752.000000	0.004898
1751.000000	0.005036
1750.000000	0.005049
1749.000000	0.005059
1748.000000	0.005146
1747.000000	0.005272
1746.000000	0.005366
1745.000000	0.005392
1744.000000	0.005358
1743.000000	0.005273
1742.000000	0.005158
1741.000000	0.005052
1740.000000	0.004959
1739.000000	0.004824
1738.000000	0.004651
1737.000000	0.004542
1736.000000	0.004549
1735.000000	0.004544
1734.000000	0.004396
1733.000000	0.004143
1732.000000	0.003878
1731.000000	0.003685
1730.000000	0.003607
1729.000000	0.003607
1728.000000	0.003614
1727.000000	0.003589
1726.000000	0.003537
1725.000000	0.003477
1724.000000	0.003431
1723.000000	0.003377
1722.000000	0.003300
1721.000000	0.003238
1720.000000	0.003240
1719.000000	0.003280
1718.000000	0.003304
1717.000000	0.003321
1716.000000	0.003340
1715.000000	0.003345
1714.000000	0.003369
1713.000000	0.003464
1712.000000	0.003628
1711.000000	0.003814
1710.000000	0.003990
1709.000000	0.004154
1708.000000	0.004305
1707.000000	0.004460
1706.000000	0.004643
1705.000000	0.004870
1704.000000	0.005137
1703.000000	0.005482
1702.000000	0.005941
1701.000000	0.006440
1700.000000	0.006852
1699.000000	0.007127
1698.000000	0.007418
1697.000000	0.007944
1696.000000	0.008643
1695.000000	0.009189
1694.000000	0.009441
1693.000000	0.009601
1692.000000	0.009878
1691.000000	0.010258
1690.000000	0.010633
1689.000000	0.010986
1688.000000	0.011379
1687.000000	0.011862
1686.000000	0.012384
1685.000000	0.012841
1684.000000	0.013221
1683.000000	0.013571
1682.000000	0.013941
1681.000000	0.014416
1680.000000	0.014980
1679.000000	0.015528
1678.000000	0.016047
1677.000000	0.016616
1676.000000	0.017245
1675.000000	0.017836
1674.000000	0.018330
1673.000000	0.018785
1672.000000	0.019299
1671.000000	0.019872
1670.000000	0.020472
1669.000000	0.021124
1668.000000	0.021809
1667.000000	0.022446
1666.000000	0.023016
1665.000000	0.023572
1664.000000	0.024130
1663.000000	0.024652
1662.000000	0.025148
1661.000000	0.025664
1660.000000	0.026208
1659.000000	0.026726
1658.000000	0.027170
1657.000000	0.027591
1656.000000	0.028115
1655.000000	0.028731
1654.000000	0.029190
1653.000000	0.029425
1652.000000	0.029596
1651.000000	0.029619
1650.000000	0.029598
1649.000000	0.029728
1648.000000	0.029974
1647.000000	0.030225
1646.000000	0.030489
1645.000000	0.030790
1644.000000	0.031075
1643.000000	0.031309
1642.000000	0.031505
1641.000000	0.031661
1640.000000	0.031774
1639.000000	0.031871
1638.000000	0.031966
1637.000000	0.032015
1636.000000	0.031984
1635.000000	0.031961
1634.000000	0.031994
1633.000000	0.032065
1632.000000	0.032164
1631.000000	0.032230
1630.000000	0.032178
1629.000000	0.031983
1628.000000	0.031702
1627.000000	0.031398
1626.000000	0.031093
1625.000000	0.030741
1624.000000	0.030281
1623.000000	0.029722
1622.000000	0.029174
1621.000000	0.028723
1620.000000	0.028375
1619.000000	0.028055
1618.000000	0.027593
1617.000000	0.026879
1616.000000	0.026047
1615.000000	0.025306
1614.000000	0.024720
1613.000000	0.024243
1612.000000	0.023776
1611.000000	0.023250
1610.000000	0.022695
1609.000000	0.022170
1608.000000	0.021680
1607.000000	0.021203
1606.000000	0.020751
1605.000000	0.020332
1604.000000	0.019935
1603.000000	0.019560
1602.000000	0.019218
1601.000000	0.018915
1600.000000	0.018645
1599.000000	0.018402
1598.000000	0.018186
1597.000000	0.017991
1596.000000	0.017808
1595.000000	0.017645
1594.000000	0.017518
1593.000000	0.017434
1592.000000	0.017380
1591.000000	0.017339
1590.000000	0.017311
1589.000000	0.017300
1588.000000	0.017309
1587.000000	0.017340
1586.000000	0.017399
1585.000000	0.017485
1584.000000	0.017574
1583.000000	0.017668
1582.000000	0.017774
1581.000000	0.017888
1580.000000	0.018019
1579.000000	0.018217
1578.000000	0.018491
1577.000000	0.018751
1576.000000	0.018918
1575.000000	0.019009
1574.000000	0.019092
1573.000000	0.019247
1572.000000	0.019493
1571.000000	0.019746
1570.000000	0.019952
1569.000000	0.020178
1568.000000	0.020468
1567.000000	0.020806
1566.000000	0.021167
1565.000000	0.021528
1564.000000	0.021880
1563.000000	0.022283
1562.000000	0.022798
1561.000000	0.023326
1560.000000	0.023583
1559.000000	0.023582
1558.000000	0.023739
1557.000000	0.024083
1556.000000	0.024484
1555.000000	0.024928
1554.000000	0.025352
1553.000000	0.025687
1552.000000	0.025958
1551.000000	0.026223
1550.000000	0.026484
1549.000000	0.026744
1548.000000	0.027004
1547.000000	0.027249
1546.000000	0.027421
1545.000000	0.027489
1544.000000	0.027499
1543.000000	0.027532
1542.000000	0.027581
1541.000000	0.027589
1540.000000	0.027578
1539.000000	0.027612
1538.000000	0.027619
1537.000000	0.027581
1536.000000	0.027580
1535.000000	0.027587
1534.000000	0.027493
1533.000000	0.027333
1532.000000	0.027241
1531.000000	0.027226
1530.000000	0.027208
1529.000000	0.027151
1528.000000	0.027063
1527.000000	0.026938
1526.000000	0.026754
1525.000000	0.026535
1524.000000	0.026350
1523.000000	0.026201
1522.000000	0.025989
1521.000000	0.025690
1520.000000	0.025377
1519.000000	0.025092
1518.000000	0.024855
1517.000000	0.024673
1516.000000	0.024558
1515.000000	0.024494
1514.000000	0.024430
1513.000000	0.024296
1512.000000	0.024049
1511.000000	0.023712
1510.000000	0.023369
1509.000000	0.023047
1508.000000	0.022642
1507.000000	0.022089
1506.000000	0.021595
1505.000000	0.021260
1504.000000	0.020961
1503.000000	0.020668
1502.000000	0.020388
1501.000000	0.020081
1500.000000	0.019727
1499.000000	0.019353
1498.000000	0.018977
1497.000000	0.018600
1496.000000	0.018223
1495.000000	0.017819
1494.000000	0.017395
1493.000000	0.017005
1492.000000	0.016651
1491.000000	0.016255
1490.000000	0.015806
1489.000000	0.015419
1488.000000	0.015178
1487.000000	0.015040
1486.000000	0.014940
1485.000000	0.014870
1484.000000	0.014824
1483.000000	0.014780
1482.000000	0.014722
1481.000000	0.014678
1480.000000	0.014686
1479.000000	0.014731
1478.000000	0.014777
1477.000000	0.014822
1476.000000	0.014910
1475.000000	0.015062
1474.000000	0.015275
1473.000000	0.015541
1472.000000	0.015869
1471.000000	0.016217
1470.000000	0.016545
1469.000000	0.016882
1468.000000	0.017240
1467.000000	0.017570
1466.000000	0.017828
1465.000000	0.018035
1464.000000	0.018245
1463.000000	0.018468
1462.000000	0.018674
1461.000000	0.018871
1460.000000	0.019096
1459.000000	0.019365
1458.000000	0.019660
1457.000000	0.019977
1456.000000	0.020267
1455.000000	0.020438
1454.000000	0.020554
1453.000000	0.020720
1452.000000	0.020918
1451.000000	0.021070
1450.000000	0.021155
1449.000000	0.021199
1448.000000	0.021212
1447.000000	0.021193
1446.000000	0.021172
1445.000000	0.021158
1444.000000	0.021141
1443.000000	0.021101
1442.000000	0.021025
1441.000000	0.020926
1440.000000	0.020841
1439.000000	0.020777
1438.000000	0.020659
1437.000000	0.020415
1436.000000	0.020096
1435.000000	0.019805
1434.000000	0.019583
1433.000000	0.019420
1432.000000	0.019264
1431.000000	0.019074
1430.000000	0.018876
1429.000000	0.018723
1428.000000	0.018631
1427.000000	0.018560
1426.000000	0.018483
1425.000000	0.018373
1424.000000	0.018240
1423.000000	0.018142
1422.000000	0.018135
1421.000000	0.018195
1420.000000	0.018208
1419.000000	0.018110
1418.000000	0.017968
1417.000000	0.017885
1416.000000	0.017901
1415.000000	0.017978
1414.000000	0.018051
1413.000000	0.018092
1412.000000	0.018115
1411.000000	0.018142
1410.000000	0.018179
1409.000000	0.018241
1408.000000	0.018330
1407.000000	0.018411
1406.000000	0.018466
1405.000000	0.018514
1404.000000	0.018582
1403.000000	0.018662
1402.000000	0.018721
1401.000000	0.018741
1400.000000	0.018714
1399.000000	0.018655
1398.000000	0.018601
1397.000000	0.018582
1396.000000	0.018580
1395.000000	0.018544
1394.000000	0.018459
1393.000000	0.018357
1392.000000	0.018272
1391.000000	0.018214
1390.000000	0.018172
1389.000000	0.018123
1388.000000	0.018043
1387.000000	0.017919
1386.000000	0.017763
1385.000000	0.017615
1384.000000	0.017495
1383.000000	0.017392
1382.000000	0.017281
1381.000000	0.017167
1380.000000	0.017057
1379.000000	0.016932
1378.000000	0.016764
1377.000000	0.016557
1376.000000	0.016323
1375.000000	0.016079
1374.000000	0.015857
1373.000000	0.015691
1372.000000	0.015575
1371.000000	0.015464
1370.000000	0.015318
1369.000000	0.015128
1368.000000	0.014912
1367.000000	0.014691
1366.000000	0.014476
1365.000000	0.014266
1364.000000	0.014060
1363.000000	0.013866
1362.000000	0.013711
1361.000000	0.013608
1360.000000	0.013543
1359.000000	0.013490
1358.000000	0.013441
1357.000000	0.013403
1356.000000	0.013383
1355.000000	0.013382
1354.000000	0.013406
1353.000000	0.013465
1352.000000	0.013556
1351.000000	0.013655
1350.000000	0.013753
1349.000000	0.013861
1348.000000	0.013984
1347.000000	0.014115
1346.000000	0.014254
1345.000000	0.014412
1344.000000	0.014583
1343.000000	0.014741
1342.000000	0.014869
1341.000000	0.014983
1340.000000	0.015094
1339.000000	0.015191
1338.000000	0.015270
1337.000000	0.015342
1336.000000	0.015405
1335.000000	0.015426
1334.000000	0.015384
1333.000000	0.015297
1332.000000	0.015199
1331.000000	0.015096
1330.000000	0.014991
1329.000000	0.014893
1328.000000	0.014807
1327.000000	0.014719
1326.000000	0.014622
1325.000000	0.014532
1324.000000	0.014463
1323.000000	0.014408
1322.000000	0.014350
1321.000000	0.014296
1320.000000	0.014258
1319.000000	0.014230
1318.000000	0.014206
1317.000000	0.014187
1316.000000	0.014175
1315.000000	0.014155
1314.000000	0.014112
1313.000000	0.014056
1312.000000	0.013997
1311.000000	0.013931
1310.000000	0.013851
1309.000000	0.013767
1308.000000	0.013688
1307.000000	0.013606
1306.000000	0.013516
1305.000000	0.013436
1304.000000	0.013377
1303.000000	0.013326
1302.000000	0.013263
1301.000000	0.013191
1300.000000	0.013117
1299.000000	0.013035
1298.000000	0.012944
1297.000000	0.012871
1296.000000	0.012841
1295.000000	0.012843
1294.000000	0.012855
1293.000000	0.012872
1292.000000	0.012911
1291.000000	0.012975
1290.000000	0.013060
1289.000000	0.013169
1288.000000	0.013299
1287.000000	0.013423
1286.000000	0.013518
1285.000000	0.013594
1284.000000	0.013671
1283.000000	0.013749
1282.000000	0.013809
1281.000000	0.013846
1280.000000	0.013872
1279.000000	0.013892
1278.000000	0.013907
1277.000000	0.013922
1276.000000	0.013937
1275.000000	0.013941
1274.000000	0.013931
1273.000000	0.013922
1272.000000	0.013926
1271.000000	0.013939
1270.000000	0.013953
1269.000000	0.013979
1268.000000	0.014026
1267.000000	0.014083
1266.000000	0.014135
1265.000000	0.014189
1264.000000	0.014250
1263.000000	0.014309
1262.000000	0.014363
1261.000000	0.014428
1260.000000	0.014516
1259.000000	0.014613
1258.000000	0.014706
1257.000000	0.014811
1256.000000	0.014946
1255.000000	0.015097
1254.000000	0.015243
1253.000000	0.015386
1252.000000	0.015546
1251.000000	0.015725
1250.000000	0.015911
1249.000000	0.016103
1248.000000	0.016293
1247.000000	0.016464
1246.000000	0.016612
1245.000000	0.016761
1244.000000	0.016937
1243.000000	0.017132
1242.000000	0.017318
1241.000000	0.017487
1240.000000	0.017639
1239.000000	0.017767
1238.000000	0.017864
1237.000000	0.017938
1236.000000	0.017994
1235.000000	0.018022
1234.000000	0.018015
1233.000000	0.017986
1232.000000	0.017943
1231.000000	0.017873
1230.000000	0.017765
1229.000000	0.017626
1228.000000	0.017460
1227.000000	0.017254
1226.000000	0.017000
1225.000000	0.016721
1224.000000	0.016440
1223.000000	0.016158
1222.000000	0.015867
1221.000000	0.015570
1220.000000	0.015282
1219.000000	0.015014
1218.000000	0.014780
1217.000000	0.014596
1216.000000	0.014458
1215.000000	0.014341
1214.000000	0.014237
1213.000000	0.014161
1212.000000	0.014123
1211.000000	0.014108
1210.000000	0.014107
1209.000000	0.014135
1208.000000	0.014201
1207.000000	0.014285
1206.000000	0.014363
1205.000000	0.014430
1204.000000	0.014481
1203.000000	0.014494
1202.000000	0.014464
1201.000000	0.014410
1200.000000	0.014343
1199.000000	0.014245
1198.000000	0.014102
1197.000000	0.013941
1196.000000	0.013789
1195.000000	0.013635
1194.000000	0.013458
1193.000000	0.013264
1192.000000	0.013070
1191.000000	0.012877
1190.000000	0.012690
1189.000000	0.012533
1188.000000	0.012416
1187.000000	0.012318
1186.000000	0.012211
1185.000000	0.012103
1184.000000	0.012015
1183.000000	0.011947
1182.000000	0.011890
1181.000000	0.011846
1180.000000	0.011815
1179.000000	0.011777
1178.000000	0.011724
1177.000000	0.011681
1176.000000	0.011673
1175.000000	0.011688
1174.000000	0.011694
1173.000000	0.011690
1172.000000	0.011697
1171.000000	0.011729
1170.000000	0.011784
1169.000000	0.011865
1168.000000	0.011964
1167.000000	0.012056
1166.000000	0.012132
1165.000000	0.012213
1164.000000	0.012311
1163.000000	0.012399
1162.000000	0.012446
1161.000000	0.012454
1160.000000	0.012439
1159.000000	0.012400
1158.000000	0.012338
1157.000000	0.012273
1156.000000	0.012211
1155.000000	0.012129
1154.000000	0.012007
1153.000000	0.011863
1152.000000	0.011729
1151.000000	0.011604
1150.000000	0.011472
1149.000000	0.011334
1148.000000	0.011196
1147.000000	0.011050
1146.000000	0.010902
1145.000000	0.010772
1144.000000	0.010663
1143.000000	0.010539
1142.000000	0.010381
1141.000000	0.010219
1140.000000	0.010089
1139.000000	0.009976
1138.000000	0.009845
1137.000000	0.009701
1136.000000	0.009574
1135.000000	0.009478
1134.000000	0.009400
1133.000000	0.009335
1132.000000	0.009285
1131.000000	0.009250
1130.000000	0.009235
1129.000000	0.009254
1128.000000	0.009301
1127.000000	0.009334
1126.000000	0.009328
1125.000000	0.009308
1124.000000	0.009308
1123.000000	0.009328
1122.000000	0.009353
1121.000000	0.009389
1120.000000	0.009436
1119.000000	0.009470
1118.000000	0.009474
1117.000000	0.009474
1116.000000	0.009494
1115.000000	0.009528
1114.000000	0.009561
1113.000000	0.009605
1112.000000	0.009671
1111.000000	0.009731
1110.000000	0.009761
1109.000000	0.009778
1108.000000	0.009811
1107.000000	0.009850
1106.000000	0.009879
1105.000000	0.009911
1104.000000	0.009965
1103.000000	0.010022
1102.000000	0.010058
1101.000000	0.010089
1100.000000	0.010138
1099.000000	0.010195
1098.000000	0.010243
1097.000000	0.010296
1096.000000	0.010376
1095.000000	0.010475
1094.000000	0.010576
1093.000000	0.010688
1092.000000	0.010825
1091.000000	0.010972
1090.000000	0.011123
1089.000000	0.011308
1088.000000	0.011555
1087.000000	0.011828
1086.000000	0.012065
1085.000000	0.012243
1084.000000	0.012375
1083.000000	0.012473
1082.000000	0.012547
1081.000000	0.012612
1080.000000	0.012660
1079.000000	0.012650
1078.000000	0.012558
1077.000000	0.012414
1076.000000	0.012260
1075.000000	0.012101
1074.000000	0.011925
1073.000000	0.011753
1072.000000	0.011608
1071.000000	0.011483
1070.000000	0.011372
1069.000000	0.011295
1068.000000	0.011275
1067.000000	0.011291
1066.000000	0.011310
1065.000000	0.011333
1064.000000	0.011372
1063.000000	0.011413
1062.000000	0.011441
1061.000000	0.011467
1060.000000	0.011500
1059.000000	0.011520
1058.000000	0.011507
1057.000000	0.011475
1056.000000	0.011441
1055.000000	0.011394
1054.000000	0.011326
1053.000000	0.011267
1052.000000	0.011236
1051.000000	0.011208
1050.000000	0.011159
1049.000000	0.011110
1048.000000	0.011096
1047.000000	0.011111
1046.000000	0.011131
1045.000000	0.011157
1044.000000	0.011192
1043.000000	0.011217
1042.000000	0.011218
1041.000000	0.011219
1040.000000	0.011248
1039.000000	0.011304
1038.000000	0.011384
1037.000000	0.011515
1036.000000	0.011702
1035.000000	0.011901
1034.000000	0.012065
1033.000000	0.012194
1032.000000	0.012306
1031.000000	0.012383
1030.000000	0.012406
1029.000000	0.012392
1028.000000	0.012369
1027.000000	0.012340
1026.000000	0.012294
1025.000000	0.012237
1024.000000	0.012171
1023.000000	0.012081
1022.000000	0.011972
1021.000000	0.011888
1020.000000	0.011848
1019.000000	0.011815
1018.000000	0.011749
1017.000000	0.011654
1016.000000	0.011546
1015.000000	0.011413
1014.000000	0.011242
1013.000000	0.011055
1012.000000	0.010874
1011.000000	0.010687
1010.000000	0.010487
1009.000000	0.010292
1008.000000	0.010115
1007.000000	0.009931
1006.000000	0.009729
1005.000000	0.009540
1004.000000	0.009393
1003.000000	0.009271
1002.000000	0.009148
1001.000000	0.009030
1000.000000	0.008929
999.000000	0.008824
998.000000	0.008695
997.000000	0.008559
996.000000	0.008425
995.000000	0.008271
994.000000	0.008085
993.000000	0.007899
992.000000	0.007743
991.000000	0.007602
990.000000	0.007458
989.000000	0.007329
988.000000	0.007235
987.000000	0.007152
986.000000	0.007053
985.000000	0.006956
984.000000	0.006890
983.000000	0.006846
982.000000	0.006803
981.000000	0.006765
980.000000	0.006744
979.000000	0.006726
978.000000	0.006695
977.000000	0.006664
976.000000	0.006643
975.000000	0.006614
974.000000	0.006567
973.000000	0.006530
972.000000	0.006510
971.000000	0.006466
970.000000	0.006371
969.000000	0.006267
968.000000	0.006198
967.000000	0.006142
966.000000	0.006062
965.000000	0.005966
964.000000	0.005887
963.000000	0.005814
962.000000	0.005716
961.000000	0.005598
960.000000	0.005487
959.000000	0.005387
958.000000	0.005287
957.000000	0.005204
956.000000	0.005153
955.000000	0.005114
954.000000	0.005057
953.000000	0.004987
952.000000	0.004922
951.000000	0.004855
950.000000	0.004778
949.000000	0.004710
948.000000	0.004666
947.000000	0.004624
946.000000	0.004566
945.000000	0.004518
944.000000	0.004507
943.000000	0.004523
942.000000	0.004542
941.000000	0.004571
940.000000	0.004612
939.000000	0.004636
938.000000	0.004618
937.000000	0.004586
936.000000	0.004573
935.000000	0.004561
934.000000	0.004516
933.000000	0.004440
932.000000	0.004362
931.000000	0.004293
930.000000	0.004242
929.000000	0.004231
928.000000	0.004255
927.000000	0.004262
926.000000	0.004217
925.000000	0.004151
924.000000	0.004118
923.000000	0.004131
922.000000	0.004167
921.000000	0.004210
920.000000	0.004238
919.000000	0.004209
918.000000	0.004116
917.000000	0.004009
916.000000	0.003932
915.000000	0.003871
914.000000	0.003796
913.000000	0.003715
912.000000	0.003650
911.000000	0.003593
910.000000	0.003537
909.000000	0.003510
908.000000	0.003522
907.000000	0.003534
906.000000	0.003514
905.000000	0.003481
904.000000	0.003459
903.000000	0.003424
902.000000	0.003352
901.000000	0.003268
900.000000	0.003199
899.000000	0.003134
898.000000	0.003068
897.000000	0.003037
896.000000	0.003073
895.000000	0.003139
894.000000	0.003185
893.000000	0.003203
892.000000	0.003212
891.000000	0.003201
890.000000	0.003161
889.000000	0.003119
888.000000	0.003107
887.000000	0.003124
886.000000	0.003166
885.000000	0.003253
884.000000	0.003379
883.000000	0.003491
882.000000	0.003562
881.000000	0.003646
880.000000	0.003799
879.000000	0.004001
878.000000	0.004191
877.000000	0.004341
876.000000	0.004438
875.000000	0.004457
874.000000	0.004398
873.000000	0.004301
872.000000	0.004195
871.000000	0.004062
870.000000	0.003904
869.000000	0.003775
868.000000	0.003711
867.000000	0.003678
866.000000	0.003645
865.000000	0.003634
864.000000	0.003655
863.000000	0.003661
862.000000	0.003618
861.000000	0.003566
860.000000	0.003550
859.000000	0.003551
858.000000	0.003534
857.000000	0.003510
856.000000	0.003507
855.000000	0.003523
854.000000	0.003553
853.000000	0.003607
852.000000	0.003665
851.000000	0.003675
850.000000	0.003630
849.000000	0.003589
848.000000	0.003584
847.000000	0.003566
846.000000	0.003501
845.000000	0.003434
844.000000	0.003406
843.000000	0.003395
842.000000	0.003373
841.000000	0.003364
840.000000	0.003384
839.000000	0.003393
838.000000	0.003361
837.000000	0.003326
836.000000	0.003310
835.000000	0.003272
834.000000	0.003190
833.000000	0.003111
832.000000	0.003076
831.000000	0.003054
830.000000	0.003029
829.000000	0.003053
828.000000	0.003151
827.000000	0.003239
826.000000	0.003239
825.000000	0.003177
824.000000	0.003114
823.000000	0.003051
822.000000	0.002986
821.000000	0.002985
820.000000	0.003085
819.000000	0.003223
818.000000	0.003323
817.000000	0.003396
816.000000	0.003471
815.000000	0.003511
814.000000	0.003473
813.000000	0.003388
812.000000	0.003307
811.000000	0.003225
810.000000	0.003139
809.000000	0.003103
808.000000	0.003150
807.000000	0.003218
806.000000	0.003233
805.000000	0.003206
804.000000	0.003179
803.000000	0.003141
802.000000	0.003082
801.000000	0.003046
800.000000	0.003069
799.000000	0.003112
798.000000	0.003136
797.000000	0.003171
796.000000	0.003243
795.000000	0.003303
794.000000	0.003296
793.000000	0.003245
792.000000	0.003203
791.000000	0.003179
790.000000	0.003166
789.000000	0.003188
788.000000	0.003245
787.000000	0.003283
786.000000	0.003278
785.000000	0.003275
784.000000	0.003307
783.000000	0.003333
782.000000	0.003336
781.000000	0.003371
780.000000	0.003471
779.000000	0.003562
778.000000	0.003564
777.000000	0.003497
776.000000	0.003428
775.000000	0.003378
774.000000	0.003339
773.000000	0.003330
772.000000	0.003347
771.000000	0.003338
770.000000	0.003279
769.000000	0.003226
768.000000	0.003232
767.000000	0.003275
766.000000	0.003317
765.000000	0.003356
764.000000	0.003390
763.000000	0.003378
762.000000	0.003320
761.000000	0.003280
760.000000	0.003296
759.000000	0.003330
758.000000	0.003353
757.000000	0.003402
756.000000	0.003483
755.000000	0.003526
754.000000	0.003494
753.000000	0.003452
752.000000	0.003465
751.000000	0.003501
750.000000	0.003515
749.000000	0.003538
748.000000	0.003601
747.000000	0.003655
746.000000	0.003651
745.000000	0.003617
744.000000	0.003605
743.000000	0.003613
742.000000	0.003636
741.000000	0.003707
740.000000	0.003824
739.000000	0.003911
738.000000	0.003926
737.000000	0.003931
736.000000	0.003996
735.000000	0.004103
734.000000	0.004208
733.000000	0.004316
732.000000	0.004417
731.000000	0.004462
730.000000	0.004447
729.000000	0.004453
728.000000	0.004529
727.000000	0.004617
726.000000	0.004649
725.000000	0.004658
724.000000	0.004704
723.000000	0.004785
722.000000	0.004880
721.000000	0.005003
720.000000	0.005143
719.000000	0.005232
718.000000	0.005237
717.000000	0.005211
716.000000	0.005208
715.000000	0.005219
714.000000	0.005247
713.000000	0.005335
712.000000	0.005468
711.000000	0.005552
710.000000	0.005551
709.000000	0.005542
708.000000	0.005573
707.000000	0.005592
706.000000	0.005580
705.000000	0.005625
704.000000	0.005786
703.000000	0.005973
702.000000	0.006072
701.000000	0.006087
700.000000	0.006078
699.000000	0.006056
698.000000	0.006021
697.000000	0.006009
696.000000	0.006028
695.000000	0.006020
694.000000	0.005971
693.000000	0.005964
692.000000	0.006036
691.000000	0.006107
690.000000	0.006125
689.000000	0.006157
688.000000	0.006261
687.000000	0.006369
686.000000	0.006412
685.000000	0.006429
684.000000	0.006461
683.000000	0.006457
682.000000	0.006403
681.000000	0.006393
680.000000	0.006482
679.000000	0.006584
678.000000	0.006617
677.000000	0.006624
676.000000	0.006658
675.000000	0.006687
674.000000	0.006703
673.000000	0.006797
672.000000	0.007006
671.000000	0.007219
670.000000	0.007315
669.000000	0.007266
668.000000	0.007083
667.000000	0.006902
666.000000	0.006904
665.000000	0.006986
664.000000	0.007059
663.000000	0.007094
662.000000	0.007121
661.000000	0.007204
660.000000	0.007326
659.000000	0.007377
658.000000	0.007329
657.000000	0.007288
656.000000	0.007335
655.000000	0.007405
654.000000	0.007416
653.000000	0.007401
652.000000	0.007430
651.000000	0.007473
650.000000	0.007469
649.000000	0.007430
648.000000	0.007396
647.000000	0.007360
646.000000	0.007305
645.000000	0.007275
644.000000	0.007290
643.000000	0.007309
642.000000	0.007312
641.000000	0.007336
640.000000	0.007368
639.000000	0.007313
638.000000	0.007161
637.000000	0.007040
636.000000	0.007035
635.000000	0.007077
634.000000	0.007091
633.000000	0.007118
632.000000	0.007188
631.000000	0.007219
630.000000	0.007171
629.000000	0.007154
628.000000	0.007266
627.000000	0.007413
626.000000	0.007449
625.000000	0.007380
624.000000	0.007309
623.000000	0.007275
622.000000	0.007268
621.000000	0.007310
620.000000	0.007382
619.000000	0.007382
618.000000	0.007273
617.000000	0.007179
616.000000	0.007211
615.000000	0.007307
614.000000	0.007353
613.000000	0.007346
612.000000	0.007329
611.000000	0.007287
610.000000	0.007226
609.000000	0.007227
608.000000	0.007313
607.000000	0.007394
606.000000	0.007415
605.000000	0.007453
604.000000	0.007539
603.000000	0.007556
602.000000	0.007444
601.000000	0.007329
600.000000	0.007306
599.000000	0.007293
598.000000	0.007214
597.000000	0.007164
596.000000	0.007232
595.000000	0.007336
594.000000	0.007379
593.000000	0.007419
592.000000	0.007514
591.000000	0.007564
590.000000	0.007481
589.000000	0.007374
588.000000	0.007388
587.000000	0.007492
586.000000	0.007591
585.000000	0.007692
584.000000	0.007818
583.000000	0.007878
582.000000	0.007795
581.000000	0.007648
580.000000	0.007531
579.000000	0.007428
578.000000	0.007336
577.000000	0.007366
576.000000	0.007552
575.000000	0.007745
574.000000	0.007822
573.000000	0.007852
572.000000	0.007898
571.000000	0.007872
570.000000	0.007738
569.000000	0.007666
568.000000	0.007808
567.000000	0.008071
566.000000	0.008296
565.000000	0.008475
564.000000	0.008630
563.000000	0.008680
562.000000	0.008598
561.000000	0.008505
560.000000	0.008449
559.000000	0.008301
558.000000	0.008041
557.000000	0.007910
556.000000	0.008078
555.000000	0.008364
554.000000	0.008504
553.000000	0.008499
552.000000	0.008485
551.000000	0.008474
550.000000	0.008424
549.000000	0.008394
548.000000	0.008412
547.000000	0.008370
546.000000	0.008230
545.000000	0.008151
544.000000	0.008226
543.000000	0.008305
542.000000	0.008269
541.000000	0.008238
540.000000	0.008305
539.000000	0.008325
538.000000	0.008193
537.000000	0.008094
536.000000	0.008224
535.000000	0.008465
534.000000	0.008598
533.000000	0.008643
532.000000	0.008732
531.000000	0.008824
530.000000	0.008811
529.000000	0.008759
528.000000	0.008785
527.000000	0.008850
526.000000	0.008860
525.000000	0.008852
524.000000	0.008855
523.000000	0.008767
522.000000	0.008552
521.000000	0.008378
520.000000	0.008377
519.000000	0.008445
518.000000	0.008432
517.000000	0.008350
516.000000	0.008212
515.000000	0.007933
514.000000	0.007568
513.000000	0.007391
512.000000	0.007534
511.000000	0.007754
510.000000	0.007757
509.000000	0.007552
508.000000	0.007292
507.000000	0.007016
506.000000	0.006768
505.000000	0.006688
504.000000	0.006778
503.000000	0.006808
502.000000	0.006642
501.000000	0.006452
500.000000	0.006397
499.000000	0.006388
498.000000	0.006369
497.000000	0.006478
496.000000	0.006723
495.000000	0.006808
494.000000	0.006534
493.000000	0.006114
492.000000	0.005836
491.000000	0.005681
490.000000	0.005544
489.000000	0.005518
488.000000	0.005660
487.000000	0.005760
486.000000	0.005664
485.000000	0.005567
484.000000	0.005685
483.000000	0.005876
482.000000	0.005911
481.000000	0.005845
480.000000	0.005815
479.000000	0.005737
478.000000	0.005524
477.000000	0.005341
476.000000	0.005318
475.000000	0.005254
474.000000	0.004929
473.000000	0.004484
472.000000	0.004182
471.000000	0.004017
470.000000	0.003933
469.000000	0.004103
468.000000	0.004588
467.000000	0.005013
466.000000	0.004987
465.000000	0.004639
464.000000	0.004346
463.000000	0.004218
462.000000	0.004172
461.000000	0.004228
460.000000	0.004365
459.000000	0.004337
458.000000	0.004017
457.000000	0.003693
456.000000	0.003587
455.000000	0.003469
454.000000	0.003170
453.000000	0.002956
452.000000	0.003076
451.000000	0.003294
450.000000	0.003288
