PE IR       SUBTECH     SPECTRUM    ASCII       PEDS        4.00        
   -1
3C-H10-C038_1.ASC
22/02/24
11:16:03.00
22/02/24
11:18:49.00
uco
Sample 007 By uco Date Thursday, February 24 2022
450.000000
#HDR
-1
-1
#GR
cm-1
A
1.0
0.0
4000.000000
-1.000000
3551
8
0.070024
0.009077
#DATA
4000.000000	0.010082
3999.000000	0.010101
3998.000000	0.010124
3997.000000	0.010138
3996.000000	0.010137
3995.000000	0.010123
3994.000000	0.010111
3993.000000	0.010112
3992.000000	0.010130
3991.000000	0.010155
3990.000000	0.010172
3989.000000	0.010170
3988.000000	0.010150
3987.000000	0.010125
3986.000000	0.010108
3985.000000	0.010106
3984.000000	0.010120
3983.000000	0.010141
3982.000000	0.010163
3981.000000	0.010180
3980.000000	0.010194
3979.000000	0.010209
3978.000000	0.010231
3977.000000	0.010256
3976.000000	0.010274
3975.000000	0.010275
3974.000000	0.010261
3973.000000	0.010242
3972.000000	0.010228
3971.000000	0.010221
3970.000000	0.010222
3969.000000	0.010229
3968.000000	0.010246
3967.000000	0.010269
3966.000000	0.010295
3965.000000	0.010317
3964.000000	0.010330
3963.000000	0.010333
3962.000000	0.010323
3961.000000	0.010302
3960.000000	0.010276
3959.000000	0.010253
3958.000000	0.010244
3957.000000	0.010254
3956.000000	0.010280
3955.000000	0.010315
3954.000000	0.010346
3953.000000	0.010366
3952.000000	0.010376
3951.000000	0.010380
3950.000000	0.010381
3949.000000	0.010380
3948.000000	0.010375
3947.000000	0.010362
3946.000000	0.010343
3945.000000	0.010321
3944.000000	0.010301
3943.000000	0.010293
3942.000000	0.010303
3941.000000	0.010324
3940.000000	0.010342
3939.000000	0.010347
3938.000000	0.010342
3937.000000	0.010337
3936.000000	0.010338
3935.000000	0.010344
3934.000000	0.010351
3933.000000	0.010354
3932.000000	0.010355
3931.000000	0.010355
3930.000000	0.010356
3929.000000	0.010358
3928.000000	0.010358
3927.000000	0.010359
3926.000000	0.010360
3925.000000	0.010364
3924.000000	0.010367
3923.000000	0.010367
3922.000000	0.010360
3921.000000	0.010348
3920.000000	0.010336
3919.000000	0.010326
3918.000000	0.010319
3917.000000	0.010312
3916.000000	0.010304
3915.000000	0.010300
3914.000000	0.010302
3913.000000	0.010311
3912.000000	0.010324
3911.000000	0.010337
3910.000000	0.010348
3909.000000	0.010352
3908.000000	0.010347
3907.000000	0.010336
3906.000000	0.010331
3905.000000	0.010341
3904.000000	0.010372
3903.000000	0.010416
3902.000000	0.010454
3901.000000	0.010472
3900.000000	0.010467
3899.000000	0.010453
3898.000000	0.010444
3897.000000	0.010442
3896.000000	0.010439
3895.000000	0.010428
3894.000000	0.010414
3893.000000	0.010404
3892.000000	0.010410
3891.000000	0.010430
3890.000000	0.010453
3889.000000	0.010465
3888.000000	0.010460
3887.000000	0.010441
3886.000000	0.010413
3885.000000	0.010385
3884.000000	0.010363
3883.000000	0.010340
3882.000000	0.010314
3881.000000	0.010292
3880.000000	0.010288
3879.000000	0.010308
3878.000000	0.010341
3877.000000	0.010372
3876.000000	0.010389
3875.000000	0.010391
3874.000000	0.010389
3873.000000	0.010393
3872.000000	0.010408
3871.000000	0.010423
3870.000000	0.010429
3869.000000	0.010434
3868.000000	0.010455
3867.000000	0.010493
3866.000000	0.010534
3865.000000	0.010552
3864.000000	0.010534
3863.000000	0.010488
3862.000000	0.010441
3861.000000	0.010412
3860.000000	0.010409
3859.000000	0.010421
3858.000000	0.010437
3857.000000	0.010458
3856.000000	0.010485
3855.000000	0.010518
3854.000000	0.010551
3853.000000	0.010582
3852.000000	0.010603
3851.000000	0.010603
3850.000000	0.010579
3849.000000	0.010544
3848.000000	0.010504
3847.000000	0.010463
3846.000000	0.010422
3845.000000	0.010387
3844.000000	0.010364
3843.000000	0.010356
3842.000000	0.010362
3841.000000	0.010381
3840.000000	0.010410
3839.000000	0.010442
3838.000000	0.010467
3837.000000	0.010474
3836.000000	0.010459
3835.000000	0.010431
3834.000000	0.010405
3833.000000	0.010394
3832.000000	0.010400
3831.000000	0.010415
3830.000000	0.010426
3829.000000	0.010425
3828.000000	0.010414
3827.000000	0.010404
3826.000000	0.010402
3825.000000	0.010413
3824.000000	0.010433
3823.000000	0.010455
3822.000000	0.010466
3821.000000	0.010462
3820.000000	0.010455
3819.000000	0.010459
3818.000000	0.010471
3817.000000	0.010482
3816.000000	0.010476
3815.000000	0.010451
3814.000000	0.010418
3813.000000	0.010389
3812.000000	0.010374
3811.000000	0.010372
3810.000000	0.010379
3809.000000	0.010392
3808.000000	0.010411
3807.000000	0.010433
3806.000000	0.010458
3805.000000	0.010481
3804.000000	0.010502
3803.000000	0.010517
3802.000000	0.010513
3801.000000	0.010489
3800.000000	0.010455
3799.000000	0.010418
3798.000000	0.010380
3797.000000	0.010346
3796.000000	0.010317
3795.000000	0.010296
3794.000000	0.010285
3793.000000	0.010284
3792.000000	0.010292
3791.000000	0.010305
3790.000000	0.010314
3789.000000	0.010317
3788.000000	0.010313
3787.000000	0.010306
3786.000000	0.010302
3785.000000	0.010299
3784.000000	0.010299
3783.000000	0.010304
3782.000000	0.010312
3781.000000	0.010320
3780.000000	0.010317
3779.000000	0.010300
3778.000000	0.010275
3777.000000	0.010251
3776.000000	0.010237
3775.000000	0.010233
3774.000000	0.010234
3773.000000	0.010233
3772.000000	0.010230
3771.000000	0.010228
3770.000000	0.010232
3769.000000	0.010245
3768.000000	0.010257
3767.000000	0.010258
3766.000000	0.010250
3765.000000	0.010241
3764.000000	0.010242
3763.000000	0.010255
3762.000000	0.010268
3761.000000	0.010268
3760.000000	0.010253
3759.000000	0.010243
3758.000000	0.010255
3757.000000	0.010288
3756.000000	0.010323
3755.000000	0.010350
3754.000000	0.010372
3753.000000	0.010395
3752.000000	0.010424
3751.000000	0.010457
3750.000000	0.010486
3749.000000	0.010490
3748.000000	0.010455
3747.000000	0.010396
3746.000000	0.010339
3745.000000	0.010305
3744.000000	0.010305
3743.000000	0.010321
3742.000000	0.010325
3741.000000	0.010316
3740.000000	0.010311
3739.000000	0.010323
3738.000000	0.010350
3737.000000	0.010369
3736.000000	0.010341
3735.000000	0.010254
3734.000000	0.010148
3733.000000	0.010080
3732.000000	0.010073
3731.000000	0.010106
3730.000000	0.010143
3729.000000	0.010167
3728.000000	0.010179
3727.000000	0.010182
3726.000000	0.010180
3725.000000	0.010175
3724.000000	0.010160
3723.000000	0.010128
3722.000000	0.010089
3721.000000	0.010063
3720.000000	0.010063
3719.000000	0.010086
3718.000000	0.010113
3717.000000	0.010126
3716.000000	0.010125
3715.000000	0.010129
3714.000000	0.010164
3713.000000	0.010233
3712.000000	0.010303
3711.000000	0.010331
3710.000000	0.010307
3709.000000	0.010254
3708.000000	0.010205
3707.000000	0.010172
3706.000000	0.010154
3705.000000	0.010141
3704.000000	0.010122
3703.000000	0.010093
3702.000000	0.010061
3701.000000	0.010042
3700.000000	0.010045
3699.000000	0.010066
3698.000000	0.010092
3697.000000	0.010114
3696.000000	0.010134
3695.000000	0.010160
3694.000000	0.010195
3693.000000	0.010232
3692.000000	0.010254
3691.000000	0.010248
3690.000000	0.010223
3689.000000	0.010202
3688.000000	0.010206
3687.000000	0.010219
3686.000000	0.010219
3685.000000	0.010203
3684.000000	0.010187
3683.000000	0.010189
3682.000000	0.010221
3681.000000	0.010288
3680.000000	0.010389
3679.000000	0.010524
3678.000000	0.010680
3677.000000	0.010812
3676.000000	0.010861
3675.000000	0.010821
3674.000000	0.010752
3673.000000	0.010697
3672.000000	0.010666
3671.000000	0.010645
3670.000000	0.010620
3669.000000	0.010592
3668.000000	0.010563
3667.000000	0.010534
3666.000000	0.010508
3665.000000	0.010493
3664.000000	0.010489
3663.000000	0.010490
3662.000000	0.010492
3661.000000	0.010493
3660.000000	0.010493
3659.000000	0.010494
3658.000000	0.010502
3657.000000	0.010528
3656.000000	0.010587
3655.000000	0.010674
3654.000000	0.010768
3653.000000	0.010847
3652.000000	0.010900
3651.000000	0.010926
3650.000000	0.010931
3649.000000	0.010938
3648.000000	0.010956
3647.000000	0.010976
3646.000000	0.010993
3645.000000	0.011009
3644.000000	0.011026
3643.000000	0.011048
3642.000000	0.011079
3641.000000	0.011119
3640.000000	0.011161
3639.000000	0.011200
3638.000000	0.011236
3637.000000	0.011275
3636.000000	0.011317
3635.000000	0.011357
3634.000000	0.011390
3633.000000	0.011423
3632.000000	0.011470
3631.000000	0.011541
3630.000000	0.011623
3629.000000	0.011690
3628.000000	0.011730
3627.000000	0.011743
3626.000000	0.011730
3625.000000	0.011709
3624.000000	0.011700
3623.000000	0.011708
3622.000000	0.011728
3621.000000	0.011756
3620.000000	0.011802
3619.000000	0.011878
3618.000000	0.011980
3617.000000	0.012081
3616.000000	0.012164
3615.000000	0.012231
3614.000000	0.012292
3613.000000	0.012356
3612.000000	0.012425
3611.000000	0.012494
3610.000000	0.012558
3609.000000	0.012608
3608.000000	0.012637
3607.000000	0.012654
3606.000000	0.012670
3605.000000	0.012692
3604.000000	0.012720
3603.000000	0.012746
3602.000000	0.012771
3601.000000	0.012800
3600.000000	0.012846
3599.000000	0.012916
3598.000000	0.013004
3597.000000	0.013094
3596.000000	0.013167
3595.000000	0.013215
3594.000000	0.013245
3593.000000	0.013274
3592.000000	0.013313
3591.000000	0.013366
3590.000000	0.013425
3589.000000	0.013477
3588.000000	0.013521
3587.000000	0.013570
3586.000000	0.013637
3585.000000	0.013719
3584.000000	0.013801
3583.000000	0.013877
3582.000000	0.013949
3581.000000	0.014024
3580.000000	0.014102
3579.000000	0.014187
3578.000000	0.014282
3577.000000	0.014383
3576.000000	0.014483
3575.000000	0.014575
3574.000000	0.014654
3573.000000	0.014721
3572.000000	0.014781
3571.000000	0.014844
3570.000000	0.014922
3569.000000	0.015018
3568.000000	0.015116
3567.000000	0.015199
3566.000000	0.015269
3565.000000	0.015334
3564.000000	0.015396
3563.000000	0.015451
3562.000000	0.015503
3561.000000	0.015559
3560.000000	0.015623
3559.000000	0.015697
3558.000000	0.015780
3557.000000	0.015870
3556.000000	0.015965
3555.000000	0.016064
3554.000000	0.016167
3553.000000	0.016268
3552.000000	0.016357
3551.000000	0.016427
3550.000000	0.016479
3549.000000	0.016526
3548.000000	0.016582
3547.000000	0.016654
3546.000000	0.016738
3545.000000	0.016820
3544.000000	0.016891
3543.000000	0.016951
3542.000000	0.017011
3541.000000	0.017079
3540.000000	0.017152
3539.000000	0.017226
3538.000000	0.017299
3537.000000	0.017376
3536.000000	0.017455
3535.000000	0.017533
3534.000000	0.017608
3533.000000	0.017680
3532.000000	0.017754
3531.000000	0.017837
3530.000000	0.017930
3529.000000	0.018031
3528.000000	0.018131
3527.000000	0.018226
3526.000000	0.018319
3525.000000	0.018410
3524.000000	0.018492
3523.000000	0.018558
3522.000000	0.018611
3521.000000	0.018666
3520.000000	0.018735
3519.000000	0.018817
3518.000000	0.018901
3517.000000	0.018976
3516.000000	0.019041
3515.000000	0.019099
3514.000000	0.019155
3513.000000	0.019211
3512.000000	0.019269
3511.000000	0.019332
3510.000000	0.019399
3509.000000	0.019471
3508.000000	0.019550
3507.000000	0.019641
3506.000000	0.019745
3505.000000	0.019856
3504.000000	0.019954
3503.000000	0.020024
3502.000000	0.020069
3501.000000	0.020103
3500.000000	0.020140
3499.000000	0.020188
3498.000000	0.020244
3497.000000	0.020300
3496.000000	0.020351
3495.000000	0.020396
3494.000000	0.020440
3493.000000	0.020488
3492.000000	0.020540
3491.000000	0.020597
3490.000000	0.020663
3489.000000	0.020739
3488.000000	0.020818
3487.000000	0.020890
3486.000000	0.020954
3485.000000	0.021020
3484.000000	0.021097
3483.000000	0.021186
3482.000000	0.021281
3481.000000	0.021372
3480.000000	0.021448
3479.000000	0.021504
3478.000000	0.021546
3477.000000	0.021583
3476.000000	0.021627
3475.000000	0.021681
3474.000000	0.021746
3473.000000	0.021817
3472.000000	0.021885
3471.000000	0.021947
3470.000000	0.021999
3469.000000	0.022046
3468.000000	0.022094
3467.000000	0.022146
3466.000000	0.022206
3465.000000	0.022271
3464.000000	0.022341
3463.000000	0.022414
3462.000000	0.022486
3461.000000	0.022551
3460.000000	0.022601
3459.000000	0.022643
3458.000000	0.022697
3457.000000	0.022780
3456.000000	0.022887
3455.000000	0.022993
3454.000000	0.023074
3453.000000	0.023123
3452.000000	0.023150
3451.000000	0.023174
3450.000000	0.023210
3449.000000	0.023266
3448.000000	0.023340
3447.000000	0.023421
3446.000000	0.023502
3445.000000	0.023581
3444.000000	0.023655
3443.000000	0.023717
3442.000000	0.023763
3441.000000	0.023794
3440.000000	0.023823
3439.000000	0.023862
3438.000000	0.023922
3437.000000	0.024003
3436.000000	0.024094
3435.000000	0.024181
3434.000000	0.024256
3433.000000	0.024321
3432.000000	0.024389
3431.000000	0.024468
3430.000000	0.024557
3429.000000	0.024644
3428.000000	0.024717
3427.000000	0.024772
3426.000000	0.024817
3425.000000	0.024867
3424.000000	0.024930
3423.000000	0.025006
3422.000000	0.025084
3421.000000	0.025158
3420.000000	0.025223
3419.000000	0.025281
3418.000000	0.025335
3417.000000	0.025388
3416.000000	0.025441
3415.000000	0.025494
3414.000000	0.025546
3413.000000	0.025597
3412.000000	0.025651
3411.000000	0.025718
3410.000000	0.025804
3409.000000	0.025904
3408.000000	0.026000
3407.000000	0.026077
3406.000000	0.026132
3405.000000	0.026178
3404.000000	0.026231
3403.000000	0.026296
3402.000000	0.026368
3401.000000	0.026437
3400.000000	0.026497
3399.000000	0.026554
3398.000000	0.026621
3397.000000	0.026703
3396.000000	0.026793
3395.000000	0.026876
3394.000000	0.026944
3393.000000	0.027000
3392.000000	0.027052
3391.000000	0.027106
3390.000000	0.027157
3389.000000	0.027200
3388.000000	0.027241
3387.000000	0.027293
3386.000000	0.027368
3385.000000	0.027461
3384.000000	0.027556
3383.000000	0.027637
3382.000000	0.027696
3381.000000	0.027737
3380.000000	0.027771
3379.000000	0.027818
3378.000000	0.027896
3377.000000	0.028007
3376.000000	0.028130
3375.000000	0.028240
3374.000000	0.028324
3373.000000	0.028392
3372.000000	0.028460
3371.000000	0.028538
3370.000000	0.028622
3369.000000	0.028706
3368.000000	0.028786
3367.000000	0.028867
3366.000000	0.028952
3365.000000	0.029043
3364.000000	0.029135
3363.000000	0.029229
3362.000000	0.029334
3361.000000	0.029453
3360.000000	0.029581
3359.000000	0.029698
3358.000000	0.029793
3357.000000	0.029871
3356.000000	0.029950
3355.000000	0.030043
3354.000000	0.030153
3353.000000	0.030269
3352.000000	0.030381
3351.000000	0.030487
3350.000000	0.030595
3349.000000	0.030713
3348.000000	0.030845
3347.000000	0.030982
3346.000000	0.031113
3345.000000	0.031228
3344.000000	0.031331
3343.000000	0.031434
3342.000000	0.031545
3341.000000	0.031659
3340.000000	0.031765
3339.000000	0.031856
3338.000000	0.031941
3337.000000	0.032033
3336.000000	0.032134
3335.000000	0.032238
3334.000000	0.032340
3333.000000	0.032437
3332.000000	0.032529
3331.000000	0.032622
3330.000000	0.032714
3329.000000	0.032803
3328.000000	0.032883
3327.000000	0.032956
3326.000000	0.033031
3325.000000	0.033118
3324.000000	0.033216
3323.000000	0.033316
3322.000000	0.033402
3321.000000	0.033472
3320.000000	0.033531
3319.000000	0.033593
3318.000000	0.033667
3317.000000	0.033752
3316.000000	0.033845
3315.000000	0.033935
3314.000000	0.034013
3313.000000	0.034073
3312.000000	0.034121
3311.000000	0.034168
3310.000000	0.034226
3309.000000	0.034285
3308.000000	0.034329
3307.000000	0.034353
3306.000000	0.034370
3305.000000	0.034403
3304.000000	0.034463
3303.000000	0.034547
3302.000000	0.034645
3301.000000	0.034740
3300.000000	0.034815
3299.000000	0.034859
3298.000000	0.034882
3297.000000	0.034900
3296.000000	0.034925
3295.000000	0.034958
3294.000000	0.034993
3293.000000	0.035026
3292.000000	0.035056
3291.000000	0.035084
3290.000000	0.035110
3289.000000	0.035135
3288.000000	0.035156
3287.000000	0.035174
3286.000000	0.035193
3285.000000	0.035207
3284.000000	0.035211
3283.000000	0.035195
3282.000000	0.035163
3281.000000	0.035123
3280.000000	0.035087
3279.000000	0.035059
3278.000000	0.035036
3277.000000	0.035010
3276.000000	0.034979
3275.000000	0.034945
3274.000000	0.034915
3273.000000	0.034890
3272.000000	0.034863
3271.000000	0.034825
3270.000000	0.034780
3269.000000	0.034736
3268.000000	0.034698
3267.000000	0.034665
3266.000000	0.034629
3265.000000	0.034583
3264.000000	0.034526
3263.000000	0.034463
3262.000000	0.034401
3261.000000	0.034340
3260.000000	0.034277
3259.000000	0.034208
3258.000000	0.034136
3257.000000	0.034071
3256.000000	0.034013
3255.000000	0.033952
3254.000000	0.033876
3253.000000	0.033785
3252.000000	0.033690
3251.000000	0.033604
3250.000000	0.033534
3249.000000	0.033475
3248.000000	0.033417
3247.000000	0.033353
3246.000000	0.033281
3245.000000	0.033205
3244.000000	0.033126
3243.000000	0.033041
3242.000000	0.032952
3241.000000	0.032869
3240.000000	0.032801
3239.000000	0.032752
3238.000000	0.032717
3237.000000	0.032687
3236.000000	0.032655
3235.000000	0.032619
3234.000000	0.032576
3233.000000	0.032520
3232.000000	0.032450
3231.000000	0.032371
3230.000000	0.032300
3229.000000	0.032246
3228.000000	0.032207
3227.000000	0.032169
3226.000000	0.032120
3225.000000	0.032057
3224.000000	0.031990
3223.000000	0.031931
3222.000000	0.031890
3221.000000	0.031862
3220.000000	0.031834
3219.000000	0.031799
3218.000000	0.031759
3217.000000	0.031721
3216.000000	0.031686
3215.000000	0.031646
3214.000000	0.031591
3213.000000	0.031517
3212.000000	0.031429
3211.000000	0.031343
3210.000000	0.031271
3209.000000	0.031221
3208.000000	0.031190
3207.000000	0.031168
3206.000000	0.031146
3205.000000	0.031113
3204.000000	0.031057
3203.000000	0.030980
3202.000000	0.030899
3201.000000	0.030834
3200.000000	0.030790
3199.000000	0.030750
3198.000000	0.030696
3197.000000	0.030624
3196.000000	0.030543
3195.000000	0.030468
3194.000000	0.030402
3193.000000	0.030340
3192.000000	0.030275
3191.000000	0.030202
3190.000000	0.030126
3189.000000	0.030052
3188.000000	0.029989
3187.000000	0.029934
3186.000000	0.029873
3185.000000	0.029795
3184.000000	0.029699
3183.000000	0.029598
3182.000000	0.029508
3181.000000	0.029437
3180.000000	0.029380
3179.000000	0.029321
3178.000000	0.029241
3177.000000	0.029137
3176.000000	0.029025
3175.000000	0.028929
3174.000000	0.028856
3173.000000	0.028798
3172.000000	0.028738
3171.000000	0.028670
3170.000000	0.028596
3169.000000	0.028514
3168.000000	0.028420
3167.000000	0.028316
3166.000000	0.028210
3165.000000	0.028109
3164.000000	0.028014
3163.000000	0.027927
3162.000000	0.027852
3161.000000	0.027788
3160.000000	0.027728
3159.000000	0.027659
3158.000000	0.027580
3157.000000	0.027494
3156.000000	0.027407
3155.000000	0.027322
3154.000000	0.027250
3153.000000	0.027203
3152.000000	0.027184
3151.000000	0.027177
3150.000000	0.027154
3149.000000	0.027092
3148.000000	0.026994
3147.000000	0.026887
3146.000000	0.026796
3145.000000	0.026732
3144.000000	0.026681
3143.000000	0.026626
3142.000000	0.026559
3141.000000	0.026489
3140.000000	0.026427
3139.000000	0.026377
3138.000000	0.026335
3137.000000	0.026298
3136.000000	0.026262
3135.000000	0.026222
3134.000000	0.026168
3133.000000	0.026094
3132.000000	0.026007
3131.000000	0.025931
3130.000000	0.025885
3129.000000	0.025872
3128.000000	0.025872
3127.000000	0.025866
3126.000000	0.025849
3125.000000	0.025824
3124.000000	0.025795
3123.000000	0.025758
3122.000000	0.025707
3121.000000	0.025647
3120.000000	0.025595
3119.000000	0.025568
3118.000000	0.025572
3117.000000	0.025593
3116.000000	0.025609
3115.000000	0.025605
3114.000000	0.025582
3113.000000	0.025551
3112.000000	0.025526
3111.000000	0.025517
3110.000000	0.025528
3109.000000	0.025551
3108.000000	0.025574
3107.000000	0.025593
3106.000000	0.025612
3105.000000	0.025638
3104.000000	0.025668
3103.000000	0.025693
3102.000000	0.025705
3101.000000	0.025702
3100.000000	0.025696
3099.000000	0.025700
3098.000000	0.025722
3097.000000	0.025758
3096.000000	0.025796
3095.000000	0.025827
3094.000000	0.025846
3093.000000	0.025858
3092.000000	0.025870
3091.000000	0.025886
3090.000000	0.025912
3089.000000	0.025943
3088.000000	0.025970
3087.000000	0.025982
3086.000000	0.025981
3085.000000	0.025976
3084.000000	0.025978
3083.000000	0.025992
3082.000000	0.026014
3081.000000	0.026036
3080.000000	0.026052
3079.000000	0.026065
3078.000000	0.026080
3077.000000	0.026096
3076.000000	0.026104
3075.000000	0.026093
3074.000000	0.026069
3073.000000	0.026045
3072.000000	0.026033
3071.000000	0.026032
3070.000000	0.026033
3069.000000	0.026026
3068.000000	0.026008
3067.000000	0.025983
3066.000000	0.025958
3065.000000	0.025934
3064.000000	0.025916
3063.000000	0.025904
3062.000000	0.025896
3061.000000	0.025880
3060.000000	0.025839
3059.000000	0.025769
3058.000000	0.025680
3057.000000	0.025596
3056.000000	0.025530
3055.000000	0.025485
3054.000000	0.025447
3053.000000	0.025404
3052.000000	0.025352
3051.000000	0.025294
3050.000000	0.025234
3049.000000	0.025168
3048.000000	0.025092
3047.000000	0.025011
3046.000000	0.024934
3045.000000	0.024869
3044.000000	0.024807
3043.000000	0.024741
3042.000000	0.024666
3041.000000	0.024588
3040.000000	0.024514
3039.000000	0.024446
3038.000000	0.024383
3037.000000	0.024322
3036.000000	0.024259
3035.000000	0.024190
3034.000000	0.024113
3033.000000	0.024033
3032.000000	0.023955
3031.000000	0.023885
3030.000000	0.023826
3029.000000	0.023772
3028.000000	0.023713
3027.000000	0.023648
3026.000000	0.023580
3025.000000	0.023517
3024.000000	0.023460
3023.000000	0.023410
3022.000000	0.023369
3021.000000	0.023340
3020.000000	0.023317
3019.000000	0.023290
3018.000000	0.023252
3017.000000	0.023201
3016.000000	0.023145
3015.000000	0.023095
3014.000000	0.023057
3013.000000	0.023034
3012.000000	0.023012
3011.000000	0.022985
3010.000000	0.022956
3009.000000	0.022935
3008.000000	0.022929
3007.000000	0.022933
3006.000000	0.022939
3005.000000	0.022945
3004.000000	0.022954
3003.000000	0.022964
3002.000000	0.022973
3001.000000	0.022982
3000.000000	0.022993
2999.000000	0.023004
2998.000000	0.023012
2997.000000	0.023017
2996.000000	0.023030
2995.000000	0.023067
2994.000000	0.023135
2993.000000	0.023223
2992.000000	0.023308
2991.000000	0.023377
2990.000000	0.023434
2989.000000	0.023496
2988.000000	0.023577
2987.000000	0.023677
2986.000000	0.023787
2985.000000	0.023903
2984.000000	0.024030
2983.000000	0.024171
2982.000000	0.024327
2981.000000	0.024483
2980.000000	0.024622
2979.000000	0.024735
2978.000000	0.024833
2977.000000	0.024936
2976.000000	0.025061
2975.000000	0.025209
2974.000000	0.025371
2973.000000	0.025540
2972.000000	0.025713
2971.000000	0.025894
2970.000000	0.026086
2969.000000	0.026289
2968.000000	0.026502
2967.000000	0.026721
2966.000000	0.026949
2965.000000	0.027185
2964.000000	0.027430
2963.000000	0.027672
2962.000000	0.027895
2961.000000	0.028086
2960.000000	0.028243
2959.000000	0.028376
2958.000000	0.028500
2957.000000	0.028618
2956.000000	0.028721
2955.000000	0.028793
2954.000000	0.028825
2953.000000	0.028822
2952.000000	0.028796
2951.000000	0.028764
2950.000000	0.028747
2949.000000	0.028758
2948.000000	0.028805
2947.000000	0.028884
2946.000000	0.028994
2945.000000	0.029130
2944.000000	0.029296
2943.000000	0.029498
2942.000000	0.029740
2941.000000	0.030021
2940.000000	0.030334
2939.000000	0.030671
2938.000000	0.031031
2937.000000	0.031414
2936.000000	0.031822
2935.000000	0.032255
2934.000000	0.032717
2933.000000	0.033210
2932.000000	0.033723
2931.000000	0.034229
2930.000000	0.034702
2929.000000	0.035135
2928.000000	0.035540
2927.000000	0.035935
2926.000000	0.036322
2925.000000	0.036689
2924.000000	0.037015
2923.000000	0.037278
2922.000000	0.037467
2921.000000	0.037574
2920.000000	0.037593
2919.000000	0.037508
2918.000000	0.037291
2917.000000	0.036915
2916.000000	0.036378
2915.000000	0.035708
2914.000000	0.034955
2913.000000	0.034176
2912.000000	0.033422
2911.000000	0.032727
2910.000000	0.032113
2909.000000	0.031581
2908.000000	0.031118
2907.000000	0.030708
2906.000000	0.030345
2905.000000	0.030026
2904.000000	0.029748
2903.000000	0.029495
2902.000000	0.029247
2901.000000	0.028995
2900.000000	0.028750
2899.000000	0.028527
2898.000000	0.028332
2897.000000	0.028154
2896.000000	0.027979
2895.000000	0.027802
2894.000000	0.027627
2893.000000	0.027461
2892.000000	0.027303
2891.000000	0.027150
2890.000000	0.027002
2889.000000	0.026867
2888.000000	0.026755
2887.000000	0.026670
2886.000000	0.026609
2885.000000	0.026562
2884.000000	0.026517
2883.000000	0.026468
2882.000000	0.026419
2881.000000	0.026382
2880.000000	0.026367
2879.000000	0.026374
2878.000000	0.026398
2877.000000	0.026430
2876.000000	0.026467
2875.000000	0.026506
2874.000000	0.026544
2873.000000	0.026570
2872.000000	0.026573
2871.000000	0.026549
2870.000000	0.026508
2869.000000	0.026463
2868.000000	0.026427
2867.000000	0.026408
2866.000000	0.026407
2865.000000	0.026430
2864.000000	0.026491
2863.000000	0.026607
2862.000000	0.026787
2861.000000	0.027026
2860.000000	0.027308
2859.000000	0.027618
2858.000000	0.027952
2857.000000	0.028311
2856.000000	0.028694
2855.000000	0.029089
2854.000000	0.029469
2853.000000	0.029800
2852.000000	0.030034
2851.000000	0.030119
2850.000000	0.030002
2849.000000	0.029657
2848.000000	0.029101
2847.000000	0.028397
2846.000000	0.027631
2845.000000	0.026882
2844.000000	0.026197
2843.000000	0.025596
2842.000000	0.025077
2841.000000	0.024638
2840.000000	0.024272
2839.000000	0.023972
2838.000000	0.023720
2837.000000	0.023500
2836.000000	0.023298
2835.000000	0.023111
2834.000000	0.022939
2833.000000	0.022787
2832.000000	0.022655
2831.000000	0.022542
2830.000000	0.022440
2829.000000	0.022342
2828.000000	0.022245
2827.000000	0.022152
2826.000000	0.022066
2825.000000	0.021992
2824.000000	0.021932
2823.000000	0.021877
2822.000000	0.021816
2821.000000	0.021740
2820.000000	0.021656
2819.000000	0.021579
2818.000000	0.021516
2817.000000	0.021458
2816.000000	0.021393
2815.000000	0.021318
2814.000000	0.021242
2813.000000	0.021173
2812.000000	0.021112
2811.000000	0.021059
2810.000000	0.021011
2809.000000	0.020971
2808.000000	0.020937
2807.000000	0.020908
2806.000000	0.020883
2805.000000	0.020859
2804.000000	0.020835
2803.000000	0.020805
2802.000000	0.020763
2801.000000	0.020707
2800.000000	0.020645
2799.000000	0.020593
2798.000000	0.020558
2797.000000	0.020529
2796.000000	0.020491
2795.000000	0.020446
2794.000000	0.020404
2793.000000	0.020375
2792.000000	0.020353
2791.000000	0.020328
2790.000000	0.020290
2789.000000	0.020242
2788.000000	0.020185
2787.000000	0.020129
2786.000000	0.020080
2785.000000	0.020042
2784.000000	0.020012
2783.000000	0.019987
2782.000000	0.019961
2781.000000	0.019934
2780.000000	0.019903
2779.000000	0.019868
2778.000000	0.019835
2777.000000	0.019809
2776.000000	0.019795
2775.000000	0.019787
2774.000000	0.019773
2773.000000	0.019744
2772.000000	0.019699
2771.000000	0.019649
2770.000000	0.019606
2769.000000	0.019572
2768.000000	0.019549
2767.000000	0.019534
2766.000000	0.019519
2765.000000	0.019494
2764.000000	0.019459
2763.000000	0.019421
2762.000000	0.019386
2761.000000	0.019351
2760.000000	0.019305
2759.000000	0.019252
2758.000000	0.019209
2757.000000	0.019191
2756.000000	0.019189
2755.000000	0.019181
2754.000000	0.019158
2753.000000	0.019125
2752.000000	0.019094
2751.000000	0.019072
2750.000000	0.019056
2749.000000	0.019042
2748.000000	0.019028
2747.000000	0.019007
2746.000000	0.018973
2745.000000	0.018928
2744.000000	0.018884
2743.000000	0.018853
2742.000000	0.018842
2741.000000	0.018848
2740.000000	0.018861
2739.000000	0.018868
2738.000000	0.018860
2737.000000	0.018833
2736.000000	0.018796
2735.000000	0.018760
2734.000000	0.018732
2733.000000	0.018706
2732.000000	0.018676
2731.000000	0.018646
2730.000000	0.018623
2729.000000	0.018611
2728.000000	0.018602
2727.000000	0.018585
2726.000000	0.018557
2725.000000	0.018527
2724.000000	0.018504
2723.000000	0.018490
2722.000000	0.018477
2721.000000	0.018457
2720.000000	0.018425
2719.000000	0.018389
2718.000000	0.018355
2717.000000	0.018323
2716.000000	0.018289
2715.000000	0.018258
2714.000000	0.018236
2713.000000	0.018227
2712.000000	0.018228
2711.000000	0.018235
2710.000000	0.018238
2709.000000	0.018226
2708.000000	0.018190
2707.000000	0.018143
2706.000000	0.018104
2705.000000	0.018084
2704.000000	0.018079
2703.000000	0.018080
2702.000000	0.018078
2701.000000	0.018070
2700.000000	0.018052
2699.000000	0.018030
2698.000000	0.018012
2697.000000	0.018001
2696.000000	0.017989
2695.000000	0.017966
2694.000000	0.017931
2693.000000	0.017893
2692.000000	0.017866
2691.000000	0.017857
2690.000000	0.017867
2689.000000	0.017889
2688.000000	0.017911
2687.000000	0.017925
2686.000000	0.017929
2685.000000	0.017926
2684.000000	0.017918
2683.000000	0.017902
2682.000000	0.017878
2681.000000	0.017848
2680.000000	0.017825
2679.000000	0.017819
2678.000000	0.017829
2677.000000	0.017842
2676.000000	0.017847
2675.000000	0.017837
2674.000000	0.017814
2673.000000	0.017783
2672.000000	0.017751
2671.000000	0.017723
2670.000000	0.017706
2669.000000	0.017700
2668.000000	0.017700
2667.000000	0.017700
2666.000000	0.017696
2665.000000	0.017687
2664.000000	0.017675
2663.000000	0.017661
2662.000000	0.017642
2661.000000	0.017618
2660.000000	0.017591
2659.000000	0.017565
2658.000000	0.017544
2657.000000	0.017522
2656.000000	0.017497
2655.000000	0.017470
2654.000000	0.017446
2653.000000	0.017422
2652.000000	0.017394
2651.000000	0.017361
2650.000000	0.017328
2649.000000	0.017301
2648.000000	0.017274
2647.000000	0.017236
2646.000000	0.017177
2645.000000	0.017103
2644.000000	0.017033
2643.000000	0.016985
2642.000000	0.016966
2641.000000	0.016962
2640.000000	0.016957
2639.000000	0.016942
2638.000000	0.016916
2637.000000	0.016875
2636.000000	0.016816
2635.000000	0.016747
2634.000000	0.016686
2633.000000	0.016646
2632.000000	0.016620
2631.000000	0.016599
2630.000000	0.016579
2629.000000	0.016564
2628.000000	0.016553
2627.000000	0.016540
2626.000000	0.016517
2625.000000	0.016482
2624.000000	0.016438
2623.000000	0.016395
2622.000000	0.016356
2621.000000	0.016318
2620.000000	0.016278
2619.000000	0.016242
2618.000000	0.016220
2617.000000	0.016212
2616.000000	0.016199
2615.000000	0.016167
2614.000000	0.016123
2613.000000	0.016079
2612.000000	0.016039
2611.000000	0.016002
2610.000000	0.015969
2609.000000	0.015946
2608.000000	0.015935
2607.000000	0.015936
2606.000000	0.015943
2605.000000	0.015943
2604.000000	0.015922
2603.000000	0.015879
2602.000000	0.015831
2601.000000	0.015799
2600.000000	0.015792
2599.000000	0.015797
2598.000000	0.015794
2597.000000	0.015766
2596.000000	0.015711
2595.000000	0.015650
2594.000000	0.015609
2593.000000	0.015593
2592.000000	0.015587
2591.000000	0.015577
2590.000000	0.015566
2589.000000	0.015563
2588.000000	0.015567
2587.000000	0.015565
2586.000000	0.015548
2585.000000	0.015519
2584.000000	0.015490
2583.000000	0.015472
2582.000000	0.015466
2581.000000	0.015454
2580.000000	0.015419
2579.000000	0.015365
2578.000000	0.015318
2577.000000	0.015300
2576.000000	0.015305
2575.000000	0.015305
2574.000000	0.015284
2573.000000	0.015252
2572.000000	0.015230
2571.000000	0.015233
2570.000000	0.015254
2569.000000	0.015270
2568.000000	0.015258
2567.000000	0.015212
2566.000000	0.015151
2565.000000	0.015100
2564.000000	0.015068
2563.000000	0.015056
2562.000000	0.015058
2561.000000	0.015064
2560.000000	0.015067
2559.000000	0.015072
2558.000000	0.015090
2557.000000	0.015119
2556.000000	0.015140
2555.000000	0.015131
2554.000000	0.015091
2553.000000	0.015037
2552.000000	0.014984
2551.000000	0.014942
2550.000000	0.014916
2549.000000	0.014903
2548.000000	0.014888
2547.000000	0.014863
2546.000000	0.014835
2545.000000	0.014821
2544.000000	0.014829
2543.000000	0.014845
2542.000000	0.014850
2541.000000	0.014835
2540.000000	0.014808
2539.000000	0.014788
2538.000000	0.014792
2537.000000	0.014818
2536.000000	0.014847
2535.000000	0.014866
2534.000000	0.014873
2533.000000	0.014873
2532.000000	0.014865
2531.000000	0.014849
2530.000000	0.014828
2529.000000	0.014802
2528.000000	0.014765
2527.000000	0.014723
2526.000000	0.014697
2525.000000	0.014703
2524.000000	0.014736
2523.000000	0.014772
2522.000000	0.014792
2521.000000	0.014786
2520.000000	0.014751
2519.000000	0.014700
2518.000000	0.014651
2517.000000	0.014623
2516.000000	0.014614
2515.000000	0.014615
2514.000000	0.014619
2513.000000	0.014622
2512.000000	0.014616
2511.000000	0.014597
2510.000000	0.014574
2509.000000	0.014559
2508.000000	0.014556
2507.000000	0.014556
2506.000000	0.014556
2505.000000	0.014558
2504.000000	0.014561
2503.000000	0.014562
2502.000000	0.014558
2501.000000	0.014549
2500.000000	0.014541
2499.000000	0.014537
2498.000000	0.014527
2497.000000	0.014497
2496.000000	0.014438
2495.000000	0.014362
2494.000000	0.014296
2493.000000	0.014258
2492.000000	0.014244
2491.000000	0.014239
2490.000000	0.014241
2489.000000	0.014250
2488.000000	0.014262
2487.000000	0.014269
2486.000000	0.014271
2485.000000	0.014269
2484.000000	0.014262
2483.000000	0.014249
2482.000000	0.014242
2481.000000	0.014253
2480.000000	0.014280
2479.000000	0.014310
2478.000000	0.014327
2477.000000	0.014333
2476.000000	0.014335
2475.000000	0.014343
2474.000000	0.014353
2473.000000	0.014350
2472.000000	0.014325
2471.000000	0.014289
2470.000000	0.014258
2469.000000	0.014232
2468.000000	0.014199
2467.000000	0.014154
2466.000000	0.014115
2465.000000	0.014094
2464.000000	0.014090
2463.000000	0.014098
2462.000000	0.014121
2461.000000	0.014156
2460.000000	0.014187
2459.000000	0.014202
2458.000000	0.014208
2457.000000	0.014222
2456.000000	0.014248
2455.000000	0.014267
2454.000000	0.014260
2453.000000	0.014220
2452.000000	0.014165
2451.000000	0.014121
2450.000000	0.014113
2449.000000	0.014139
2448.000000	0.014174
2447.000000	0.014190
2446.000000	0.014182
2445.000000	0.014159
2444.000000	0.014133
2443.000000	0.014112
2442.000000	0.014105
2441.000000	0.014104
2440.000000	0.014091
2439.000000	0.014058
2438.000000	0.014022
2437.000000	0.014007
2436.000000	0.014013
2435.000000	0.014024
2434.000000	0.014026
2433.000000	0.014020
2432.000000	0.014011
2431.000000	0.013997
2430.000000	0.013970
2429.000000	0.013922
2428.000000	0.013852
2427.000000	0.013780
2426.000000	0.013731
2425.000000	0.013722
2424.000000	0.013747
2423.000000	0.013792
2422.000000	0.013852
2421.000000	0.013914
2420.000000	0.013958
2419.000000	0.013971
2418.000000	0.013954
2417.000000	0.013923
2416.000000	0.013887
2415.000000	0.013856
2414.000000	0.013840
2413.000000	0.013844
2412.000000	0.013862
2411.000000	0.013888
2410.000000	0.013916
2409.000000	0.013934
2408.000000	0.013925
2407.000000	0.013887
2406.000000	0.013832
2405.000000	0.013778
2404.000000	0.013734
2403.000000	0.013718
2402.000000	0.013745
2401.000000	0.013805
2400.000000	0.013854
2399.000000	0.013863
2398.000000	0.013842
2397.000000	0.013823
2396.000000	0.013827
2395.000000	0.013859
2394.000000	0.013913
2393.000000	0.013965
2392.000000	0.013975
2391.000000	0.013925
2390.000000	0.013845
2389.000000	0.013786
2388.000000	0.013769
2387.000000	0.013780
2386.000000	0.013793
2385.000000	0.013793
2384.000000	0.013779
2383.000000	0.013749
2382.000000	0.013706
2381.000000	0.013656
2380.000000	0.013610
2379.000000	0.013595
2378.000000	0.013639
2377.000000	0.013734
2376.000000	0.013826
2375.000000	0.013869
2374.000000	0.013864
2373.000000	0.013838
2372.000000	0.013800
2371.000000	0.013746
2370.000000	0.013691
2369.000000	0.013651
2368.000000	0.013634
2367.000000	0.013649
2366.000000	0.013711
2365.000000	0.013807
2364.000000	0.013899
2363.000000	0.013979
2362.000000	0.014060
2361.000000	0.014127
2360.000000	0.014138
2359.000000	0.014076
2358.000000	0.013980
2357.000000	0.013897
2356.000000	0.013861
2355.000000	0.013891
2354.000000	0.013922
2353.000000	0.013875
2352.000000	0.013766
2351.000000	0.013692
2350.000000	0.013718
2349.000000	0.013822
2348.000000	0.013933
2347.000000	0.013968
2346.000000	0.013933
2345.000000	0.013932
2344.000000	0.014020
2343.000000	0.014133
2342.000000	0.014177
2341.000000	0.014131
2340.000000	0.014060
2339.000000	0.014023
2338.000000	0.014018
2337.000000	0.014001
2336.000000	0.013958
2335.000000	0.013903
2334.000000	0.013843
2333.000000	0.013781
2332.000000	0.013748
2331.000000	0.013769
2330.000000	0.013847
2329.000000	0.013948
2328.000000	0.014063
2327.000000	0.014183
2326.000000	0.014295
2325.000000	0.014359
2324.000000	0.014350
2323.000000	0.014278
2322.000000	0.014211
2321.000000	0.014223
2320.000000	0.014325
2319.000000	0.014446
2318.000000	0.014510
2317.000000	0.014485
2316.000000	0.014392
2315.000000	0.014251
2314.000000	0.014101
2313.000000	0.013976
2312.000000	0.013901
2311.000000	0.013857
2310.000000	0.013821
2309.000000	0.013782
2308.000000	0.013743
2307.000000	0.013693
2306.000000	0.013634
2305.000000	0.013585
2304.000000	0.013572
2303.000000	0.013588
2302.000000	0.013602
2301.000000	0.013597
2300.000000	0.013580
2299.000000	0.013562
2298.000000	0.013553
2297.000000	0.013564
2296.000000	0.013607
2295.000000	0.013670
2294.000000	0.013727
2293.000000	0.013755
2292.000000	0.013751
2291.000000	0.013724
2290.000000	0.013690
2289.000000	0.013667
2288.000000	0.013667
2287.000000	0.013682
2286.000000	0.013683
2285.000000	0.013656
2284.000000	0.013612
2283.000000	0.013582
2282.000000	0.013584
2281.000000	0.013608
2280.000000	0.013619
2279.000000	0.013584
2278.000000	0.013496
2277.000000	0.013380
2276.000000	0.013276
2275.000000	0.013213
2274.000000	0.013198
2273.000000	0.013220
2272.000000	0.013254
2271.000000	0.013272
2270.000000	0.013264
2269.000000	0.013238
2268.000000	0.013206
2267.000000	0.013171
2266.000000	0.013131
2265.000000	0.013083
2264.000000	0.013028
2263.000000	0.012977
2262.000000	0.012948
2261.000000	0.012949
2260.000000	0.012962
2259.000000	0.012956
2258.000000	0.012921
2257.000000	0.012874
2256.000000	0.012837
2255.000000	0.012809
2254.000000	0.012784
2253.000000	0.012770
2252.000000	0.012785
2251.000000	0.012826
2250.000000	0.012865
2249.000000	0.012863
2248.000000	0.012810
2247.000000	0.012746
2246.000000	0.012730
2245.000000	0.012776
2244.000000	0.012824
2243.000000	0.012790
2242.000000	0.012655
2241.000000	0.012480
2240.000000	0.012368
2239.000000	0.012392
2238.000000	0.012549
2237.000000	0.012755
2236.000000	0.012885
2235.000000	0.012870
2234.000000	0.012744
2233.000000	0.012614
2232.000000	0.012560
2231.000000	0.012584
2230.000000	0.012636
2229.000000	0.012659
2228.000000	0.012630
2227.000000	0.012559
2226.000000	0.012484
2225.000000	0.012434
2224.000000	0.012415
2223.000000	0.012421
2222.000000	0.012447
2221.000000	0.012475
2220.000000	0.012468
2219.000000	0.012412
2218.000000	0.012347
2217.000000	0.012338
2216.000000	0.012411
2215.000000	0.012534
2214.000000	0.012640
2213.000000	0.012662
2212.000000	0.012570
2211.000000	0.012409
2210.000000	0.012277
2209.000000	0.012227
2208.000000	0.012213
2207.000000	0.012154
2206.000000	0.012034
2205.000000	0.011916
2204.000000	0.011859
2203.000000	0.011875
2202.000000	0.011937
2201.000000	0.012000
2200.000000	0.012019
2199.000000	0.011993
2198.000000	0.011971
2197.000000	0.012001
2196.000000	0.012076
2195.000000	0.012144
2194.000000	0.012156
2193.000000	0.012078
2192.000000	0.011925
2191.000000	0.011784
2190.000000	0.011781
2189.000000	0.011945
2188.000000	0.012154
2187.000000	0.012274
2186.000000	0.012301
2185.000000	0.012298
2184.000000	0.012249
2183.000000	0.012082
2182.000000	0.011816
2181.000000	0.011590
2180.000000	0.011517
2179.000000	0.011591
2178.000000	0.011748
2177.000000	0.011912
2176.000000	0.011998
2175.000000	0.011954
2174.000000	0.011821
2173.000000	0.011694
2172.000000	0.011619
2171.000000	0.011594
2170.000000	0.011646
2169.000000	0.011799
2168.000000	0.011969
2167.000000	0.011998
2166.000000	0.011831
2165.000000	0.011599
2164.000000	0.011481
2163.000000	0.011526
2162.000000	0.011636
2161.000000	0.011634
2160.000000	0.011362
2159.000000	0.010817
2158.000000	0.010244
2157.000000	0.009933
2156.000000	0.009941
2155.000000	0.010094
2154.000000	0.010227
2153.000000	0.010304
2152.000000	0.010375
2151.000000	0.010499
2150.000000	0.010716
2149.000000	0.011004
2148.000000	0.011262
2147.000000	0.011382
2146.000000	0.011365
2145.000000	0.011322
2144.000000	0.011353
2143.000000	0.011467
2142.000000	0.011611
2141.000000	0.011721
2140.000000	0.011753
2139.000000	0.011701
2138.000000	0.011611
2137.000000	0.011536
2136.000000	0.011484
2135.000000	0.011431
2134.000000	0.011384
2133.000000	0.011386
2132.000000	0.011459
2131.000000	0.011577
2130.000000	0.011704
2129.000000	0.011824
2128.000000	0.011940
2127.000000	0.012058
2126.000000	0.012188
2125.000000	0.012328
2124.000000	0.012446
2123.000000	0.012506
2122.000000	0.012505
2121.000000	0.012470
2120.000000	0.012424
2119.000000	0.012379
2118.000000	0.012358
2117.000000	0.012388
2116.000000	0.012474
2115.000000	0.012581
2114.000000	0.012658
2113.000000	0.012667
2112.000000	0.012600
2111.000000	0.012487
2110.000000	0.012391
2109.000000	0.012365
2108.000000	0.012415
2107.000000	0.012494
2106.000000	0.012562
2105.000000	0.012604
2104.000000	0.012620
2103.000000	0.012605
2102.000000	0.012565
2101.000000	0.012520
2100.000000	0.012489
2099.000000	0.012466
2098.000000	0.012418
2097.000000	0.012309
2096.000000	0.012139
2095.000000	0.011975
2094.000000	0.011903
2093.000000	0.011955
2092.000000	0.012069
2091.000000	0.012162
2090.000000	0.012208
2089.000000	0.012234
2088.000000	0.012263
2087.000000	0.012286
2086.000000	0.012287
2085.000000	0.012268
2084.000000	0.012236
2083.000000	0.012203
2082.000000	0.012194
2081.000000	0.012238
2080.000000	0.012326
2079.000000	0.012410
2078.000000	0.012438
2077.000000	0.012388
2076.000000	0.012279
2075.000000	0.012169
2074.000000	0.012121
2073.000000	0.012152
2072.000000	0.012214
2071.000000	0.012246
2070.000000	0.012231
2069.000000	0.012191
2068.000000	0.012139
2067.000000	0.012065
2066.000000	0.011973
2065.000000	0.011888
2064.000000	0.011841
2063.000000	0.011846
2062.000000	0.011909
2061.000000	0.012009
2060.000000	0.012097
2059.000000	0.012120
2058.000000	0.012065
2057.000000	0.011949
2056.000000	0.011799
2055.000000	0.011654
2054.000000	0.011569
2053.000000	0.011564
2052.000000	0.011610
2051.000000	0.011670
2050.000000	0.011743
2049.000000	0.011818
2048.000000	0.011826
2047.000000	0.011694
2046.000000	0.011446
2045.000000	0.011187
2044.000000	0.010993
2043.000000	0.010871
2042.000000	0.010795
2041.000000	0.010729
2040.000000	0.010625
2039.000000	0.010461
2038.000000	0.010288
2037.000000	0.010198
2036.000000	0.010228
2035.000000	0.010340
2034.000000	0.010468
2033.000000	0.010544
2032.000000	0.010522
2031.000000	0.010425
2030.000000	0.010336
2029.000000	0.010298
2028.000000	0.010268
2027.000000	0.010212
2026.000000	0.010177
2025.000000	0.010208
2024.000000	0.010267
2023.000000	0.010297
2022.000000	0.010310
2021.000000	0.010336
2020.000000	0.010344
2019.000000	0.010304
2018.000000	0.010265
2017.000000	0.010303
2016.000000	0.010423
2015.000000	0.010579
2014.000000	0.010742
2013.000000	0.010867
2012.000000	0.010870
2011.000000	0.010716
2010.000000	0.010466
2009.000000	0.010199
2008.000000	0.009938
2007.000000	0.009726
2006.000000	0.009678
2005.000000	0.009854
2004.000000	0.010146
2003.000000	0.010394
2002.000000	0.010547
2001.000000	0.010644
2000.000000	0.010714
1999.000000	0.010773
1998.000000	0.010855
1997.000000	0.010963
1996.000000	0.011038
1995.000000	0.011056
1994.000000	0.011075
1993.000000	0.011131
1992.000000	0.011147
1991.000000	0.011039
1990.000000	0.010851
1989.000000	0.010684
1988.000000	0.010580
1987.000000	0.010545
1986.000000	0.010628
1985.000000	0.010847
1984.000000	0.011110
1983.000000	0.011329
1982.000000	0.011546
1981.000000	0.011819
1980.000000	0.012029
1979.000000	0.011971
1978.000000	0.011639
1977.000000	0.011261
1976.000000	0.011020
1975.000000	0.010903
1974.000000	0.010851
1973.000000	0.010841
1972.000000	0.010828
1971.000000	0.010760
1970.000000	0.010674
1969.000000	0.010646
1968.000000	0.010665
1967.000000	0.010660
1966.000000	0.010657
1965.000000	0.010757
1964.000000	0.010957
1963.000000	0.011114
1962.000000	0.011096
1961.000000	0.010895
1960.000000	0.010622
1959.000000	0.010431
1958.000000	0.010422
1957.000000	0.010557
1956.000000	0.010682
1955.000000	0.010699
1954.000000	0.010663
1953.000000	0.010671
1952.000000	0.010715
1951.000000	0.010732
1950.000000	0.010719
1949.000000	0.010729
1948.000000	0.010772
1947.000000	0.010817
1946.000000	0.010870
1945.000000	0.010947
1944.000000	0.011014
1943.000000	0.011035
1942.000000	0.011040
1941.000000	0.011066
1940.000000	0.011073
1939.000000	0.011008
1938.000000	0.010923
1937.000000	0.010915
1936.000000	0.010975
1935.000000	0.011004
1934.000000	0.010957
1933.000000	0.010888
1932.000000	0.010851
1931.000000	0.010849
1930.000000	0.010882
1929.000000	0.010965
1928.000000	0.011067
1927.000000	0.011130
1926.000000	0.011131
1925.000000	0.011106
1924.000000	0.011076
1923.000000	0.011031
1922.000000	0.010983
1921.000000	0.010961
1920.000000	0.010953
1919.000000	0.010907
1918.000000	0.010808
1917.000000	0.010712
1916.000000	0.010675
1915.000000	0.010698
1914.000000	0.010767
1913.000000	0.010872
1912.000000	0.010988
1911.000000	0.011079
1910.000000	0.011140
1909.000000	0.011186
1908.000000	0.011214
1907.000000	0.011207
1906.000000	0.011179
1905.000000	0.011166
1904.000000	0.011174
1903.000000	0.011162
1902.000000	0.011109
1901.000000	0.011036
1900.000000	0.010971
1899.000000	0.010923
1898.000000	0.010906
1897.000000	0.010929
1896.000000	0.010968
1895.000000	0.010979
1894.000000	0.010959
1893.000000	0.010946
1892.000000	0.010950
1891.000000	0.010934
1890.000000	0.010872
1889.000000	0.010799
1888.000000	0.010763
1887.000000	0.010761
1886.000000	0.010764
1885.000000	0.010761
1884.000000	0.010767
1883.000000	0.010788
1882.000000	0.010822
1881.000000	0.010858
1880.000000	0.010885
1879.000000	0.010898
1878.000000	0.010901
1877.000000	0.010903
1876.000000	0.010907
1875.000000	0.010916
1874.000000	0.010930
1873.000000	0.010936
1872.000000	0.010908
1871.000000	0.010832
1870.000000	0.010733
1869.000000	0.010648
1868.000000	0.010607
1867.000000	0.010624
1866.000000	0.010695
1865.000000	0.010795
1864.000000	0.010876
1863.000000	0.010901
1862.000000	0.010879
1861.000000	0.010848
1860.000000	0.010826
1859.000000	0.010803
1858.000000	0.010776
1857.000000	0.010749
1856.000000	0.010720
1855.000000	0.010690
1854.000000	0.010673
1853.000000	0.010682
1852.000000	0.010704
1851.000000	0.010724
1850.000000	0.010738
1849.000000	0.010733
1848.000000	0.010688
1847.000000	0.010613
1846.000000	0.010556
1845.000000	0.010540
1844.000000	0.010535
1843.000000	0.010522
1842.000000	0.010531
1841.000000	0.010585
1840.000000	0.010644
1839.000000	0.010657
1838.000000	0.010625
1837.000000	0.010597
1836.000000	0.010594
1835.000000	0.010589
1834.000000	0.010565
1833.000000	0.010536
1832.000000	0.010503
1831.000000	0.010448
1830.000000	0.010375
1829.000000	0.010337
1828.000000	0.010367
1827.000000	0.010443
1826.000000	0.010525
1825.000000	0.010579
1824.000000	0.010583
1823.000000	0.010552
1822.000000	0.010526
1821.000000	0.010526
1820.000000	0.010532
1819.000000	0.010518
1818.000000	0.010491
1817.000000	0.010485
1816.000000	0.010507
1815.000000	0.010539
1814.000000	0.010575
1813.000000	0.010606
1812.000000	0.010612
1811.000000	0.010577
1810.000000	0.010534
1809.000000	0.010527
1808.000000	0.010560
1807.000000	0.010591
1806.000000	0.010599
1805.000000	0.010597
1804.000000	0.010604
1803.000000	0.010621
1802.000000	0.010639
1801.000000	0.010637
1800.000000	0.010611
1799.000000	0.010580
1798.000000	0.010574
1797.000000	0.010590
1796.000000	0.010599
1795.000000	0.010584
1794.000000	0.010564
1793.000000	0.010544
1792.000000	0.010498
1791.000000	0.010430
1790.000000	0.010391
1789.000000	0.010408
1788.000000	0.010458
1787.000000	0.010498
1786.000000	0.010508
1785.000000	0.010498
1784.000000	0.010478
1783.000000	0.010449
1782.000000	0.010423
1781.000000	0.010401
1780.000000	0.010376
1779.000000	0.010351
1778.000000	0.010342
1777.000000	0.010344
1776.000000	0.010316
1775.000000	0.010237
1774.000000	0.010136
1773.000000	0.010044
1772.000000	0.009967
1771.000000	0.009929
1770.000000	0.009967
1769.000000	0.010069
1768.000000	0.010161
1767.000000	0.010171
1766.000000	0.010128
1765.000000	0.010107
1764.000000	0.010127
1763.000000	0.010143
1762.000000	0.010134
1761.000000	0.010145
1760.000000	0.010217
1759.000000	0.010328
1758.000000	0.010462
1757.000000	0.010609
1756.000000	0.010745
1755.000000	0.010872
1754.000000	0.011046
1753.000000	0.011317
1752.000000	0.011634
1751.000000	0.011870
1750.000000	0.011992
1749.000000	0.012096
1748.000000	0.012236
1747.000000	0.012378
1746.000000	0.012515
1745.000000	0.012661
1744.000000	0.012784
1743.000000	0.012819
1742.000000	0.012775
1741.000000	0.012741
1740.000000	0.012750
1739.000000	0.012742
1738.000000	0.012696
1737.000000	0.012662
1736.000000	0.012662
1735.000000	0.012624
1734.000000	0.012480
1733.000000	0.012349
1732.000000	0.012319
1731.000000	0.012310
1730.000000	0.012273
1729.000000	0.012234
1728.000000	0.012213
1727.000000	0.012188
1726.000000	0.012155
1725.000000	0.012129
1724.000000	0.012115
1723.000000	0.012080
1722.000000	0.012021
1721.000000	0.011985
1720.000000	0.011994
1719.000000	0.012002
1718.000000	0.011967
1717.000000	0.011967
1716.000000	0.012090
1715.000000	0.012303
1714.000000	0.012548
1713.000000	0.012833
1712.000000	0.013152
1711.000000	0.013466
1710.000000	0.013769
1709.000000	0.014092
1708.000000	0.014449
1707.000000	0.014835
1706.000000	0.015257
1705.000000	0.015713
1704.000000	0.016169
1703.000000	0.016629
1702.000000	0.017212
1701.000000	0.018008
1700.000000	0.018834
1699.000000	0.019494
1698.000000	0.020123
1697.000000	0.020958
1696.000000	0.022032
1695.000000	0.023096
1694.000000	0.023976
1693.000000	0.024754
1692.000000	0.025561
1691.000000	0.026418
1690.000000	0.027265
1689.000000	0.028045
1688.000000	0.028721
1687.000000	0.029337
1686.000000	0.030051
1685.000000	0.031035
1684.000000	0.032197
1683.000000	0.033272
1682.000000	0.034259
1681.000000	0.035288
1680.000000	0.036367
1679.000000	0.037370
1678.000000	0.038279
1677.000000	0.039257
1676.000000	0.040429
1675.000000	0.041663
1674.000000	0.042772
1673.000000	0.043786
1672.000000	0.044843
1671.000000	0.046015
1670.000000	0.047300
1669.000000	0.048657
1668.000000	0.049988
1667.000000	0.051172
1666.000000	0.052214
1665.000000	0.053253
1664.000000	0.054402
1663.000000	0.055615
1662.000000	0.056789
1661.000000	0.057915
1660.000000	0.059013
1659.000000	0.060046
1658.000000	0.060936
1657.000000	0.061658
1656.000000	0.062271
1655.000000	0.062907
1654.000000	0.063689
1653.000000	0.064617
1652.000000	0.065524
1651.000000	0.066205
1650.000000	0.066661
1649.000000	0.067097
1648.000000	0.067602
1647.000000	0.068079
1646.000000	0.068448
1645.000000	0.068790
1644.000000	0.069135
1643.000000	0.069432
1642.000000	0.069668
1641.000000	0.069855
1640.000000	0.069981
1639.000000	0.070024
1638.000000	0.070004
1637.000000	0.069988
1636.000000	0.069992
1635.000000	0.069986
1634.000000	0.069969
1633.000000	0.069948
1632.000000	0.069894
1631.000000	0.069748
1630.000000	0.069445
1629.000000	0.068976
1628.000000	0.068394
1627.000000	0.067758
1626.000000	0.067093
1625.000000	0.066367
1624.000000	0.065523
1623.000000	0.064540
1622.000000	0.063511
1621.000000	0.062540
1620.000000	0.061617
1619.000000	0.060651
1618.000000	0.059521
1617.000000	0.058200
1616.000000	0.056884
1615.000000	0.055781
1614.000000	0.054855
1613.000000	0.053968
1612.000000	0.053037
1611.000000	0.052049
1610.000000	0.051032
1609.000000	0.050017
1608.000000	0.049039
1607.000000	0.048140
1606.000000	0.047344
1605.000000	0.046621
1604.000000	0.045924
1603.000000	0.045246
1602.000000	0.044609
1601.000000	0.044034
1600.000000	0.043536
1599.000000	0.043117
1598.000000	0.042756
1597.000000	0.042406
1596.000000	0.042048
1595.000000	0.041713
1594.000000	0.041438
1593.000000	0.041226
1592.000000	0.041060
1591.000000	0.040932
1590.000000	0.040841
1589.000000	0.040780
1588.000000	0.040758
1587.000000	0.040795
1586.000000	0.040894
1585.000000	0.041028
1584.000000	0.041180
1583.000000	0.041386
1582.000000	0.041668
1581.000000	0.041979
1580.000000	0.042256
1579.000000	0.042508
1578.000000	0.042794
1577.000000	0.043136
1576.000000	0.043510
1575.000000	0.043900
1574.000000	0.044301
1573.000000	0.044695
1572.000000	0.045101
1571.000000	0.045556
1570.000000	0.046072
1569.000000	0.046631
1568.000000	0.047217
1567.000000	0.047841
1566.000000	0.048518
1565.000000	0.049226
1564.000000	0.049878
1563.000000	0.050416
1562.000000	0.050876
1561.000000	0.051377
1560.000000	0.052048
1559.000000	0.052846
1558.000000	0.053648
1557.000000	0.054469
1556.000000	0.055288
1555.000000	0.056126
1554.000000	0.056959
1553.000000	0.057713
1552.000000	0.058377
1551.000000	0.059013
1550.000000	0.059626
1549.000000	0.060169
1548.000000	0.060629
1547.000000	0.061056
1546.000000	0.061485
1545.000000	0.061877
1544.000000	0.062168
1543.000000	0.062373
1542.000000	0.062562
1541.000000	0.062777
1540.000000	0.062986
1539.000000	0.063166
1538.000000	0.063281
1537.000000	0.063263
1536.000000	0.063113
1535.000000	0.062851
1534.000000	0.062472
1533.000000	0.062027
1532.000000	0.061646
1531.000000	0.061370
1530.000000	0.061128
1529.000000	0.060848
1528.000000	0.060501
1527.000000	0.060082
1526.000000	0.059615
1525.000000	0.059132
1524.000000	0.058659
1523.000000	0.058193
1522.000000	0.057701
1521.000000	0.057198
1520.000000	0.056769
1519.000000	0.056433
1518.000000	0.056129
1517.000000	0.055791
1516.000000	0.055402
1515.000000	0.054987
1514.000000	0.054556
1513.000000	0.054067
1512.000000	0.053478
1511.000000	0.052795
1510.000000	0.052081
1509.000000	0.051345
1508.000000	0.050464
1507.000000	0.049293
1506.000000	0.048116
1505.000000	0.047343
1504.000000	0.046865
1503.000000	0.046429
1502.000000	0.045911
1501.000000	0.045278
1500.000000	0.044537
1499.000000	0.043725
1498.000000	0.042888
1497.000000	0.042071
1496.000000	0.041329
1495.000000	0.040683
1494.000000	0.040122
1493.000000	0.039621
1492.000000	0.039132
1491.000000	0.038573
1490.000000	0.037930
1489.000000	0.037318
1488.000000	0.036847
1487.000000	0.036504
1486.000000	0.036243
1485.000000	0.036063
1484.000000	0.035957
1483.000000	0.035902
1482.000000	0.035878
1481.000000	0.035904
1480.000000	0.036000
1479.000000	0.036169
1478.000000	0.036412
1477.000000	0.036716
1476.000000	0.037050
1475.000000	0.037415
1474.000000	0.037892
1473.000000	0.038544
1472.000000	0.039313
1471.000000	0.040079
1470.000000	0.040798
1469.000000	0.041476
1468.000000	0.042100
1467.000000	0.042647
1466.000000	0.043145
1465.000000	0.043631
1464.000000	0.044092
1463.000000	0.044504
1462.000000	0.044878
1461.000000	0.045240
1460.000000	0.045604
1459.000000	0.046004
1458.000000	0.046535
1457.000000	0.047241
1456.000000	0.047961
1455.000000	0.048511
1454.000000	0.048901
1453.000000	0.049221
1452.000000	0.049480
1451.000000	0.049639
1450.000000	0.049712
1449.000000	0.049748
1448.000000	0.049753
1447.000000	0.049711
1446.000000	0.049655
1445.000000	0.049603
1444.000000	0.049529
1443.000000	0.049410
1442.000000	0.049257
1441.000000	0.049087
1440.000000	0.048893
1439.000000	0.048670
1438.000000	0.048427
1437.000000	0.048159
1436.000000	0.047851
1435.000000	0.047542
1434.000000	0.047276
1433.000000	0.047049
1432.000000	0.046814
1431.000000	0.046533
1430.000000	0.046238
1429.000000	0.046002
1428.000000	0.045847
1427.000000	0.045742
1426.000000	0.045674
1425.000000	0.045642
1424.000000	0.045606
1423.000000	0.045522
1422.000000	0.045418
1421.000000	0.045369
1420.000000	0.045401
1419.000000	0.045463
1418.000000	0.045517
1417.000000	0.045589
1416.000000	0.045675
1415.000000	0.045753
1414.000000	0.045826
1413.000000	0.045915
1412.000000	0.046023
1411.000000	0.046116
1410.000000	0.046173
1409.000000	0.046210
1408.000000	0.046243
1407.000000	0.046262
1406.000000	0.046265
1405.000000	0.046263
1404.000000	0.046253
1403.000000	0.046224
1402.000000	0.046188
1401.000000	0.046166
1400.000000	0.046130
1399.000000	0.046014
1398.000000	0.045810
1397.000000	0.045568
1396.000000	0.045306
1395.000000	0.045006
1394.000000	0.044680
1393.000000	0.044376
1392.000000	0.044099
1391.000000	0.043820
1390.000000	0.043527
1389.000000	0.043228
1388.000000	0.042916
1387.000000	0.042576
1386.000000	0.042224
1385.000000	0.041894
1384.000000	0.041589
1383.000000	0.041285
1382.000000	0.040964
1381.000000	0.040636
1380.000000	0.040314
1379.000000	0.039993
1378.000000	0.039657
1377.000000	0.039299
1376.000000	0.038907
1375.000000	0.038465
1374.000000	0.037989
1373.000000	0.037527
1372.000000	0.037111
1371.000000	0.036728
1370.000000	0.036351
1369.000000	0.035963
1368.000000	0.035556
1367.000000	0.035133
1366.000000	0.034709
1365.000000	0.034302
1364.000000	0.033918
1363.000000	0.033550
1362.000000	0.033200
1361.000000	0.032893
1360.000000	0.032650
1359.000000	0.032466
1358.000000	0.032323
1357.000000	0.032207
1356.000000	0.032124
1355.000000	0.032086
1354.000000	0.032102
1353.000000	0.032165
1352.000000	0.032268
1351.000000	0.032405
1350.000000	0.032580
1349.000000	0.032794
1348.000000	0.033035
1347.000000	0.033283
1346.000000	0.033529
1345.000000	0.033784
1344.000000	0.034064
1343.000000	0.034368
1342.000000	0.034674
1341.000000	0.034953
1340.000000	0.035179
1339.000000	0.035338
1338.000000	0.035433
1337.000000	0.035477
1336.000000	0.035471
1335.000000	0.035402
1334.000000	0.035266
1333.000000	0.035081
1332.000000	0.034876
1331.000000	0.034667
1330.000000	0.034458
1329.000000	0.034251
1328.000000	0.034056
1327.000000	0.033878
1326.000000	0.033721
1325.000000	0.033593
1324.000000	0.033503
1323.000000	0.033444
1322.000000	0.033400
1321.000000	0.033362
1320.000000	0.033326
1319.000000	0.033290
1318.000000	0.033245
1317.000000	0.033187
1316.000000	0.033113
1315.000000	0.033018
1314.000000	0.032896
1313.000000	0.032744
1312.000000	0.032569
1311.000000	0.032380
1310.000000	0.032188
1309.000000	0.032001
1308.000000	0.031830
1307.000000	0.031675
1306.000000	0.031531
1305.000000	0.031391
1304.000000	0.031250
1303.000000	0.031106
1302.000000	0.030963
1301.000000	0.030827
1300.000000	0.030701
1299.000000	0.030578
1298.000000	0.030457
1297.000000	0.030354
1296.000000	0.030286
1295.000000	0.030263
1294.000000	0.030277
1293.000000	0.030322
1292.000000	0.030402
1291.000000	0.030519
1290.000000	0.030667
1289.000000	0.030838
1288.000000	0.031020
1287.000000	0.031201
1286.000000	0.031374
1285.000000	0.031543
1284.000000	0.031708
1283.000000	0.031860
1282.000000	0.031985
1281.000000	0.032083
1280.000000	0.032162
1279.000000	0.032226
1278.000000	0.032281
1277.000000	0.032331
1276.000000	0.032383
1275.000000	0.032432
1274.000000	0.032473
1273.000000	0.032508
1272.000000	0.032551
1271.000000	0.032612
1270.000000	0.032692
1269.000000	0.032798
1268.000000	0.032938
1267.000000	0.033115
1266.000000	0.033319
1265.000000	0.033539
1264.000000	0.033768
1263.000000	0.033996
1262.000000	0.034211
1261.000000	0.034410
1260.000000	0.034600
1259.000000	0.034792
1258.000000	0.034995
1257.000000	0.035216
1256.000000	0.035449
1255.000000	0.035682
1254.000000	0.035912
1253.000000	0.036155
1252.000000	0.036429
1251.000000	0.036730
1250.000000	0.037033
1249.000000	0.037320
1248.000000	0.037599
1247.000000	0.037884
1246.000000	0.038185
1245.000000	0.038490
1244.000000	0.038778
1243.000000	0.039031
1242.000000	0.039245
1241.000000	0.039431
1240.000000	0.039593
1239.000000	0.039717
1238.000000	0.039786
1237.000000	0.039792
1236.000000	0.039741
1235.000000	0.039638
1234.000000	0.039485
1233.000000	0.039279
1232.000000	0.039016
1231.000000	0.038700
1230.000000	0.038345
1229.000000	0.037958
1228.000000	0.037529
1227.000000	0.037040
1226.000000	0.036493
1225.000000	0.035915
1224.000000	0.035334
1223.000000	0.034761
1222.000000	0.034194
1221.000000	0.033622
1220.000000	0.033044
1219.000000	0.032476
1218.000000	0.031958
1217.000000	0.031532
1216.000000	0.031213
1215.000000	0.030983
1214.000000	0.030811
1213.000000	0.030680
1212.000000	0.030587
1211.000000	0.030533
1210.000000	0.030514
1209.000000	0.030526
1208.000000	0.030568
1207.000000	0.030630
1206.000000	0.030699
1205.000000	0.030763
1204.000000	0.030806
1203.000000	0.030804
1202.000000	0.030740
1201.000000	0.030609
1200.000000	0.030420
1199.000000	0.030188
1198.000000	0.029927
1197.000000	0.029648
1196.000000	0.029361
1195.000000	0.029066
1194.000000	0.028766
1193.000000	0.028464
1192.000000	0.028169
1191.000000	0.027881
1190.000000	0.027597
1189.000000	0.027319
1188.000000	0.027049
1187.000000	0.026793
1186.000000	0.026550
1185.000000	0.026327
1184.000000	0.026137
1183.000000	0.025993
1182.000000	0.025890
1181.000000	0.025821
1180.000000	0.025778
1179.000000	0.025765
1178.000000	0.025781
1177.000000	0.025814
1176.000000	0.025846
1175.000000	0.025873
1174.000000	0.025902
1173.000000	0.025949
1172.000000	0.026022
1171.000000	0.026116
1170.000000	0.026226
1169.000000	0.026350
1168.000000	0.026492
1167.000000	0.026654
1166.000000	0.026836
1165.000000	0.027030
1164.000000	0.027226
1163.000000	0.027406
1162.000000	0.027557
1161.000000	0.027672
1160.000000	0.027739
1159.000000	0.027746
1158.000000	0.027688
1157.000000	0.027578
1156.000000	0.027437
1155.000000	0.027272
1154.000000	0.027088
1153.000000	0.026885
1152.000000	0.026668
1151.000000	0.026440
1150.000000	0.026204
1149.000000	0.025965
1148.000000	0.025727
1147.000000	0.025487
1146.000000	0.025248
1145.000000	0.025016
1144.000000	0.024788
1143.000000	0.024554
1142.000000	0.024314
1141.000000	0.024090
1140.000000	0.023905
1139.000000	0.023759
1138.000000	0.023632
1137.000000	0.023518
1136.000000	0.023433
1135.000000	0.023390
1134.000000	0.023392
1133.000000	0.023428
1132.000000	0.023495
1131.000000	0.023587
1130.000000	0.023693
1129.000000	0.023804
1128.000000	0.023913
1127.000000	0.024016
1126.000000	0.024111
1125.000000	0.024207
1124.000000	0.024318
1123.000000	0.024436
1122.000000	0.024546
1121.000000	0.024645
1120.000000	0.024756
1119.000000	0.024895
1118.000000	0.025049
1117.000000	0.025198
1116.000000	0.025330
1115.000000	0.025439
1114.000000	0.025526
1113.000000	0.025597
1112.000000	0.025681
1111.000000	0.025792
1110.000000	0.025917
1109.000000	0.026024
1108.000000	0.026104
1107.000000	0.026176
1106.000000	0.026260
1105.000000	0.026361
1104.000000	0.026474
1103.000000	0.026590
1102.000000	0.026700
1101.000000	0.026796
1100.000000	0.026880
1099.000000	0.026969
1098.000000	0.027079
1097.000000	0.027210
1096.000000	0.027351
1095.000000	0.027500
1094.000000	0.027669
1093.000000	0.027877
1092.000000	0.028132
1091.000000	0.028427
1090.000000	0.028757
1089.000000	0.029120
1088.000000	0.029516
1087.000000	0.029933
1086.000000	0.030352
1085.000000	0.030755
1084.000000	0.031129
1083.000000	0.031451
1082.000000	0.031695
1081.000000	0.031835
1080.000000	0.031864
1079.000000	0.031786
1078.000000	0.031623
1077.000000	0.031396
1076.000000	0.031121
1075.000000	0.030800
1074.000000	0.030443
1073.000000	0.030080
1072.000000	0.029765
1071.000000	0.029537
1070.000000	0.029393
1069.000000	0.029302
1068.000000	0.029242
1067.000000	0.029216
1066.000000	0.029235
1065.000000	0.029296
1064.000000	0.029392
1063.000000	0.029514
1062.000000	0.029649
1061.000000	0.029776
1060.000000	0.029869
1059.000000	0.029925
1058.000000	0.029956
1057.000000	0.029978
1056.000000	0.030003
1055.000000	0.030044
1054.000000	0.030106
1053.000000	0.030179
1052.000000	0.030254
1051.000000	0.030341
1050.000000	0.030461
1049.000000	0.030612
1048.000000	0.030758
1047.000000	0.030864
1046.000000	0.030928
1045.000000	0.030969
1044.000000	0.030996
1043.000000	0.031015
1042.000000	0.031046
1041.000000	0.031113
1040.000000	0.031231
1039.000000	0.031410
1038.000000	0.031663
1037.000000	0.031995
1036.000000	0.032371
1035.000000	0.032736
1034.000000	0.033058
1033.000000	0.033347
1032.000000	0.033622
1031.000000	0.033876
1030.000000	0.034083
1029.000000	0.034226
1028.000000	0.034315
1027.000000	0.034378
1026.000000	0.034453
1025.000000	0.034560
1024.000000	0.034706
1023.000000	0.034890
1022.000000	0.035108
1021.000000	0.035346
1020.000000	0.035564
1019.000000	0.035705
1018.000000	0.035737
1017.000000	0.035643
1016.000000	0.035401
1015.000000	0.034992
1014.000000	0.034423
1013.000000	0.033746
1012.000000	0.033018
1011.000000	0.032274
1010.000000	0.031533
1009.000000	0.030813
1008.000000	0.030131
1007.000000	0.029494
1006.000000	0.028902
1005.000000	0.028350
1004.000000	0.027835
1003.000000	0.027348
1002.000000	0.026884
1001.000000	0.026445
1000.000000	0.026031
999.000000	0.025639
998.000000	0.025266
997.000000	0.024910
996.000000	0.024567
995.000000	0.024223
994.000000	0.023867
993.000000	0.023499
992.000000	0.023131
991.000000	0.022775
990.000000	0.022429
989.000000	0.022084
988.000000	0.021737
987.000000	0.021399
986.000000	0.021080
985.000000	0.020786
984.000000	0.020521
983.000000	0.020293
982.000000	0.020107
981.000000	0.019948
980.000000	0.019796
979.000000	0.019635
978.000000	0.019466
977.000000	0.019292
976.000000	0.019115
975.000000	0.018946
974.000000	0.018791
973.000000	0.018644
972.000000	0.018482
971.000000	0.018288
970.000000	0.018072
969.000000	0.017849
968.000000	0.017627
967.000000	0.017400
966.000000	0.017166
965.000000	0.016924
964.000000	0.016674
963.000000	0.016421
962.000000	0.016177
961.000000	0.015957
960.000000	0.015757
959.000000	0.015568
958.000000	0.015378
957.000000	0.015185
956.000000	0.014992
955.000000	0.014809
954.000000	0.014652
953.000000	0.014525
952.000000	0.014411
951.000000	0.014279
950.000000	0.014123
949.000000	0.013964
948.000000	0.013829
947.000000	0.013733
946.000000	0.013682
945.000000	0.013673
944.000000	0.013687
943.000000	0.013697
942.000000	0.013695
941.000000	0.013687
940.000000	0.013676
939.000000	0.013647
938.000000	0.013589
937.000000	0.013516
936.000000	0.013443
935.000000	0.013367
934.000000	0.013278
933.000000	0.013186
932.000000	0.013107
931.000000	0.013039
930.000000	0.012964
929.000000	0.012875
928.000000	0.012794
927.000000	0.012747
926.000000	0.012733
925.000000	0.012730
924.000000	0.012703
923.000000	0.012636
922.000000	0.012531
921.000000	0.012412
920.000000	0.012299
919.000000	0.012195
918.000000	0.012089
917.000000	0.011972
916.000000	0.011847
915.000000	0.011729
914.000000	0.011630
913.000000	0.011550
912.000000	0.011465
911.000000	0.011342
910.000000	0.011176
909.000000	0.011008
908.000000	0.010892
907.000000	0.010844
906.000000	0.010832
905.000000	0.010819
904.000000	0.010790
903.000000	0.010746
902.000000	0.010688
901.000000	0.010611
900.000000	0.010513
899.000000	0.010398
898.000000	0.010275
897.000000	0.010162
896.000000	0.010078
895.000000	0.010030
894.000000	0.010017
893.000000	0.010032
892.000000	0.010061
891.000000	0.010071
890.000000	0.010045
889.000000	0.010005
888.000000	0.010003
887.000000	0.010073
886.000000	0.010216
885.000000	0.010429
884.000000	0.010725
883.000000	0.011120
882.000000	0.011612
881.000000	0.012193
880.000000	0.012848
879.000000	0.013537
878.000000	0.014187
877.000000	0.014714
876.000000	0.015049
875.000000	0.015142
874.000000	0.014968
873.000000	0.014555
872.000000	0.013985
871.000000	0.013359
870.000000	0.012762
869.000000	0.012236
868.000000	0.011804
867.000000	0.011470
866.000000	0.011231
865.000000	0.011074
864.000000	0.010985
863.000000	0.010938
862.000000	0.010904
861.000000	0.010867
860.000000	0.010829
859.000000	0.010806
858.000000	0.010811
857.000000	0.010841
856.000000	0.010880
855.000000	0.010905
854.000000	0.010905
853.000000	0.010894
852.000000	0.010893
851.000000	0.010908
850.000000	0.010926
849.000000	0.010925
848.000000	0.010880
847.000000	0.010777
846.000000	0.010632
845.000000	0.010507
844.000000	0.010460
843.000000	0.010489
842.000000	0.010527
841.000000	0.010515
840.000000	0.010452
839.000000	0.010377
838.000000	0.010310
837.000000	0.010249
836.000000	0.010186
835.000000	0.010122
834.000000	0.010063
833.000000	0.010021
832.000000	0.010006
831.000000	0.010008
830.000000	0.010004
829.000000	0.009982
828.000000	0.009965
827.000000	0.009977
826.000000	0.010017
825.000000	0.010064
824.000000	0.010102
823.000000	0.010134
822.000000	0.010165
821.000000	0.010196
820.000000	0.010219
819.000000	0.010212
818.000000	0.010161
817.000000	0.010085
816.000000	0.010034
815.000000	0.010049
814.000000	0.010121
813.000000	0.010206
812.000000	0.010267
811.000000	0.010286
810.000000	0.010261
809.000000	0.010196
808.000000	0.010116
807.000000	0.010059
806.000000	0.010047
805.000000	0.010062
804.000000	0.010065
803.000000	0.010039
802.000000	0.010007
801.000000	0.010006
800.000000	0.010044
799.000000	0.010091
798.000000	0.010128
797.000000	0.010168
796.000000	0.010227
795.000000	0.010287
794.000000	0.010309
793.000000	0.010291
792.000000	0.010275
791.000000	0.010299
790.000000	0.010356
789.000000	0.010419
788.000000	0.010466
787.000000	0.010495
786.000000	0.010507
785.000000	0.010506
784.000000	0.010500
783.000000	0.010496
782.000000	0.010494
781.000000	0.010491
780.000000	0.010483
779.000000	0.010465
778.000000	0.010436
777.000000	0.010411
776.000000	0.010404
775.000000	0.010414
774.000000	0.010421
773.000000	0.010413
772.000000	0.010392
771.000000	0.010372
770.000000	0.010369
769.000000	0.010397
768.000000	0.010450
767.000000	0.010490
766.000000	0.010475
765.000000	0.010408
764.000000	0.010334
763.000000	0.010302
762.000000	0.010325
761.000000	0.010401
760.000000	0.010517
759.000000	0.010641
758.000000	0.010730
757.000000	0.010772
756.000000	0.010795
755.000000	0.010815
754.000000	0.010811
753.000000	0.010763
752.000000	0.010697
751.000000	0.010665
750.000000	0.010693
749.000000	0.010765
748.000000	0.010849
747.000000	0.010918
746.000000	0.010955
745.000000	0.010962
744.000000	0.010971
743.000000	0.011012
742.000000	0.011089
741.000000	0.011189
740.000000	0.011301
739.000000	0.011417
738.000000	0.011528
737.000000	0.011635
736.000000	0.011760
735.000000	0.011933
734.000000	0.012154
733.000000	0.012398
732.000000	0.012632
731.000000	0.012826
730.000000	0.012971
729.000000	0.013103
728.000000	0.013282
727.000000	0.013531
726.000000	0.013816
725.000000	0.014099
724.000000	0.014369
723.000000	0.014618
722.000000	0.014822
721.000000	0.014958
720.000000	0.015025
719.000000	0.015029
718.000000	0.014968
717.000000	0.014878
716.000000	0.014845
715.000000	0.014929
714.000000	0.015085
713.000000	0.015214
712.000000	0.015276
711.000000	0.015307
710.000000	0.015342
709.000000	0.015368
708.000000	0.015373
707.000000	0.015379
706.000000	0.015423
705.000000	0.015524
704.000000	0.015667
703.000000	0.015815
702.000000	0.015921
701.000000	0.015958
700.000000	0.015945
699.000000	0.015917
698.000000	0.015883
697.000000	0.015837
696.000000	0.015790
695.000000	0.015777
694.000000	0.015787
693.000000	0.015758
692.000000	0.015673
691.000000	0.015585
690.000000	0.015556
689.000000	0.015601
688.000000	0.015699
687.000000	0.015843
686.000000	0.016011
685.000000	0.016139
684.000000	0.016200
683.000000	0.016239
682.000000	0.016311
681.000000	0.016428
680.000000	0.016581
679.000000	0.016752
678.000000	0.016891
677.000000	0.016983
676.000000	0.017085
675.000000	0.017269
674.000000	0.017517
673.000000	0.017719
672.000000	0.017782
671.000000	0.017705
670.000000	0.017521
669.000000	0.017287
668.000000	0.017293
667.000000	0.017692
666.000000	0.017889
665.000000	0.017947
664.000000	0.018080
663.000000	0.018210
662.000000	0.018214
661.000000	0.018111
660.000000	0.018000
659.000000	0.017905
658.000000	0.017788
657.000000	0.017681
656.000000	0.017629
655.000000	0.017599
654.000000	0.017552
653.000000	0.017528
652.000000	0.017557
651.000000	0.017610
650.000000	0.017649
649.000000	0.017678
648.000000	0.017684
647.000000	0.017630
646.000000	0.017550
645.000000	0.017531
644.000000	0.017584
643.000000	0.017644
642.000000	0.017666
641.000000	0.017675
640.000000	0.017683
639.000000	0.017654
638.000000	0.017580
637.000000	0.017516
636.000000	0.017492
635.000000	0.017478
634.000000	0.017458
633.000000	0.017457
632.000000	0.017488
631.000000	0.017537
630.000000	0.017605
629.000000	0.017712
628.000000	0.017830
627.000000	0.017888
626.000000	0.017878
625.000000	0.017873
624.000000	0.017928
623.000000	0.018022
622.000000	0.018102
621.000000	0.018118
620.000000	0.018046
619.000000	0.017913
618.000000	0.017809
617.000000	0.017794
616.000000	0.017839
615.000000	0.017891
614.000000	0.017965
613.000000	0.018087
612.000000	0.018189
611.000000	0.018172
610.000000	0.018061
609.000000	0.017971
608.000000	0.017939
607.000000	0.017892
606.000000	0.017809
605.000000	0.017759
604.000000	0.017779
603.000000	0.017829
602.000000	0.017874
601.000000	0.017904
600.000000	0.017869
599.000000	0.017712
598.000000	0.017491
597.000000	0.017337
596.000000	0.017277
595.000000	0.017209
594.000000	0.017094
593.000000	0.017037
592.000000	0.017116
591.000000	0.017249
590.000000	0.017311
589.000000	0.017283
588.000000	0.017206
587.000000	0.017086
586.000000	0.016942
585.000000	0.016865
584.000000	0.016926
583.000000	0.017081
582.000000	0.017238
581.000000	0.017365
580.000000	0.017468
579.000000	0.017516
578.000000	0.017475
577.000000	0.017363
576.000000	0.017233
575.000000	0.017142
574.000000	0.017160
573.000000	0.017341
572.000000	0.017641
571.000000	0.017930
570.000000	0.018142
569.000000	0.018337
568.000000	0.018565
567.000000	0.018760
566.000000	0.018843
565.000000	0.018846
564.000000	0.018848
563.000000	0.018868
562.000000	0.018893
561.000000	0.018928
560.000000	0.018961
559.000000	0.018958
558.000000	0.018955
557.000000	0.019049
556.000000	0.019229
555.000000	0.019318
554.000000	0.019162
553.000000	0.018808
552.000000	0.018417
551.000000	0.018106
550.000000	0.017934
549.000000	0.017940
548.000000	0.018095
547.000000	0.018276
546.000000	0.018370
545.000000	0.018356
544.000000	0.018260
543.000000	0.018107
542.000000	0.017980
541.000000	0.017984
540.000000	0.018083
539.000000	0.018098
538.000000	0.017957
537.000000	0.017823
536.000000	0.017892
535.000000	0.018163
534.000000	0.018502
533.000000	0.018818
532.000000	0.019056
531.000000	0.019132
530.000000	0.019019
529.000000	0.018819
528.000000	0.018635
527.000000	0.018453
526.000000	0.018238
525.000000	0.018042
524.000000	0.017912
523.000000	0.017781
522.000000	0.017585
521.000000	0.017357
520.000000	0.017121
519.000000	0.016802
518.000000	0.016368
517.000000	0.015963
516.000000	0.015754
515.000000	0.015704
514.000000	0.015656
513.000000	0.015519
512.000000	0.015306
511.000000	0.015055
510.000000	0.014842
509.000000	0.014778
508.000000	0.014897
507.000000	0.015078
506.000000	0.015158
505.000000	0.015094
504.000000	0.014916
503.000000	0.014639
502.000000	0.014324
501.000000	0.014104
500.000000	0.014035
499.000000	0.014012
498.000000	0.013911
497.000000	0.013734
496.000000	0.013536
495.000000	0.013332
494.000000	0.013141
493.000000	0.013026
492.000000	0.012972
491.000000	0.012833
490.000000	0.012529
489.000000	0.012186
488.000000	0.011976
487.000000	0.011927
486.000000	0.011998
485.000000	0.012198
484.000000	0.012503
483.000000	0.012766
482.000000	0.012874
481.000000	0.012903
480.000000	0.012953
479.000000	0.012950
478.000000	0.012782
477.000000	0.012513
476.000000	0.012285
475.000000	0.012124
474.000000	0.012035
473.000000	0.012146
472.000000	0.012523
471.000000	0.012949
470.000000	0.013198
469.000000	0.013377
468.000000	0.013701
467.000000	0.014089
466.000000	0.014236
465.000000	0.014034
464.000000	0.013622
463.000000	0.013089
462.000000	0.012398
461.000000	0.011560
460.000000	0.010674
459.000000	0.009836
458.000000	0.009214
457.000000	0.009077
456.000000	0.009453
455.000000	0.010006
454.000000	0.010407
453.000000	0.010614
452.000000	0.010712
451.000000	0.010622
450.000000	0.010178
