PE IR       SUBTECH     SPECTRUM    ASCII       PEDS        4.00        
   -1
3C-H10-F028_1.ASC
22/02/24
15:11:47.00
22/02/24
15:43:28.00
uco
Sample 028 By uco Date Thursday, February 24 2022
450.000000
#HDR
-1
-1
#GR
cm-1
A
1.0
0.0
4000.000000
-1.000000
3551
8
0.003912
-0.000418
#DATA
4000.000000	0.000167
3999.000000	0.000177
3998.000000	0.000186
3997.000000	0.000187
3996.000000	0.000200
3995.000000	0.000216
3994.000000	0.000228
3993.000000	0.000230
3992.000000	0.000225
3991.000000	0.000220
3990.000000	0.000222
3989.000000	0.000232
3988.000000	0.000241
3987.000000	0.000244
3986.000000	0.000240
3985.000000	0.000232
3984.000000	0.000222
3983.000000	0.000214
3982.000000	0.000207
3981.000000	0.000202
3980.000000	0.000198
3979.000000	0.000193
3978.000000	0.000183
3977.000000	0.000170
3976.000000	0.000157
3975.000000	0.000150
3974.000000	0.000154
3973.000000	0.000168
3972.000000	0.000187
3971.000000	0.000206
3970.000000	0.000218
3969.000000	0.000223
3968.000000	0.000222
3967.000000	0.000210
3966.000000	0.000189
3965.000000	0.000162
3964.000000	0.000143
3963.000000	0.000140
3962.000000	0.000152
3961.000000	0.000170
3960.000000	0.000185
3959.000000	0.000201
3958.000000	0.000218
3957.000000	0.000233
3956.000000	0.000237
3955.000000	0.000226
3954.000000	0.000211
3953.000000	0.000202
3952.000000	0.000205
3951.000000	0.000216
3950.000000	0.000230
3949.000000	0.000247
3948.000000	0.000274
3947.000000	0.000311
3946.000000	0.000346
3945.000000	0.000365
3944.000000	0.000357
3943.000000	0.000326
3942.000000	0.000292
3941.000000	0.000268
3940.000000	0.000259
3939.000000	0.000262
3938.000000	0.000272
3937.000000	0.000288
3936.000000	0.000311
3935.000000	0.000332
3934.000000	0.000340
3933.000000	0.000325
3932.000000	0.000293
3931.000000	0.000262
3930.000000	0.000251
3929.000000	0.000263
3928.000000	0.000287
3927.000000	0.000308
3926.000000	0.000313
3925.000000	0.000303
3924.000000	0.000290
3923.000000	0.000291
3922.000000	0.000312
3921.000000	0.000340
3920.000000	0.000357
3919.000000	0.000352
3918.000000	0.000334
3917.000000	0.000318
3916.000000	0.000319
3915.000000	0.000331
3914.000000	0.000346
3913.000000	0.000352
3912.000000	0.000345
3911.000000	0.000324
3910.000000	0.000296
3909.000000	0.000272
3908.000000	0.000261
3907.000000	0.000265
3906.000000	0.000276
3905.000000	0.000287
3904.000000	0.000297
3903.000000	0.000311
3902.000000	0.000330
3901.000000	0.000343
3900.000000	0.000342
3899.000000	0.000334
3898.000000	0.000331
3897.000000	0.000339
3896.000000	0.000351
3895.000000	0.000358
3894.000000	0.000357
3893.000000	0.000345
3892.000000	0.000327
3891.000000	0.000310
3890.000000	0.000301
3889.000000	0.000301
3888.000000	0.000306
3887.000000	0.000306
3886.000000	0.000298
3885.000000	0.000292
3884.000000	0.000302
3883.000000	0.000328
3882.000000	0.000352
3881.000000	0.000358
3880.000000	0.000349
3879.000000	0.000341
3878.000000	0.000342
3877.000000	0.000348
3876.000000	0.000345
3875.000000	0.000329
3874.000000	0.000306
3873.000000	0.000296
3872.000000	0.000309
3871.000000	0.000336
3870.000000	0.000359
3869.000000	0.000370
3868.000000	0.000371
3867.000000	0.000364
3866.000000	0.000349
3865.000000	0.000321
3864.000000	0.000286
3863.000000	0.000257
3862.000000	0.000246
3861.000000	0.000255
3860.000000	0.000279
3859.000000	0.000306
3858.000000	0.000321
3857.000000	0.000320
3856.000000	0.000312
3855.000000	0.000312
3854.000000	0.000316
3853.000000	0.000320
3852.000000	0.000329
3851.000000	0.000339
3850.000000	0.000347
3849.000000	0.000351
3848.000000	0.000358
3847.000000	0.000370
3846.000000	0.000382
3845.000000	0.000386
3844.000000	0.000381
3843.000000	0.000372
3842.000000	0.000364
3841.000000	0.000359
3840.000000	0.000352
3839.000000	0.000336
3838.000000	0.000317
3837.000000	0.000300
3836.000000	0.000288
3835.000000	0.000280
3834.000000	0.000271
3833.000000	0.000260
3832.000000	0.000250
3831.000000	0.000249
3830.000000	0.000262
3829.000000	0.000284
3828.000000	0.000303
3827.000000	0.000310
3826.000000	0.000310
3825.000000	0.000319
3824.000000	0.000346
3823.000000	0.000385
3822.000000	0.000402
3821.000000	0.000374
3820.000000	0.000320
3819.000000	0.000272
3818.000000	0.000244
3817.000000	0.000231
3816.000000	0.000223
3815.000000	0.000216
3814.000000	0.000213
3813.000000	0.000210
3812.000000	0.000203
3811.000000	0.000195
3810.000000	0.000197
3809.000000	0.000218
3808.000000	0.000254
3807.000000	0.000290
3806.000000	0.000316
3805.000000	0.000335
3804.000000	0.000350
3803.000000	0.000364
3802.000000	0.000371
3801.000000	0.000372
3800.000000	0.000373
3799.000000	0.000372
3798.000000	0.000363
3797.000000	0.000342
3796.000000	0.000316
3795.000000	0.000298
3794.000000	0.000295
3793.000000	0.000304
3792.000000	0.000317
3791.000000	0.000327
3790.000000	0.000327
3789.000000	0.000316
3788.000000	0.000301
3787.000000	0.000292
3786.000000	0.000297
3785.000000	0.000315
3784.000000	0.000337
3783.000000	0.000358
3782.000000	0.000375
3781.000000	0.000387
3780.000000	0.000389
3779.000000	0.000375
3778.000000	0.000352
3777.000000	0.000330
3776.000000	0.000316
3775.000000	0.000314
3774.000000	0.000322
3773.000000	0.000334
3772.000000	0.000346
3771.000000	0.000350
3770.000000	0.000346
3769.000000	0.000336
3768.000000	0.000322
3767.000000	0.000302
3766.000000	0.000274
3765.000000	0.000243
3764.000000	0.000224
3763.000000	0.000226
3762.000000	0.000249
3761.000000	0.000278
3760.000000	0.000293
3759.000000	0.000285
3758.000000	0.000263
3757.000000	0.000243
3756.000000	0.000236
3755.000000	0.000244
3754.000000	0.000256
3753.000000	0.000256
3752.000000	0.000234
3751.000000	0.000205
3750.000000	0.000203
3749.000000	0.000237
3748.000000	0.000285
3747.000000	0.000326
3746.000000	0.000350
3745.000000	0.000350
3744.000000	0.000334
3743.000000	0.000327
3742.000000	0.000339
3741.000000	0.000360
3740.000000	0.000380
3739.000000	0.000392
3738.000000	0.000396
3737.000000	0.000388
3736.000000	0.000369
3735.000000	0.000346
3734.000000	0.000325
3733.000000	0.000302
3732.000000	0.000276
3731.000000	0.000251
3730.000000	0.000237
3729.000000	0.000236
3728.000000	0.000241
3727.000000	0.000247
3726.000000	0.000250
3725.000000	0.000249
3724.000000	0.000240
3723.000000	0.000222
3722.000000	0.000201
3721.000000	0.000192
3720.000000	0.000203
3719.000000	0.000227
3718.000000	0.000252
3717.000000	0.000270
3716.000000	0.000280
3715.000000	0.000290
3714.000000	0.000303
3713.000000	0.000306
3712.000000	0.000280
3711.000000	0.000227
3710.000000	0.000173
3709.000000	0.000148
3708.000000	0.000163
3707.000000	0.000209
3706.000000	0.000268
3705.000000	0.000324
3704.000000	0.000358
3703.000000	0.000353
3702.000000	0.000304
3701.000000	0.000235
3700.000000	0.000183
3699.000000	0.000171
3698.000000	0.000187
3697.000000	0.000204
3696.000000	0.000200
3695.000000	0.000178
3694.000000	0.000158
3693.000000	0.000154
3692.000000	0.000164
3691.000000	0.000179
3690.000000	0.000185
3689.000000	0.000180
3688.000000	0.000171
3687.000000	0.000166
3686.000000	0.000169
3685.000000	0.000173
3684.000000	0.000174
3683.000000	0.000168
3682.000000	0.000166
3681.000000	0.000179
3680.000000	0.000215
3679.000000	0.000269
3678.000000	0.000329
3677.000000	0.000367
3676.000000	0.000355
3675.000000	0.000296
3674.000000	0.000231
3673.000000	0.000184
3672.000000	0.000166
3671.000000	0.000178
3670.000000	0.000211
3669.000000	0.000251
3668.000000	0.000282
3667.000000	0.000290
3666.000000	0.000274
3665.000000	0.000250
3664.000000	0.000235
3663.000000	0.000239
3662.000000	0.000255
3661.000000	0.000272
3660.000000	0.000282
3659.000000	0.000295
3658.000000	0.000323
3657.000000	0.000361
3656.000000	0.000389
3655.000000	0.000394
3654.000000	0.000379
3653.000000	0.000362
3652.000000	0.000358
3651.000000	0.000369
3650.000000	0.000381
3649.000000	0.000378
3648.000000	0.000361
3647.000000	0.000341
3646.000000	0.000329
3645.000000	0.000328
3644.000000	0.000333
3643.000000	0.000331
3642.000000	0.000318
3641.000000	0.000301
3640.000000	0.000289
3639.000000	0.000285
3638.000000	0.000283
3637.000000	0.000280
3636.000000	0.000278
3635.000000	0.000277
3634.000000	0.000277
3633.000000	0.000277
3632.000000	0.000280
3631.000000	0.000289
3630.000000	0.000301
3629.000000	0.000312
3628.000000	0.000332
3627.000000	0.000361
3626.000000	0.000380
3625.000000	0.000377
3624.000000	0.000360
3623.000000	0.000346
3622.000000	0.000342
3621.000000	0.000340
3620.000000	0.000322
3619.000000	0.000287
3618.000000	0.000257
3617.000000	0.000253
3616.000000	0.000280
3615.000000	0.000325
3614.000000	0.000367
3613.000000	0.000391
3612.000000	0.000393
3611.000000	0.000382
3610.000000	0.000369
3609.000000	0.000361
3608.000000	0.000360
3607.000000	0.000367
3606.000000	0.000380
3605.000000	0.000393
3604.000000	0.000402
3603.000000	0.000403
3602.000000	0.000397
3601.000000	0.000386
3600.000000	0.000372
3599.000000	0.000357
3598.000000	0.000343
3597.000000	0.000332
3596.000000	0.000327
3595.000000	0.000332
3594.000000	0.000346
3593.000000	0.000367
3592.000000	0.000391
3591.000000	0.000413
3590.000000	0.000427
3589.000000	0.000425
3588.000000	0.000405
3587.000000	0.000383
3586.000000	0.000376
3585.000000	0.000382
3584.000000	0.000387
3583.000000	0.000383
3582.000000	0.000368
3581.000000	0.000348
3580.000000	0.000332
3579.000000	0.000322
3578.000000	0.000320
3577.000000	0.000323
3576.000000	0.000328
3575.000000	0.000336
3574.000000	0.000345
3573.000000	0.000354
3572.000000	0.000360
3571.000000	0.000365
3570.000000	0.000377
3569.000000	0.000401
3568.000000	0.000433
3567.000000	0.000460
3566.000000	0.000474
3565.000000	0.000477
3564.000000	0.000472
3563.000000	0.000462
3562.000000	0.000450
3561.000000	0.000440
3560.000000	0.000433
3559.000000	0.000435
3558.000000	0.000445
3557.000000	0.000461
3556.000000	0.000477
3555.000000	0.000485
3554.000000	0.000477
3553.000000	0.000451
3552.000000	0.000418
3551.000000	0.000395
3550.000000	0.000394
3549.000000	0.000417
3548.000000	0.000454
3547.000000	0.000489
3546.000000	0.000510
3545.000000	0.000514
3544.000000	0.000505
3543.000000	0.000489
3542.000000	0.000472
3541.000000	0.000460
3540.000000	0.000455
3539.000000	0.000459
3538.000000	0.000469
3537.000000	0.000480
3536.000000	0.000488
3535.000000	0.000493
3534.000000	0.000498
3533.000000	0.000502
3532.000000	0.000506
3531.000000	0.000513
3530.000000	0.000524
3529.000000	0.000535
3528.000000	0.000536
3527.000000	0.000526
3526.000000	0.000511
3525.000000	0.000503
3524.000000	0.000503
3523.000000	0.000511
3522.000000	0.000521
3521.000000	0.000532
3520.000000	0.000541
3519.000000	0.000552
3518.000000	0.000565
3517.000000	0.000580
3516.000000	0.000593
3515.000000	0.000602
3514.000000	0.000609
3513.000000	0.000620
3512.000000	0.000632
3511.000000	0.000642
3510.000000	0.000643
3509.000000	0.000637
3508.000000	0.000630
3507.000000	0.000625
3506.000000	0.000621
3505.000000	0.000609
3504.000000	0.000586
3503.000000	0.000562
3502.000000	0.000555
3501.000000	0.000574
3500.000000	0.000609
3499.000000	0.000641
3498.000000	0.000658
3497.000000	0.000666
3496.000000	0.000674
3495.000000	0.000681
3494.000000	0.000683
3493.000000	0.000676
3492.000000	0.000664
3491.000000	0.000652
3490.000000	0.000637
3489.000000	0.000619
3488.000000	0.000598
3487.000000	0.000583
3486.000000	0.000586
3485.000000	0.000609
3484.000000	0.000644
3483.000000	0.000680
3482.000000	0.000705
3481.000000	0.000717
3480.000000	0.000719
3479.000000	0.000714
3478.000000	0.000706
3477.000000	0.000697
3476.000000	0.000696
3475.000000	0.000710
3474.000000	0.000733
3473.000000	0.000750
3472.000000	0.000749
3471.000000	0.000734
3470.000000	0.000721
3469.000000	0.000721
3468.000000	0.000731
3467.000000	0.000740
3466.000000	0.000743
3465.000000	0.000740
3464.000000	0.000735
3463.000000	0.000729
3462.000000	0.000724
3461.000000	0.000722
3460.000000	0.000723
3459.000000	0.000723
3458.000000	0.000724
3457.000000	0.000726
3456.000000	0.000725
3455.000000	0.000717
3454.000000	0.000702
3453.000000	0.000691
3452.000000	0.000698
3451.000000	0.000723
3450.000000	0.000755
3449.000000	0.000777
3448.000000	0.000783
3447.000000	0.000783
3446.000000	0.000787
3445.000000	0.000792
3444.000000	0.000791
3443.000000	0.000774
3442.000000	0.000747
3441.000000	0.000719
3440.000000	0.000702
3439.000000	0.000702
3438.000000	0.000718
3437.000000	0.000740
3436.000000	0.000753
3435.000000	0.000752
3434.000000	0.000743
3433.000000	0.000740
3432.000000	0.000747
3431.000000	0.000760
3430.000000	0.000772
3429.000000	0.000781
3428.000000	0.000790
3427.000000	0.000798
3426.000000	0.000807
3425.000000	0.000814
3424.000000	0.000817
3423.000000	0.000811
3422.000000	0.000798
3421.000000	0.000784
3420.000000	0.000774
3419.000000	0.000766
3418.000000	0.000757
3417.000000	0.000747
3416.000000	0.000749
3415.000000	0.000775
3414.000000	0.000822
3413.000000	0.000868
3412.000000	0.000891
3411.000000	0.000884
3410.000000	0.000860
3409.000000	0.000836
3408.000000	0.000825
3407.000000	0.000832
3406.000000	0.000854
3405.000000	0.000889
3404.000000	0.000923
3403.000000	0.000942
3402.000000	0.000941
3401.000000	0.000925
3400.000000	0.000908
3399.000000	0.000902
3398.000000	0.000906
3397.000000	0.000911
3396.000000	0.000908
3395.000000	0.000894
3394.000000	0.000879
3393.000000	0.000877
3392.000000	0.000892
3391.000000	0.000916
3390.000000	0.000934
3389.000000	0.000934
3388.000000	0.000917
3387.000000	0.000896
3386.000000	0.000884
3385.000000	0.000889
3384.000000	0.000903
3383.000000	0.000913
3382.000000	0.000912
3381.000000	0.000905
3380.000000	0.000903
3379.000000	0.000911
3378.000000	0.000924
3377.000000	0.000937
3376.000000	0.000947
3375.000000	0.000955
3374.000000	0.000961
3373.000000	0.000960
3372.000000	0.000949
3371.000000	0.000935
3370.000000	0.000928
3369.000000	0.000932
3368.000000	0.000941
3367.000000	0.000950
3366.000000	0.000958
3365.000000	0.000970
3364.000000	0.000987
3363.000000	0.001001
3362.000000	0.001005
3361.000000	0.000995
3360.000000	0.000974
3359.000000	0.000956
3358.000000	0.000953
3357.000000	0.000973
3356.000000	0.001008
3355.000000	0.001050
3354.000000	0.001090
3353.000000	0.001125
3352.000000	0.001149
3351.000000	0.001157
3350.000000	0.001149
3349.000000	0.001128
3348.000000	0.001104
3347.000000	0.001087
3346.000000	0.001084
3345.000000	0.001093
3344.000000	0.001103
3343.000000	0.001106
3342.000000	0.001102
3341.000000	0.001105
3340.000000	0.001124
3339.000000	0.001158
3338.000000	0.001193
3337.000000	0.001212
3336.000000	0.001207
3335.000000	0.001181
3334.000000	0.001148
3333.000000	0.001120
3332.000000	0.001107
3331.000000	0.001111
3330.000000	0.001126
3329.000000	0.001145
3328.000000	0.001162
3327.000000	0.001174
3326.000000	0.001181
3325.000000	0.001187
3324.000000	0.001193
3323.000000	0.001201
3322.000000	0.001206
3321.000000	0.001204
3320.000000	0.001195
3319.000000	0.001184
3318.000000	0.001176
3317.000000	0.001175
3316.000000	0.001179
3315.000000	0.001187
3314.000000	0.001197
3313.000000	0.001207
3312.000000	0.001217
3311.000000	0.001227
3310.000000	0.001235
3309.000000	0.001235
3308.000000	0.001224
3307.000000	0.001204
3306.000000	0.001182
3305.000000	0.001167
3304.000000	0.001159
3303.000000	0.001149
3302.000000	0.001134
3301.000000	0.001119
3300.000000	0.001115
3299.000000	0.001129
3298.000000	0.001155
3297.000000	0.001180
3296.000000	0.001195
3295.000000	0.001199
3294.000000	0.001205
3293.000000	0.001223
3292.000000	0.001254
3291.000000	0.001288
3290.000000	0.001309
3289.000000	0.001306
3288.000000	0.001282
3287.000000	0.001248
3286.000000	0.001216
3285.000000	0.001191
3284.000000	0.001176
3283.000000	0.001173
3282.000000	0.001181
3281.000000	0.001189
3280.000000	0.001186
3279.000000	0.001172
3278.000000	0.001157
3277.000000	0.001154
3276.000000	0.001165
3275.000000	0.001186
3274.000000	0.001208
3273.000000	0.001220
3272.000000	0.001214
3271.000000	0.001195
3270.000000	0.001177
3269.000000	0.001176
3268.000000	0.001195
3267.000000	0.001224
3266.000000	0.001244
3265.000000	0.001247
3264.000000	0.001231
3263.000000	0.001205
3262.000000	0.001184
3261.000000	0.001176
3260.000000	0.001180
3259.000000	0.001192
3258.000000	0.001202
3257.000000	0.001206
3256.000000	0.001202
3255.000000	0.001193
3254.000000	0.001187
3253.000000	0.001190
3252.000000	0.001196
3251.000000	0.001195
3250.000000	0.001181
3249.000000	0.001159
3248.000000	0.001140
3247.000000	0.001128
3246.000000	0.001125
3245.000000	0.001130
3244.000000	0.001145
3243.000000	0.001163
3242.000000	0.001175
3241.000000	0.001174
3240.000000	0.001166
3239.000000	0.001164
3238.000000	0.001174
3237.000000	0.001192
3236.000000	0.001207
3235.000000	0.001210
3234.000000	0.001206
3233.000000	0.001201
3232.000000	0.001193
3231.000000	0.001177
3230.000000	0.001152
3229.000000	0.001128
3228.000000	0.001116
3227.000000	0.001116
3226.000000	0.001122
3225.000000	0.001132
3224.000000	0.001144
3223.000000	0.001154
3222.000000	0.001157
3221.000000	0.001152
3220.000000	0.001144
3219.000000	0.001141
3218.000000	0.001144
3217.000000	0.001149
3216.000000	0.001150
3215.000000	0.001143
3214.000000	0.001130
3213.000000	0.001120
3212.000000	0.001122
3211.000000	0.001135
3210.000000	0.001154
3209.000000	0.001167
3208.000000	0.001170
3207.000000	0.001168
3206.000000	0.001169
3205.000000	0.001179
3204.000000	0.001193
3203.000000	0.001202
3202.000000	0.001195
3201.000000	0.001175
3200.000000	0.001148
3199.000000	0.001124
3198.000000	0.001107
3197.000000	0.001096
3196.000000	0.001091
3195.000000	0.001092
3194.000000	0.001097
3193.000000	0.001099
3192.000000	0.001092
3191.000000	0.001085
3190.000000	0.001086
3189.000000	0.001094
3188.000000	0.001099
3187.000000	0.001091
3186.000000	0.001071
3185.000000	0.001050
3184.000000	0.001039
3183.000000	0.001042
3182.000000	0.001057
3181.000000	0.001074
3180.000000	0.001084
3179.000000	0.001081
3178.000000	0.001069
3177.000000	0.001052
3176.000000	0.001033
3175.000000	0.001016
3174.000000	0.001005
3173.000000	0.001001
3172.000000	0.001001
3171.000000	0.000999
3170.000000	0.000992
3169.000000	0.000983
3168.000000	0.000980
3167.000000	0.000983
3166.000000	0.000984
3165.000000	0.000969
3164.000000	0.000935
3163.000000	0.000894
3162.000000	0.000869
3161.000000	0.000873
3160.000000	0.000901
3159.000000	0.000937
3158.000000	0.000967
3157.000000	0.000986
3156.000000	0.000993
3155.000000	0.000994
3154.000000	0.000996
3153.000000	0.001001
3152.000000	0.001006
3151.000000	0.001002
3150.000000	0.000990
3149.000000	0.000979
3148.000000	0.000978
3147.000000	0.000984
3146.000000	0.000985
3145.000000	0.000974
3144.000000	0.000953
3143.000000	0.000931
3142.000000	0.000916
3141.000000	0.000911
3140.000000	0.000911
3139.000000	0.000908
3138.000000	0.000898
3137.000000	0.000882
3136.000000	0.000864
3135.000000	0.000851
3134.000000	0.000845
3133.000000	0.000852
3132.000000	0.000874
3131.000000	0.000909
3130.000000	0.000943
3129.000000	0.000963
3128.000000	0.000966
3127.000000	0.000956
3126.000000	0.000944
3125.000000	0.000938
3124.000000	0.000938
3123.000000	0.000939
3122.000000	0.000938
3121.000000	0.000938
3120.000000	0.000942
3119.000000	0.000953
3118.000000	0.000964
3117.000000	0.000964
3116.000000	0.000946
3115.000000	0.000919
3114.000000	0.000894
3113.000000	0.000884
3112.000000	0.000891
3111.000000	0.000909
3110.000000	0.000930
3109.000000	0.000945
3108.000000	0.000953
3107.000000	0.000958
3106.000000	0.000962
3105.000000	0.000963
3104.000000	0.000955
3103.000000	0.000938
3102.000000	0.000921
3101.000000	0.000912
3100.000000	0.000915
3099.000000	0.000925
3098.000000	0.000940
3097.000000	0.000960
3096.000000	0.000983
3095.000000	0.001000
3094.000000	0.001002
3093.000000	0.000986
3092.000000	0.000962
3091.000000	0.000945
3090.000000	0.000947
3089.000000	0.000965
3088.000000	0.000982
3087.000000	0.000981
3086.000000	0.000963
3085.000000	0.000947
3084.000000	0.000952
3083.000000	0.000981
3082.000000	0.001018
3081.000000	0.001040
3080.000000	0.001037
3079.000000	0.001017
3078.000000	0.000999
3077.000000	0.000995
3076.000000	0.001005
3075.000000	0.001018
3074.000000	0.001028
3073.000000	0.001031
3072.000000	0.001030
3071.000000	0.001027
3070.000000	0.001024
3069.000000	0.001021
3068.000000	0.001016
3067.000000	0.001010
3066.000000	0.001003
3065.000000	0.001001
3064.000000	0.001010
3063.000000	0.001027
3062.000000	0.001045
3061.000000	0.001057
3060.000000	0.001056
3059.000000	0.001042
3058.000000	0.001014
3057.000000	0.000977
3056.000000	0.000944
3055.000000	0.000927
3054.000000	0.000925
3053.000000	0.000926
3052.000000	0.000917
3051.000000	0.000904
3050.000000	0.000904
3049.000000	0.000927
3048.000000	0.000966
3047.000000	0.001003
3046.000000	0.001026
3045.000000	0.001027
3044.000000	0.001005
3043.000000	0.000971
3042.000000	0.000940
3041.000000	0.000926
3040.000000	0.000924
3039.000000	0.000924
3038.000000	0.000919
3037.000000	0.000911
3036.000000	0.000903
3035.000000	0.000897
3034.000000	0.000890
3033.000000	0.000887
3032.000000	0.000894
3031.000000	0.000915
3030.000000	0.000941
3029.000000	0.000959
3028.000000	0.000955
3027.000000	0.000926
3026.000000	0.000889
3025.000000	0.000869
3024.000000	0.000877
3023.000000	0.000902
3022.000000	0.000925
3021.000000	0.000936
3020.000000	0.000938
3019.000000	0.000940
3018.000000	0.000943
3017.000000	0.000940
3016.000000	0.000926
3015.000000	0.000906
3014.000000	0.000887
3013.000000	0.000874
3012.000000	0.000869
3011.000000	0.000872
3010.000000	0.000883
3009.000000	0.000895
3008.000000	0.000900
3007.000000	0.000893
3006.000000	0.000879
3005.000000	0.000866
3004.000000	0.000858
3003.000000	0.000855
3002.000000	0.000853
3001.000000	0.000854
3000.000000	0.000858
2999.000000	0.000863
2998.000000	0.000867
2997.000000	0.000874
2996.000000	0.000883
2995.000000	0.000894
2994.000000	0.000903
2993.000000	0.000907
2992.000000	0.000907
2991.000000	0.000901
2990.000000	0.000888
2989.000000	0.000869
2988.000000	0.000854
2987.000000	0.000854
2986.000000	0.000869
2985.000000	0.000890
2984.000000	0.000907
2983.000000	0.000914
2982.000000	0.000915
2981.000000	0.000912
2980.000000	0.000908
2979.000000	0.000908
2978.000000	0.000916
2977.000000	0.000927
2976.000000	0.000932
2975.000000	0.000923
2974.000000	0.000909
2973.000000	0.000903
2972.000000	0.000909
2971.000000	0.000921
2970.000000	0.000937
2969.000000	0.000958
2968.000000	0.000981
2967.000000	0.000998
2966.000000	0.001005
2965.000000	0.001010
2964.000000	0.001027
2963.000000	0.001057
2962.000000	0.001090
2961.000000	0.001110
2960.000000	0.001116
2959.000000	0.001115
2958.000000	0.001113
2957.000000	0.001113
2956.000000	0.001112
2955.000000	0.001110
2954.000000	0.001114
2953.000000	0.001123
2952.000000	0.001127
2951.000000	0.001115
2950.000000	0.001086
2949.000000	0.001055
2948.000000	0.001036
2947.000000	0.001039
2946.000000	0.001057
2945.000000	0.001080
2944.000000	0.001101
2943.000000	0.001122
2942.000000	0.001151
2941.000000	0.001193
2940.000000	0.001243
2939.000000	0.001286
2938.000000	0.001311
2937.000000	0.001317
2936.000000	0.001313
2935.000000	0.001308
2934.000000	0.001306
2933.000000	0.001307
2932.000000	0.001310
2931.000000	0.001316
2930.000000	0.001329
2929.000000	0.001352
2928.000000	0.001387
2927.000000	0.001426
2926.000000	0.001457
2925.000000	0.001475
2924.000000	0.001479
2923.000000	0.001474
2922.000000	0.001468
2921.000000	0.001463
2920.000000	0.001457
2919.000000	0.001444
2918.000000	0.001425
2917.000000	0.001408
2916.000000	0.001398
2915.000000	0.001387
2914.000000	0.001359
2913.000000	0.001309
2912.000000	0.001253
2911.000000	0.001215
2910.000000	0.001206
2909.000000	0.001213
2908.000000	0.001213
2907.000000	0.001195
2906.000000	0.001164
2905.000000	0.001131
2904.000000	0.001103
2903.000000	0.001082
2902.000000	0.001067
2901.000000	0.001056
2900.000000	0.001048
2899.000000	0.001039
2898.000000	0.001030
2897.000000	0.001027
2896.000000	0.001035
2895.000000	0.001046
2894.000000	0.001046
2893.000000	0.001029
2892.000000	0.001003
2891.000000	0.000986
2890.000000	0.000981
2889.000000	0.000978
2888.000000	0.000970
2887.000000	0.000958
2886.000000	0.000956
2885.000000	0.000966
2884.000000	0.000978
2883.000000	0.000982
2882.000000	0.000979
2881.000000	0.000975
2880.000000	0.000975
2879.000000	0.000982
2878.000000	0.000996
2877.000000	0.001012
2876.000000	0.001022
2875.000000	0.001019
2874.000000	0.001002
2873.000000	0.000981
2872.000000	0.000966
2871.000000	0.000963
2870.000000	0.000971
2869.000000	0.000985
2868.000000	0.000997
2867.000000	0.001005
2866.000000	0.001008
2865.000000	0.001006
2864.000000	0.001001
2863.000000	0.000995
2862.000000	0.000992
2861.000000	0.000998
2860.000000	0.001018
2859.000000	0.001052
2858.000000	0.001094
2857.000000	0.001127
2856.000000	0.001138
2855.000000	0.001130
2854.000000	0.001120
2853.000000	0.001126
2852.000000	0.001146
2851.000000	0.001163
2850.000000	0.001161
2849.000000	0.001139
2848.000000	0.001108
2847.000000	0.001079
2846.000000	0.001055
2845.000000	0.001032
2844.000000	0.001009
2843.000000	0.000988
2842.000000	0.000971
2841.000000	0.000959
2840.000000	0.000952
2839.000000	0.000950
2838.000000	0.000958
2837.000000	0.000976
2836.000000	0.000996
2835.000000	0.001004
2834.000000	0.000998
2833.000000	0.000984
2832.000000	0.000972
2831.000000	0.000963
2830.000000	0.000951
2829.000000	0.000937
2828.000000	0.000926
2827.000000	0.000927
2826.000000	0.000943
2825.000000	0.000967
2824.000000	0.000988
2823.000000	0.000997
2822.000000	0.000991
2821.000000	0.000977
2820.000000	0.000959
2819.000000	0.000941
2818.000000	0.000925
2817.000000	0.000909
2816.000000	0.000897
2815.000000	0.000889
2814.000000	0.000888
2813.000000	0.000896
2812.000000	0.000908
2811.000000	0.000919
2810.000000	0.000924
2809.000000	0.000928
2808.000000	0.000939
2807.000000	0.000952
2806.000000	0.000958
2805.000000	0.000952
2804.000000	0.000944
2803.000000	0.000940
2802.000000	0.000941
2801.000000	0.000941
2800.000000	0.000940
2799.000000	0.000939
2798.000000	0.000937
2797.000000	0.000935
2796.000000	0.000931
2795.000000	0.000926
2794.000000	0.000921
2793.000000	0.000917
2792.000000	0.000919
2791.000000	0.000927
2790.000000	0.000937
2789.000000	0.000940
2788.000000	0.000933
2787.000000	0.000925
2786.000000	0.000922
2785.000000	0.000922
2784.000000	0.000923
2783.000000	0.000926
2782.000000	0.000936
2781.000000	0.000952
2780.000000	0.000968
2779.000000	0.000975
2778.000000	0.000968
2777.000000	0.000950
2776.000000	0.000933
2775.000000	0.000927
2774.000000	0.000935
2773.000000	0.000948
2772.000000	0.000957
2771.000000	0.000956
2770.000000	0.000947
2769.000000	0.000936
2768.000000	0.000933
2767.000000	0.000941
2766.000000	0.000955
2765.000000	0.000963
2764.000000	0.000956
2763.000000	0.000936
2762.000000	0.000912
2761.000000	0.000895
2760.000000	0.000890
2759.000000	0.000900
2758.000000	0.000916
2757.000000	0.000926
2756.000000	0.000924
2755.000000	0.000915
2754.000000	0.000908
2753.000000	0.000908
2752.000000	0.000910
2751.000000	0.000905
2750.000000	0.000886
2749.000000	0.000860
2748.000000	0.000837
2747.000000	0.000825
2746.000000	0.000825
2745.000000	0.000831
2744.000000	0.000845
2743.000000	0.000868
2742.000000	0.000896
2741.000000	0.000916
2740.000000	0.000917
2739.000000	0.000898
2738.000000	0.000868
2737.000000	0.000839
2736.000000	0.000819
2735.000000	0.000810
2734.000000	0.000813
2733.000000	0.000823
2732.000000	0.000832
2731.000000	0.000841
2730.000000	0.000850
2729.000000	0.000853
2728.000000	0.000846
2727.000000	0.000831
2726.000000	0.000817
2725.000000	0.000816
2724.000000	0.000829
2723.000000	0.000847
2722.000000	0.000855
2721.000000	0.000850
2720.000000	0.000836
2719.000000	0.000823
2718.000000	0.000817
2717.000000	0.000820
2716.000000	0.000828
2715.000000	0.000840
2714.000000	0.000850
2713.000000	0.000856
2712.000000	0.000857
2711.000000	0.000856
2710.000000	0.000858
2709.000000	0.000862
2708.000000	0.000865
2707.000000	0.000864
2706.000000	0.000860
2705.000000	0.000857
2704.000000	0.000861
2703.000000	0.000875
2702.000000	0.000895
2701.000000	0.000910
2700.000000	0.000913
2699.000000	0.000907
2698.000000	0.000902
2697.000000	0.000900
2696.000000	0.000897
2695.000000	0.000889
2694.000000	0.000882
2693.000000	0.000881
2692.000000	0.000893
2691.000000	0.000910
2690.000000	0.000923
2689.000000	0.000921
2688.000000	0.000903
2687.000000	0.000878
2686.000000	0.000860
2685.000000	0.000852
2684.000000	0.000849
2683.000000	0.000849
2682.000000	0.000857
2681.000000	0.000875
2680.000000	0.000896
2679.000000	0.000907
2678.000000	0.000906
2677.000000	0.000901
2676.000000	0.000902
2675.000000	0.000910
2674.000000	0.000915
2673.000000	0.000911
2672.000000	0.000900
2671.000000	0.000891
2670.000000	0.000890
2669.000000	0.000895
2668.000000	0.000901
2667.000000	0.000905
2666.000000	0.000910
2665.000000	0.000921
2664.000000	0.000936
2663.000000	0.000945
2662.000000	0.000937
2661.000000	0.000912
2660.000000	0.000883
2659.000000	0.000866
2658.000000	0.000866
2657.000000	0.000871
2656.000000	0.000868
2655.000000	0.000850
2654.000000	0.000826
2653.000000	0.000811
2652.000000	0.000808
2651.000000	0.000814
2650.000000	0.000822
2649.000000	0.000830
2648.000000	0.000838
2647.000000	0.000844
2646.000000	0.000843
2645.000000	0.000834
2644.000000	0.000820
2643.000000	0.000807
2642.000000	0.000803
2641.000000	0.000809
2640.000000	0.000818
2639.000000	0.000823
2638.000000	0.000815
2637.000000	0.000795
2636.000000	0.000764
2635.000000	0.000728
2634.000000	0.000695
2633.000000	0.000673
2632.000000	0.000665
2631.000000	0.000670
2630.000000	0.000684
2629.000000	0.000699
2628.000000	0.000709
2627.000000	0.000712
2626.000000	0.000707
2625.000000	0.000694
2624.000000	0.000683
2623.000000	0.000683
2622.000000	0.000700
2621.000000	0.000728
2620.000000	0.000752
2619.000000	0.000758
2618.000000	0.000747
2617.000000	0.000726
2616.000000	0.000706
2615.000000	0.000687
2614.000000	0.000664
2613.000000	0.000633
2612.000000	0.000596
2611.000000	0.000569
2610.000000	0.000561
2609.000000	0.000567
2608.000000	0.000571
2607.000000	0.000562
2606.000000	0.000546
2605.000000	0.000534
2604.000000	0.000530
2603.000000	0.000531
2602.000000	0.000533
2601.000000	0.000535
2600.000000	0.000537
2599.000000	0.000541
2598.000000	0.000545
2597.000000	0.000548
2596.000000	0.000547
2595.000000	0.000543
2594.000000	0.000541
2593.000000	0.000544
2592.000000	0.000553
2591.000000	0.000564
2590.000000	0.000572
2589.000000	0.000576
2588.000000	0.000582
2587.000000	0.000597
2586.000000	0.000616
2585.000000	0.000626
2584.000000	0.000617
2583.000000	0.000594
2582.000000	0.000571
2581.000000	0.000559
2580.000000	0.000559
2579.000000	0.000568
2578.000000	0.000582
2577.000000	0.000600
2576.000000	0.000617
2575.000000	0.000630
2574.000000	0.000635
2573.000000	0.000628
2572.000000	0.000606
2571.000000	0.000576
2570.000000	0.000550
2569.000000	0.000540
2568.000000	0.000542
2567.000000	0.000547
2566.000000	0.000547
2565.000000	0.000538
2564.000000	0.000519
2563.000000	0.000493
2562.000000	0.000472
2561.000000	0.000472
2560.000000	0.000500
2559.000000	0.000544
2558.000000	0.000583
2557.000000	0.000603
2556.000000	0.000607
2555.000000	0.000606
2554.000000	0.000602
2553.000000	0.000591
2552.000000	0.000578
2551.000000	0.000578
2550.000000	0.000601
2549.000000	0.000629
2548.000000	0.000637
2547.000000	0.000625
2546.000000	0.000618
2545.000000	0.000635
2544.000000	0.000665
2543.000000	0.000676
2542.000000	0.000657
2541.000000	0.000621
2540.000000	0.000588
2539.000000	0.000570
2538.000000	0.000568
2537.000000	0.000582
2536.000000	0.000609
2535.000000	0.000647
2534.000000	0.000679
2533.000000	0.000688
2532.000000	0.000663
2531.000000	0.000614
2530.000000	0.000570
2529.000000	0.000554
2528.000000	0.000564
2527.000000	0.000583
2526.000000	0.000598
2525.000000	0.000608
2524.000000	0.000613
2523.000000	0.000610
2522.000000	0.000601
2521.000000	0.000598
2520.000000	0.000612
2519.000000	0.000636
2518.000000	0.000652
2517.000000	0.000653
2516.000000	0.000646
2515.000000	0.000642
2514.000000	0.000638
2513.000000	0.000628
2512.000000	0.000610
2511.000000	0.000587
2510.000000	0.000564
2509.000000	0.000543
2508.000000	0.000529
2507.000000	0.000524
2506.000000	0.000526
2505.000000	0.000531
2504.000000	0.000536
2503.000000	0.000547
2502.000000	0.000564
2501.000000	0.000583
2500.000000	0.000598
2499.000000	0.000608
2498.000000	0.000614
2497.000000	0.000615
2496.000000	0.000608
2495.000000	0.000601
2494.000000	0.000599
2493.000000	0.000607
2492.000000	0.000619
2491.000000	0.000626
2490.000000	0.000619
2489.000000	0.000597
2488.000000	0.000574
2487.000000	0.000565
2486.000000	0.000570
2485.000000	0.000570
2484.000000	0.000553
2483.000000	0.000531
2482.000000	0.000528
2481.000000	0.000550
2480.000000	0.000572
2479.000000	0.000565
2478.000000	0.000533
2477.000000	0.000499
2476.000000	0.000483
2475.000000	0.000482
2474.000000	0.000485
2473.000000	0.000487
2472.000000	0.000491
2471.000000	0.000496
2470.000000	0.000501
2469.000000	0.000510
2468.000000	0.000525
2467.000000	0.000545
2466.000000	0.000558
2465.000000	0.000552
2464.000000	0.000531
2463.000000	0.000510
2462.000000	0.000505
2461.000000	0.000529
2460.000000	0.000577
2459.000000	0.000623
2458.000000	0.000639
2457.000000	0.000610
2456.000000	0.000561
2455.000000	0.000532
2454.000000	0.000548
2453.000000	0.000595
2452.000000	0.000637
2451.000000	0.000649
2450.000000	0.000636
2449.000000	0.000621
2448.000000	0.000625
2447.000000	0.000646
2446.000000	0.000663
2445.000000	0.000653
2444.000000	0.000610
2443.000000	0.000552
2442.000000	0.000504
2441.000000	0.000476
2440.000000	0.000467
2439.000000	0.000474
2438.000000	0.000492
2437.000000	0.000510
2436.000000	0.000518
2435.000000	0.000520
2434.000000	0.000524
2433.000000	0.000535
2432.000000	0.000545
2431.000000	0.000551
2430.000000	0.000560
2429.000000	0.000578
2428.000000	0.000603
2427.000000	0.000624
2426.000000	0.000634
2425.000000	0.000628
2424.000000	0.000610
2423.000000	0.000591
2422.000000	0.000580
2421.000000	0.000576
2420.000000	0.000572
2419.000000	0.000568
2418.000000	0.000568
2417.000000	0.000576
2416.000000	0.000590
2415.000000	0.000612
2414.000000	0.000642
2413.000000	0.000672
2412.000000	0.000681
2411.000000	0.000658
2410.000000	0.000615
2409.000000	0.000576
2408.000000	0.000554
2407.000000	0.000549
2406.000000	0.000560
2405.000000	0.000585
2404.000000	0.000620
2403.000000	0.000650
2402.000000	0.000664
2401.000000	0.000656
2400.000000	0.000625
2399.000000	0.000580
2398.000000	0.000544
2397.000000	0.000535
2396.000000	0.000550
2395.000000	0.000565
2394.000000	0.000562
2393.000000	0.000543
2392.000000	0.000526
2391.000000	0.000527
2390.000000	0.000547
2389.000000	0.000579
2388.000000	0.000611
2387.000000	0.000641
2386.000000	0.000668
2385.000000	0.000696
2384.000000	0.000719
2383.000000	0.000730
2382.000000	0.000727
2381.000000	0.000721
2380.000000	0.000725
2379.000000	0.000735
2378.000000	0.000740
2377.000000	0.000729
2376.000000	0.000708
2375.000000	0.000686
2374.000000	0.000676
2373.000000	0.000692
2372.000000	0.000750
2371.000000	0.000850
2370.000000	0.000957
2369.000000	0.001017
2368.000000	0.001002
2367.000000	0.000936
2366.000000	0.000870
2365.000000	0.000832
2364.000000	0.000822
2363.000000	0.000836
2362.000000	0.000870
2361.000000	0.000902
2360.000000	0.000902
2359.000000	0.000860
2358.000000	0.000801
2357.000000	0.000762
2356.000000	0.000765
2355.000000	0.000803
2354.000000	0.000852
2353.000000	0.000884
2352.000000	0.000886
2351.000000	0.000876
2350.000000	0.000871
2349.000000	0.000871
2348.000000	0.000867
2347.000000	0.000859
2346.000000	0.000858
2345.000000	0.000874
2344.000000	0.000902
2343.000000	0.000931
2342.000000	0.000941
2341.000000	0.000925
2340.000000	0.000897
2339.000000	0.000873
2338.000000	0.000856
2337.000000	0.000839
2336.000000	0.000819
2335.000000	0.000803
2334.000000	0.000792
2333.000000	0.000784
2332.000000	0.000777
2331.000000	0.000775
2330.000000	0.000784
2329.000000	0.000799
2328.000000	0.000812
2327.000000	0.000810
2326.000000	0.000786
2325.000000	0.000750
2324.000000	0.000722
2323.000000	0.000720
2322.000000	0.000743
2321.000000	0.000772
2320.000000	0.000790
2319.000000	0.000785
2318.000000	0.000760
2317.000000	0.000725
2316.000000	0.000706
2315.000000	0.000716
2314.000000	0.000748
2313.000000	0.000776
2312.000000	0.000788
2311.000000	0.000790
2310.000000	0.000787
2309.000000	0.000773
2308.000000	0.000737
2307.000000	0.000685
2306.000000	0.000639
2305.000000	0.000611
2304.000000	0.000603
2303.000000	0.000609
2302.000000	0.000626
2301.000000	0.000642
2300.000000	0.000651
2299.000000	0.000653
2298.000000	0.000663
2297.000000	0.000685
2296.000000	0.000715
2295.000000	0.000746
2294.000000	0.000773
2293.000000	0.000793
2292.000000	0.000797
2291.000000	0.000780
2290.000000	0.000749
2289.000000	0.000719
2288.000000	0.000691
2287.000000	0.000654
2286.000000	0.000603
2285.000000	0.000545
2284.000000	0.000500
2283.000000	0.000484
2282.000000	0.000499
2281.000000	0.000540
2280.000000	0.000595
2279.000000	0.000639
2278.000000	0.000643
2277.000000	0.000588
2276.000000	0.000495
2275.000000	0.000412
2274.000000	0.000373
2273.000000	0.000382
2272.000000	0.000425
2271.000000	0.000496
2270.000000	0.000588
2269.000000	0.000674
2268.000000	0.000725
2267.000000	0.000739
2266.000000	0.000736
2265.000000	0.000731
2264.000000	0.000712
2263.000000	0.000670
2262.000000	0.000622
2261.000000	0.000597
2260.000000	0.000610
2259.000000	0.000650
2258.000000	0.000694
2257.000000	0.000717
2256.000000	0.000703
2255.000000	0.000654
2254.000000	0.000592
2253.000000	0.000545
2252.000000	0.000531
2251.000000	0.000547
2250.000000	0.000581
2249.000000	0.000621
2248.000000	0.000658
2247.000000	0.000680
2246.000000	0.000672
2245.000000	0.000641
2244.000000	0.000622
2243.000000	0.000650
2242.000000	0.000708
2241.000000	0.000731
2240.000000	0.000673
2239.000000	0.000574
2238.000000	0.000516
2237.000000	0.000535
2236.000000	0.000594
2235.000000	0.000636
2234.000000	0.000639
2233.000000	0.000622
2232.000000	0.000609
2231.000000	0.000616
2230.000000	0.000649
2229.000000	0.000696
2228.000000	0.000743
2227.000000	0.000780
2226.000000	0.000802
2225.000000	0.000793
2224.000000	0.000730
2223.000000	0.000634
2222.000000	0.000565
2221.000000	0.000574
2220.000000	0.000643
2219.000000	0.000710
2218.000000	0.000731
2217.000000	0.000713
2216.000000	0.000679
2215.000000	0.000642
2214.000000	0.000608
2213.000000	0.000595
2212.000000	0.000616
2211.000000	0.000662
2210.000000	0.000702
2209.000000	0.000714
2208.000000	0.000711
2207.000000	0.000720
2206.000000	0.000743
2205.000000	0.000746
2204.000000	0.000686
2203.000000	0.000558
2202.000000	0.000405
2201.000000	0.000291
2200.000000	0.000276
2199.000000	0.000378
2198.000000	0.000549
2197.000000	0.000697
2196.000000	0.000763
2195.000000	0.000765
2194.000000	0.000755
2193.000000	0.000748
2192.000000	0.000721
2191.000000	0.000681
2190.000000	0.000674
2189.000000	0.000729
2188.000000	0.000807
2187.000000	0.000844
2186.000000	0.000815
2185.000000	0.000738
2184.000000	0.000630
2183.000000	0.000493
2182.000000	0.000340
2181.000000	0.000211
2180.000000	0.000156
2179.000000	0.000203
2178.000000	0.000335
2177.000000	0.000502
2176.000000	0.000635
2175.000000	0.000676
2174.000000	0.000608
2173.000000	0.000458
2172.000000	0.000305
2171.000000	0.000247
2170.000000	0.000345
2169.000000	0.000571
2168.000000	0.000819
2167.000000	0.000974
2166.000000	0.000974
2165.000000	0.000823
2164.000000	0.000587
2163.000000	0.000361
2162.000000	0.000205
2161.000000	0.000107
2160.000000	0.000020
2159.000000	-0.000045
2158.000000	-0.000014
2157.000000	0.000131
2156.000000	0.000298
2155.000000	0.000378
2154.000000	0.000347
2153.000000	0.000266
2152.000000	0.000219
2151.000000	0.000251
2150.000000	0.000337
2149.000000	0.000411
2148.000000	0.000438
2147.000000	0.000441
2146.000000	0.000458
2145.000000	0.000473
2144.000000	0.000447
2143.000000	0.000390
2142.000000	0.000361
2141.000000	0.000380
2140.000000	0.000394
2139.000000	0.000349
2138.000000	0.000263
2137.000000	0.000204
2136.000000	0.000215
2135.000000	0.000288
2134.000000	0.000384
2133.000000	0.000460
2132.000000	0.000492
2131.000000	0.000492
2130.000000	0.000498
2129.000000	0.000532
2128.000000	0.000576
2127.000000	0.000606
2126.000000	0.000623
2125.000000	0.000635
2124.000000	0.000633
2123.000000	0.000607
2122.000000	0.000580
2121.000000	0.000593
2120.000000	0.000662
2119.000000	0.000755
2118.000000	0.000833
2117.000000	0.000867
2116.000000	0.000849
2115.000000	0.000786
2114.000000	0.000704
2113.000000	0.000638
2112.000000	0.000604
2111.000000	0.000593
2110.000000	0.000601
2109.000000	0.000628
2108.000000	0.000674
2107.000000	0.000725
2106.000000	0.000775
2105.000000	0.000818
2104.000000	0.000834
2103.000000	0.000793
2102.000000	0.000691
2101.000000	0.000568
2100.000000	0.000478
2099.000000	0.000452
2098.000000	0.000502
2097.000000	0.000623
2096.000000	0.000779
2095.000000	0.000905
2094.000000	0.000942
2093.000000	0.000890
2092.000000	0.000802
2091.000000	0.000734
2090.000000	0.000709
2089.000000	0.000722
2088.000000	0.000760
2087.000000	0.000809
2086.000000	0.000840
2085.000000	0.000824
2084.000000	0.000755
2083.000000	0.000667
2082.000000	0.000612
2081.000000	0.000613
2080.000000	0.000646
2079.000000	0.000664
2078.000000	0.000651
2077.000000	0.000626
2076.000000	0.000616
2075.000000	0.000621
2074.000000	0.000622
2073.000000	0.000602
2072.000000	0.000561
2071.000000	0.000521
2070.000000	0.000519
2069.000000	0.000587
2068.000000	0.000715
2067.000000	0.000866
2066.000000	0.000997
2065.000000	0.001092
2064.000000	0.001136
2063.000000	0.001106
2062.000000	0.000989
2061.000000	0.000822
2060.000000	0.000677
2059.000000	0.000606
2058.000000	0.000609
2057.000000	0.000655
2056.000000	0.000723
2055.000000	0.000795
2054.000000	0.000852
2053.000000	0.000873
2052.000000	0.000862
2051.000000	0.000860
2050.000000	0.000920
2049.000000	0.001048
2048.000000	0.001183
2047.000000	0.001231
2046.000000	0.001139
2045.000000	0.000929
2044.000000	0.000669
2043.000000	0.000446
2042.000000	0.000343
2041.000000	0.000409
2040.000000	0.000595
2039.000000	0.000771
2038.000000	0.000834
2037.000000	0.000804
2036.000000	0.000773
2035.000000	0.000783
2034.000000	0.000788
2033.000000	0.000742
2032.000000	0.000663
2031.000000	0.000596
2030.000000	0.000541
2029.000000	0.000463
2028.000000	0.000334
2027.000000	0.000161
2026.000000	0.000001
2025.000000	-0.000064
2024.000000	0.000006
2023.000000	0.000152
2022.000000	0.000269
2021.000000	0.000334
2020.000000	0.000423
2019.000000	0.000588
2018.000000	0.000749
2017.000000	0.000783
2016.000000	0.000688
2015.000000	0.000587
2014.000000	0.000565
2013.000000	0.000563
2012.000000	0.000471
2011.000000	0.000280
2010.000000	0.000102
2009.000000	0.000064
2008.000000	0.000182
2007.000000	0.000354
2006.000000	0.000453
2005.000000	0.000433
2004.000000	0.000332
2003.000000	0.000206
2002.000000	0.000087
2001.000000	-0.000005
2000.000000	-0.000037
1999.000000	0.000018
1998.000000	0.000149
1997.000000	0.000310
1996.000000	0.000453
1995.000000	0.000567
1994.000000	0.000678
1993.000000	0.000826
1992.000000	0.001009
1991.000000	0.001159
1990.000000	0.001196
1989.000000	0.001118
1988.000000	0.001020
1987.000000	0.000985
1986.000000	0.000986
1985.000000	0.000927
1984.000000	0.000777
1983.000000	0.000598
1982.000000	0.000453
1981.000000	0.000332
1980.000000	0.000223
1979.000000	0.000172
1978.000000	0.000240
1977.000000	0.000396
1976.000000	0.000529
1975.000000	0.000562
1974.000000	0.000498
1973.000000	0.000380
1972.000000	0.000248
1971.000000	0.000134
1970.000000	0.000054
1969.000000	0.000011
1968.000000	0.000008
1967.000000	0.000056
1966.000000	0.000158
1965.000000	0.000274
1964.000000	0.000358
1963.000000	0.000398
1962.000000	0.000425
1961.000000	0.000483
1960.000000	0.000606
1959.000000	0.000800
1958.000000	0.001014
1957.000000	0.001148
1956.000000	0.001140
1955.000000	0.001036
1954.000000	0.000947
1953.000000	0.000938
1952.000000	0.000963
1951.000000	0.000938
1950.000000	0.000839
1949.000000	0.000729
1948.000000	0.000682
1947.000000	0.000707
1946.000000	0.000753
1945.000000	0.000768
1944.000000	0.000741
1943.000000	0.000704
1942.000000	0.000692
1941.000000	0.000713
1940.000000	0.000741
1939.000000	0.000749
1938.000000	0.000720
1937.000000	0.000662
1936.000000	0.000599
1935.000000	0.000557
1934.000000	0.000548
1933.000000	0.000568
1932.000000	0.000606
1931.000000	0.000654
1930.000000	0.000697
1929.000000	0.000727
1928.000000	0.000737
1927.000000	0.000734
1926.000000	0.000720
1925.000000	0.000695
1924.000000	0.000659
1923.000000	0.000618
1922.000000	0.000587
1921.000000	0.000570
1920.000000	0.000562
1919.000000	0.000551
1918.000000	0.000528
1917.000000	0.000502
1916.000000	0.000495
1915.000000	0.000516
1914.000000	0.000550
1913.000000	0.000574
1912.000000	0.000581
1911.000000	0.000584
1910.000000	0.000593
1909.000000	0.000613
1908.000000	0.000644
1907.000000	0.000671
1906.000000	0.000664
1905.000000	0.000598
1904.000000	0.000497
1903.000000	0.000416
1902.000000	0.000393
1901.000000	0.000422
1900.000000	0.000481
1899.000000	0.000557
1898.000000	0.000633
1897.000000	0.000680
1896.000000	0.000679
1895.000000	0.000647
1894.000000	0.000611
1893.000000	0.000573
1892.000000	0.000531
1891.000000	0.000493
1890.000000	0.000482
1889.000000	0.000506
1888.000000	0.000545
1887.000000	0.000575
1886.000000	0.000585
1885.000000	0.000565
1884.000000	0.000517
1883.000000	0.000456
1882.000000	0.000405
1881.000000	0.000379
1880.000000	0.000382
1879.000000	0.000409
1878.000000	0.000448
1877.000000	0.000478
1876.000000	0.000483
1875.000000	0.000464
1874.000000	0.000436
1873.000000	0.000416
1872.000000	0.000418
1871.000000	0.000445
1870.000000	0.000483
1869.000000	0.000500
1868.000000	0.000482
1867.000000	0.000447
1866.000000	0.000421
1865.000000	0.000411
1864.000000	0.000409
1863.000000	0.000409
1862.000000	0.000409
1861.000000	0.000406
1860.000000	0.000395
1859.000000	0.000383
1858.000000	0.000385
1857.000000	0.000412
1856.000000	0.000454
1855.000000	0.000493
1854.000000	0.000515
1853.000000	0.000514
1852.000000	0.000497
1851.000000	0.000474
1850.000000	0.000453
1849.000000	0.000438
1848.000000	0.000435
1847.000000	0.000446
1846.000000	0.000470
1845.000000	0.000492
1844.000000	0.000501
1843.000000	0.000495
1842.000000	0.000473
1841.000000	0.000433
1840.000000	0.000383
1839.000000	0.000341
1838.000000	0.000319
1837.000000	0.000313
1836.000000	0.000313
1835.000000	0.000320
1834.000000	0.000344
1833.000000	0.000382
1832.000000	0.000413
1831.000000	0.000419
1830.000000	0.000405
1829.000000	0.000394
1828.000000	0.000392
1827.000000	0.000392
1826.000000	0.000392
1825.000000	0.000400
1824.000000	0.000418
1823.000000	0.000442
1822.000000	0.000462
1821.000000	0.000472
1820.000000	0.000475
1819.000000	0.000481
1818.000000	0.000500
1817.000000	0.000521
1816.000000	0.000532
1815.000000	0.000530
1814.000000	0.000519
1813.000000	0.000496
1812.000000	0.000459
1811.000000	0.000424
1810.000000	0.000415
1809.000000	0.000433
1808.000000	0.000457
1807.000000	0.000466
1806.000000	0.000455
1805.000000	0.000429
1804.000000	0.000403
1803.000000	0.000389
1802.000000	0.000393
1801.000000	0.000409
1800.000000	0.000425
1799.000000	0.000439
1798.000000	0.000447
1797.000000	0.000438
1796.000000	0.000405
1795.000000	0.000361
1794.000000	0.000335
1793.000000	0.000345
1792.000000	0.000385
1791.000000	0.000431
1790.000000	0.000456
1789.000000	0.000451
1788.000000	0.000432
1787.000000	0.000416
1786.000000	0.000409
1785.000000	0.000399
1784.000000	0.000376
1783.000000	0.000341
1782.000000	0.000307
1781.000000	0.000287
1780.000000	0.000289
1779.000000	0.000309
1778.000000	0.000336
1777.000000	0.000350
1776.000000	0.000339
1775.000000	0.000307
1774.000000	0.000273
1773.000000	0.000254
1772.000000	0.000252
1771.000000	0.000264
1770.000000	0.000286
1769.000000	0.000314
1768.000000	0.000343
1767.000000	0.000362
1766.000000	0.000365
1765.000000	0.000351
1764.000000	0.000323
1763.000000	0.000289
1762.000000	0.000269
1761.000000	0.000274
1760.000000	0.000291
1759.000000	0.000301
1758.000000	0.000305
1757.000000	0.000311
1756.000000	0.000319
1755.000000	0.000330
1754.000000	0.000349
1753.000000	0.000379
1752.000000	0.000402
1751.000000	0.000395
1750.000000	0.000364
1749.000000	0.000338
1748.000000	0.000327
1747.000000	0.000328
1746.000000	0.000340
1745.000000	0.000360
1744.000000	0.000370
1743.000000	0.000356
1742.000000	0.000327
1741.000000	0.000309
1740.000000	0.000312
1739.000000	0.000326
1738.000000	0.000340
1737.000000	0.000350
1736.000000	0.000352
1735.000000	0.000328
1734.000000	0.000271
1733.000000	0.000226
1732.000000	0.000213
1731.000000	0.000218
1730.000000	0.000227
1729.000000	0.000233
1728.000000	0.000232
1727.000000	0.000227
1726.000000	0.000229
1725.000000	0.000238
1724.000000	0.000235
1723.000000	0.000208
1722.000000	0.000171
1721.000000	0.000146
1720.000000	0.000143
1719.000000	0.000153
1718.000000	0.000167
1717.000000	0.000181
1716.000000	0.000190
1715.000000	0.000192
1714.000000	0.000197
1713.000000	0.000222
1712.000000	0.000268
1711.000000	0.000320
1710.000000	0.000361
1709.000000	0.000387
1708.000000	0.000406
1707.000000	0.000423
1706.000000	0.000434
1705.000000	0.000437
1704.000000	0.000442
1703.000000	0.000473
1702.000000	0.000560
1701.000000	0.000692
1700.000000	0.000786
1699.000000	0.000809
1698.000000	0.000807
1697.000000	0.000833
1696.000000	0.000903
1695.000000	0.000990
1694.000000	0.001053
1693.000000	0.001092
1692.000000	0.001129
1691.000000	0.001175
1690.000000	0.001220
1689.000000	0.001256
1688.000000	0.001287
1687.000000	0.001328
1686.000000	0.001395
1685.000000	0.001473
1684.000000	0.001540
1683.000000	0.001606
1682.000000	0.001665
1681.000000	0.001723
1680.000000	0.001787
1679.000000	0.001851
1678.000000	0.001916
1677.000000	0.002000
1676.000000	0.002116
1675.000000	0.002241
1674.000000	0.002342
1673.000000	0.002415
1672.000000	0.002475
1671.000000	0.002535
1670.000000	0.002604
1669.000000	0.002689
1668.000000	0.002781
1667.000000	0.002859
1666.000000	0.002929
1665.000000	0.003006
1664.000000	0.003094
1663.000000	0.003178
1662.000000	0.003256
1661.000000	0.003339
1660.000000	0.003425
1659.000000	0.003485
1658.000000	0.003499
1657.000000	0.003478
1656.000000	0.003457
1655.000000	0.003473
1654.000000	0.003528
1653.000000	0.003597
1652.000000	0.003655
1651.000000	0.003671
1650.000000	0.003673
1649.000000	0.003684
1648.000000	0.003707
1647.000000	0.003741
1646.000000	0.003790
1645.000000	0.003843
1644.000000	0.003886
1643.000000	0.003911
1642.000000	0.003912
1641.000000	0.003891
1640.000000	0.003871
1639.000000	0.003867
1638.000000	0.003876
1637.000000	0.003884
1636.000000	0.003881
1635.000000	0.003880
1634.000000	0.003879
1633.000000	0.003862
1632.000000	0.003834
1631.000000	0.003802
1630.000000	0.003766
1629.000000	0.003723
1628.000000	0.003674
1627.000000	0.003624
1626.000000	0.003567
1625.000000	0.003499
1624.000000	0.003416
1623.000000	0.003323
1622.000000	0.003230
1621.000000	0.003141
1620.000000	0.003054
1619.000000	0.002971
1618.000000	0.002898
1617.000000	0.002838
1616.000000	0.002794
1615.000000	0.002750
1614.000000	0.002689
1613.000000	0.002613
1612.000000	0.002529
1611.000000	0.002443
1610.000000	0.002357
1609.000000	0.002282
1608.000000	0.002228
1607.000000	0.002192
1606.000000	0.002164
1605.000000	0.002136
1604.000000	0.002104
1603.000000	0.002060
1602.000000	0.002004
1601.000000	0.001950
1600.000000	0.001914
1599.000000	0.001895
1598.000000	0.001876
1597.000000	0.001848
1596.000000	0.001817
1595.000000	0.001798
1594.000000	0.001793
1593.000000	0.001795
1592.000000	0.001796
1591.000000	0.001799
1590.000000	0.001807
1589.000000	0.001821
1588.000000	0.001837
1587.000000	0.001854
1586.000000	0.001868
1585.000000	0.001882
1584.000000	0.001894
1583.000000	0.001896
1582.000000	0.001887
1581.000000	0.001877
1580.000000	0.001873
1579.000000	0.001871
1578.000000	0.001869
1577.000000	0.001878
1576.000000	0.001913
1575.000000	0.001965
1574.000000	0.002005
1573.000000	0.002030
1572.000000	0.002059
1571.000000	0.002110
1570.000000	0.002179
1569.000000	0.002256
1568.000000	0.002326
1567.000000	0.002378
1566.000000	0.002421
1565.000000	0.002465
1564.000000	0.002512
1563.000000	0.002553
1562.000000	0.002596
1561.000000	0.002667
1560.000000	0.002758
1559.000000	0.002811
1558.000000	0.002864
1557.000000	0.002908
1556.000000	0.002935
1555.000000	0.002965
1554.000000	0.003003
1553.000000	0.003054
1552.000000	0.003117
1551.000000	0.003180
1550.000000	0.003225
1549.000000	0.003245
1548.000000	0.003248
1547.000000	0.003249
1546.000000	0.003253
1545.000000	0.003252
1544.000000	0.003252
1543.000000	0.003269
1542.000000	0.003295
1541.000000	0.003298
1540.000000	0.003281
1539.000000	0.003282
1538.000000	0.003290
1537.000000	0.003289
1536.000000	0.003289
1535.000000	0.003294
1534.000000	0.003297
1533.000000	0.003286
1532.000000	0.003261
1531.000000	0.003232
1530.000000	0.003211
1529.000000	0.003196
1528.000000	0.003174
1527.000000	0.003138
1526.000000	0.003093
1525.000000	0.003046
1524.000000	0.003004
1523.000000	0.002973
1522.000000	0.002950
1521.000000	0.002929
1520.000000	0.002908
1519.000000	0.002880
1518.000000	0.002846
1517.000000	0.002806
1516.000000	0.002768
1515.000000	0.002736
1514.000000	0.002705
1513.000000	0.002662
1512.000000	0.002600
1511.000000	0.002532
1510.000000	0.002485
1509.000000	0.002463
1508.000000	0.002439
1507.000000	0.002399
1506.000000	0.002379
1505.000000	0.002357
1504.000000	0.002318
1503.000000	0.002277
1502.000000	0.002240
1501.000000	0.002205
1500.000000	0.002165
1499.000000	0.002113
1498.000000	0.002057
1497.000000	0.002003
1496.000000	0.001949
1495.000000	0.001892
1494.000000	0.001840
1493.000000	0.001798
1492.000000	0.001763
1491.000000	0.001723
1490.000000	0.001682
1489.000000	0.001659
1488.000000	0.001658
1487.000000	0.001664
1486.000000	0.001660
1485.000000	0.001641
1484.000000	0.001621
1483.000000	0.001609
1482.000000	0.001603
1481.000000	0.001595
1480.000000	0.001585
1479.000000	0.001584
1478.000000	0.001597
1477.000000	0.001620
1476.000000	0.001646
1475.000000	0.001681
1474.000000	0.001729
1473.000000	0.001783
1472.000000	0.001831
1471.000000	0.001864
1470.000000	0.001884
1469.000000	0.001895
1468.000000	0.001902
1467.000000	0.001911
1466.000000	0.001927
1465.000000	0.001949
1464.000000	0.001971
1463.000000	0.001986
1462.000000	0.001994
1461.000000	0.002003
1460.000000	0.002016
1459.000000	0.002034
1458.000000	0.002068
1457.000000	0.002128
1456.000000	0.002192
1455.000000	0.002226
1454.000000	0.002234
1453.000000	0.002234
1452.000000	0.002233
1451.000000	0.002234
1450.000000	0.002239
1449.000000	0.002245
1448.000000	0.002250
1447.000000	0.002258
1446.000000	0.002271
1445.000000	0.002282
1444.000000	0.002281
1443.000000	0.002266
1442.000000	0.002246
1441.000000	0.002221
1440.000000	0.002192
1439.000000	0.002164
1438.000000	0.002151
1437.000000	0.002148
1436.000000	0.002133
1435.000000	0.002098
1434.000000	0.002058
1433.000000	0.002031
1432.000000	0.002017
1431.000000	0.002004
1430.000000	0.001987
1429.000000	0.001965
1428.000000	0.001937
1427.000000	0.001908
1426.000000	0.001883
1425.000000	0.001859
1424.000000	0.001832
1423.000000	0.001807
1422.000000	0.001806
1421.000000	0.001839
1420.000000	0.001882
1419.000000	0.001892
1418.000000	0.001872
1417.000000	0.001849
1416.000000	0.001833
1415.000000	0.001829
1414.000000	0.001841
1413.000000	0.001863
1412.000000	0.001883
1411.000000	0.001889
1410.000000	0.001889
1409.000000	0.001889
1408.000000	0.001889
1407.000000	0.001888
1406.000000	0.001897
1405.000000	0.001923
1404.000000	0.001955
1403.000000	0.001975
1402.000000	0.001982
1401.000000	0.001984
1400.000000	0.001977
1399.000000	0.001961
1398.000000	0.001955
1397.000000	0.001975
1396.000000	0.002003
1395.000000	0.002008
1394.000000	0.001982
1393.000000	0.001951
1392.000000	0.001931
1391.000000	0.001920
1390.000000	0.001908
1389.000000	0.001892
1388.000000	0.001869
1387.000000	0.001842
1386.000000	0.001820
1385.000000	0.001809
1384.000000	0.001806
1383.000000	0.001801
1382.000000	0.001788
1381.000000	0.001767
1380.000000	0.001743
1379.000000	0.001717
1378.000000	0.001688
1377.000000	0.001659
1376.000000	0.001630
1375.000000	0.001603
1374.000000	0.001585
1373.000000	0.001577
1372.000000	0.001567
1371.000000	0.001544
1370.000000	0.001509
1369.000000	0.001473
1368.000000	0.001449
1367.000000	0.001437
1366.000000	0.001429
1365.000000	0.001414
1364.000000	0.001383
1363.000000	0.001340
1362.000000	0.001304
1361.000000	0.001292
1360.000000	0.001299
1359.000000	0.001309
1358.000000	0.001312
1357.000000	0.001312
1356.000000	0.001314
1355.000000	0.001322
1354.000000	0.001337
1353.000000	0.001357
1352.000000	0.001376
1351.000000	0.001388
1350.000000	0.001393
1349.000000	0.001402
1348.000000	0.001418
1347.000000	0.001439
1346.000000	0.001461
1345.000000	0.001485
1344.000000	0.001515
1343.000000	0.001545
1342.000000	0.001568
1341.000000	0.001581
1340.000000	0.001583
1339.000000	0.001574
1338.000000	0.001560
1337.000000	0.001550
1336.000000	0.001550
1335.000000	0.001555
1334.000000	0.001561
1333.000000	0.001564
1332.000000	0.001558
1331.000000	0.001540
1330.000000	0.001512
1329.000000	0.001482
1328.000000	0.001458
1327.000000	0.001437
1326.000000	0.001418
1325.000000	0.001402
1324.000000	0.001390
1323.000000	0.001379
1322.000000	0.001375
1321.000000	0.001386
1320.000000	0.001412
1319.000000	0.001437
1318.000000	0.001448
1317.000000	0.001448
1316.000000	0.001447
1315.000000	0.001445
1314.000000	0.001435
1313.000000	0.001419
1312.000000	0.001401
1311.000000	0.001375
1310.000000	0.001337
1309.000000	0.001298
1308.000000	0.001277
1307.000000	0.001280
1306.000000	0.001296
1305.000000	0.001305
1304.000000	0.001299
1303.000000	0.001279
1302.000000	0.001252
1301.000000	0.001228
1300.000000	0.001217
1299.000000	0.001214
1298.000000	0.001211
1297.000000	0.001202
1296.000000	0.001196
1295.000000	0.001197
1294.000000	0.001207
1293.000000	0.001223
1292.000000	0.001242
1291.000000	0.001258
1290.000000	0.001261
1289.000000	0.001257
1288.000000	0.001266
1287.000000	0.001299
1286.000000	0.001346
1285.000000	0.001384
1284.000000	0.001405
1283.000000	0.001413
1282.000000	0.001411
1281.000000	0.001402
1280.000000	0.001393
1279.000000	0.001394
1278.000000	0.001408
1277.000000	0.001417
1276.000000	0.001402
1275.000000	0.001368
1274.000000	0.001336
1273.000000	0.001326
1272.000000	0.001340
1271.000000	0.001368
1270.000000	0.001394
1269.000000	0.001406
1268.000000	0.001402
1267.000000	0.001389
1266.000000	0.001380
1265.000000	0.001383
1264.000000	0.001395
1263.000000	0.001407
1262.000000	0.001418
1261.000000	0.001428
1260.000000	0.001432
1259.000000	0.001429
1258.000000	0.001424
1257.000000	0.001434
1256.000000	0.001467
1255.000000	0.001514
1254.000000	0.001559
1253.000000	0.001592
1252.000000	0.001613
1251.000000	0.001632
1250.000000	0.001657
1249.000000	0.001687
1248.000000	0.001716
1247.000000	0.001738
1246.000000	0.001763
1245.000000	0.001799
1244.000000	0.001842
1243.000000	0.001877
1242.000000	0.001894
1241.000000	0.001907
1240.000000	0.001930
1239.000000	0.001963
1238.000000	0.001987
1237.000000	0.001993
1236.000000	0.001983
1235.000000	0.001972
1234.000000	0.001966
1233.000000	0.001964
1232.000000	0.001958
1231.000000	0.001943
1230.000000	0.001915
1229.000000	0.001872
1228.000000	0.001819
1227.000000	0.001766
1226.000000	0.001725
1225.000000	0.001700
1224.000000	0.001682
1223.000000	0.001654
1222.000000	0.001609
1221.000000	0.001554
1220.000000	0.001502
1219.000000	0.001459
1218.000000	0.001429
1217.000000	0.001408
1216.000000	0.001392
1215.000000	0.001372
1214.000000	0.001347
1213.000000	0.001331
1212.000000	0.001337
1211.000000	0.001360
1210.000000	0.001384
1209.000000	0.001394
1208.000000	0.001394
1207.000000	0.001394
1206.000000	0.001398
1205.000000	0.001404
1204.000000	0.001407
1203.000000	0.001405
1202.000000	0.001396
1201.000000	0.001382
1200.000000	0.001370
1199.000000	0.001362
1198.000000	0.001358
1197.000000	0.001351
1196.000000	0.001336
1195.000000	0.001307
1194.000000	0.001266
1193.000000	0.001221
1192.000000	0.001183
1191.000000	0.001161
1190.000000	0.001149
1189.000000	0.001143
1188.000000	0.001139
1187.000000	0.001137
1186.000000	0.001128
1185.000000	0.001101
1184.000000	0.001055
1183.000000	0.001003
1182.000000	0.000962
1181.000000	0.000941
1180.000000	0.000938
1179.000000	0.000945
1178.000000	0.000949
1177.000000	0.000949
1176.000000	0.000950
1175.000000	0.000961
1174.000000	0.000978
1173.000000	0.000986
1172.000000	0.000975
1171.000000	0.000948
1170.000000	0.000921
1169.000000	0.000905
1168.000000	0.000906
1167.000000	0.000923
1166.000000	0.000949
1165.000000	0.000978
1164.000000	0.001003
1163.000000	0.001023
1162.000000	0.001040
1161.000000	0.001054
1160.000000	0.001064
1159.000000	0.001062
1158.000000	0.001036
1157.000000	0.000988
1156.000000	0.000935
1155.000000	0.000902
1154.000000	0.000896
1153.000000	0.000898
1152.000000	0.000884
1151.000000	0.000854
1150.000000	0.000829
1149.000000	0.000826
1148.000000	0.000845
1147.000000	0.000865
1146.000000	0.000870
1145.000000	0.000854
1144.000000	0.000828
1143.000000	0.000809
1142.000000	0.000804
1141.000000	0.000813
1140.000000	0.000824
1139.000000	0.000824
1138.000000	0.000811
1137.000000	0.000790
1136.000000	0.000773
1135.000000	0.000770
1134.000000	0.000775
1133.000000	0.000779
1132.000000	0.000771
1131.000000	0.000752
1130.000000	0.000729
1129.000000	0.000712
1128.000000	0.000712
1127.000000	0.000731
1126.000000	0.000761
1125.000000	0.000782
1124.000000	0.000781
1123.000000	0.000762
1122.000000	0.000740
1121.000000	0.000723
1120.000000	0.000716
1119.000000	0.000722
1118.000000	0.000743
1117.000000	0.000767
1116.000000	0.000780
1115.000000	0.000776
1114.000000	0.000765
1113.000000	0.000754
1112.000000	0.000746
1111.000000	0.000739
1110.000000	0.000733
1109.000000	0.000729
1108.000000	0.000728
1107.000000	0.000738
1106.000000	0.000760
1105.000000	0.000784
1104.000000	0.000799
1103.000000	0.000804
1102.000000	0.000808
1101.000000	0.000821
1100.000000	0.000837
1099.000000	0.000845
1098.000000	0.000844
1097.000000	0.000842
1096.000000	0.000843
1095.000000	0.000847
1094.000000	0.000855
1093.000000	0.000876
1092.000000	0.000915
1091.000000	0.000963
1090.000000	0.001004
1089.000000	0.001026
1088.000000	0.001033
1087.000000	0.001040
1086.000000	0.001054
1085.000000	0.001067
1084.000000	0.001072
1083.000000	0.001070
1082.000000	0.001066
1081.000000	0.001064
1080.000000	0.001065
1079.000000	0.001074
1078.000000	0.001097
1077.000000	0.001121
1076.000000	0.001129
1075.000000	0.001118
1074.000000	0.001105
1073.000000	0.001093
1072.000000	0.001068
1071.000000	0.001022
1070.000000	0.000976
1069.000000	0.000965
1068.000000	0.001001
1067.000000	0.001059
1066.000000	0.001101
1065.000000	0.001106
1064.000000	0.001083
1063.000000	0.001056
1062.000000	0.001044
1061.000000	0.001048
1060.000000	0.001056
1059.000000	0.001062
1058.000000	0.001065
1057.000000	0.001058
1056.000000	0.001033
1055.000000	0.000991
1054.000000	0.000951
1053.000000	0.000929
1052.000000	0.000922
1051.000000	0.000919
1050.000000	0.000920
1049.000000	0.000933
1048.000000	0.000953
1047.000000	0.000967
1046.000000	0.000965
1045.000000	0.000953
1044.000000	0.000939
1043.000000	0.000923
1042.000000	0.000903
1041.000000	0.000884
1040.000000	0.000875
1039.000000	0.000885
1038.000000	0.000919
1037.000000	0.000967
1036.000000	0.001011
1035.000000	0.001037
1034.000000	0.001049
1033.000000	0.001058
1032.000000	0.001063
1031.000000	0.001054
1030.000000	0.001027
1029.000000	0.000995
1028.000000	0.000966
1027.000000	0.000941
1026.000000	0.000917
1025.000000	0.000901
1024.000000	0.000901
1023.000000	0.000917
1022.000000	0.000940
1021.000000	0.000958
1020.000000	0.000962
1019.000000	0.000950
1018.000000	0.000926
1017.000000	0.000896
1016.000000	0.000866
1015.000000	0.000837
1014.000000	0.000814
1013.000000	0.000804
1012.000000	0.000807
1011.000000	0.000809
1010.000000	0.000802
1009.000000	0.000789
1008.000000	0.000777
1007.000000	0.000767
1006.000000	0.000753
1005.000000	0.000734
1004.000000	0.000720
1003.000000	0.000711
1002.000000	0.000697
1001.000000	0.000663
1000.000000	0.000608
999.000000	0.000550
998.000000	0.000517
997.000000	0.000526
996.000000	0.000572
995.000000	0.000623
994.000000	0.000648
993.000000	0.000641
992.000000	0.000620
991.000000	0.000601
990.000000	0.000579
989.000000	0.000546
988.000000	0.000505
987.000000	0.000476
986.000000	0.000470
985.000000	0.000482
984.000000	0.000501
983.000000	0.000516
982.000000	0.000527
981.000000	0.000530
980.000000	0.000524
979.000000	0.000512
978.000000	0.000500
977.000000	0.000496
976.000000	0.000496
975.000000	0.000494
974.000000	0.000481
973.000000	0.000465
972.000000	0.000459
971.000000	0.000466
970.000000	0.000476
969.000000	0.000471
968.000000	0.000451
967.000000	0.000427
966.000000	0.000406
965.000000	0.000388
964.000000	0.000368
963.000000	0.000350
962.000000	0.000335
961.000000	0.000321
960.000000	0.000307
959.000000	0.000305
958.000000	0.000320
957.000000	0.000338
956.000000	0.000336
955.000000	0.000315
954.000000	0.000303
953.000000	0.000322
952.000000	0.000361
951.000000	0.000386
950.000000	0.000380
949.000000	0.000356
948.000000	0.000339
947.000000	0.000337
946.000000	0.000337
945.000000	0.000331
944.000000	0.000324
943.000000	0.000326
942.000000	0.000341
941.000000	0.000362
940.000000	0.000379
939.000000	0.000389
938.000000	0.000389
937.000000	0.000377
936.000000	0.000359
935.000000	0.000342
934.000000	0.000332
933.000000	0.000323
932.000000	0.000310
931.000000	0.000297
930.000000	0.000287
929.000000	0.000275
928.000000	0.000255
927.000000	0.000233
926.000000	0.000222
925.000000	0.000227
924.000000	0.000235
923.000000	0.000234
922.000000	0.000225
921.000000	0.000218
920.000000	0.000221
919.000000	0.000230
918.000000	0.000237
917.000000	0.000231
916.000000	0.000211
915.000000	0.000192
914.000000	0.000188
913.000000	0.000192
912.000000	0.000184
911.000000	0.000159
910.000000	0.000144
909.000000	0.000161
908.000000	0.000201
907.000000	0.000238
906.000000	0.000260
905.000000	0.000273
904.000000	0.000277
903.000000	0.000261
902.000000	0.000220
901.000000	0.000165
900.000000	0.000114
899.000000	0.000092
898.000000	0.000117
897.000000	0.000181
896.000000	0.000241
895.000000	0.000257
894.000000	0.000234
893.000000	0.000212
892.000000	0.000216
891.000000	0.000235
890.000000	0.000248
889.000000	0.000245
888.000000	0.000224
887.000000	0.000186
886.000000	0.000146
885.000000	0.000135
884.000000	0.000163
883.000000	0.000201
882.000000	0.000219
881.000000	0.000220
880.000000	0.000230
879.000000	0.000254
878.000000	0.000271
877.000000	0.000272
876.000000	0.000270
875.000000	0.000284
874.000000	0.000317
873.000000	0.000363
872.000000	0.000409
871.000000	0.000437
870.000000	0.000431
869.000000	0.000388
868.000000	0.000322
867.000000	0.000258
866.000000	0.000213
865.000000	0.000200
864.000000	0.000208
863.000000	0.000214
862.000000	0.000205
861.000000	0.000192
860.000000	0.000194
859.000000	0.000202
858.000000	0.000184
857.000000	0.000135
856.000000	0.000092
855.000000	0.000100
854.000000	0.000158
853.000000	0.000230
852.000000	0.000290
851.000000	0.000341
850.000000	0.000389
849.000000	0.000427
848.000000	0.000435
847.000000	0.000407
846.000000	0.000358
845.000000	0.000304
844.000000	0.000251
843.000000	0.000197
842.000000	0.000149
841.000000	0.000131
840.000000	0.000158
839.000000	0.000219
838.000000	0.000274
837.000000	0.000297
836.000000	0.000284
835.000000	0.000250
834.000000	0.000212
833.000000	0.000178
832.000000	0.000161
831.000000	0.000164
830.000000	0.000170
829.000000	0.000161
828.000000	0.000139
827.000000	0.000129
826.000000	0.000156
825.000000	0.000210
824.000000	0.000256
823.000000	0.000270
822.000000	0.000255
821.000000	0.000232
820.000000	0.000219
819.000000	0.000222
818.000000	0.000247
817.000000	0.000297
816.000000	0.000353
815.000000	0.000385
814.000000	0.000374
813.000000	0.000339
812.000000	0.000317
811.000000	0.000321
810.000000	0.000329
809.000000	0.000312
808.000000	0.000266
807.000000	0.000210
806.000000	0.000162
805.000000	0.000136
804.000000	0.000134
803.000000	0.000152
802.000000	0.000172
801.000000	0.000178
800.000000	0.000173
799.000000	0.000175
798.000000	0.000203
797.000000	0.000255
796.000000	0.000303
795.000000	0.000314
794.000000	0.000273
793.000000	0.000198
792.000000	0.000126
791.000000	0.000089
790.000000	0.000097
789.000000	0.000141
788.000000	0.000199
787.000000	0.000246
786.000000	0.000263
785.000000	0.000248
784.000000	0.000217
783.000000	0.000189
782.000000	0.000171
781.000000	0.000174
780.000000	0.000206
779.000000	0.000263
778.000000	0.000324
777.000000	0.000361
776.000000	0.000358
775.000000	0.000317
774.000000	0.000250
773.000000	0.000182
772.000000	0.000144
771.000000	0.000148
770.000000	0.000175
769.000000	0.000195
768.000000	0.000207
767.000000	0.000229
766.000000	0.000265
765.000000	0.000290
764.000000	0.000282
763.000000	0.000253
762.000000	0.000232
761.000000	0.000230
760.000000	0.000239
759.000000	0.000254
758.000000	0.000280
757.000000	0.000314
756.000000	0.000344
755.000000	0.000367
754.000000	0.000389
753.000000	0.000410
752.000000	0.000407
751.000000	0.000358
750.000000	0.000273
749.000000	0.000186
748.000000	0.000122
747.000000	0.000090
746.000000	0.000089
745.000000	0.000119
744.000000	0.000171
743.000000	0.000222
742.000000	0.000257
741.000000	0.000280
740.000000	0.000311
739.000000	0.000360
738.000000	0.000415
737.000000	0.000454
736.000000	0.000465
735.000000	0.000453
734.000000	0.000433
733.000000	0.000417
732.000000	0.000412
731.000000	0.000428
730.000000	0.000468
729.000000	0.000518
728.000000	0.000552
727.000000	0.000559
726.000000	0.000561
725.000000	0.000583
724.000000	0.000615
723.000000	0.000625
722.000000	0.000598
721.000000	0.000566
720.000000	0.000562
719.000000	0.000579
718.000000	0.000577
717.000000	0.000542
716.000000	0.000501
715.000000	0.000492
714.000000	0.000520
713.000000	0.000550
712.000000	0.000541
711.000000	0.000482
710.000000	0.000407
709.000000	0.000380
708.000000	0.000436
707.000000	0.000550
706.000000	0.000653
705.000000	0.000703
704.000000	0.000706
703.000000	0.000702
702.000000	0.000712
701.000000	0.000730
700.000000	0.000738
699.000000	0.000719
698.000000	0.000673
697.000000	0.000625
696.000000	0.000608
695.000000	0.000637
694.000000	0.000694
693.000000	0.000748
692.000000	0.000781
691.000000	0.000797
690.000000	0.000815
689.000000	0.000855
688.000000	0.000915
687.000000	0.000961
686.000000	0.000948
685.000000	0.000865
684.000000	0.000761
683.000000	0.000709
682.000000	0.000733
681.000000	0.000787
680.000000	0.000810
679.000000	0.000776
678.000000	0.000706
677.000000	0.000642
676.000000	0.000613
675.000000	0.000625
674.000000	0.000664
673.000000	0.000705
672.000000	0.000707
671.000000	0.000625
670.000000	0.000450
669.000000	0.000240
668.000000	0.000087
667.000000	0.000128
666.000000	0.000348
665.000000	0.000597
664.000000	0.000809
663.000000	0.000976
662.000000	0.001089
661.000000	0.001148
660.000000	0.001164
659.000000	0.001139
658.000000	0.001068
657.000000	0.000984
656.000000	0.000944
655.000000	0.000970
654.000000	0.001023
653.000000	0.001053
652.000000	0.001042
651.000000	0.000991
650.000000	0.000905
649.000000	0.000813
648.000000	0.000764
647.000000	0.000783
646.000000	0.000837
645.000000	0.000876
644.000000	0.000874
643.000000	0.000843
642.000000	0.000801
641.000000	0.000753
640.000000	0.000700
639.000000	0.000652
638.000000	0.000622
637.000000	0.000627
636.000000	0.000667
635.000000	0.000717
634.000000	0.000745
633.000000	0.000742
632.000000	0.000737
631.000000	0.000756
630.000000	0.000798
629.000000	0.000844
628.000000	0.000884
627.000000	0.000910
626.000000	0.000898
625.000000	0.000834
624.000000	0.000756
623.000000	0.000732
622.000000	0.000788
621.000000	0.000880
620.000000	0.000939
619.000000	0.000937
618.000000	0.000893
617.000000	0.000834
616.000000	0.000783
615.000000	0.000768
614.000000	0.000808
613.000000	0.000881
612.000000	0.000923
611.000000	0.000876
610.000000	0.000749
609.000000	0.000611
608.000000	0.000526
607.000000	0.000521
606.000000	0.000582
605.000000	0.000686
604.000000	0.000809
603.000000	0.000920
602.000000	0.000977
601.000000	0.000955
600.000000	0.000876
599.000000	0.000806
598.000000	0.000808
597.000000	0.000879
596.000000	0.000945
595.000000	0.000940
594.000000	0.000875
593.000000	0.000806
592.000000	0.000757
591.000000	0.000688
590.000000	0.000575
589.000000	0.000462
588.000000	0.000423
587.000000	0.000482
586.000000	0.000598
585.000000	0.000706
584.000000	0.000764
583.000000	0.000762
582.000000	0.000719
581.000000	0.000676
580.000000	0.000677
579.000000	0.000739
578.000000	0.000849
577.000000	0.000968
576.000000	0.001041
575.000000	0.001028
574.000000	0.000954
573.000000	0.000889
572.000000	0.000875
571.000000	0.000905
570.000000	0.000974
569.000000	0.001103
568.000000	0.001266
567.000000	0.001351
566.000000	0.001269
565.000000	0.001080
564.000000	0.000941
563.000000	0.000925
562.000000	0.000969
561.000000	0.000990
560.000000	0.000979
559.000000	0.000967
558.000000	0.000955
557.000000	0.000921
556.000000	0.000872
555.000000	0.000835
554.000000	0.000815
553.000000	0.000792
552.000000	0.000749
551.000000	0.000700
550.000000	0.000681
549.000000	0.000719
548.000000	0.000787
547.000000	0.000816
546.000000	0.000766
545.000000	0.000686
544.000000	0.000657
543.000000	0.000689
542.000000	0.000725
541.000000	0.000739
540.000000	0.000767
539.000000	0.000826
538.000000	0.000870
537.000000	0.000855
536.000000	0.000798
535.000000	0.000749
534.000000	0.000731
533.000000	0.000741
532.000000	0.000780
531.000000	0.000834
530.000000	0.000857
529.000000	0.000824
528.000000	0.000782
527.000000	0.000819
526.000000	0.000958
525.000000	0.001121
524.000000	0.001198
523.000000	0.001159
522.000000	0.001061
521.000000	0.000990
520.000000	0.000983
519.000000	0.001027
518.000000	0.001107
517.000000	0.001225
516.000000	0.001347
515.000000	0.001383
514.000000	0.001273
513.000000	0.001063
512.000000	0.000853
511.000000	0.000668
510.000000	0.000468
509.000000	0.000250
508.000000	0.000087
507.000000	0.000043
506.000000	0.000098
505.000000	0.000221
504.000000	0.000425
503.000000	0.000693
502.000000	0.000890
501.000000	0.000858
500.000000	0.000604
499.000000	0.000297
498.000000	0.000106
497.000000	0.000082
496.000000	0.000163
495.000000	0.000255
494.000000	0.000314
493.000000	0.000350
492.000000	0.000374
491.000000	0.000350
490.000000	0.000254
489.000000	0.000144
488.000000	0.000125
487.000000	0.000216
486.000000	0.000326
485.000000	0.000376
484.000000	0.000393
483.000000	0.000421
482.000000	0.000439
481.000000	0.000415
480.000000	0.000379
479.000000	0.000357
478.000000	0.000307
477.000000	0.000190
476.000000	0.000069
475.000000	0.000059
474.000000	0.000189
473.000000	0.000353
472.000000	0.000407
471.000000	0.000286
470.000000	0.000056
469.000000	-0.000136
468.000000	-0.000179
467.000000	-0.000081
466.000000	0.000065
465.000000	0.000220
464.000000	0.000455
463.000000	0.000793
462.000000	0.001094
461.000000	0.001173
460.000000	0.000964
459.000000	0.000515
458.000000	-0.000043
457.000000	-0.000418
456.000000	-0.000296
455.000000	0.000324
454.000000	0.001064
453.000000	0.001461
452.000000	0.001414
451.000000	0.001263
450.000000	0.001338
