PE UV       SUBTECH     SPECTRUM    ASCII       PEDS        4.00        
   -1
RDmsmeh71.Sample.asc
18/03/14
09:47:57.00
18/03/14
09:47:57.00
Administrator

200.000000
1
Lambda 750
750N8071901
PerkinElmer UV WinLab 6.0.4.0738 / 1.61.00 Lambda 900

0
0
3350/servo 860.8/2
0
0
UV/VIS
1
1
1
CommonBeamDepol,150mm sphere / downward view
0
0
0
0
Program
Program
3350/servo 860.8/2
3350/0.2 860.8/0.2
3350/0.2 860.8/0.2
0
1
 
 
 
0
 
860.8
319.2
860.8
Front
100
on
 
 
0
0
0
 
0
 
 
 
0
 
 
0
0
0
0
0
 
 
 
 
0
0


0
0
#HDR
-1
-1
#GR
nm
%R
1.0
0.0
2350.000000
-1.000000
2151
8
62.969651
6.756215
#DATA
2350.000000	26.135393
2349.000000	26.169002
2348.000000	25.846737
2347.000000	26.121916
2346.000000	26.235645
2345.000000	25.776017
2344.000000	25.933899
2343.000000	25.792491
2342.000000	26.007815
2341.000000	26.502608
2340.000000	26.433198
2339.000000	26.730527
2338.000000	26.700759
2337.000000	26.871436
2336.000000	27.058313
2335.000000	27.425344
2334.000000	27.217859
2333.000000	27.233108
2332.000000	27.298670
2331.000000	27.170800
2330.000000	26.877029
2329.000000	26.646382
2328.000000	26.813093
2327.000000	27.006828
2326.000000	27.217023
2325.000000	27.035578
2324.000000	26.783162
2323.000000	26.584848
2322.000000	26.482140
2321.000000	26.715916
2320.000000	26.380114
2319.000000	26.392458
2318.000000	26.241897
2317.000000	26.273380
2316.000000	26.179854
2315.000000	25.999071
2314.000000	25.850255
2313.000000	25.906429
2312.000000	25.787675
2311.000000	25.823838
2310.000000	25.804500
2309.000000	25.726708
2308.000000	25.663501
2307.000000	25.378999
2306.000000	25.416010
2305.000000	25.568823
2304.000000	25.283878
2303.000000	25.529099
2302.000000	25.584629
2301.000000	25.341842
2300.000000	25.266146
2299.000000	25.278681
2298.000000	25.247519
2297.000000	25.408999
2296.000000	25.294349
2295.000000	25.343646
2294.000000	25.460527
2293.000000	25.406137
2292.000000	25.354590
2291.000000	25.121804
2290.000000	25.260075
2289.000000	25.335088
2288.000000	25.421217
2287.000000	25.442864
2286.000000	25.398971
2285.000000	25.208934
2284.000000	25.151902
2283.000000	25.095012
2282.000000	25.210392
2281.000000	25.248737
2280.000000	25.088958
2279.000000	25.397802
2278.000000	25.578351
2277.000000	25.570779
2276.000000	25.550671
2275.000000	25.591947
2274.000000	25.676415
2273.000000	26.087652
2272.000000	26.036495
2271.000000	25.954375
2270.000000	25.963078
2269.000000	26.118713
2268.000000	26.323894
2267.000000	26.443047
2266.000000	26.539364
2265.000000	26.455578
2264.000000	26.670212
2263.000000	26.906624
2262.000000	27.068049
2261.000000	27.179990
2260.000000	27.378116
2259.000000	27.523133
2258.000000	27.681262
2257.000000	27.911231
2256.000000	28.157430
2255.000000	28.324267
2254.000000	28.493449
2253.000000	28.675787
2252.000000	28.974750
2251.000000	29.170133
2250.000000	29.317749
2249.000000	29.537633
2248.000000	29.729743
2247.000000	30.055294
2246.000000	30.365887
2245.000000	30.467593
2244.000000	30.631878
2243.000000	30.844812
2242.000000	30.870436
2241.000000	30.896753
2240.000000	31.154898
2239.000000	31.373712
2238.000000	31.443468
2237.000000	31.511611
2236.000000	31.647147
2235.000000	31.712823
2234.000000	31.829020
2233.000000	32.030172
2232.000000	31.942867
2231.000000	31.848938
2230.000000	32.010208
2229.000000	32.184170
2228.000000	32.208873
2227.000000	32.097789
2226.000000	32.026627
2225.000000	32.014299
2224.000000	32.052128
2223.000000	32.032933
2222.000000	32.054400
2221.000000	32.133979
2220.000000	32.046242
2219.000000	32.067463
2218.000000	32.062425
2217.000000	31.958036
2216.000000	32.002449
2215.000000	31.989847
2214.000000	31.947408
2213.000000	31.844453
2212.000000	31.874867
2211.000000	31.673621
2210.000000	31.527050
2209.000000	31.466821
2208.000000	31.482398
2207.000000	31.455058
2206.000000	31.359792
2205.000000	31.238486
2204.000000	31.274904
2203.000000	31.157900
2202.000000	31.084419
2201.000000	30.968355
2200.000000	30.876505
2199.000000	30.760884
2198.000000	30.644612
2197.000000	30.612971
2196.000000	30.548202
2195.000000	30.402013
2194.000000	30.330593
2193.000000	30.301249
2192.000000	30.271464
2191.000000	30.172146
2190.000000	30.050374
2189.000000	30.080635
2188.000000	30.072037
2187.000000	29.918680
2186.000000	30.028111
2185.000000	29.832754
2184.000000	29.809114
2183.000000	29.815169
2182.000000	29.861112
2181.000000	29.731839
2180.000000	29.666999
2179.000000	29.647359
2178.000000	29.591004
2177.000000	29.685699
2176.000000	29.578956
2175.000000	29.678982
2174.000000	29.821051
2173.000000	29.829724
2172.000000	29.931378
2171.000000	30.006459
2170.000000	29.974920
2169.000000	30.158495
2168.000000	30.266107
2167.000000	30.214334
2166.000000	30.186522
2165.000000	30.328246
2164.000000	30.509086
2163.000000	30.546352
2162.000000	30.800146
2161.000000	30.784884
2160.000000	30.985289
2159.000000	31.053268
2158.000000	31.125964
2157.000000	31.264586
2156.000000	31.555196
2155.000000	31.482615
2154.000000	31.661236
2153.000000	31.996162
2152.000000	32.128542
2151.000000	32.244984
2150.000000	32.200653
2149.000000	32.497643
2148.000000	32.583682
2147.000000	32.578111
2146.000000	32.874523
2145.000000	33.084732
2144.000000	33.371851
2143.000000	33.401158
2142.000000	33.390363
2141.000000	33.540468
2140.000000	33.763677
2139.000000	33.719631
2138.000000	33.975642
2137.000000	34.073382
2136.000000	34.000000
2135.000000	34.275102
2134.000000	34.455843
2133.000000	34.050256
2132.000000	34.563956
2131.000000	34.889942
2130.000000	34.719579
2129.000000	34.807776
2128.000000	34.862135
2127.000000	34.807268
2126.000000	34.888175
2125.000000	35.088819
2124.000000	35.179874
2123.000000	34.893516
2122.000000	35.217154
2121.000000	35.191821
2120.000000	35.057382
2119.000000	35.114134
2118.000000	35.243656
2117.000000	35.267953
2116.000000	35.314884
2115.000000	35.331545
2114.000000	35.364123
2113.000000	35.329870
2112.000000	35.541274
2111.000000	35.531902
2110.000000	35.437946
2109.000000	35.395075
2108.000000	35.664035
2107.000000	35.555352
2106.000000	35.628184
2105.000000	35.595463
2104.000000	35.716640
2103.000000	35.736790
2102.000000	35.716345
2101.000000	35.762050
2100.000000	35.777498
2099.000000	35.901801
2098.000000	35.832851
2097.000000	35.710997
2096.000000	35.556863
2095.000000	35.567790
2094.000000	35.658086
2093.000000	35.626561
2092.000000	35.546469
2091.000000	35.533750
2090.000000	35.557075
2089.000000	35.473737
2088.000000	35.503218
2087.000000	35.447970
2086.000000	35.362146
2085.000000	35.332417
2084.000000	35.215187
2083.000000	35.227734
2082.000000	35.066521
2081.000000	34.924006
2080.000000	34.966525
2079.000000	34.904804
2078.000000	34.824320
2077.000000	34.732325
2076.000000	34.545590
2075.000000	34.442826
2074.000000	34.342806
2073.000000	34.153666
2072.000000	34.083371
2071.000000	33.949711
2070.000000	33.797735
2069.000000	33.581602
2068.000000	33.453871
2067.000000	33.348588
2066.000000	33.218595
2065.000000	33.035537
2064.000000	32.971891
2063.000000	32.757049
2062.000000	32.624811
2061.000000	32.435643
2060.000000	32.221922
2059.000000	32.135831
2058.000000	31.958192
2057.000000	31.893047
2056.000000	31.804431
2055.000000	31.662521
2054.000000	31.486458
2053.000000	31.361231
2052.000000	31.293913
2051.000000	31.155094
2050.000000	31.081316
2049.000000	30.965957
2048.000000	30.888735
2047.000000	30.913746
2046.000000	30.859064
2045.000000	30.827395
2044.000000	30.851157
2043.000000	30.864854
2042.000000	30.889244
2041.000000	30.931616
2040.000000	30.970825
2039.000000	30.949680
2038.000000	31.019212
2037.000000	31.100990
2036.000000	31.130160
2035.000000	31.181277
2034.000000	31.266434
2033.000000	31.425161
2032.000000	31.573784
2031.000000	31.641252
2030.000000	31.717560
2029.000000	31.815194
2028.000000	31.878211
2027.000000	31.978250
2026.000000	32.080716
2025.000000	32.116367
2024.000000	32.183129
2023.000000	32.240111
2022.000000	32.251412
2021.000000	32.244859
2020.000000	32.303540
2019.000000	32.326951
2018.000000	32.296516
2017.000000	32.328326
2016.000000	32.285934
2015.000000	32.205313
2014.000000	32.193855
2013.000000	32.197057
2012.000000	32.137817
2011.000000	32.057520
2010.000000	31.983754
2009.000000	31.894674
2008.000000	31.747665
2007.000000	31.643948
2006.000000	31.559714
2005.000000	31.465877
2004.000000	31.403130
2003.000000	31.308530
2002.000000	31.218783
2001.000000	31.097580
2000.000000	30.976536
1999.000000	30.862166
1998.000000	30.733427
1997.000000	30.621379
1996.000000	30.534948
1995.000000	30.456310
1994.000000	30.288558
1993.000000	30.157123
1992.000000	30.009052
1991.000000	29.875978
1990.000000	29.805374
1989.000000	29.646239
1988.000000	29.509546
1987.000000	29.429122
1986.000000	29.280267
1985.000000	29.175046
1984.000000	29.026128
1983.000000	28.886222
1982.000000	28.771822
1981.000000	28.739885
1980.000000	28.621255
1979.000000	28.462021
1978.000000	28.365002
1977.000000	28.227746
1976.000000	28.115849
1975.000000	28.004555
1974.000000	27.850811
1973.000000	27.745191
1972.000000	27.712844
1971.000000	27.550454
1970.000000	27.434599
1969.000000	27.333554
1968.000000	27.231194
1967.000000	27.143003
1966.000000	27.055126
1965.000000	26.963003
1964.000000	26.842103
1963.000000	26.767280
1962.000000	26.671222
1961.000000	26.560674
1960.000000	26.496057
1959.000000	26.422009
1958.000000	26.381125
1957.000000	26.257605
1956.000000	26.111042
1955.000000	26.013081
1954.000000	25.997131
1953.000000	25.991301
1952.000000	25.929453
1951.000000	25.933096
1950.000000	25.920090
1949.000000	25.828683
1948.000000	25.754509
1947.000000	25.718526
1946.000000	25.680673
1945.000000	25.702328
1944.000000	25.654428
1943.000000	25.753080
1942.000000	25.776345
1941.000000	25.868808
1940.000000	26.018946
1939.000000	25.980611
1938.000000	26.031574
1937.000000	26.056657
1936.000000	26.204615
1935.000000	26.205094
1934.000000	26.298890
1933.000000	26.432829
1932.000000	26.616135
1931.000000	26.711196
1930.000000	26.935645
1929.000000	27.090403
1928.000000	27.218272
1927.000000	27.448537
1926.000000	27.677739
1925.000000	27.854590
1924.000000	28.175344
1923.000000	28.500917
1922.000000	28.732423
1921.000000	29.041672
1920.000000	29.338167
1919.000000	29.563300
1918.000000	29.942592
1917.000000	30.265831
1916.000000	30.461438
1915.000000	31.033082
1914.000000	31.502397
1913.000000	31.897884
1912.000000	32.232192
1911.000000	32.653579
1910.000000	33.124872
1909.000000	33.555656
1908.000000	34.026037
1907.000000	34.532916
1906.000000	35.075727
1905.000000	35.640464
1904.000000	36.072435
1903.000000	36.701812
1902.000000	37.154869
1901.000000	37.741387
1900.000000	38.357104
1899.000000	38.959529
1898.000000	39.531060
1897.000000	40.085235
1896.000000	40.622021
1895.000000	41.187143
1894.000000	41.724207
1893.000000	42.251676
1892.000000	42.742513
1891.000000	43.264295
1890.000000	43.833226
1889.000000	44.269607
1888.000000	44.709572
1887.000000	45.141985
1886.000000	45.611821
1885.000000	46.082747
1884.000000	46.494756
1883.000000	46.918136
1882.000000	47.299071
1881.000000	47.664328
1880.000000	48.012879
1879.000000	48.263812
1878.000000	48.511729
1877.000000	48.857371
1876.000000	49.194507
1875.000000	49.430947
1874.000000	49.704179
1873.000000	49.849021
1872.000000	50.132022
1871.000000	50.316977
1870.000000	50.466700
1869.000000	50.671110
1868.000000	50.780906
1867.000000	50.928149
1866.000000	51.044129
1865.000000	51.140889
1864.000000	51.273108
1863.000000	51.342459
1862.000000	51.439751
1861.000000	51.471629
1860.000000	51.607944
1859.000000	51.647203
1858.000000	51.641529
1857.000000	51.722179
1856.000000	51.749568
1855.000000	51.738486
1854.000000	51.763734
1853.000000	51.834022
1852.000000	51.809921
1851.000000	51.813878
1850.000000	51.819696
1849.000000	51.818152
1848.000000	51.838580
1847.000000	51.850493
1846.000000	51.826255
1845.000000	51.818744
1844.000000	51.802492
1843.000000	51.798232
1842.000000	51.810189
1841.000000	51.738254
1840.000000	51.697325
1839.000000	51.676686
1838.000000	51.663267
1837.000000	51.600579
1836.000000	51.549206
1835.000000	51.509633
1834.000000	51.423021
1833.000000	51.393041
1832.000000	51.395790
1831.000000	51.351852
1830.000000	51.306742
1829.000000	51.245168
1828.000000	51.204849
1827.000000	51.157008
1826.000000	51.131211
1825.000000	51.111082
1824.000000	51.077007
1823.000000	51.023065
1822.000000	50.960953
1821.000000	50.948931
1820.000000	50.945030
1819.000000	50.890174
1818.000000	50.870789
1817.000000	50.851986
1816.000000	50.825711
1815.000000	50.792326
1814.000000	50.743865
1813.000000	50.698460
1812.000000	50.641025
1811.000000	50.611050
1810.000000	50.599635
1809.000000	50.600157
1808.000000	50.606947
1807.000000	50.560872
1806.000000	50.527465
1805.000000	50.506126
1804.000000	50.458585
1803.000000	50.446816
1802.000000	50.429688
1801.000000	50.382845
1800.000000	50.377883
1799.000000	50.361900
1798.000000	50.339288
1797.000000	50.320326
1796.000000	50.293103
1795.000000	50.268617
1794.000000	50.255410
1793.000000	50.247530
1792.000000	50.217232
1791.000000	50.204429
1790.000000	50.164946
1789.000000	50.170684
1788.000000	50.164594
1787.000000	50.137782
1786.000000	50.124263
1785.000000	50.078455
1784.000000	50.034733
1783.000000	50.016631
1782.000000	50.009179
1781.000000	49.959987
1780.000000	49.909729
1779.000000	49.889195
1778.000000	49.800375
1777.000000	49.708397
1776.000000	49.670675
1775.000000	49.596990
1774.000000	49.557011
1773.000000	49.471003
1772.000000	49.419524
1771.000000	49.350834
1770.000000	49.289926
1769.000000	49.212763
1768.000000	49.165442
1767.000000	49.139642
1766.000000	49.080979
1765.000000	48.997526
1764.000000	48.981540
1763.000000	48.923858
1762.000000	48.857454
1761.000000	48.816345
1760.000000	48.755542
1759.000000	48.718802
1758.000000	48.706895
1757.000000	48.628984
1756.000000	48.591697
1755.000000	48.536102
1754.000000	48.484123
1753.000000	48.412768
1752.000000	48.401558
1751.000000	48.305728
1750.000000	48.239273
1749.000000	48.231144
1748.000000	48.152013
1747.000000	48.023746
1746.000000	47.992908
1745.000000	47.888351
1744.000000	47.811937
1743.000000	47.727704
1742.000000	47.658155
1741.000000	47.572876
1740.000000	47.500436
1739.000000	47.463748
1738.000000	47.385654
1737.000000	47.326452
1736.000000	47.276033
1735.000000	47.232153
1734.000000	47.233251
1733.000000	47.201863
1732.000000	47.189173
1731.000000	47.225248
1730.000000	47.225486
1729.000000	47.250900
1728.000000	47.308139
1727.000000	47.363090
1726.000000	47.443356
1725.000000	47.528162
1724.000000	47.644536
1723.000000	47.703594
1722.000000	47.837010
1721.000000	47.918563
1720.000000	48.050964
1719.000000	48.208127
1718.000000	48.267652
1717.000000	48.383417
1716.000000	48.514476
1715.000000	48.641618
1714.000000	48.745350
1713.000000	48.843643
1712.000000	48.959000
1711.000000	49.034850
1710.000000	49.128332
1709.000000	49.188676
1708.000000	49.278087
1707.000000	49.329631
1706.000000	49.397276
1705.000000	49.469962
1704.000000	49.537518
1703.000000	49.572209
1702.000000	49.622031
1701.000000	49.642700
1700.000000	49.716757
1699.000000	49.729857
1698.000000	49.793016
1697.000000	49.895583
1696.000000	49.904827
1695.000000	49.960825
1694.000000	50.028898
1693.000000	50.118926
1692.000000	50.165185
1691.000000	50.284445
1690.000000	50.365996
1689.000000	50.480354
1688.000000	50.597730
1687.000000	50.741290
1686.000000	50.821246
1685.000000	50.986833
1684.000000	51.125577
1683.000000	51.280087
1682.000000	51.468587
1681.000000	51.618525
1680.000000	51.780460
1679.000000	51.924738
1678.000000	52.109298
1677.000000	52.299504
1676.000000	52.456756
1675.000000	52.637518
1674.000000	52.746101
1673.000000	52.945238
1672.000000	53.106752
1671.000000	53.225295
1670.000000	53.364562
1669.000000	53.536896
1668.000000	53.663225
1667.000000	53.806057
1666.000000	53.873155
1665.000000	53.968997
1664.000000	54.055212
1663.000000	54.127718
1662.000000	54.203763
1661.000000	54.266770
1660.000000	54.337113
1659.000000	54.392406
1658.000000	54.462601
1657.000000	54.502735
1656.000000	54.525441
1655.000000	54.571933
1654.000000	54.591969
1653.000000	54.593809
1652.000000	54.589836
1651.000000	54.594299
1650.000000	54.608736
1649.000000	54.627744
1648.000000	54.582474
1647.000000	54.588588
1646.000000	54.600949
1645.000000	54.604181
1644.000000	54.589499
1643.000000	54.545104
1642.000000	54.559040
1641.000000	54.526548
1640.000000	54.493288
1639.000000	54.455727
1638.000000	54.436198
1637.000000	54.432980
1636.000000	54.376848
1635.000000	54.337931
1634.000000	54.346824
1633.000000	54.316262
1632.000000	54.267562
1631.000000	54.231076
1630.000000	54.193442
1629.000000	54.158894
1628.000000	54.105765
1627.000000	54.079300
1626.000000	54.033622
1625.000000	53.987542
1624.000000	53.950813
1623.000000	53.903562
1622.000000	53.865261
1621.000000	53.825775
1620.000000	53.782669
1619.000000	53.744684
1618.000000	53.678164
1617.000000	53.631257
1616.000000	53.601670
1615.000000	53.543340
1614.000000	53.485625
1613.000000	53.449747
1612.000000	53.406032
1611.000000	53.341384
1610.000000	53.288866
1609.000000	53.246941
1608.000000	53.183972
1607.000000	53.128213
1606.000000	53.063399
1605.000000	52.995340
1604.000000	52.942213
1603.000000	52.888686
1602.000000	52.837553
1601.000000	52.793568
1600.000000	52.735629
1599.000000	52.678700
1598.000000	52.624175
1597.000000	52.569077
1596.000000	52.521072
1595.000000	52.477826
1594.000000	52.426210
1593.000000	52.367438
1592.000000	52.317972
1591.000000	52.265041
1590.000000	52.229595
1589.000000	52.177300
1588.000000	52.119593
1587.000000	52.098376
1586.000000	52.057989
1585.000000	51.996519
1584.000000	51.944488
1583.000000	51.909602
1582.000000	51.863127
1581.000000	51.815937
1580.000000	51.784653
1579.000000	51.741423
1578.000000	51.719161
1577.000000	51.657273
1576.000000	51.583439
1575.000000	51.569270
1574.000000	51.526188
1573.000000	51.469223
1572.000000	51.439315
1571.000000	51.401477
1570.000000	51.365494
1569.000000	51.316001
1568.000000	51.262025
1567.000000	51.236834
1566.000000	51.206605
1565.000000	51.176232
1564.000000	51.141418
1563.000000	51.135658
1562.000000	51.109239
1561.000000	51.059191
1560.000000	51.039826
1559.000000	50.999939
1558.000000	50.973640
1557.000000	50.947509
1556.000000	50.910892
1555.000000	50.892574
1554.000000	50.854456
1553.000000	50.813607
1552.000000	50.784352
1551.000000	50.764450
1550.000000	50.700931
1549.000000	50.638171
1548.000000	50.606961
1547.000000	50.546585
1546.000000	50.466962
1545.000000	50.394573
1544.000000	50.324657
1543.000000	50.246783
1542.000000	50.191906
1541.000000	50.109036
1540.000000	50.029362
1539.000000	49.941077
1538.000000	49.863644
1537.000000	49.769909
1536.000000	49.678102
1535.000000	49.604714
1534.000000	49.529002
1533.000000	49.455754
1532.000000	49.390161
1531.000000	49.314662
1530.000000	49.246182
1529.000000	49.152602
1528.000000	49.084195
1527.000000	48.997042
1526.000000	48.956299
1525.000000	48.881807
1524.000000	48.828315
1523.000000	48.783595
1522.000000	48.735885
1521.000000	48.684008
1520.000000	48.665081
1519.000000	48.598118
1518.000000	48.568527
1517.000000	48.547911
1516.000000	48.512731
1515.000000	48.481212
1514.000000	48.438055
1513.000000	48.420657
1512.000000	48.398408
1511.000000	48.395061
1510.000000	48.355622
1509.000000	48.324346
1508.000000	48.318952
1507.000000	48.275321
1506.000000	48.278984
1505.000000	48.278890
1504.000000	48.251632
1503.000000	48.271261
1502.000000	48.260940
1501.000000	48.247308
1500.000000	48.251397
1499.000000	48.226806
1498.000000	48.234505
1497.000000	48.237773
1496.000000	48.243763
1495.000000	48.244318
1494.000000	48.257761
1493.000000	48.289741
1492.000000	48.286017
1491.000000	48.312980
1490.000000	48.345432
1489.000000	48.359137
1488.000000	48.400395
1487.000000	48.413257
1486.000000	48.457316
1485.000000	48.480380
1484.000000	48.492308
1483.000000	48.525756
1482.000000	48.547653
1481.000000	48.576846
1480.000000	48.626353
1479.000000	48.621485
1478.000000	48.671156
1477.000000	48.705451
1476.000000	48.705600
1475.000000	48.757797
1474.000000	48.766675
1473.000000	48.792548
1472.000000	48.807691
1471.000000	48.813377
1470.000000	48.885566
1469.000000	48.897549
1468.000000	48.937874
1467.000000	48.969220
1466.000000	49.000635
1465.000000	49.055483
1464.000000	49.070950
1463.000000	49.092735
1462.000000	49.123764
1461.000000	49.162160
1460.000000	49.206617
1459.000000	49.259194
1458.000000	49.312346
1457.000000	49.342177
1456.000000	49.386442
1455.000000	49.450746
1454.000000	49.521292
1453.000000	49.584500
1452.000000	49.619530
1451.000000	49.693488
1450.000000	49.753896
1449.000000	49.819255
1448.000000	49.876945
1447.000000	49.925882
1446.000000	50.007437
1445.000000	50.097945
1444.000000	50.173935
1443.000000	50.247075
1442.000000	50.342966
1441.000000	50.439665
1440.000000	50.531222
1439.000000	50.597959
1438.000000	50.715735
1437.000000	50.818450
1436.000000	50.919571
1435.000000	51.036128
1434.000000	51.148397
1433.000000	51.257794
1432.000000	51.381336
1431.000000	51.491004
1430.000000	51.617074
1429.000000	51.754728
1428.000000	51.889673
1427.000000	52.032327
1426.000000	52.191374
1425.000000	52.338453
1424.000000	52.489914
1423.000000	52.651543
1422.000000	52.812462
1421.000000	52.991430
1420.000000	53.164600
1419.000000	53.341122
1418.000000	53.514495
1417.000000	53.678960
1416.000000	53.856908
1415.000000	54.050830
1414.000000	54.235176
1413.000000	54.418568
1412.000000	54.600860
1411.000000	54.797310
1410.000000	54.996195
1409.000000	55.180978
1408.000000	55.361024
1407.000000	55.557316
1406.000000	55.735514
1405.000000	55.905785
1404.000000	56.083051
1403.000000	56.274036
1402.000000	56.450871
1401.000000	56.612502
1400.000000	56.768015
1399.000000	56.938647
1398.000000	57.112435
1397.000000	57.267411
1396.000000	57.400164
1395.000000	57.548101
1394.000000	57.689920
1393.000000	57.829242
1392.000000	57.961106
1391.000000	58.093173
1390.000000	58.210384
1389.000000	58.334820
1388.000000	58.435655
1387.000000	58.528530
1386.000000	58.641629
1385.000000	58.749798
1384.000000	58.846577
1383.000000	58.932483
1382.000000	59.018476
1381.000000	59.112678
1380.000000	59.195034
1379.000000	59.270260
1378.000000	59.345391
1377.000000	59.405170
1376.000000	59.471746
1375.000000	59.540273
1374.000000	59.592863
1373.000000	59.664574
1372.000000	59.728862
1371.000000	59.769913
1370.000000	59.823290
1369.000000	59.882123
1368.000000	59.918743
1367.000000	59.958899
1366.000000	60.008724
1365.000000	60.042528
1364.000000	60.083457
1363.000000	60.140613
1362.000000	60.198171
1361.000000	60.245092
1360.000000	60.289784
1359.000000	60.334493
1358.000000	60.368696
1357.000000	60.414365
1356.000000	60.458049
1355.000000	60.505517
1354.000000	60.548743
1353.000000	60.612755
1352.000000	60.659920
1351.000000	60.711827
1350.000000	60.763741
1349.000000	60.818229
1348.000000	60.855937
1347.000000	60.902199
1346.000000	60.964188
1345.000000	61.029753
1344.000000	61.072958
1343.000000	61.101083
1342.000000	61.128871
1341.000000	61.161309
1340.000000	61.221855
1339.000000	61.279180
1338.000000	61.306293
1337.000000	61.338189
1336.000000	61.376927
1335.000000	61.410990
1334.000000	61.437330
1333.000000	61.471200
1332.000000	61.491018
1331.000000	61.521711
1330.000000	61.555405
1329.000000	61.613961
1328.000000	61.676851
1327.000000	61.707611
1326.000000	61.712742
1325.000000	61.740175
1324.000000	61.738673
1323.000000	61.728221
1322.000000	61.739320
1321.000000	61.790531
1320.000000	61.849160
1319.000000	61.833443
1318.000000	61.837996
1317.000000	61.838440
1316.000000	61.850326
1315.000000	61.887176
1314.000000	61.902453
1313.000000	61.934562
1312.000000	61.944781
1311.000000	61.934803
1310.000000	61.964878
1309.000000	61.988696
1308.000000	61.988481
1307.000000	62.018393
1306.000000	62.034076
1305.000000	62.032322
1304.000000	62.038226
1303.000000	62.036276
1302.000000	62.037161
1301.000000	62.065406
1300.000000	62.072644
1299.000000	62.065645
1298.000000	62.074814
1297.000000	62.057102
1296.000000	62.087440
1295.000000	62.083407
1294.000000	62.103503
1293.000000	62.081061
1292.000000	62.088218
1291.000000	62.095739
1290.000000	62.080125
1289.000000	62.076652
1288.000000	62.059814
1287.000000	62.045633
1286.000000	62.040490
1285.000000	62.045206
1284.000000	62.041871
1283.000000	62.054408
1282.000000	62.058426
1281.000000	62.056759
1280.000000	62.024676
1279.000000	62.029904
1278.000000	62.029946
1277.000000	62.034283
1276.000000	62.012911
1275.000000	62.020825
1274.000000	61.998333
1273.000000	62.006710
1272.000000	62.008619
1271.000000	61.995551
1270.000000	62.004343
1269.000000	61.994094
1268.000000	61.989905
1267.000000	62.013894
1266.000000	62.027747
1265.000000	62.014044
1264.000000	62.009871
1263.000000	62.028514
1262.000000	62.058029
1261.000000	62.061056
1260.000000	62.066039
1259.000000	62.038445
1258.000000	62.048499
1257.000000	62.076221
1256.000000	62.088229
1255.000000	62.067380
1254.000000	62.069543
1253.000000	62.059732
1252.000000	62.082163
1251.000000	62.073902
1250.000000	62.071599
1249.000000	62.061731
1248.000000	62.054377
1247.000000	62.055172
1246.000000	62.041158
1245.000000	62.059348
1244.000000	62.026782
1243.000000	61.980877
1242.000000	61.952111
1241.000000	61.955607
1240.000000	61.929839
1239.000000	61.910254
1238.000000	61.854703
1237.000000	61.847130
1236.000000	61.834134
1235.000000	61.811030
1234.000000	61.750562
1233.000000	61.740882
1232.000000	61.720460
1231.000000	61.702664
1230.000000	61.662647
1229.000000	61.592304
1228.000000	61.583740
1227.000000	61.552762
1226.000000	61.527486
1225.000000	61.493910
1224.000000	61.461858
1223.000000	61.427712
1222.000000	61.399795
1221.000000	61.362511
1220.000000	61.340773
1219.000000	61.317204
1218.000000	61.278239
1217.000000	61.238870
1216.000000	61.227843
1215.000000	61.203872
1214.000000	61.148742
1213.000000	61.121806
1212.000000	61.118214
1211.000000	61.143558
1210.000000	61.110295
1209.000000	61.081224
1208.000000	61.064622
1207.000000	61.060869
1206.000000	61.017363
1205.000000	61.000608
1204.000000	60.994739
1203.000000	60.968775
1202.000000	60.963687
1201.000000	60.970570
1200.000000	60.957830
1199.000000	60.929949
1198.000000	60.910542
1197.000000	60.915430
1196.000000	60.916947
1195.000000	60.916428
1194.000000	60.892115
1193.000000	60.888705
1192.000000	60.871642
1191.000000	60.867182
1190.000000	60.859529
1189.000000	60.833492
1188.000000	60.830395
1187.000000	60.847078
1186.000000	60.852331
1185.000000	60.860266
1184.000000	60.882042
1183.000000	60.908843
1182.000000	60.930522
1181.000000	60.946697
1180.000000	60.961762
1179.000000	60.991133
1178.000000	61.043808
1177.000000	61.063822
1176.000000	61.089800
1175.000000	61.141410
1174.000000	61.194081
1173.000000	61.243024
1172.000000	61.276353
1171.000000	61.309740
1170.000000	61.365385
1169.000000	61.409720
1168.000000	61.460035
1167.000000	61.512270
1166.000000	61.563609
1165.000000	61.620983
1164.000000	61.664887
1163.000000	61.712321
1162.000000	61.759913
1161.000000	61.814311
1160.000000	61.850728
1159.000000	61.875653
1158.000000	61.931658
1157.000000	61.983542
1156.000000	62.027190
1155.000000	62.074919
1154.000000	62.110628
1153.000000	62.154628
1152.000000	62.211163
1151.000000	62.250357
1150.000000	62.271567
1149.000000	62.305693
1148.000000	62.351617
1147.000000	62.385016
1146.000000	62.412356
1145.000000	62.452791
1144.000000	62.472961
1143.000000	62.492427
1142.000000	62.523142
1141.000000	62.555153
1140.000000	62.591450
1139.000000	62.612888
1138.000000	62.642347
1137.000000	62.654745
1136.000000	62.677817
1135.000000	62.716739
1134.000000	62.738757
1133.000000	62.752580
1132.000000	62.786145
1131.000000	62.796745
1130.000000	62.798272
1129.000000	62.811585
1128.000000	62.844660
1127.000000	62.857545
1126.000000	62.883589
1125.000000	62.886623
1124.000000	62.886961
1123.000000	62.896045
1122.000000	62.905682
1121.000000	62.915981
1120.000000	62.914192
1119.000000	62.927255
1118.000000	62.947635
1117.000000	62.948539
1116.000000	62.948358
1115.000000	62.965514
1114.000000	62.961917
1113.000000	62.957422
1112.000000	62.958535
1111.000000	62.947130
1110.000000	62.945238
1109.000000	62.941330
1108.000000	62.935195
1107.000000	62.956750
1106.000000	62.961042
1105.000000	62.960607
1104.000000	62.969651
1103.000000	62.957303
1102.000000	62.967204
1101.000000	62.963738
1100.000000	62.921129
1099.000000	62.920556
1098.000000	62.933613
1097.000000	62.934727
1096.000000	62.932043
1095.000000	62.936231
1094.000000	62.939371
1093.000000	62.914031
1092.000000	62.905663
1091.000000	62.925323
1090.000000	62.925497
1089.000000	62.922911
1088.000000	62.919484
1087.000000	62.915355
1086.000000	62.883317
1085.000000	62.898775
1084.000000	62.888300
1083.000000	62.873751
1082.000000	62.876213
1081.000000	62.864885
1080.000000	62.857231
1079.000000	62.826809
1078.000000	62.814537
1077.000000	62.832507
1076.000000	62.823056
1075.000000	62.819434
1074.000000	62.813114
1073.000000	62.802356
1072.000000	62.788899
1071.000000	62.783394
1070.000000	62.801069
1069.000000	62.746944
1068.000000	62.750349
1067.000000	62.766240
1066.000000	62.756545
1065.000000	62.725383
1064.000000	62.744423
1063.000000	62.726476
1062.000000	62.694738
1061.000000	62.711812
1060.000000	62.690380
1059.000000	62.694050
1058.000000	62.688435
1057.000000	62.687016
1056.000000	62.670801
1055.000000	62.671813
1054.000000	62.671781
1053.000000	62.661947
1052.000000	62.652358
1051.000000	62.625058
1050.000000	62.622151
1049.000000	62.614031
1048.000000	62.581084
1047.000000	62.612792
1046.000000	62.594440
1045.000000	62.573758
1044.000000	62.570117
1043.000000	62.553940
1042.000000	62.544290
1041.000000	62.539428
1040.000000	62.540122
1039.000000	62.541872
1038.000000	62.533719
1037.000000	62.532986
1036.000000	62.517355
1035.000000	62.510444
1034.000000	62.530128
1033.000000	62.481431
1032.000000	62.487415
1031.000000	62.470788
1030.000000	62.471192
1029.000000	62.468353
1028.000000	62.432312
1027.000000	62.428320
1026.000000	62.434625
1025.000000	62.432150
1024.000000	62.404299
1023.000000	62.416524
1022.000000	62.423545
1021.000000	62.401309
1020.000000	62.377683
1019.000000	62.389596
1018.000000	62.386233
1017.000000	62.369884
1016.000000	62.371153
1015.000000	62.358898
1014.000000	62.341085
1013.000000	62.326217
1012.000000	62.342255
1011.000000	62.367004
1010.000000	62.346235
1009.000000	62.322259
1008.000000	62.316979
1007.000000	62.320687
1006.000000	62.324531
1005.000000	62.324280
1004.000000	62.300695
1003.000000	62.305507
1002.000000	62.308378
1001.000000	62.289355
1000.000000	62.275224
999.000000	62.288841
998.000000	62.297054
997.000000	62.288067
996.000000	62.275752
995.000000	62.275114
994.000000	62.257972
993.000000	62.256899
992.000000	62.253005
991.000000	62.254336
990.000000	62.247369
989.000000	62.240616
988.000000	62.222618
987.000000	62.229254
986.000000	62.222903
985.000000	62.234134
984.000000	62.215590
983.000000	62.210460
982.000000	62.226210
981.000000	62.217812
980.000000	62.215432
979.000000	62.199884
978.000000	62.201343
977.000000	62.203405
976.000000	62.191051
975.000000	62.193164
974.000000	62.216022
973.000000	62.203866
972.000000	62.189448
971.000000	62.194478
970.000000	62.210648
969.000000	62.196528
968.000000	62.184668
967.000000	62.178246
966.000000	62.173740
965.000000	62.173594
964.000000	62.158876
963.000000	62.160601
962.000000	62.163244
961.000000	62.158625
960.000000	62.162139
959.000000	62.168303
958.000000	62.175626
957.000000	62.165594
956.000000	62.137250
955.000000	62.128984
954.000000	62.129290
953.000000	62.129503
952.000000	62.125692
951.000000	62.132132
950.000000	62.125965
949.000000	62.121028
948.000000	62.103006
947.000000	62.091405
946.000000	62.101492
945.000000	62.114851
944.000000	62.096430
943.000000	62.068014
942.000000	62.065067
941.000000	62.067823
940.000000	62.063378
939.000000	62.038183
938.000000	62.016239
937.000000	61.990402
936.000000	61.966076
935.000000	61.974179
934.000000	61.977753
933.000000	61.982325
932.000000	61.955746
931.000000	61.918737
930.000000	61.916255
929.000000	61.908774
928.000000	61.886903
927.000000	61.879446
926.000000	61.893997
925.000000	61.894326
924.000000	61.856654
923.000000	61.866228
922.000000	61.879330
921.000000	61.832581
920.000000	61.806339
919.000000	61.751409
918.000000	61.768571
917.000000	61.768588
916.000000	61.776333
915.000000	61.777456
914.000000	61.751433
913.000000	61.743752
912.000000	61.753620
911.000000	61.729951
910.000000	61.716027
909.000000	61.689878
908.000000	61.660137
907.000000	61.640954
906.000000	61.633993
905.000000	61.659725
904.000000	61.629523
903.000000	61.659231
902.000000	61.632970
901.000000	61.625767
900.000000	61.632499
899.000000	61.629923
898.000000	61.604692
897.000000	61.597639
896.000000	61.586399
895.000000	61.623166
894.000000	61.552720
893.000000	61.552861
892.000000	61.562660
891.000000	61.557772
890.000000	61.572271
889.000000	61.567638
888.000000	61.554555
887.000000	61.473725
886.000000	61.447937
885.000000	61.503641
884.000000	61.481320
883.000000	61.481812
882.000000	61.395047
881.000000	61.440671
880.000000	61.357079
879.000000	61.353167
878.000000	61.324637
877.000000	61.248175
876.000000	61.359494
875.000000	61.293162
874.000000	61.255714
873.000000	61.247780
872.000000	61.160016
871.000000	61.185979
870.000000	61.215240
869.000000	61.198484
868.000000	61.148980
867.000000	61.151276
866.000000	61.095132
865.000000	61.206466
864.000000	61.061089
863.000000	61.087359
862.000000	60.993052
861.000000	60.978341
860.000000	61.098977
859.000000	61.324139
858.000000	61.045824
857.000000	61.158349
856.000000	60.800590
855.000000	61.157275
854.000000	60.920467
853.000000	60.806430
852.000000	61.008021
851.000000	61.063406
850.000000	60.898010
849.000000	61.059566
848.000000	60.748060
847.000000	60.980431
846.000000	60.630171
845.000000	61.064614
844.000000	60.777222
843.000000	60.844764
842.000000	60.954002
841.000000	60.629221
840.000000	60.843772
839.000000	60.700682
838.000000	60.719149
837.000000	60.563028
836.000000	60.645606
835.000000	60.612030
834.000000	60.390550
833.000000	60.591781
832.000000	60.549511
831.000000	60.377568
830.000000	60.199575
829.000000	60.468367
828.000000	60.357869
827.000000	60.211106
826.000000	60.311263
825.000000	60.390633
824.000000	60.198498
823.000000	60.065572
822.000000	60.282358
821.000000	60.098910
820.000000	60.220838
819.000000	60.154128
818.000000	60.011570
817.000000	60.009705
816.000000	59.959787
815.000000	60.051656
814.000000	59.928896
813.000000	59.766225
812.000000	59.834159
811.000000	59.866380
810.000000	59.816104
809.000000	59.817319
808.000000	59.700666
807.000000	59.668575
806.000000	59.671301
805.000000	59.467390
804.000000	59.487635
803.000000	59.476151
802.000000	59.490417
801.000000	59.260145
800.000000	59.158890
799.000000	59.300535
798.000000	59.256962
797.000000	59.284840
796.000000	59.231285
795.000000	59.047174
794.000000	58.928771
793.000000	59.004541
792.000000	59.081214
791.000000	59.026687
790.000000	58.904875
789.000000	59.021342
788.000000	58.762303
787.000000	58.804152
786.000000	58.789040
785.000000	58.666622
784.000000	58.785203
783.000000	58.669314
782.000000	58.626369
781.000000	58.728706
780.000000	58.579742
779.000000	58.481246
778.000000	58.335922
777.000000	58.304684
776.000000	58.265675
775.000000	58.247107
774.000000	58.232489
773.000000	58.183001
772.000000	58.058947
771.000000	58.109519
770.000000	57.994698
769.000000	57.996960
768.000000	57.876306
767.000000	57.804683
766.000000	57.722691
765.000000	57.623899
764.000000	57.542850
763.000000	57.613740
762.000000	57.519369
761.000000	57.435617
760.000000	57.446839
759.000000	57.408379
758.000000	57.268369
757.000000	57.309093
756.000000	57.140710
755.000000	57.133861
754.000000	57.111705
753.000000	56.994965
752.000000	56.963273
751.000000	56.935038
750.000000	56.820798
749.000000	56.726779
748.000000	56.678873
747.000000	56.706759
746.000000	56.540500
745.000000	56.479167
744.000000	56.423224
743.000000	56.322361
742.000000	56.234745
741.000000	56.203570
740.000000	56.103744
739.000000	56.061277
738.000000	55.997526
737.000000	55.950540
736.000000	55.897311
735.000000	55.815209
734.000000	55.739032
733.000000	55.699368
732.000000	55.622067
731.000000	55.487331
730.000000	55.407770
729.000000	55.369822
728.000000	55.314307
727.000000	55.265173
726.000000	55.184925
725.000000	55.063688
724.000000	54.964571
723.000000	54.915913
722.000000	54.791571
721.000000	54.780127
720.000000	54.722967
719.000000	54.610630
718.000000	54.515403
717.000000	54.437744
716.000000	54.386940
715.000000	54.267920
714.000000	54.218595
713.000000	54.166610
712.000000	54.039072
711.000000	53.959342
710.000000	53.842048
709.000000	53.806236
708.000000	53.768593
707.000000	53.600828
706.000000	53.501523
705.000000	53.415244
704.000000	53.287138
703.000000	53.246487
702.000000	53.150865
701.000000	52.964262
700.000000	52.904492
699.000000	52.885856
698.000000	52.778865
697.000000	52.686553
696.000000	52.579326
695.000000	52.479494
694.000000	52.433872
693.000000	52.259430
692.000000	52.157602
691.000000	52.142296
690.000000	52.023364
689.000000	51.853144
688.000000	51.791393
687.000000	51.696571
686.000000	51.539095
685.000000	51.449774
684.000000	51.381269
683.000000	51.284401
682.000000	51.143827
681.000000	51.020305
680.000000	50.938973
679.000000	50.904912
678.000000	50.793412
677.000000	50.623803
676.000000	50.480008
675.000000	50.405650
674.000000	50.280826
673.000000	50.144938
672.000000	50.048197
671.000000	49.919785
670.000000	49.780898
669.000000	49.697189
668.000000	49.574521
667.000000	49.513352
666.000000	49.390378
665.000000	49.227144
664.000000	49.130758
663.000000	49.010192
662.000000	48.841358
661.000000	48.753597
660.000000	48.649717
659.000000	48.547957
658.000000	48.453290
657.000000	48.315652
656.000000	48.192305
655.000000	48.042543
654.000000	47.917044
653.000000	47.842095
652.000000	47.754350
651.000000	47.559581
650.000000	47.406507
649.000000	47.268231
648.000000	47.138899
647.000000	47.039802
646.000000	46.921893
645.000000	46.759481
644.000000	46.628736
643.000000	46.528238
642.000000	46.372804
641.000000	46.240275
640.000000	46.091791
639.000000	45.971019
638.000000	45.830852
637.000000	45.717808
636.000000	45.556726
635.000000	45.395885
634.000000	45.282305
633.000000	45.126890
632.000000	45.052010
631.000000	44.856345
630.000000	44.729423
629.000000	44.605293
628.000000	44.504927
627.000000	44.330299
626.000000	44.155571
625.000000	44.048707
624.000000	43.873146
623.000000	43.720020
622.000000	43.642449
621.000000	43.498053
620.000000	43.282741
619.000000	43.166779
618.000000	43.042712
617.000000	42.886368
616.000000	42.740831
615.000000	42.595522
614.000000	42.384731
613.000000	42.264429
612.000000	42.128062
611.000000	42.005062
610.000000	41.792393
609.000000	41.652841
608.000000	41.482420
607.000000	41.394452
606.000000	41.193354
605.000000	41.055380
604.000000	40.903924
603.000000	40.705314
602.000000	40.556508
601.000000	40.454129
600.000000	40.306920
599.000000	40.155816
598.000000	39.924718
597.000000	39.811788
596.000000	39.657110
595.000000	39.490787
594.000000	39.318545
593.000000	39.151322
592.000000	38.972706
591.000000	38.870360
590.000000	38.671142
589.000000	38.495870
588.000000	38.380816
587.000000	38.195172
586.000000	38.072771
585.000000	37.877769
584.000000	37.710717
583.000000	37.547600
582.000000	37.408045
581.000000	37.221635
580.000000	37.059654
579.000000	36.884267
578.000000	36.714608
577.000000	36.567841
576.000000	36.381417
575.000000	36.205956
574.000000	36.057867
573.000000	35.860959
572.000000	35.699602
571.000000	35.576695
570.000000	35.351957
569.000000	35.227129
568.000000	35.042860
567.000000	34.847253
566.000000	34.661773
565.000000	34.487714
564.000000	34.357951
563.000000	34.180765
562.000000	33.979754
561.000000	33.788092
560.000000	33.573768
559.000000	33.429391
558.000000	33.256773
557.000000	33.063928
556.000000	32.904556
555.000000	32.756336
554.000000	32.536851
553.000000	32.389183
552.000000	32.204412
551.000000	32.031134
550.000000	31.860974
549.000000	31.671284
548.000000	31.488450
547.000000	31.348331
546.000000	31.145302
545.000000	30.954102
544.000000	30.772948
543.000000	30.625872
542.000000	30.426553
541.000000	30.285084
540.000000	30.081387
539.000000	29.920560
538.000000	29.721034
537.000000	29.559784
536.000000	29.378846
535.000000	29.207308
534.000000	29.010700
533.000000	28.846677
532.000000	28.677143
531.000000	28.501534
530.000000	28.315842
529.000000	28.140291
528.000000	27.979962
527.000000	27.813517
526.000000	27.625866
525.000000	27.456027
524.000000	27.256220
523.000000	27.088549
522.000000	26.911581
521.000000	26.748750
520.000000	26.582121
519.000000	26.403393
518.000000	26.231849
517.000000	26.076619
516.000000	25.885817
515.000000	25.708754
514.000000	25.550102
513.000000	25.378071
512.000000	25.195132
511.000000	25.030860
510.000000	24.873822
509.000000	24.708907
508.000000	24.531151
507.000000	24.329049
506.000000	24.162324
505.000000	24.016570
504.000000	23.839151
503.000000	23.668052
502.000000	23.493642
501.000000	23.299839
500.000000	23.141667
499.000000	22.993292
498.000000	22.807830
497.000000	22.631073
496.000000	22.445646
495.000000	22.287717
494.000000	22.144325
493.000000	21.963149
492.000000	21.810256
491.000000	21.635910
490.000000	21.459776
489.000000	21.278375
488.000000	21.112869
487.000000	20.978751
486.000000	20.825215
485.000000	20.644579
484.000000	20.470675
483.000000	20.328337
482.000000	20.197541
481.000000	20.018739
480.000000	19.870641
479.000000	19.731450
478.000000	19.574030
477.000000	19.420800
476.000000	19.253486
475.000000	19.114853
474.000000	18.957949
473.000000	18.789500
472.000000	18.662158
471.000000	18.514438
470.000000	18.359555
469.000000	18.216312
468.000000	18.059255
467.000000	17.918577
466.000000	17.769979
465.000000	17.603851
464.000000	17.469304
463.000000	17.337390
462.000000	17.176891
461.000000	17.029977
460.000000	16.886427
459.000000	16.732050
458.000000	16.579255
457.000000	16.422693
456.000000	16.269706
455.000000	16.121076
454.000000	15.977195
453.000000	15.816014
452.000000	15.654475
451.000000	15.535956
450.000000	15.392138
449.000000	15.245531
448.000000	15.089784
447.000000	14.929693
446.000000	14.797237
445.000000	14.664110
444.000000	14.539752
443.000000	14.415034
442.000000	14.277308
441.000000	14.158939
440.000000	14.044188
439.000000	13.912796
438.000000	13.783977
437.000000	13.665409
436.000000	13.554559
435.000000	13.454351
434.000000	13.332125
433.000000	13.221334
432.000000	13.104562
431.000000	12.982203
430.000000	12.867656
429.000000	12.763557
428.000000	12.634842
427.000000	12.523224
426.000000	12.410173
425.000000	12.301595
424.000000	12.219025
423.000000	12.123339
422.000000	12.001123
421.000000	11.892782
420.000000	11.781806
419.000000	11.674443
418.000000	11.587790
417.000000	11.464288
416.000000	11.383357
415.000000	11.285515
414.000000	11.167085
413.000000	11.057060
412.000000	10.966079
411.000000	10.879513
410.000000	10.807082
409.000000	10.699473
408.000000	10.613314
407.000000	10.506024
406.000000	10.421145
405.000000	10.342084
404.000000	10.249242
403.000000	10.158652
402.000000	10.079917
401.000000	10.010865
400.000000	9.929358
399.000000	9.819518
398.000000	9.748561
397.000000	9.690688
396.000000	9.606822
395.000000	9.523198
394.000000	9.462136
393.000000	9.378316
392.000000	9.307662
391.000000	9.231473
390.000000	9.177414
389.000000	9.105364
388.000000	9.030846
387.000000	8.954053
386.000000	8.884337
385.000000	8.844756
384.000000	8.780089
383.000000	8.721412
382.000000	8.648398
381.000000	8.591422
380.000000	8.553934
379.000000	8.487405
378.000000	8.419104
377.000000	8.381657
376.000000	8.340431
375.000000	8.297391
374.000000	8.201945
373.000000	8.200650
372.000000	8.129228
371.000000	8.076852
370.000000	7.997108
369.000000	7.979864
368.000000	7.905217
367.000000	7.885669
366.000000	7.854095
365.000000	7.863589
364.000000	7.756981
363.000000	7.715945
362.000000	7.657028
361.000000	7.638005
360.000000	7.611162
359.000000	7.588869
358.000000	7.610401
357.000000	7.525644
356.000000	7.494102
355.000000	7.434136
354.000000	7.392087
353.000000	7.396465
352.000000	7.408392
351.000000	7.344614
350.000000	7.292831
349.000000	7.246563
348.000000	7.219256
347.000000	7.194244
346.000000	7.203934
345.000000	7.165095
344.000000	7.147806
343.000000	7.134713
342.000000	7.115395
341.000000	7.084099
340.000000	7.067942
339.000000	7.055070
338.000000	7.016353
337.000000	6.998852
336.000000	6.936858
335.000000	6.932959
334.000000	6.887465
333.000000	6.856215
332.000000	6.883773
331.000000	6.841819
330.000000	6.855620
329.000000	6.856120
328.000000	6.822538
327.000000	6.830265
326.000000	6.764373
325.000000	6.799560
324.000000	6.769894
323.000000	6.761558
322.000000	6.807325
321.000000	6.756215
320.000000	6.797781
319.000000	6.798079
318.000000	6.813085
317.000000	6.805148
316.000000	6.797101
315.000000	6.777511
314.000000	6.788937
313.000000	6.783202
312.000000	6.821958
311.000000	6.791037
310.000000	6.809209
309.000000	6.902901
308.000000	6.801085
307.000000	6.873678
306.000000	6.826261
305.000000	6.869367
304.000000	6.887603
303.000000	6.907256
302.000000	6.913664
301.000000	6.888336
300.000000	6.921062
299.000000	6.892597
298.000000	6.944222
297.000000	6.953950
296.000000	6.921383
295.000000	6.973813
294.000000	6.987808
293.000000	7.017518
292.000000	6.978741
291.000000	7.029727
290.000000	7.057623
289.000000	7.079844
288.000000	7.100798
287.000000	7.115806
286.000000	7.083870
285.000000	7.115794
284.000000	7.186749
283.000000	7.213174
282.000000	7.216249
281.000000	7.254171
280.000000	7.325480
279.000000	7.364742
278.000000	7.409364
277.000000	7.411567
276.000000	7.412216
275.000000	7.462830
274.000000	7.534261
273.000000	7.524888
272.000000	7.599794
271.000000	7.668455
270.000000	7.652216
269.000000	7.708027
268.000000	7.752332
267.000000	7.792083
266.000000	7.810079
265.000000	7.910586
264.000000	7.991926
263.000000	8.020716
262.000000	8.063907
261.000000	8.162166
260.000000	8.195249
259.000000	8.288930
258.000000	8.369647
257.000000	8.452559
256.000000	8.567166
255.000000	8.685150
254.000000	8.717130
253.000000	8.805060
252.000000	8.915976
251.000000	8.996852
250.000000	9.139287
249.000000	9.291758
248.000000	9.407099
247.000000	9.577602
246.000000	9.665238
245.000000	9.767504
244.000000	9.909419
243.000000	10.000275
242.000000	10.156630
241.000000	10.308467
240.000000	10.391685
239.000000	10.523070
238.000000	10.682018
237.000000	10.794780
236.000000	10.902898
235.000000	11.054443
234.000000	11.128983
233.000000	11.203672
232.000000	11.363474
231.000000	11.477441
230.000000	11.585726
229.000000	11.752819
228.000000	11.869827
227.000000	11.927674
226.000000	12.041076
225.000000	12.220999
224.000000	12.432217
223.000000	12.576019
222.000000	12.745644
221.000000	12.928943
220.000000	13.109624
219.000000	13.195135
218.000000	13.415098
217.000000	13.733589
216.000000	13.941756
215.000000	14.240061
214.000000	14.521469
213.000000	14.726475
212.000000	15.019686
211.000000	15.341901
210.000000	15.668735
209.000000	16.052366
208.000000	16.569160
207.000000	17.048967
206.000000	17.489764
205.000000	17.989330
204.000000	18.646585
203.000000	19.378881
202.000000	20.164766
201.000000	20.674477
200.000000	21.495358
