PE UV       SUBTECH     SPECTRUM    ASCII       PEDS        4.00        
   -1
RTms1240121.Sample.asc
18/03/14
15:32:29.00
18/03/14
15:32:29.00
Administrator

200.000000
1
Lambda 750
750N8071901
PerkinElmer UV WinLab 6.0.4.0738 / 1.61.00 Lambda 900

0
0
3350/servo 860.8/2
0
0
UV/VIS
1
1
1
CommonBeamDepol,150mm sphere / downward view
0
0
0
0
Program
Program
3350/servo 860.8/2
3350/0.2 860.8/0.2
3350/0.2 860.8/0.2
0
1
 
 
 
0
 
860.8
319.2
860.8
Front
100
on
 
 
0
0
0
 
0
 
 
 
0
 
 
0
0
0
0
0
 
 
 
 
0
0


0
0
#HDR
-1
-1
#GR
nm
%R
1.0
0.0
2350.000000
-1.000000
2151
8
50.666083
6.424622
#DATA
2350.000000	24.553452
2349.000000	25.129205
2348.000000	24.746027
2347.000000	25.141830
2346.000000	25.148157
2345.000000	24.802348
2344.000000	25.186073
2343.000000	24.797761
2342.000000	24.935823
2341.000000	25.270754
2340.000000	25.448744
2339.000000	25.507378
2338.000000	25.932411
2337.000000	25.491658
2336.000000	25.893680
2335.000000	25.876625
2334.000000	26.022348
2333.000000	26.039033
2332.000000	26.065266
2331.000000	25.812079
2330.000000	25.856418
2329.000000	25.827874
2328.000000	25.790151
2327.000000	25.569695
2326.000000	25.854146
2325.000000	25.682104
2324.000000	25.730479
2323.000000	25.533553
2322.000000	25.315071
2321.000000	25.361920
2320.000000	25.361032
2319.000000	25.216356
2318.000000	25.251022
2317.000000	25.203646
2316.000000	25.103859
2315.000000	25.128253
2314.000000	25.093213
2313.000000	24.872962
2312.000000	24.894327
2311.000000	24.956731
2310.000000	24.697033
2309.000000	24.762448
2308.000000	24.641884
2307.000000	24.491948
2306.000000	24.602834
2305.000000	24.510682
2304.000000	24.785069
2303.000000	24.837319
2302.000000	24.491819
2301.000000	24.291931
2300.000000	24.328826
2299.000000	24.284424
2298.000000	24.326836
2297.000000	24.256584
2296.000000	24.352473
2295.000000	24.181852
2294.000000	24.055330
2293.000000	23.973057
2292.000000	23.969280
2291.000000	24.040068
2290.000000	23.845286
2289.000000	23.920953
2288.000000	24.233524
2287.000000	23.953093
2286.000000	23.870265
2285.000000	23.921623
2284.000000	24.063632
2283.000000	23.911062
2282.000000	23.945512
2281.000000	24.010236
2280.000000	23.980610
2279.000000	23.969965
2278.000000	23.959949
2277.000000	24.021157
2276.000000	24.015890
2275.000000	24.011939
2274.000000	24.035127
2273.000000	24.204500
2272.000000	24.291821
2271.000000	24.320484
2270.000000	24.332336
2269.000000	24.323253
2268.000000	24.406502
2267.000000	24.539892
2266.000000	24.707967
2265.000000	24.763724
2264.000000	24.814382
2263.000000	24.954247
2262.000000	25.091956
2261.000000	25.304734
2260.000000	25.439519
2259.000000	25.511906
2258.000000	25.573998
2257.000000	25.747542
2256.000000	25.928448
2255.000000	26.116055
2254.000000	26.233791
2253.000000	26.251076
2252.000000	26.483417
2251.000000	26.711565
2250.000000	26.833460
2249.000000	27.004588
2248.000000	27.205701
2247.000000	27.306588
2246.000000	27.394194
2245.000000	27.589279
2244.000000	27.844605
2243.000000	28.036628
2242.000000	28.073676
2241.000000	28.162281
2240.000000	28.326840
2239.000000	28.425337
2238.000000	28.454700
2237.000000	28.508488
2236.000000	28.606934
2235.000000	28.724903
2234.000000	28.927323
2233.000000	28.941062
2232.000000	28.895676
2231.000000	29.013035
2230.000000	29.151646
2229.000000	29.143272
2228.000000	29.074282
2227.000000	29.126296
2226.000000	29.043138
2225.000000	28.961273
2224.000000	29.064223
2223.000000	29.142463
2222.000000	29.016782
2221.000000	28.813638
2220.000000	28.893446
2219.000000	29.078159
2218.000000	28.912427
2217.000000	28.836888
2216.000000	28.905722
2215.000000	28.803352
2214.000000	28.797437
2213.000000	28.905404
2212.000000	28.795821
2211.000000	28.657033
2210.000000	28.556262
2209.000000	28.585716
2208.000000	28.487116
2207.000000	28.485907
2206.000000	28.302578
2205.000000	28.202333
2204.000000	28.236181
2203.000000	28.269300
2202.000000	28.162203
2201.000000	28.152774
2200.000000	28.116766
2199.000000	28.055787
2198.000000	28.082080
2197.000000	27.926328
2196.000000	27.841841
2195.000000	27.741992
2194.000000	27.660611
2193.000000	27.569757
2192.000000	27.616517
2191.000000	27.562616
2190.000000	27.426926
2189.000000	27.463825
2188.000000	27.466132
2187.000000	27.325329
2186.000000	27.371771
2185.000000	27.263123
2184.000000	27.281159
2183.000000	27.281606
2182.000000	27.164305
2181.000000	27.255675
2180.000000	27.336580
2179.000000	27.309840
2178.000000	27.199455
2177.000000	27.128597
2176.000000	27.171778
2175.000000	27.224028
2174.000000	27.211584
2173.000000	27.257440
2172.000000	27.306416
2171.000000	27.407190
2170.000000	27.223635
2169.000000	27.535154
2168.000000	27.626997
2167.000000	27.655011
2166.000000	27.631235
2165.000000	27.795458
2164.000000	27.869049
2163.000000	27.943716
2162.000000	27.962268
2161.000000	28.127780
2160.000000	28.168463
2159.000000	28.328650
2158.000000	28.512779
2157.000000	28.456629
2156.000000	28.440880
2155.000000	28.518048
2154.000000	28.870101
2153.000000	29.002771
2152.000000	29.044021
2151.000000	29.092282
2150.000000	29.288393
2149.000000	29.323757
2148.000000	29.492777
2147.000000	29.625660
2146.000000	29.534767
2145.000000	29.714725
2144.000000	29.966049
2143.000000	29.988724
2142.000000	29.898894
2141.000000	30.262190
2140.000000	30.152331
2139.000000	30.218709
2138.000000	30.295930
2137.000000	30.385706
2136.000000	30.546169
2135.000000	30.751149
2134.000000	30.878968
2133.000000	30.612544
2132.000000	30.700517
2131.000000	31.057147
2130.000000	31.117859
2129.000000	31.015258
2128.000000	31.000721
2127.000000	31.026460
2126.000000	30.897851
2125.000000	30.972089
2124.000000	31.162934
2123.000000	31.171817
2122.000000	31.134132
2121.000000	31.225210
2120.000000	31.205175
2119.000000	31.297212
2118.000000	31.380345
2117.000000	31.327786
2116.000000	31.356585
2115.000000	31.393229
2114.000000	31.386967
2113.000000	31.375382
2112.000000	31.397627
2111.000000	31.302569
2110.000000	31.417223
2109.000000	31.333855
2108.000000	31.391901
2107.000000	31.502692
2106.000000	31.446208
2105.000000	31.479421
2104.000000	31.433382
2103.000000	31.521261
2102.000000	31.576093
2101.000000	31.618529
2100.000000	31.599653
2099.000000	31.555420
2098.000000	31.489665
2097.000000	31.517198
2096.000000	31.559878
2095.000000	31.462065
2094.000000	31.450504
2093.000000	31.368358
2092.000000	31.368124
2091.000000	31.377273
2090.000000	31.348548
2089.000000	31.369724
2088.000000	31.396292
2087.000000	31.342346
2086.000000	31.341382
2085.000000	31.333006
2084.000000	31.206066
2083.000000	31.236756
2082.000000	31.135063
2081.000000	31.093833
2080.000000	30.954569
2079.000000	30.957623
2078.000000	30.889631
2077.000000	30.814314
2076.000000	30.702740
2075.000000	30.621689
2074.000000	30.490978
2073.000000	30.437595
2072.000000	30.398810
2071.000000	30.366099
2070.000000	30.248524
2069.000000	30.117992
2068.000000	29.980026
2067.000000	29.924140
2066.000000	29.701010
2065.000000	29.581930
2064.000000	29.513361
2063.000000	29.394861
2062.000000	29.356793
2061.000000	29.247229
2060.000000	29.035173
2059.000000	28.960704
2058.000000	28.904631
2057.000000	28.768795
2056.000000	28.650867
2055.000000	28.605332
2054.000000	28.455693
2053.000000	28.384681
2052.000000	28.328931
2051.000000	28.184603
2050.000000	28.066982
2049.000000	28.021579
2048.000000	27.942018
2047.000000	27.881673
2046.000000	27.850009
2045.000000	27.811036
2044.000000	27.828950
2043.000000	27.821180
2042.000000	27.809528
2041.000000	27.860915
2040.000000	27.865500
2039.000000	27.856128
2038.000000	27.878042
2037.000000	27.917016
2036.000000	27.962569
2035.000000	28.043113
2034.000000	28.149189
2033.000000	28.220634
2032.000000	28.266399
2031.000000	28.316466
2030.000000	28.436115
2029.000000	28.502053
2028.000000	28.521247
2027.000000	28.589262
2026.000000	28.682466
2025.000000	28.771529
2024.000000	28.785747
2023.000000	28.779552
2022.000000	28.810139
2021.000000	28.842874
2020.000000	28.883719
2019.000000	28.890772
2018.000000	28.904518
2017.000000	28.913364
2016.000000	28.853150
2015.000000	28.789471
2014.000000	28.784833
2013.000000	28.796025
2012.000000	28.753035
2011.000000	28.705295
2010.000000	28.650448
2009.000000	28.554343
2008.000000	28.455039
2007.000000	28.377176
2006.000000	28.322106
2005.000000	28.237535
2004.000000	28.159753
2003.000000	28.115279
2002.000000	28.036772
2001.000000	27.929321
2000.000000	27.797646
1999.000000	27.729005
1998.000000	27.635712
1997.000000	27.555776
1996.000000	27.483805
1995.000000	27.380829
1994.000000	27.267061
1993.000000	27.180864
1992.000000	27.065410
1991.000000	26.978000
1990.000000	26.883201
1989.000000	26.777827
1988.000000	26.697974
1987.000000	26.576658
1986.000000	26.466766
1985.000000	26.399014
1984.000000	26.292040
1983.000000	26.222091
1982.000000	26.157031
1981.000000	26.040949
1980.000000	25.946199
1979.000000	25.842228
1978.000000	25.753989
1977.000000	25.675966
1976.000000	25.550896
1975.000000	25.428476
1974.000000	25.319472
1973.000000	25.263901
1972.000000	25.207658
1971.000000	25.103515
1970.000000	25.039461
1969.000000	24.909992
1968.000000	24.811414
1967.000000	24.752735
1966.000000	24.669928
1965.000000	24.575345
1964.000000	24.505710
1963.000000	24.410704
1962.000000	24.315631
1961.000000	24.227176
1960.000000	24.175733
1959.000000	24.083396
1958.000000	24.033159
1957.000000	23.944794
1956.000000	23.917072
1955.000000	23.817532
1954.000000	23.771604
1953.000000	23.673073
1952.000000	23.619725
1951.000000	23.643866
1950.000000	23.590205
1949.000000	23.556635
1948.000000	23.482169
1947.000000	23.467646
1946.000000	23.453254
1945.000000	23.407499
1944.000000	23.426254
1943.000000	23.441139
1942.000000	23.434956
1941.000000	23.487826
1940.000000	23.505677
1939.000000	23.566059
1938.000000	23.545192
1937.000000	23.607446
1936.000000	23.736386
1935.000000	23.814737
1934.000000	23.890851
1933.000000	23.941930
1932.000000	24.036653
1931.000000	24.085432
1930.000000	24.264269
1929.000000	24.276570
1928.000000	24.526936
1927.000000	24.710905
1926.000000	24.862966
1925.000000	25.027211
1924.000000	25.266529
1923.000000	25.464579
1922.000000	25.623511
1921.000000	25.909944
1920.000000	26.161026
1919.000000	26.337131
1918.000000	26.688387
1917.000000	26.829251
1916.000000	27.082921
1915.000000	27.449476
1914.000000	27.806384
1913.000000	28.129867
1912.000000	28.440425
1911.000000	28.716953
1910.000000	29.044916
1909.000000	29.387864
1908.000000	29.753184
1907.000000	30.200720
1906.000000	30.537571
1905.000000	30.964930
1904.000000	31.344308
1903.000000	31.788086
1902.000000	32.149203
1901.000000	32.635491
1900.000000	32.965731
1899.000000	33.439799
1898.000000	33.962203
1897.000000	34.319856
1896.000000	34.742097
1895.000000	35.089138
1894.000000	35.559961
1893.000000	35.941294
1892.000000	36.330311
1891.000000	36.716057
1890.000000	37.044996
1889.000000	37.434972
1888.000000	37.734392
1887.000000	38.092179
1886.000000	38.443125
1885.000000	38.789769
1884.000000	39.034350
1883.000000	39.404390
1882.000000	39.651919
1881.000000	39.942601
1880.000000	40.172468
1879.000000	40.355441
1878.000000	40.648667
1877.000000	40.889328
1876.000000	41.023028
1875.000000	41.275385
1874.000000	41.474327
1873.000000	41.619421
1872.000000	41.774683
1871.000000	41.961680
1870.000000	42.122480
1869.000000	42.225420
1868.000000	42.325082
1867.000000	42.413349
1866.000000	42.503949
1865.000000	42.574037
1864.000000	42.661406
1863.000000	42.743731
1862.000000	42.796395
1861.000000	42.823243
1860.000000	42.902482
1859.000000	42.925653
1858.000000	42.946232
1857.000000	42.964534
1856.000000	43.016785
1855.000000	43.029491
1854.000000	43.115407
1853.000000	43.111855
1852.000000	43.103403
1851.000000	43.130143
1850.000000	43.146184
1849.000000	43.150515
1848.000000	43.153843
1847.000000	43.177734
1846.000000	43.149028
1845.000000	43.142628
1844.000000	43.163607
1843.000000	43.147964
1842.000000	43.129811
1841.000000	43.116980
1840.000000	43.088954
1839.000000	43.077971
1838.000000	43.060051
1837.000000	43.004172
1836.000000	42.995557
1835.000000	42.973886
1834.000000	42.951137
1833.000000	42.918580
1832.000000	42.879314
1831.000000	42.835823
1830.000000	42.817775
1829.000000	42.795938
1828.000000	42.768223
1827.000000	42.742374
1826.000000	42.721930
1825.000000	42.699212
1824.000000	42.689532
1823.000000	42.655404
1822.000000	42.609989
1821.000000	42.592428
1820.000000	42.572852
1819.000000	42.536847
1818.000000	42.520152
1817.000000	42.510649
1816.000000	42.489465
1815.000000	42.475870
1814.000000	42.451098
1813.000000	42.424556
1812.000000	42.412199
1811.000000	42.381855
1810.000000	42.356226
1809.000000	42.353827
1808.000000	42.336048
1807.000000	42.296908
1806.000000	42.286705
1805.000000	42.298221
1804.000000	42.260313
1803.000000	42.231363
1802.000000	42.215436
1801.000000	42.187847
1800.000000	42.191296
1799.000000	42.180647
1798.000000	42.164444
1797.000000	42.157751
1796.000000	42.126463
1795.000000	42.117749
1794.000000	42.134716
1793.000000	42.110264
1792.000000	42.081895
1791.000000	42.084881
1790.000000	42.065190
1789.000000	42.065657
1788.000000	42.077542
1787.000000	42.066500
1786.000000	42.054063
1785.000000	42.025919
1784.000000	41.998570
1783.000000	42.000998
1782.000000	41.999483
1781.000000	41.970264
1780.000000	41.953505
1779.000000	41.934077
1778.000000	41.889624
1777.000000	41.838412
1776.000000	41.792642
1775.000000	41.750771
1774.000000	41.733906
1773.000000	41.737742
1772.000000	41.721333
1771.000000	41.663269
1770.000000	41.632977
1769.000000	41.593237
1768.000000	41.542297
1767.000000	41.495844
1766.000000	41.481853
1765.000000	41.442179
1764.000000	41.445481
1763.000000	41.412669
1762.000000	41.363854
1761.000000	41.329280
1760.000000	41.291331
1759.000000	41.276521
1758.000000	41.235725
1757.000000	41.203220
1756.000000	41.188584
1755.000000	41.153975
1754.000000	41.111859
1753.000000	41.064124
1752.000000	41.060497
1751.000000	41.022820
1750.000000	40.982892
1749.000000	40.962929
1748.000000	40.904490
1747.000000	40.856398
1746.000000	40.828236
1745.000000	40.788034
1744.000000	40.759897
1743.000000	40.716661
1742.000000	40.654778
1741.000000	40.611226
1740.000000	40.582147
1739.000000	40.557527
1738.000000	40.524492
1737.000000	40.514815
1736.000000	40.490760
1735.000000	40.469639
1734.000000	40.498072
1733.000000	40.464433
1732.000000	40.494631
1731.000000	40.487955
1730.000000	40.466561
1729.000000	40.498946
1728.000000	40.521600
1727.000000	40.583303
1726.000000	40.626924
1725.000000	40.694042
1724.000000	40.748281
1723.000000	40.812957
1722.000000	40.894740
1721.000000	40.920122
1720.000000	41.026832
1719.000000	41.108072
1718.000000	41.134641
1717.000000	41.213892
1716.000000	41.317496
1715.000000	41.383292
1714.000000	41.432919
1713.000000	41.503229
1712.000000	41.529828
1711.000000	41.592055
1710.000000	41.668467
1709.000000	41.700339
1708.000000	41.741798
1707.000000	41.797978
1706.000000	41.833910
1705.000000	41.874561
1704.000000	41.912626
1703.000000	41.925306
1702.000000	41.942788
1701.000000	41.966630
1700.000000	41.979322
1699.000000	41.956339
1698.000000	42.030121
1697.000000	42.075160
1696.000000	42.115404
1695.000000	42.116509
1694.000000	42.156250
1693.000000	42.213211
1692.000000	42.206411
1691.000000	42.269902
1690.000000	42.330816
1689.000000	42.397419
1688.000000	42.453249
1687.000000	42.520489
1686.000000	42.588315
1685.000000	42.684195
1684.000000	42.785504
1683.000000	42.864122
1682.000000	42.998737
1681.000000	43.098687
1680.000000	43.199981
1679.000000	43.309244
1678.000000	43.408819
1677.000000	43.507121
1676.000000	43.616773
1675.000000	43.743188
1674.000000	43.823794
1673.000000	43.939812
1672.000000	44.047026
1671.000000	44.134763
1670.000000	44.227337
1669.000000	44.329669
1668.000000	44.415631
1667.000000	44.497003
1666.000000	44.530443
1665.000000	44.608318
1664.000000	44.656015
1663.000000	44.682963
1662.000000	44.756694
1661.000000	44.817503
1660.000000	44.836013
1659.000000	44.884011
1658.000000	44.919402
1657.000000	44.939502
1656.000000	44.968619
1655.000000	44.986455
1654.000000	45.016236
1653.000000	45.031129
1652.000000	45.036947
1651.000000	45.019044
1650.000000	45.019664
1649.000000	45.039930
1648.000000	45.024190
1647.000000	45.024362
1646.000000	45.020426
1645.000000	45.011119
1644.000000	45.019953
1643.000000	45.006906
1642.000000	44.995684
1641.000000	44.958644
1640.000000	44.956484
1639.000000	44.951243
1638.000000	44.940350
1637.000000	44.928251
1636.000000	44.888393
1635.000000	44.886222
1634.000000	44.875179
1633.000000	44.831985
1632.000000	44.814794
1631.000000	44.804951
1630.000000	44.774096
1629.000000	44.755975
1628.000000	44.736530
1627.000000	44.701590
1626.000000	44.664150
1625.000000	44.628253
1624.000000	44.617391
1623.000000	44.592371
1622.000000	44.570501
1621.000000	44.529599
1620.000000	44.499958
1619.000000	44.465075
1618.000000	44.433224
1617.000000	44.406898
1616.000000	44.370000
1615.000000	44.319626
1614.000000	44.286520
1613.000000	44.273285
1612.000000	44.247366
1611.000000	44.208690
1610.000000	44.177723
1609.000000	44.140431
1608.000000	44.104159
1607.000000	44.069610
1606.000000	44.015566
1605.000000	43.985109
1604.000000	43.954802
1603.000000	43.903284
1602.000000	43.870844
1601.000000	43.836867
1600.000000	43.798123
1599.000000	43.760066
1598.000000	43.730269
1597.000000	43.697757
1596.000000	43.666704
1595.000000	43.654857
1594.000000	43.619614
1593.000000	43.575688
1592.000000	43.536509
1591.000000	43.503053
1590.000000	43.486747
1589.000000	43.443181
1588.000000	43.404294
1587.000000	43.381265
1586.000000	43.358699
1585.000000	43.347434
1584.000000	43.322142
1583.000000	43.287395
1582.000000	43.251512
1581.000000	43.221352
1580.000000	43.182957
1579.000000	43.154359
1578.000000	43.141132
1577.000000	43.097101
1576.000000	43.065251
1575.000000	43.050607
1574.000000	43.022640
1573.000000	42.991431
1572.000000	42.964143
1571.000000	42.929725
1570.000000	42.918846
1569.000000	42.900723
1568.000000	42.864898
1567.000000	42.824520
1566.000000	42.792265
1565.000000	42.775831
1564.000000	42.758766
1563.000000	42.757059
1562.000000	42.728955
1561.000000	42.704137
1560.000000	42.682335
1559.000000	42.675787
1558.000000	42.653428
1557.000000	42.621558
1556.000000	42.621176
1555.000000	42.603264
1554.000000	42.575085
1553.000000	42.549247
1552.000000	42.531168
1551.000000	42.510073
1550.000000	42.489111
1549.000000	42.452657
1548.000000	42.420128
1547.000000	42.392055
1546.000000	42.364612
1545.000000	42.297575
1544.000000	42.250802
1543.000000	42.206475
1542.000000	42.155256
1541.000000	42.113965
1540.000000	42.063458
1539.000000	42.000194
1538.000000	41.940509
1537.000000	41.890718
1536.000000	41.825422
1535.000000	41.773094
1534.000000	41.713631
1533.000000	41.671897
1532.000000	41.617070
1531.000000	41.572612
1530.000000	41.516001
1529.000000	41.443603
1528.000000	41.408524
1527.000000	41.357102
1526.000000	41.336727
1525.000000	41.290856
1524.000000	41.239678
1523.000000	41.209135
1522.000000	41.174886
1521.000000	41.134444
1520.000000	41.111020
1519.000000	41.069696
1518.000000	41.060646
1517.000000	41.014751
1516.000000	41.004876
1515.000000	40.968695
1514.000000	40.956297
1513.000000	40.929843
1512.000000	40.943454
1511.000000	40.960663
1510.000000	40.962401
1509.000000	40.983469
1508.000000	40.976585
1507.000000	40.962612
1506.000000	40.941247
1505.000000	40.905307
1504.000000	40.888852
1503.000000	40.882397
1502.000000	40.866491
1501.000000	40.847787
1500.000000	40.826835
1499.000000	40.822954
1498.000000	40.822942
1497.000000	40.824648
1496.000000	40.833782
1495.000000	40.847495
1494.000000	40.850260
1493.000000	40.850749
1492.000000	40.853847
1491.000000	40.873826
1490.000000	40.879094
1489.000000	40.897224
1488.000000	40.913059
1487.000000	40.935508
1486.000000	40.951951
1485.000000	40.958792
1484.000000	40.966401
1483.000000	40.951178
1482.000000	40.951291
1481.000000	41.005956
1480.000000	41.000188
1479.000000	41.020472
1478.000000	41.057691
1477.000000	41.083922
1476.000000	41.090116
1475.000000	41.107523
1474.000000	41.133953
1473.000000	41.155386
1472.000000	41.174101
1471.000000	41.208993
1470.000000	41.246655
1469.000000	41.300853
1468.000000	41.300563
1467.000000	41.321673
1466.000000	41.344247
1465.000000	41.361182
1464.000000	41.405582
1463.000000	41.446138
1462.000000	41.455802
1461.000000	41.469946
1460.000000	41.522748
1459.000000	41.581534
1458.000000	41.588619
1457.000000	41.608508
1456.000000	41.629376
1455.000000	41.691165
1454.000000	41.757081
1453.000000	41.773346
1452.000000	41.797698
1451.000000	41.823346
1450.000000	41.875126
1449.000000	41.954330
1448.000000	42.009318
1447.000000	42.038513
1446.000000	42.071489
1445.000000	42.114013
1444.000000	42.165638
1443.000000	42.212873
1442.000000	42.317581
1441.000000	42.377742
1440.000000	42.426499
1439.000000	42.473633
1438.000000	42.521790
1437.000000	42.593584
1436.000000	42.659218
1435.000000	42.716754
1434.000000	42.794798
1433.000000	42.876278
1432.000000	42.958964
1431.000000	43.049990
1430.000000	43.128436
1429.000000	43.215077
1428.000000	43.304655
1427.000000	43.400070
1426.000000	43.503953
1425.000000	43.604709
1424.000000	43.706651
1423.000000	43.831701
1422.000000	43.950620
1421.000000	44.032708
1420.000000	44.135215
1419.000000	44.249882
1418.000000	44.355487
1417.000000	44.477291
1416.000000	44.599360
1415.000000	44.721694
1414.000000	44.823640
1413.000000	44.950150
1412.000000	45.082651
1411.000000	45.210968
1410.000000	45.338224
1409.000000	45.469968
1408.000000	45.600381
1407.000000	45.725511
1406.000000	45.837402
1405.000000	45.959853
1404.000000	46.089042
1403.000000	46.217868
1402.000000	46.336062
1401.000000	46.462935
1400.000000	46.581684
1399.000000	46.665840
1398.000000	46.775243
1397.000000	46.888204
1396.000000	46.999933
1395.000000	47.106391
1394.000000	47.205260
1393.000000	47.303181
1392.000000	47.384755
1391.000000	47.464107
1390.000000	47.553124
1389.000000	47.642270
1388.000000	47.710423
1387.000000	47.793702
1386.000000	47.889982
1385.000000	47.971584
1384.000000	48.044289
1383.000000	48.118767
1382.000000	48.180727
1381.000000	48.235615
1380.000000	48.275289
1379.000000	48.320030
1378.000000	48.408373
1377.000000	48.458209
1376.000000	48.482888
1375.000000	48.535873
1374.000000	48.578688
1373.000000	48.621419
1372.000000	48.658620
1371.000000	48.673345
1370.000000	48.687417
1369.000000	48.703857
1368.000000	48.734550
1367.000000	48.791284
1366.000000	48.842598
1365.000000	48.866849
1364.000000	48.876012
1363.000000	48.889952
1362.000000	48.904982
1361.000000	48.932620
1360.000000	48.965519
1359.000000	49.003738
1358.000000	49.058757
1357.000000	49.110175
1356.000000	49.131567
1355.000000	49.152713
1354.000000	49.181527
1353.000000	49.251490
1352.000000	49.299942
1351.000000	49.322064
1350.000000	49.365586
1349.000000	49.393781
1348.000000	49.417123
1347.000000	49.450679
1346.000000	49.489851
1345.000000	49.545192
1344.000000	49.563475
1343.000000	49.578531
1342.000000	49.624413
1341.000000	49.640828
1340.000000	49.661438
1339.000000	49.677068
1338.000000	49.707767
1337.000000	49.751362
1336.000000	49.774176
1335.000000	49.779564
1334.000000	49.789112
1333.000000	49.819989
1332.000000	49.848131
1331.000000	49.872687
1330.000000	49.894462
1329.000000	49.905981
1328.000000	49.936917
1327.000000	49.966015
1326.000000	49.973289
1325.000000	49.982979
1324.000000	50.000758
1323.000000	50.013633
1322.000000	50.028831
1321.000000	50.060812
1320.000000	50.085583
1319.000000	50.079390
1318.000000	50.095048
1317.000000	50.125550
1316.000000	50.140686
1315.000000	50.155460
1314.000000	50.155695
1313.000000	50.153976
1312.000000	50.142624
1311.000000	50.171553
1310.000000	50.195472
1309.000000	50.207027
1308.000000	50.219080
1307.000000	50.211129
1306.000000	50.220539
1305.000000	50.221656
1304.000000	50.253551
1303.000000	50.281281
1302.000000	50.277786
1301.000000	50.253794
1300.000000	50.271727
1299.000000	50.253197
1298.000000	50.250237
1297.000000	50.245249
1296.000000	50.260096
1295.000000	50.270725
1294.000000	50.284499
1293.000000	50.266353
1292.000000	50.260977
1291.000000	50.277345
1290.000000	50.280750
1289.000000	50.286196
1288.000000	50.247063
1287.000000	50.253535
1286.000000	50.281494
1285.000000	50.257617
1284.000000	50.207517
1283.000000	50.206243
1282.000000	50.209516
1281.000000	50.206330
1280.000000	50.204289
1279.000000	50.223264
1278.000000	50.232692
1277.000000	50.229269
1276.000000	50.210452
1275.000000	50.214212
1274.000000	50.200707
1273.000000	50.211639
1272.000000	50.208100
1271.000000	50.192039
1270.000000	50.203409
1269.000000	50.205848
1268.000000	50.195292
1267.000000	50.196622
1266.000000	50.202972
1265.000000	50.232952
1264.000000	50.254641
1263.000000	50.251940
1262.000000	50.254717
1261.000000	50.238562
1260.000000	50.250342
1259.000000	50.270417
1258.000000	50.301606
1257.000000	50.281023
1256.000000	50.264839
1255.000000	50.242169
1254.000000	50.253814
1253.000000	50.251423
1252.000000	50.273908
1251.000000	50.276155
1250.000000	50.261820
1249.000000	50.265526
1248.000000	50.265997
1247.000000	50.282924
1246.000000	50.263262
1245.000000	50.272913
1244.000000	50.263091
1243.000000	50.250756
1242.000000	50.240313
1241.000000	50.248810
1240.000000	50.180328
1239.000000	50.176474
1238.000000	50.164909
1237.000000	50.153664
1236.000000	50.114913
1235.000000	50.099416
1234.000000	50.094524
1233.000000	50.056130
1232.000000	50.043831
1231.000000	50.048569
1230.000000	50.043521
1229.000000	50.030269
1228.000000	49.971093
1227.000000	49.968429
1226.000000	49.955039
1225.000000	49.941902
1224.000000	49.930889
1223.000000	49.916558
1222.000000	49.914945
1221.000000	49.902269
1220.000000	49.897749
1219.000000	49.875318
1218.000000	49.846813
1217.000000	49.820476
1216.000000	49.821699
1215.000000	49.811414
1214.000000	49.771165
1213.000000	49.770779
1212.000000	49.775538
1211.000000	49.774794
1210.000000	49.753965
1209.000000	49.747908
1208.000000	49.740952
1207.000000	49.734265
1206.000000	49.720635
1205.000000	49.725060
1204.000000	49.695613
1203.000000	49.698352
1202.000000	49.687691
1201.000000	49.664684
1200.000000	49.643764
1199.000000	49.641403
1198.000000	49.632961
1197.000000	49.626006
1196.000000	49.618433
1195.000000	49.601161
1194.000000	49.578311
1193.000000	49.574928
1192.000000	49.562620
1191.000000	49.555980
1190.000000	49.536973
1189.000000	49.485418
1188.000000	49.480349
1187.000000	49.497326
1186.000000	49.489188
1185.000000	49.481753
1184.000000	49.490201
1183.000000	49.492658
1182.000000	49.501764
1181.000000	49.516509
1180.000000	49.539491
1179.000000	49.552431
1178.000000	49.565415
1177.000000	49.586961
1176.000000	49.607255
1175.000000	49.625949
1174.000000	49.652204
1173.000000	49.677063
1172.000000	49.703710
1171.000000	49.723241
1170.000000	49.750625
1169.000000	49.775118
1168.000000	49.795920
1167.000000	49.837638
1166.000000	49.871833
1165.000000	49.898353
1164.000000	49.938567
1163.000000	49.968032
1162.000000	49.981035
1161.000000	50.013946
1160.000000	50.052873
1159.000000	50.079898
1158.000000	50.125432
1157.000000	50.157876
1156.000000	50.173599
1155.000000	50.171957
1154.000000	50.169623
1153.000000	50.184639
1152.000000	50.210341
1151.000000	50.254643
1150.000000	50.290881
1149.000000	50.321232
1148.000000	50.340148
1147.000000	50.356749
1146.000000	50.375319
1145.000000	50.398753
1144.000000	50.432727
1143.000000	50.456066
1142.000000	50.465741
1141.000000	50.477220
1140.000000	50.496323
1139.000000	50.484876
1138.000000	50.482620
1137.000000	50.491132
1136.000000	50.522909
1135.000000	50.530656
1134.000000	50.538815
1133.000000	50.570954
1132.000000	50.593737
1131.000000	50.595490
1130.000000	50.612341
1129.000000	50.617748
1128.000000	50.634797
1127.000000	50.615519
1126.000000	50.600231
1125.000000	50.597325
1124.000000	50.614883
1123.000000	50.621755
1122.000000	50.632762
1121.000000	50.635661
1120.000000	50.635997
1119.000000	50.636577
1118.000000	50.646803
1117.000000	50.650597
1116.000000	50.653251
1115.000000	50.660285
1114.000000	50.646664
1113.000000	50.645758
1112.000000	50.643379
1111.000000	50.662731
1110.000000	50.655373
1109.000000	50.658005
1108.000000	50.647650
1107.000000	50.650224
1106.000000	50.648329
1105.000000	50.663266
1104.000000	50.666083
1103.000000	50.645557
1102.000000	50.606494
1101.000000	50.596526
1100.000000	50.604310
1099.000000	50.604768
1098.000000	50.602086
1097.000000	50.609347
1096.000000	50.620302
1095.000000	50.617580
1094.000000	50.577565
1093.000000	50.571450
1092.000000	50.561315
1091.000000	50.562555
1090.000000	50.576979
1089.000000	50.573827
1088.000000	50.587258
1087.000000	50.550226
1086.000000	50.551353
1085.000000	50.547074
1084.000000	50.532572
1083.000000	50.542486
1082.000000	50.551387
1081.000000	50.540945
1080.000000	50.489979
1079.000000	50.474795
1078.000000	50.470261
1077.000000	50.484364
1076.000000	50.483995
1075.000000	50.478358
1074.000000	50.483385
1073.000000	50.433619
1072.000000	50.424426
1071.000000	50.432941
1070.000000	50.423229
1069.000000	50.436963
1068.000000	50.434123
1067.000000	50.439416
1066.000000	50.387021
1065.000000	50.371265
1064.000000	50.381692
1063.000000	50.373188
1062.000000	50.385172
1061.000000	50.381084
1060.000000	50.382120
1059.000000	50.318559
1058.000000	50.320122
1057.000000	50.306944
1056.000000	50.313071
1055.000000	50.311418
1054.000000	50.267628
1053.000000	50.249338
1052.000000	50.272976
1051.000000	50.269091
1050.000000	50.258336
1049.000000	50.225103
1048.000000	50.206100
1047.000000	50.223685
1046.000000	50.214533
1045.000000	50.209694
1044.000000	50.164026
1043.000000	50.170351
1042.000000	50.186909
1041.000000	50.168145
1040.000000	50.132829
1039.000000	50.127829
1038.000000	50.129072
1037.000000	50.116698
1036.000000	50.089379
1035.000000	50.079818
1034.000000	50.098296
1033.000000	50.099723
1032.000000	50.072149
1031.000000	50.051158
1030.000000	50.052120
1029.000000	50.053383
1028.000000	50.014813
1027.000000	50.004953
1026.000000	50.020100
1025.000000	49.968342
1024.000000	49.960568
1023.000000	49.984571
1022.000000	49.991872
1021.000000	49.940585
1020.000000	49.937863
1019.000000	49.940420
1018.000000	49.909475
1017.000000	49.902966
1016.000000	49.906910
1015.000000	49.871097
1014.000000	49.855585
1013.000000	49.856698
1012.000000	49.833788
1011.000000	49.847684
1010.000000	49.852660
1009.000000	49.807670
1008.000000	49.800314
1007.000000	49.815573
1006.000000	49.787762
1005.000000	49.778300
1004.000000	49.779904
1003.000000	49.759385
1002.000000	49.770111
1001.000000	49.760645
1000.000000	49.762386
999.000000	49.777743
998.000000	49.787186
997.000000	49.787509
996.000000	49.770052
995.000000	49.771210
994.000000	49.770430
993.000000	49.762048
992.000000	49.756117
991.000000	49.753694
990.000000	49.748240
989.000000	49.741994
988.000000	49.734293
987.000000	49.730958
986.000000	49.734727
985.000000	49.740001
984.000000	49.731147
983.000000	49.736942
982.000000	49.713379
981.000000	49.695236
980.000000	49.701190
979.000000	49.713313
978.000000	49.697358
977.000000	49.702828
976.000000	49.697895
975.000000	49.692455
974.000000	49.693213
973.000000	49.695771
972.000000	49.686302
971.000000	49.683390
970.000000	49.680854
969.000000	49.678784
968.000000	49.680869
967.000000	49.650939
966.000000	49.648851
965.000000	49.642677
964.000000	49.643414
963.000000	49.645315
962.000000	49.637131
961.000000	49.638029
960.000000	49.650121
959.000000	49.653297
958.000000	49.636079
957.000000	49.620279
956.000000	49.601528
955.000000	49.597973
954.000000	49.597950
953.000000	49.593556
952.000000	49.589020
951.000000	49.593007
950.000000	49.578878
949.000000	49.571498
948.000000	49.571416
947.000000	49.562099
946.000000	49.546504
945.000000	49.539227
944.000000	49.538419
943.000000	49.511351
942.000000	49.500876
941.000000	49.513616
940.000000	49.508776
939.000000	49.493250
938.000000	49.480123
937.000000	49.485648
936.000000	49.486112
935.000000	49.469067
934.000000	49.468263
933.000000	49.463191
932.000000	49.446221
931.000000	49.418350
930.000000	49.401287
929.000000	49.401600
928.000000	49.384226
927.000000	49.369688
926.000000	49.380714
925.000000	49.382711
924.000000	49.353377
923.000000	49.334309
922.000000	49.327726
921.000000	49.316813
920.000000	49.306932
919.000000	49.297212
918.000000	49.279727
917.000000	49.258680
916.000000	49.266663
915.000000	49.255586
914.000000	49.232545
913.000000	49.268933
912.000000	49.239649
911.000000	49.219500
910.000000	49.225442
909.000000	49.191007
908.000000	49.136491
907.000000	49.155356
906.000000	49.165273
905.000000	49.158726
904.000000	49.097739
903.000000	49.088793
902.000000	49.095401
901.000000	49.115099
900.000000	49.095309
899.000000	49.089032
898.000000	49.065587
897.000000	49.089540
896.000000	49.096482
895.000000	49.060742
894.000000	49.056576
893.000000	48.999427
892.000000	48.992018
891.000000	48.990318
890.000000	48.972615
889.000000	49.007272
888.000000	48.939233
887.000000	48.913033
886.000000	48.854963
885.000000	48.925139
884.000000	48.923687
883.000000	48.887358
882.000000	48.880528
881.000000	48.872944
880.000000	48.795201
879.000000	48.779523
878.000000	48.845417
877.000000	48.751664
876.000000	48.697337
875.000000	48.725237
874.000000	48.766927
873.000000	48.719040
872.000000	48.627739
871.000000	48.679954
870.000000	48.585474
869.000000	48.527076
868.000000	48.588417
867.000000	48.571132
866.000000	48.551131
865.000000	48.499511
864.000000	48.462632
863.000000	48.522623
862.000000	48.578489
861.000000	48.376520
860.000000	48.432341
859.000000	48.776150
858.000000	48.582606
857.000000	48.979403
856.000000	48.744124
855.000000	48.771762
854.000000	48.342619
853.000000	48.246099
852.000000	48.329905
851.000000	48.525327
850.000000	48.653180
849.000000	48.503316
848.000000	48.467266
847.000000	48.505138
846.000000	48.364308
845.000000	48.308884
844.000000	48.303438
843.000000	48.354811
842.000000	48.442441
841.000000	48.097836
840.000000	48.303936
839.000000	48.077203
838.000000	48.210331
837.000000	48.215461
836.000000	48.067703
835.000000	48.100080
834.000000	47.965858
833.000000	47.971173
832.000000	47.893881
831.000000	47.979895
830.000000	47.856441
829.000000	47.864398
828.000000	47.814260
827.000000	47.655034
826.000000	47.809961
825.000000	47.756936
824.000000	47.790132
823.000000	47.597382
822.000000	47.807595
821.000000	47.564511
820.000000	47.690298
819.000000	47.450714
818.000000	47.518474
817.000000	47.521170
816.000000	47.454304
815.000000	47.490261
814.000000	47.308868
813.000000	47.274084
812.000000	47.316007
811.000000	47.349382
810.000000	47.218325
809.000000	47.263066
808.000000	47.258354
807.000000	47.201500
806.000000	47.140685
805.000000	47.052986
804.000000	46.994322
803.000000	46.841896
802.000000	46.930979
801.000000	46.883368
800.000000	46.849524
799.000000	46.840289
798.000000	46.806242
797.000000	46.758417
796.000000	46.666590
795.000000	46.634102
794.000000	46.578247
793.000000	46.620497
792.000000	46.592420
791.000000	46.521931
790.000000	46.444973
789.000000	46.450824
788.000000	46.315767
787.000000	46.361547
786.000000	46.264419
785.000000	46.140159
784.000000	46.202423
783.000000	46.009074
782.000000	46.077380
781.000000	46.103506
780.000000	46.112589
779.000000	45.996915
778.000000	45.824804
777.000000	45.805991
776.000000	45.744260
775.000000	45.776996
774.000000	45.680639
773.000000	45.650575
772.000000	45.491295
771.000000	45.548508
770.000000	45.424460
769.000000	45.471112
768.000000	45.431361
767.000000	45.368018
766.000000	45.163065
765.000000	45.108553
764.000000	45.129978
763.000000	45.106635
762.000000	45.049132
761.000000	45.002249
760.000000	44.913521
759.000000	44.837492
758.000000	44.772726
757.000000	44.711623
756.000000	44.582916
755.000000	44.601423
754.000000	44.535756
753.000000	44.501654
752.000000	44.440420
751.000000	44.373539
750.000000	44.312062
749.000000	44.210267
748.000000	44.142317
747.000000	44.087181
746.000000	44.019363
745.000000	43.967387
744.000000	43.896961
743.000000	43.849192
742.000000	43.801810
741.000000	43.762556
740.000000	43.664355
739.000000	43.595750
738.000000	43.484278
737.000000	43.399752
736.000000	43.396882
735.000000	43.305439
734.000000	43.197897
733.000000	43.082314
732.000000	43.014466
731.000000	42.958682
730.000000	42.914812
729.000000	42.856626
728.000000	42.763373
727.000000	42.689809
726.000000	42.619249
725.000000	42.495887
724.000000	42.400480
723.000000	42.372013
722.000000	42.316901
721.000000	42.221532
720.000000	42.140595
719.000000	42.071531
718.000000	41.982081
717.000000	41.905630
716.000000	41.843253
715.000000	41.704227
714.000000	41.648417
713.000000	41.616165
712.000000	41.508566
711.000000	41.413348
710.000000	41.317102
709.000000	41.242279
708.000000	41.150055
707.000000	41.069882
706.000000	40.953864
705.000000	40.850932
704.000000	40.765572
703.000000	40.658628
702.000000	40.588775
701.000000	40.497126
700.000000	40.409949
699.000000	40.365123
698.000000	40.269750
697.000000	40.173524
696.000000	40.108363
695.000000	40.026684
694.000000	39.905002
693.000000	39.792208
692.000000	39.743158
691.000000	39.659939
690.000000	39.527202
689.000000	39.385692
688.000000	39.321160
687.000000	39.216278
686.000000	39.114683
685.000000	39.020118
684.000000	38.919246
683.000000	38.842488
682.000000	38.721926
681.000000	38.645224
680.000000	38.570871
679.000000	38.468150
678.000000	38.365059
677.000000	38.249779
676.000000	38.151438
675.000000	38.048425
674.000000	37.943824
673.000000	37.848341
672.000000	37.772481
671.000000	37.630682
670.000000	37.511290
669.000000	37.421385
668.000000	37.310433
667.000000	37.269062
666.000000	37.170948
665.000000	37.040762
664.000000	36.933817
663.000000	36.811286
662.000000	36.681236
661.000000	36.563270
660.000000	36.499831
659.000000	36.389881
658.000000	36.279234
657.000000	36.195390
656.000000	36.089441
655.000000	35.977570
654.000000	35.853592
653.000000	35.766159
652.000000	35.704348
651.000000	35.558502
650.000000	35.432503
649.000000	35.320116
648.000000	35.237421
647.000000	35.113010
646.000000	35.018154
645.000000	34.907353
644.000000	34.799353
643.000000	34.724625
642.000000	34.592698
641.000000	34.514610
640.000000	34.366655
639.000000	34.264248
638.000000	34.151965
637.000000	34.025456
636.000000	33.916654
635.000000	33.835197
634.000000	33.724138
633.000000	33.586729
632.000000	33.475791
631.000000	33.368861
630.000000	33.275683
629.000000	33.174434
628.000000	33.071954
627.000000	32.943814
626.000000	32.838135
625.000000	32.723731
624.000000	32.616238
623.000000	32.481442
622.000000	32.422736
621.000000	32.311114
620.000000	32.164003
619.000000	32.048350
618.000000	31.979978
617.000000	31.864660
616.000000	31.758412
615.000000	31.650838
614.000000	31.516934
613.000000	31.449484
612.000000	31.326988
611.000000	31.230015
610.000000	31.076473
609.000000	30.995115
608.000000	30.877067
607.000000	30.782073
606.000000	30.665547
605.000000	30.540176
604.000000	30.431858
603.000000	30.313835
602.000000	30.177733
601.000000	30.120584
600.000000	29.986428
599.000000	29.921350
598.000000	29.773857
597.000000	29.685903
596.000000	29.567484
595.000000	29.428909
594.000000	29.331600
593.000000	29.222220
592.000000	29.104283
591.000000	28.994428
590.000000	28.889130
589.000000	28.774040
588.000000	28.656802
587.000000	28.530631
586.000000	28.463140
585.000000	28.339182
584.000000	28.243061
583.000000	28.111999
582.000000	28.036849
581.000000	27.890749
580.000000	27.801027
579.000000	27.686001
578.000000	27.575565
577.000000	27.448105
576.000000	27.359302
575.000000	27.226335
574.000000	27.137583
573.000000	27.025182
572.000000	26.898102
571.000000	26.785547
570.000000	26.677234
569.000000	26.592096
568.000000	26.454113
567.000000	26.334911
566.000000	26.220973
565.000000	26.116786
564.000000	26.025438
563.000000	25.907816
562.000000	25.768698
561.000000	25.611987
560.000000	25.510947
559.000000	25.413453
558.000000	25.306813
557.000000	25.197464
556.000000	25.094001
555.000000	24.948874
554.000000	24.828981
553.000000	24.743059
552.000000	24.618052
551.000000	24.505461
550.000000	24.410104
549.000000	24.283291
548.000000	24.172903
547.000000	24.072280
546.000000	23.940368
545.000000	23.833291
544.000000	23.714389
543.000000	23.617659
542.000000	23.457499
541.000000	23.373401
540.000000	23.257627
539.000000	23.146006
538.000000	23.046210
537.000000	22.921445
536.000000	22.810612
535.000000	22.686998
534.000000	22.545227
533.000000	22.439843
532.000000	22.347243
531.000000	22.217403
530.000000	22.102827
529.000000	21.998755
528.000000	21.874567
527.000000	21.750268
526.000000	21.637504
525.000000	21.528434
524.000000	21.390206
523.000000	21.263862
522.000000	21.159069
521.000000	21.052534
520.000000	20.925538
519.000000	20.808032
518.000000	20.680966
517.000000	20.595589
516.000000	20.464851
515.000000	20.359580
514.000000	20.247279
513.000000	20.120533
512.000000	19.999517
511.000000	19.912439
510.000000	19.784696
509.000000	19.660285
508.000000	19.549198
507.000000	19.433514
506.000000	19.335677
505.000000	19.225589
504.000000	19.099278
503.000000	18.980124
502.000000	18.862006
501.000000	18.726875
500.000000	18.618960
499.000000	18.519159
498.000000	18.412473
497.000000	18.283311
496.000000	18.153538
495.000000	18.046106
494.000000	17.936661
493.000000	17.799938
492.000000	17.673046
491.000000	17.572950
490.000000	17.466125
489.000000	17.328416
488.000000	17.224855
487.000000	17.110806
486.000000	16.995989
485.000000	16.866917
484.000000	16.745466
483.000000	16.642428
482.000000	16.534582
481.000000	16.420102
480.000000	16.309036
479.000000	16.218850
478.000000	16.103704
477.000000	15.981680
476.000000	15.867267
475.000000	15.763706
474.000000	15.661154
473.000000	15.553283
472.000000	15.439102
471.000000	15.326591
470.000000	15.206859
469.000000	15.098722
468.000000	15.002899
467.000000	14.900046
466.000000	14.789763
465.000000	14.682869
464.000000	14.577964
463.000000	14.473661
462.000000	14.369987
461.000000	14.257466
460.000000	14.148812
459.000000	14.033729
458.000000	13.921369
457.000000	13.819109
456.000000	13.700422
455.000000	13.592499
454.000000	13.489162
453.000000	13.375900
452.000000	13.261033
451.000000	13.143863
450.000000	13.055613
449.000000	12.957204
448.000000	12.835273
447.000000	12.722794
446.000000	12.634303
445.000000	12.533878
444.000000	12.431615
443.000000	12.335253
442.000000	12.230994
441.000000	12.149177
440.000000	12.052769
439.000000	11.942365
438.000000	11.854076
437.000000	11.755235
436.000000	11.648374
435.000000	11.544784
434.000000	11.450113
433.000000	11.371964
432.000000	11.291051
431.000000	11.198316
430.000000	11.120382
429.000000	11.023047
428.000000	10.918400
427.000000	10.829929
426.000000	10.741915
425.000000	10.659643
424.000000	10.573494
423.000000	10.487576
422.000000	10.393919
421.000000	10.308663
420.000000	10.236791
419.000000	10.159623
418.000000	10.078577
417.000000	9.983142
416.000000	9.906544
415.000000	9.837646
414.000000	9.745365
413.000000	9.667813
412.000000	9.594500
411.000000	9.522337
410.000000	9.457040
409.000000	9.374464
408.000000	9.298849
407.000000	9.226573
406.000000	9.171579
405.000000	9.092920
404.000000	9.034206
403.000000	8.963940
402.000000	8.896525
401.000000	8.827838
400.000000	8.755557
399.000000	8.686450
398.000000	8.621644
397.000000	8.580826
396.000000	8.522676
395.000000	8.460777
394.000000	8.383090
393.000000	8.329923
392.000000	8.284797
391.000000	8.236911
390.000000	8.184896
389.000000	8.115147
388.000000	8.055552
387.000000	8.016213
386.000000	7.944268
385.000000	7.897458
384.000000	7.865266
383.000000	7.822725
382.000000	7.772005
381.000000	7.709626
380.000000	7.671001
379.000000	7.648199
378.000000	7.558659
377.000000	7.528622
376.000000	7.481893
375.000000	7.495578
374.000000	7.445063
373.000000	7.384852
372.000000	7.357861
371.000000	7.339259
370.000000	7.320375
369.000000	7.217990
368.000000	7.170236
367.000000	7.186648
366.000000	7.159270
365.000000	7.152504
364.000000	7.111336
363.000000	7.049885
362.000000	7.047941
361.000000	6.964052
360.000000	6.973098
359.000000	6.974293
358.000000	6.923528
357.000000	6.902919
356.000000	6.882399
355.000000	6.854228
354.000000	6.861565
353.000000	6.794213
352.000000	6.802744
351.000000	6.763389
350.000000	6.726311
349.000000	6.713079
348.000000	6.752565
347.000000	6.729385
346.000000	6.680346
345.000000	6.648409
344.000000	6.587838
343.000000	6.624725
342.000000	6.619553
341.000000	6.532805
340.000000	6.570892
339.000000	6.556731
338.000000	6.591235
337.000000	6.507872
336.000000	6.547724
335.000000	6.533074
334.000000	6.546995
333.000000	6.492234
332.000000	6.510232
331.000000	6.506798
330.000000	6.468477
329.000000	6.441149
328.000000	6.491729
327.000000	6.437158
326.000000	6.456162
325.000000	6.450379
324.000000	6.447271
323.000000	6.500175
322.000000	6.504668
321.000000	6.446155
320.000000	6.454288
319.000000	6.434353
318.000000	6.424622
317.000000	6.450611
316.000000	6.473254
315.000000	6.448526
314.000000	6.493517
313.000000	6.473508
312.000000	6.489256
311.000000	6.484123
310.000000	6.502852
309.000000	6.507484
308.000000	6.504089
307.000000	6.512070
306.000000	6.534244
305.000000	6.546127
304.000000	6.563887
303.000000	6.572863
302.000000	6.572119
301.000000	6.602422
300.000000	6.601760
299.000000	6.647418
298.000000	6.619900
297.000000	6.672181
296.000000	6.662013
295.000000	6.715846
294.000000	6.684765
293.000000	6.757525
292.000000	6.758639
291.000000	6.731354
290.000000	6.782151
289.000000	6.799444
288.000000	6.834225
287.000000	6.858425
286.000000	6.928674
285.000000	6.939547
284.000000	6.943646
283.000000	6.955923
282.000000	6.993777
281.000000	7.043123
280.000000	7.046777
279.000000	7.094508
278.000000	7.098362
277.000000	7.147323
276.000000	7.194363
275.000000	7.234608
274.000000	7.221015
273.000000	7.282705
272.000000	7.333951
271.000000	7.354229
270.000000	7.380184
269.000000	7.437709
268.000000	7.477373
267.000000	7.537201
266.000000	7.597781
265.000000	7.628585
264.000000	7.638965
263.000000	7.681636
262.000000	7.755565
261.000000	7.835366
260.000000	7.932738
259.000000	8.008691
258.000000	8.069134
257.000000	8.133242
256.000000	8.223511
255.000000	8.265524
254.000000	8.345923
253.000000	8.460616
252.000000	8.560814
251.000000	8.643442
250.000000	8.737931
249.000000	8.881563
248.000000	8.998578
247.000000	9.099406
246.000000	9.215184
245.000000	9.342134
244.000000	9.452742
243.000000	9.568163
242.000000	9.702177
241.000000	9.866034
240.000000	9.974463
239.000000	10.092547
238.000000	10.237120
237.000000	10.430204
236.000000	10.549226
235.000000	10.664883
234.000000	10.807594
233.000000	10.900911
232.000000	11.051558
231.000000	11.238181
230.000000	11.382234
229.000000	11.482050
228.000000	11.617908
227.000000	11.812900
226.000000	11.935128
225.000000	11.973803
224.000000	12.135586
223.000000	12.377276
222.000000	12.557255
221.000000	12.707130
220.000000	12.845355
219.000000	13.087810
218.000000	13.230254
217.000000	13.335962
216.000000	13.538822
215.000000	13.888756
214.000000	14.195587
213.000000	14.392604
212.000000	14.634742
211.000000	15.014696
210.000000	15.376955
209.000000	15.710878
208.000000	16.109454
207.000000	16.444796
206.000000	16.846001
205.000000	17.289961
204.000000	17.853224
203.000000	18.440103
202.000000	19.051893
201.000000	19.802875
200.000000	20.522098
