PE UV       SUBTECH     SPECTRUM    ASCII       PEDS        4.00        
   -1
RTmsfkat91.Sample.asc
18/03/14
11:35:50.00
18/03/14
11:35:50.00
Administrator

200.000000
1
Lambda 750
750N8071901
PerkinElmer UV WinLab 6.0.4.0738 / 1.61.00 Lambda 900

0
0
3350/servo 860.8/2
0
0
UV/VIS
1
1
1
CommonBeamDepol,150mm sphere / downward view
0
0
0
0
Program
Program
3350/servo 860.8/2
3350/0.2 860.8/0.2
3350/0.2 860.8/0.2
0
1
 
 
 
0
 
860.8
319.2
860.8
Front
100
on
 
 
0
0
0
 
0
 
 
 
0
 
 
0
0
0
0
0
 
 
 
 
0
0


0
0
#HDR
-1
-1
#GR
nm
%R
1.0
0.0
2350.000000
-1.000000
2151
8
50.553022
7.369942
#DATA
2350.000000	28.495538
2349.000000	28.259892
2348.000000	28.156992
2347.000000	28.814435
2346.000000	28.495599
2345.000000	28.512851
2344.000000	28.686724
2343.000000	28.105213
2342.000000	28.216910
2341.000000	28.570218
2340.000000	28.650746
2339.000000	29.063928
2338.000000	28.956913
2337.000000	28.758078
2336.000000	29.017988
2335.000000	29.126113
2334.000000	29.122241
2333.000000	29.224245
2332.000000	29.497466
2331.000000	29.397207
2330.000000	29.114042
2329.000000	29.123414
2328.000000	29.064878
2327.000000	28.883529
2326.000000	29.141939
2325.000000	29.142840
2324.000000	29.090593
2323.000000	28.794123
2322.000000	28.793857
2321.000000	28.854944
2320.000000	28.970345
2319.000000	28.679768
2318.000000	28.616951
2317.000000	28.720666
2316.000000	28.771207
2315.000000	28.766023
2314.000000	28.671148
2313.000000	28.346453
2312.000000	28.360452
2311.000000	28.486265
2310.000000	28.603777
2309.000000	28.562981
2308.000000	28.100922
2307.000000	28.096320
2306.000000	28.239293
2305.000000	28.166573
2304.000000	28.382682
2303.000000	28.189902
2302.000000	28.061591
2301.000000	28.025082
2300.000000	27.936568
2299.000000	27.653762
2298.000000	27.765230
2297.000000	27.802203
2296.000000	27.911820
2295.000000	27.799711
2294.000000	27.728322
2293.000000	27.540796
2292.000000	27.448674
2291.000000	27.484223
2290.000000	27.577133
2289.000000	27.405278
2288.000000	27.418106
2287.000000	27.445717
2286.000000	27.338316
2285.000000	27.292564
2284.000000	27.331986
2283.000000	27.235612
2282.000000	27.184099
2281.000000	27.259569
2280.000000	27.263489
2279.000000	27.327902
2278.000000	27.243890
2277.000000	27.394161
2276.000000	27.497741
2275.000000	27.515594
2274.000000	27.450635
2273.000000	27.448734
2272.000000	27.554329
2271.000000	27.472239
2270.000000	27.561873
2269.000000	27.779738
2268.000000	27.713609
2267.000000	27.635705
2266.000000	27.613465
2265.000000	27.826325
2264.000000	28.021387
2263.000000	28.124937
2262.000000	28.155032
2261.000000	28.192620
2260.000000	28.358488
2259.000000	28.483046
2258.000000	28.514053
2257.000000	28.721022
2256.000000	28.922546
2255.000000	28.956674
2254.000000	29.059351
2253.000000	29.075893
2252.000000	29.216878
2251.000000	29.355657
2250.000000	29.648819
2249.000000	29.897586
2248.000000	29.812926
2247.000000	29.907500
2246.000000	30.147543
2245.000000	30.293748
2244.000000	30.403559
2243.000000	30.541872
2242.000000	30.616626
2241.000000	30.734395
2240.000000	30.854379
2239.000000	30.861127
2238.000000	30.861541
2237.000000	30.998133
2236.000000	31.075520
2235.000000	31.140890
2234.000000	31.298860
2233.000000	31.272240
2232.000000	31.287155
2231.000000	31.320886
2230.000000	31.452474
2229.000000	31.533358
2228.000000	31.363203
2227.000000	31.390151
2226.000000	31.488246
2225.000000	31.401571
2224.000000	31.296904
2223.000000	31.356612
2222.000000	31.406229
2221.000000	31.382326
2220.000000	31.382884
2219.000000	31.389369
2218.000000	31.263288
2217.000000	31.186111
2216.000000	31.213438
2215.000000	31.196406
2214.000000	31.183620
2213.000000	31.198513
2212.000000	31.111406
2211.000000	31.067004
2210.000000	30.971938
2209.000000	30.940342
2208.000000	30.916905
2207.000000	31.012702
2206.000000	30.909847
2205.000000	30.803695
2204.000000	30.782649
2203.000000	30.769986
2202.000000	30.725640
2201.000000	30.682269
2200.000000	30.539077
2199.000000	30.420626
2198.000000	30.554115
2197.000000	30.523029
2196.000000	30.387861
2195.000000	30.346775
2194.000000	30.232281
2193.000000	30.029645
2192.000000	30.211572
2191.000000	30.231971
2190.000000	30.046035
2189.000000	30.090134
2188.000000	30.012419
2187.000000	29.985572
2186.000000	29.934475
2185.000000	29.989364
2184.000000	29.973728
2183.000000	30.011402
2182.000000	30.005360
2181.000000	29.978981
2180.000000	29.817574
2179.000000	29.919149
2178.000000	29.779190
2177.000000	29.915117
2176.000000	29.930869
2175.000000	30.003906
2174.000000	29.965433
2173.000000	29.901202
2172.000000	30.088093
2171.000000	30.132412
2170.000000	30.189620
2169.000000	30.242752
2168.000000	30.344377
2167.000000	30.377061
2166.000000	30.288762
2165.000000	30.330261
2164.000000	30.424252
2163.000000	30.449936
2162.000000	30.701763
2161.000000	30.904138
2160.000000	30.895484
2159.000000	30.819913
2158.000000	31.005458
2157.000000	30.905522
2156.000000	31.233913
2155.000000	31.427626
2154.000000	31.331351
2153.000000	31.480599
2152.000000	31.583783
2151.000000	31.624370
2150.000000	31.707526
2149.000000	31.839280
2148.000000	32.031609
2147.000000	32.133674
2146.000000	32.158911
2145.000000	32.357335
2144.000000	32.321806
2143.000000	32.427284
2142.000000	32.619050
2141.000000	32.646612
2140.000000	32.599547
2139.000000	32.791431
2138.000000	32.834717
2137.000000	32.912847
2136.000000	33.047278
2135.000000	32.922827
2134.000000	33.168386
2133.000000	33.108158
2132.000000	33.360436
2131.000000	33.366618
2130.000000	33.342699
2129.000000	33.407306
2128.000000	33.425250
2127.000000	33.398064
2126.000000	33.525977
2125.000000	33.569753
2124.000000	33.507936
2123.000000	33.312674
2122.000000	33.480343
2121.000000	33.530528
2120.000000	33.521819
2119.000000	33.572739
2118.000000	33.675167
2117.000000	33.659641
2116.000000	33.653041
2115.000000	33.696681
2114.000000	33.680697
2113.000000	33.823451
2112.000000	33.686011
2111.000000	33.824777
2110.000000	33.815792
2109.000000	33.723738
2108.000000	33.781211
2107.000000	33.782452
2106.000000	33.869355
2105.000000	33.766951
2104.000000	33.775625
2103.000000	33.819632
2102.000000	33.773904
2101.000000	33.879439
2100.000000	33.878817
2099.000000	33.865284
2098.000000	33.834408
2097.000000	33.715460
2096.000000	33.748160
2095.000000	33.646534
2094.000000	33.753089
2093.000000	33.824451
2092.000000	33.799613
2091.000000	33.678277
2090.000000	33.633013
2089.000000	33.652261
2088.000000	33.648275
2087.000000	33.624615
2086.000000	33.690174
2085.000000	33.587927
2084.000000	33.576729
2083.000000	33.549853
2082.000000	33.465459
2081.000000	33.398176
2080.000000	33.367195
2079.000000	33.296794
2078.000000	33.269720
2077.000000	33.239101
2076.000000	33.121098
2075.000000	32.948696
2074.000000	32.910040
2073.000000	32.935428
2072.000000	32.816636
2071.000000	32.817502
2070.000000	32.669538
2069.000000	32.545881
2068.000000	32.465773
2067.000000	32.363088
2066.000000	32.236535
2065.000000	32.160624
2064.000000	32.072815
2063.000000	31.871215
2062.000000	31.800633
2061.000000	31.740204
2060.000000	31.576355
2059.000000	31.514863
2058.000000	31.460798
2057.000000	31.358987
2056.000000	31.241395
2055.000000	31.095133
2054.000000	31.004752
2053.000000	30.967707
2052.000000	30.886380
2051.000000	30.769915
2050.000000	30.700343
2049.000000	30.686368
2048.000000	30.560761
2047.000000	30.461937
2046.000000	30.491083
2045.000000	30.458874
2044.000000	30.420856
2043.000000	30.467870
2042.000000	30.425184
2041.000000	30.440547
2040.000000	30.491075
2039.000000	30.429640
2038.000000	30.436739
2037.000000	30.517233
2036.000000	30.558527
2035.000000	30.635593
2034.000000	30.702513
2033.000000	30.686713
2032.000000	30.768834
2031.000000	30.866726
2030.000000	30.899525
2029.000000	31.008475
2028.000000	31.093638
2027.000000	31.120103
2026.000000	31.209077
2025.000000	31.243708
2024.000000	31.274731
2023.000000	31.330178
2022.000000	31.341103
2021.000000	31.323956
2020.000000	31.351396
2019.000000	31.374633
2018.000000	31.355402
2017.000000	31.356528
2016.000000	31.317072
2015.000000	31.265650
2014.000000	31.250734
2013.000000	31.239799
2012.000000	31.195901
2011.000000	31.174732
2010.000000	31.123759
2009.000000	31.010576
2008.000000	30.935876
2007.000000	30.872419
2006.000000	30.872083
2005.000000	30.803008
2004.000000	30.692499
2003.000000	30.641589
2002.000000	30.572166
2001.000000	30.489874
2000.000000	30.376348
1999.000000	30.304280
1998.000000	30.282978
1997.000000	30.205715
1996.000000	30.078382
1995.000000	30.012062
1994.000000	29.948613
1993.000000	29.865862
1992.000000	29.774080
1991.000000	29.714055
1990.000000	29.662785
1989.000000	29.585809
1988.000000	29.492007
1987.000000	29.424356
1986.000000	29.310985
1985.000000	29.230897
1984.000000	29.176743
1983.000000	29.074244
1982.000000	28.996607
1981.000000	28.967019
1980.000000	28.905637
1979.000000	28.801691
1978.000000	28.731295
1977.000000	28.626816
1976.000000	28.542496
1975.000000	28.478031
1974.000000	28.428203
1973.000000	28.387313
1972.000000	28.324280
1971.000000	28.243698
1970.000000	28.131973
1969.000000	28.104388
1968.000000	28.039883
1967.000000	27.944085
1966.000000	27.912913
1965.000000	27.839075
1964.000000	27.804928
1963.000000	27.750733
1962.000000	27.599833
1961.000000	27.512661
1960.000000	27.515172
1959.000000	27.421461
1958.000000	27.416101
1957.000000	27.397587
1956.000000	27.337501
1955.000000	27.263831
1954.000000	27.236518
1953.000000	27.217590
1952.000000	27.145760
1951.000000	27.120765
1950.000000	27.120781
1949.000000	27.059059
1948.000000	27.067809
1947.000000	27.009852
1946.000000	27.048854
1945.000000	27.057885
1944.000000	27.030114
1943.000000	27.080094
1942.000000	27.078894
1941.000000	27.067550
1940.000000	27.071559
1939.000000	27.155240
1938.000000	27.210154
1937.000000	27.288600
1936.000000	27.278937
1935.000000	27.278053
1934.000000	27.414465
1933.000000	27.477233
1932.000000	27.510602
1931.000000	27.669274
1930.000000	27.775064
1929.000000	27.867732
1928.000000	28.042930
1927.000000	28.134639
1926.000000	28.298459
1925.000000	28.445593
1924.000000	28.574202
1923.000000	28.811833
1922.000000	28.949102
1921.000000	29.168584
1920.000000	29.312773
1919.000000	29.480562
1918.000000	29.743202
1917.000000	29.957598
1916.000000	30.088597
1915.000000	30.399997
1914.000000	30.726029
1913.000000	31.107124
1912.000000	31.213234
1911.000000	31.517386
1910.000000	31.765190
1909.000000	32.076573
1908.000000	32.345361
1907.000000	32.735667
1906.000000	33.031417
1905.000000	33.441647
1904.000000	33.791649
1903.000000	34.117696
1902.000000	34.516250
1901.000000	34.910277
1900.000000	35.282690
1899.000000	35.680845
1898.000000	36.063439
1897.000000	36.377403
1896.000000	36.771639
1895.000000	37.122481
1894.000000	37.505670
1893.000000	37.887598
1892.000000	38.284505
1891.000000	38.569852
1890.000000	38.930835
1889.000000	39.255462
1888.000000	39.531210
1887.000000	39.858095
1886.000000	40.172548
1885.000000	40.489792
1884.000000	40.731782
1883.000000	41.041018
1882.000000	41.305447
1881.000000	41.596224
1880.000000	41.799994
1879.000000	42.000703
1878.000000	42.218511
1877.000000	42.532669
1876.000000	42.724405
1875.000000	42.971682
1874.000000	43.153389
1873.000000	43.301697
1872.000000	43.438719
1871.000000	43.588066
1870.000000	43.802781
1869.000000	43.946978
1868.000000	44.026994
1867.000000	44.129403
1866.000000	44.235692
1865.000000	44.307175
1864.000000	44.325504
1863.000000	44.412646
1862.000000	44.445781
1861.000000	44.507907
1860.000000	44.578037
1859.000000	44.617648
1858.000000	44.659865
1857.000000	44.691867
1856.000000	44.711980
1855.000000	44.711104
1854.000000	44.737802
1853.000000	44.781132
1852.000000	44.792561
1851.000000	44.835480
1850.000000	44.817657
1849.000000	44.819377
1848.000000	44.828558
1847.000000	44.852476
1846.000000	44.829290
1845.000000	44.824057
1844.000000	44.828067
1843.000000	44.808111
1842.000000	44.777735
1841.000000	44.762598
1840.000000	44.737510
1839.000000	44.707558
1838.000000	44.693801
1837.000000	44.661317
1836.000000	44.634757
1835.000000	44.574522
1834.000000	44.546284
1833.000000	44.531203
1832.000000	44.501875
1831.000000	44.461161
1830.000000	44.432480
1829.000000	44.384875
1828.000000	44.357820
1827.000000	44.343475
1826.000000	44.303156
1825.000000	44.260861
1824.000000	44.251136
1823.000000	44.227130
1822.000000	44.173953
1821.000000	44.154842
1820.000000	44.155094
1819.000000	44.100361
1818.000000	44.075659
1817.000000	44.072370
1816.000000	44.036021
1815.000000	43.988487
1814.000000	43.949773
1813.000000	43.934862
1812.000000	43.916721
1811.000000	43.896133
1810.000000	43.866358
1809.000000	43.835876
1808.000000	43.813907
1807.000000	43.777496
1806.000000	43.753592
1805.000000	43.734939
1804.000000	43.713168
1803.000000	43.700067
1802.000000	43.669662
1801.000000	43.642384
1800.000000	43.618471
1799.000000	43.599544
1798.000000	43.580001
1797.000000	43.564690
1796.000000	43.552135
1795.000000	43.529826
1794.000000	43.535339
1793.000000	43.499618
1792.000000	43.462564
1791.000000	43.478914
1790.000000	43.474002
1789.000000	43.461761
1788.000000	43.443188
1787.000000	43.440359
1786.000000	43.414160
1785.000000	43.395005
1784.000000	43.374793
1783.000000	43.348430
1782.000000	43.324391
1781.000000	43.299365
1780.000000	43.274404
1779.000000	43.256330
1778.000000	43.226708
1777.000000	43.197401
1776.000000	43.147563
1775.000000	43.107760
1774.000000	43.075754
1773.000000	43.058028
1772.000000	43.040020
1771.000000	42.984522
1770.000000	42.936587
1769.000000	42.903710
1768.000000	42.876717
1767.000000	42.834472
1766.000000	42.807316
1765.000000	42.792301
1764.000000	42.747033
1763.000000	42.695540
1762.000000	42.661999
1761.000000	42.636631
1760.000000	42.585036
1759.000000	42.556045
1758.000000	42.512144
1757.000000	42.490247
1756.000000	42.480682
1755.000000	42.441929
1754.000000	42.390186
1753.000000	42.373923
1752.000000	42.347687
1751.000000	42.304716
1750.000000	42.253897
1749.000000	42.257004
1748.000000	42.206428
1747.000000	42.150813
1746.000000	42.131134
1745.000000	42.051565
1744.000000	42.032747
1743.000000	42.009364
1742.000000	41.966827
1741.000000	41.925298
1740.000000	41.933783
1739.000000	41.900136
1738.000000	41.855190
1737.000000	41.838407
1736.000000	41.840473
1735.000000	41.795010
1734.000000	41.801753
1733.000000	41.799163
1732.000000	41.795235
1731.000000	41.805962
1730.000000	41.822361
1729.000000	41.849539
1728.000000	41.888014
1727.000000	41.914965
1726.000000	41.977270
1725.000000	42.029058
1724.000000	42.054935
1723.000000	42.100643
1722.000000	42.189756
1721.000000	42.259695
1720.000000	42.339066
1719.000000	42.416369
1718.000000	42.442416
1717.000000	42.518880
1716.000000	42.575320
1715.000000	42.652204
1714.000000	42.703640
1713.000000	42.777570
1712.000000	42.794903
1711.000000	42.879260
1710.000000	42.946582
1709.000000	42.947618
1708.000000	43.001395
1707.000000	43.019697
1706.000000	43.013101
1705.000000	43.066728
1704.000000	43.081529
1703.000000	43.077639
1702.000000	43.096216
1701.000000	43.104738
1700.000000	43.134396
1699.000000	43.110198
1698.000000	43.136601
1697.000000	43.170930
1696.000000	43.177414
1695.000000	43.202069
1694.000000	43.237661
1693.000000	43.282987
1692.000000	43.270304
1691.000000	43.319676
1690.000000	43.377966
1689.000000	43.426248
1688.000000	43.502319
1687.000000	43.575449
1686.000000	43.646888
1685.000000	43.732655
1684.000000	43.837907
1683.000000	43.927254
1682.000000	44.038661
1681.000000	44.147661
1680.000000	44.269474
1679.000000	44.378171
1678.000000	44.477686
1677.000000	44.569655
1676.000000	44.683905
1675.000000	44.811700
1674.000000	44.904152
1673.000000	45.032503
1672.000000	45.133155
1671.000000	45.237248
1670.000000	45.332524
1669.000000	45.454849
1668.000000	45.544523
1667.000000	45.621912
1666.000000	45.667096
1665.000000	45.742433
1664.000000	45.797178
1663.000000	45.823761
1662.000000	45.879413
1661.000000	45.942455
1660.000000	45.964518
1659.000000	46.003832
1658.000000	46.040105
1657.000000	46.076711
1656.000000	46.085049
1655.000000	46.122245
1654.000000	46.144205
1653.000000	46.133116
1652.000000	46.142110
1651.000000	46.127960
1650.000000	46.136390
1649.000000	46.133567
1648.000000	46.097229
1647.000000	46.107313
1646.000000	46.099360
1645.000000	46.079098
1644.000000	46.075264
1643.000000	46.059444
1642.000000	46.037397
1641.000000	46.010039
1640.000000	45.985628
1639.000000	45.964175
1638.000000	45.944519
1637.000000	45.930727
1636.000000	45.895863
1635.000000	45.881437
1634.000000	45.864547
1633.000000	45.814333
1632.000000	45.797391
1631.000000	45.759601
1630.000000	45.720520
1629.000000	45.679993
1628.000000	45.640446
1627.000000	45.622938
1626.000000	45.589710
1625.000000	45.556291
1624.000000	45.522344
1623.000000	45.480304
1622.000000	45.436955
1621.000000	45.398007
1620.000000	45.358695
1619.000000	45.307875
1618.000000	45.262062
1617.000000	45.223422
1616.000000	45.194785
1615.000000	45.150577
1614.000000	45.109468
1613.000000	45.057535
1612.000000	45.014168
1611.000000	44.981364
1610.000000	44.927200
1609.000000	44.877620
1608.000000	44.840905
1607.000000	44.786818
1606.000000	44.727238
1605.000000	44.687500
1604.000000	44.642564
1603.000000	44.590900
1602.000000	44.550500
1601.000000	44.511286
1600.000000	44.463354
1599.000000	44.408926
1598.000000	44.357713
1597.000000	44.320036
1596.000000	44.280752
1595.000000	44.241164
1594.000000	44.209327
1593.000000	44.168814
1592.000000	44.127916
1591.000000	44.074795
1590.000000	44.035118
1589.000000	44.006398
1588.000000	43.961617
1587.000000	43.924964
1586.000000	43.886705
1585.000000	43.853528
1584.000000	43.828475
1583.000000	43.795299
1582.000000	43.755665
1581.000000	43.712427
1580.000000	43.678956
1579.000000	43.651171
1578.000000	43.631047
1577.000000	43.585872
1576.000000	43.539362
1575.000000	43.515088
1574.000000	43.470211
1573.000000	43.421742
1572.000000	43.400925
1571.000000	43.373490
1570.000000	43.338211
1569.000000	43.320433
1568.000000	43.278602
1567.000000	43.252174
1566.000000	43.227173
1565.000000	43.193730
1564.000000	43.177620
1563.000000	43.156020
1562.000000	43.129506
1561.000000	43.102093
1560.000000	43.084313
1559.000000	43.066042
1558.000000	43.036383
1557.000000	43.002344
1556.000000	42.996550
1555.000000	42.982997
1554.000000	42.964012
1553.000000	42.945671
1552.000000	42.919066
1551.000000	42.887159
1550.000000	42.847524
1549.000000	42.815200
1548.000000	42.789974
1547.000000	42.739063
1546.000000	42.708594
1545.000000	42.660254
1544.000000	42.586647
1543.000000	42.522863
1542.000000	42.477309
1541.000000	42.409688
1540.000000	42.351104
1539.000000	42.297545
1538.000000	42.225774
1537.000000	42.168488
1536.000000	42.105514
1535.000000	42.047046
1534.000000	41.966619
1533.000000	41.918003
1532.000000	41.870402
1531.000000	41.808348
1530.000000	41.746075
1529.000000	41.677602
1528.000000	41.638982
1527.000000	41.592705
1526.000000	41.543340
1525.000000	41.502191
1524.000000	41.460113
1523.000000	41.433319
1522.000000	41.378923
1521.000000	41.350418
1520.000000	41.340925
1519.000000	41.313251
1518.000000	41.280990
1517.000000	41.257188
1516.000000	41.222451
1515.000000	41.193925
1514.000000	41.175142
1513.000000	41.153756
1512.000000	41.173164
1511.000000	41.196822
1510.000000	41.188660
1509.000000	41.188324
1508.000000	41.169006
1507.000000	41.129505
1506.000000	41.098919
1505.000000	41.077064
1504.000000	41.061304
1503.000000	41.071130
1502.000000	41.051763
1501.000000	41.021400
1500.000000	41.018665
1499.000000	41.015453
1498.000000	41.007963
1497.000000	41.013744
1496.000000	41.008171
1495.000000	41.015706
1494.000000	41.006703
1493.000000	41.021507
1492.000000	41.023073
1491.000000	41.036365
1490.000000	41.051239
1489.000000	41.068268
1488.000000	41.056857
1487.000000	41.080527
1486.000000	41.093120
1485.000000	41.101381
1484.000000	41.128208
1483.000000	41.153981
1482.000000	41.153759
1481.000000	41.183205
1480.000000	41.189772
1479.000000	41.202439
1478.000000	41.221551
1477.000000	41.243451
1476.000000	41.268863
1475.000000	41.288385
1474.000000	41.293653
1473.000000	41.304957
1472.000000	41.325815
1471.000000	41.372466
1470.000000	41.392534
1469.000000	41.398435
1468.000000	41.411493
1467.000000	41.439387
1466.000000	41.468023
1465.000000	41.505620
1464.000000	41.551987
1463.000000	41.559199
1462.000000	41.584745
1461.000000	41.621655
1460.000000	41.654101
1459.000000	41.689960
1458.000000	41.705741
1457.000000	41.733090
1456.000000	41.779350
1455.000000	41.819788
1454.000000	41.875531
1453.000000	41.893173
1452.000000	41.918332
1451.000000	41.983230
1450.000000	42.022870
1449.000000	42.072330
1448.000000	42.109908
1447.000000	42.146477
1446.000000	42.202116
1445.000000	42.239985
1444.000000	42.313872
1443.000000	42.387405
1442.000000	42.440319
1441.000000	42.493617
1440.000000	42.547415
1439.000000	42.601634
1438.000000	42.670815
1437.000000	42.737352
1436.000000	42.806223
1435.000000	42.869296
1434.000000	42.958175
1433.000000	43.038555
1432.000000	43.128729
1431.000000	43.227229
1430.000000	43.310826
1429.000000	43.386610
1428.000000	43.481845
1427.000000	43.580597
1426.000000	43.687203
1425.000000	43.799972
1424.000000	43.902666
1423.000000	44.024195
1422.000000	44.139975
1421.000000	44.249848
1420.000000	44.358277
1419.000000	44.473641
1418.000000	44.597298
1417.000000	44.706030
1416.000000	44.847036
1415.000000	44.993288
1414.000000	45.124710
1413.000000	45.235600
1412.000000	45.376224
1411.000000	45.519553
1410.000000	45.646600
1409.000000	45.785147
1408.000000	45.920311
1407.000000	46.064604
1406.000000	46.195928
1405.000000	46.328845
1404.000000	46.474459
1403.000000	46.608391
1402.000000	46.734022
1401.000000	46.879132
1400.000000	46.989254
1399.000000	47.099512
1398.000000	47.206098
1397.000000	47.316378
1396.000000	47.435225
1395.000000	47.539845
1394.000000	47.650487
1393.000000	47.749929
1392.000000	47.844828
1391.000000	47.939222
1390.000000	48.030175
1389.000000	48.118240
1388.000000	48.195382
1387.000000	48.282647
1386.000000	48.381152
1385.000000	48.467755
1384.000000	48.530030
1383.000000	48.590234
1382.000000	48.667197
1381.000000	48.733275
1380.000000	48.780055
1379.000000	48.829140
1378.000000	48.892391
1377.000000	48.909949
1376.000000	48.926828
1375.000000	48.976376
1374.000000	49.021245
1373.000000	49.054581
1372.000000	49.069972
1371.000000	49.086344
1370.000000	49.108540
1369.000000	49.132345
1368.000000	49.155947
1367.000000	49.184569
1366.000000	49.229842
1365.000000	49.274399
1364.000000	49.301253
1363.000000	49.324483
1362.000000	49.349638
1361.000000	49.378050
1360.000000	49.418457
1359.000000	49.452222
1358.000000	49.483516
1357.000000	49.540267
1356.000000	49.580480
1355.000000	49.605131
1354.000000	49.619795
1353.000000	49.673126
1352.000000	49.722813
1351.000000	49.760497
1350.000000	49.786610
1349.000000	49.800351
1348.000000	49.808030
1347.000000	49.840758
1346.000000	49.886235
1345.000000	49.918171
1344.000000	49.943527
1343.000000	49.966616
1342.000000	49.988839
1341.000000	50.005908
1340.000000	50.046014
1339.000000	50.075720
1338.000000	50.110610
1337.000000	50.138132
1336.000000	50.153395
1335.000000	50.165491
1334.000000	50.177558
1333.000000	50.219811
1332.000000	50.244698
1331.000000	50.268917
1330.000000	50.273794
1329.000000	50.278321
1328.000000	50.306830
1327.000000	50.327272
1326.000000	50.331187
1325.000000	50.356623
1324.000000	50.363574
1323.000000	50.397276
1322.000000	50.425297
1321.000000	50.426798
1320.000000	50.439535
1319.000000	50.420282
1318.000000	50.438373
1317.000000	50.459979
1316.000000	50.490532
1315.000000	50.482239
1314.000000	50.479513
1313.000000	50.466677
1312.000000	50.477468
1311.000000	50.512739
1310.000000	50.527925
1309.000000	50.532371
1308.000000	50.519740
1307.000000	50.501962
1306.000000	50.503173
1305.000000	50.536430
1304.000000	50.553022
1303.000000	50.550539
1302.000000	50.542893
1301.000000	50.532387
1300.000000	50.518550
1299.000000	50.517811
1298.000000	50.517244
1297.000000	50.501710
1296.000000	50.516910
1295.000000	50.517609
1294.000000	50.526709
1293.000000	50.507602
1292.000000	50.495134
1291.000000	50.502009
1290.000000	50.479128
1289.000000	50.465479
1288.000000	50.469131
1287.000000	50.456828
1286.000000	50.463197
1285.000000	50.459490
1284.000000	50.440280
1283.000000	50.416676
1282.000000	50.391063
1281.000000	50.397263
1280.000000	50.408628
1279.000000	50.378802
1278.000000	50.397647
1277.000000	50.383192
1276.000000	50.378268
1275.000000	50.382755
1274.000000	50.361455
1273.000000	50.362586
1272.000000	50.352080
1271.000000	50.361025
1270.000000	50.362423
1269.000000	50.368367
1268.000000	50.351446
1267.000000	50.348249
1266.000000	50.394391
1265.000000	50.408095
1264.000000	50.393636
1263.000000	50.388225
1262.000000	50.381116
1261.000000	50.378371
1260.000000	50.398468
1259.000000	50.386713
1258.000000	50.414279
1257.000000	50.383103
1256.000000	50.393350
1255.000000	50.368826
1254.000000	50.383822
1253.000000	50.377488
1252.000000	50.398829
1251.000000	50.383187
1250.000000	50.353817
1249.000000	50.352370
1248.000000	50.334488
1247.000000	50.333365
1246.000000	50.332255
1245.000000	50.329200
1244.000000	50.298190
1243.000000	50.299566
1242.000000	50.285693
1241.000000	50.268376
1240.000000	50.210072
1239.000000	50.195729
1238.000000	50.186682
1237.000000	50.168985
1236.000000	50.130336
1235.000000	50.110501
1234.000000	50.099159
1233.000000	50.088075
1232.000000	50.052295
1231.000000	50.057638
1230.000000	50.032943
1229.000000	50.031175
1228.000000	50.012892
1227.000000	49.950202
1226.000000	49.942855
1225.000000	49.948950
1224.000000	49.931090
1223.000000	49.922195
1222.000000	49.919676
1221.000000	49.897438
1220.000000	49.881848
1219.000000	49.862538
1218.000000	49.841883
1217.000000	49.823897
1216.000000	49.817372
1215.000000	49.808294
1214.000000	49.773981
1213.000000	49.776109
1212.000000	49.765681
1211.000000	49.755071
1210.000000	49.720067
1209.000000	49.710997
1208.000000	49.679887
1207.000000	49.675000
1206.000000	49.672448
1205.000000	49.629893
1204.000000	49.598242
1203.000000	49.584693
1202.000000	49.548407
1201.000000	49.523657
1200.000000	49.498211
1199.000000	49.478372
1198.000000	49.456859
1197.000000	49.441021
1196.000000	49.427499
1195.000000	49.408105
1194.000000	49.367919
1193.000000	49.358393
1192.000000	49.330403
1191.000000	49.315817
1190.000000	49.294572
1189.000000	49.268238
1188.000000	49.250444
1187.000000	49.240987
1186.000000	49.234889
1185.000000	49.227154
1184.000000	49.221727
1183.000000	49.233281
1182.000000	49.250033
1181.000000	49.256268
1180.000000	49.262804
1179.000000	49.267821
1178.000000	49.283630
1177.000000	49.305104
1176.000000	49.299610
1175.000000	49.297958
1174.000000	49.330326
1173.000000	49.374871
1172.000000	49.408173
1171.000000	49.434782
1170.000000	49.463387
1169.000000	49.488732
1168.000000	49.526927
1167.000000	49.573158
1166.000000	49.611984
1165.000000	49.635528
1164.000000	49.664027
1163.000000	49.709675
1162.000000	49.733587
1161.000000	49.758503
1160.000000	49.807872
1159.000000	49.843766
1158.000000	49.873766
1157.000000	49.906518
1156.000000	49.939125
1155.000000	49.960395
1154.000000	49.974737
1153.000000	49.985064
1152.000000	50.001052
1151.000000	50.034931
1150.000000	50.054268
1149.000000	50.076350
1148.000000	50.105000
1147.000000	50.127031
1146.000000	50.145540
1145.000000	50.163097
1144.000000	50.178559
1143.000000	50.200721
1142.000000	50.225636
1141.000000	50.240037
1140.000000	50.266604
1139.000000	50.283020
1138.000000	50.276762
1137.000000	50.264248
1136.000000	50.294740
1135.000000	50.307590
1134.000000	50.315709
1133.000000	50.330474
1132.000000	50.344064
1131.000000	50.370232
1130.000000	50.380101
1129.000000	50.376666
1128.000000	50.397810
1127.000000	50.418325
1126.000000	50.398156
1125.000000	50.371923
1124.000000	50.373825
1123.000000	50.372434
1122.000000	50.390164
1121.000000	50.403785
1120.000000	50.388568
1119.000000	50.395027
1118.000000	50.396888
1117.000000	50.391236
1116.000000	50.392689
1115.000000	50.395233
1114.000000	50.390952
1113.000000	50.384780
1112.000000	50.388223
1111.000000	50.391113
1110.000000	50.378618
1109.000000	50.374891
1108.000000	50.362997
1107.000000	50.358199
1106.000000	50.371108
1105.000000	50.369323
1104.000000	50.355899
1103.000000	50.347999
1102.000000	50.335291
1101.000000	50.304541
1100.000000	50.285119
1099.000000	50.288713
1098.000000	50.283290
1097.000000	50.303802
1096.000000	50.278660
1095.000000	50.278700
1094.000000	50.281416
1093.000000	50.246883
1092.000000	50.225013
1091.000000	50.236135
1090.000000	50.244093
1089.000000	50.228208
1088.000000	50.209842
1087.000000	50.228225
1086.000000	50.184911
1085.000000	50.183584
1084.000000	50.167786
1083.000000	50.170958
1082.000000	50.154225
1081.000000	50.157635
1080.000000	50.147073
1079.000000	50.095654
1078.000000	50.080436
1077.000000	50.104852
1076.000000	50.087571
1075.000000	50.077676
1074.000000	50.083226
1073.000000	50.073237
1072.000000	50.035493
1071.000000	50.018091
1070.000000	50.017789
1069.000000	50.027942
1068.000000	50.025065
1067.000000	50.010599
1066.000000	50.005843
1065.000000	49.963369
1064.000000	49.946349
1063.000000	49.961108
1062.000000	49.954587
1061.000000	49.931045
1060.000000	49.929530
1059.000000	49.926479
1058.000000	49.869796
1057.000000	49.862762
1056.000000	49.834844
1055.000000	49.840537
1054.000000	49.849024
1053.000000	49.813762
1052.000000	49.817654
1051.000000	49.794271
1050.000000	49.776688
1049.000000	49.781901
1048.000000	49.740452
1047.000000	49.765666
1046.000000	49.739535
1045.000000	49.732758
1044.000000	49.684262
1043.000000	49.695101
1042.000000	49.689798
1041.000000	49.671683
1040.000000	49.657026
1039.000000	49.640427
1038.000000	49.636199
1037.000000	49.633383
1036.000000	49.637664
1035.000000	49.623520
1034.000000	49.626572
1033.000000	49.599338
1032.000000	49.575998
1031.000000	49.577182
1030.000000	49.565569
1029.000000	49.555858
1028.000000	49.542759
1027.000000	49.525958
1026.000000	49.549946
1025.000000	49.537572
1024.000000	49.490524
1023.000000	49.496427
1022.000000	49.491476
1021.000000	49.452637
1020.000000	49.465524
1019.000000	49.478358
1018.000000	49.479789
1017.000000	49.443556
1016.000000	49.414732
1015.000000	49.415956
1014.000000	49.411502
1013.000000	49.418592
1012.000000	49.429433
1011.000000	49.410737
1010.000000	49.388256
1009.000000	49.366748
1008.000000	49.366151
1007.000000	49.366244
1006.000000	49.350525
1005.000000	49.365861
1004.000000	49.343995
1003.000000	49.324654
1002.000000	49.315974
1001.000000	49.321494
1000.000000	49.328356
999.000000	49.335948
998.000000	49.347476
997.000000	49.344181
996.000000	49.336448
995.000000	49.323524
994.000000	49.317881
993.000000	49.312792
992.000000	49.314270
991.000000	49.311535
990.000000	49.307733
989.000000	49.288187
988.000000	49.281296
987.000000	49.274935
986.000000	49.263796
985.000000	49.256609
984.000000	49.264988
983.000000	49.272211
982.000000	49.254650
981.000000	49.253687
980.000000	49.244686
979.000000	49.235228
978.000000	49.229119
977.000000	49.224773
976.000000	49.225902
975.000000	49.210867
974.000000	49.218658
973.000000	49.216845
972.000000	49.206247
971.000000	49.207899
970.000000	49.207124
969.000000	49.202570
968.000000	49.199559
967.000000	49.193317
966.000000	49.187230
965.000000	49.182741
964.000000	49.173994
963.000000	49.165899
962.000000	49.163594
961.000000	49.158426
960.000000	49.156404
959.000000	49.166500
958.000000	49.163092
957.000000	49.148620
956.000000	49.142756
955.000000	49.137683
954.000000	49.131723
953.000000	49.114744
952.000000	49.096072
951.000000	49.107313
950.000000	49.096809
949.000000	49.087393
948.000000	49.089490
947.000000	49.089231
946.000000	49.075345
945.000000	49.061557
944.000000	49.068086
943.000000	49.049073
942.000000	49.047136
941.000000	49.052677
940.000000	49.038359
939.000000	49.027237
938.000000	49.028969
937.000000	49.024577
936.000000	49.011732
935.000000	48.991203
934.000000	48.984823
933.000000	48.990618
932.000000	48.958134
931.000000	48.944573
930.000000	48.950707
929.000000	48.944433
928.000000	48.922009
927.000000	48.910522
926.000000	48.919509
925.000000	48.913944
924.000000	48.911970
923.000000	48.906525
922.000000	48.875380
921.000000	48.850866
920.000000	48.828236
919.000000	48.814623
918.000000	48.833382
917.000000	48.841658
916.000000	48.837755
915.000000	48.818186
914.000000	48.791275
913.000000	48.803393
912.000000	48.806338
911.000000	48.792320
910.000000	48.771524
909.000000	48.754013
908.000000	48.733839
907.000000	48.705150
906.000000	48.721262
905.000000	48.709263
904.000000	48.713390
903.000000	48.728988
902.000000	48.716866
901.000000	48.705796
900.000000	48.698674
899.000000	48.724060
898.000000	48.659332
897.000000	48.670901
896.000000	48.672456
895.000000	48.666732
894.000000	48.663373
893.000000	48.626781
892.000000	48.649653
891.000000	48.621066
890.000000	48.606728
889.000000	48.627338
888.000000	48.652529
887.000000	48.673926
886.000000	48.600891
885.000000	48.598904
884.000000	48.559522
883.000000	48.558717
882.000000	48.548892
881.000000	48.568230
880.000000	48.545755
879.000000	48.514377
878.000000	48.516624
877.000000	48.503750
876.000000	48.470176
875.000000	48.456622
874.000000	48.467973
873.000000	48.446655
872.000000	48.413169
871.000000	48.486074
870.000000	48.432582
869.000000	48.452045
868.000000	48.384530
867.000000	48.424620
866.000000	48.426435
865.000000	48.345867
864.000000	48.288146
863.000000	48.355002
862.000000	48.400811
861.000000	48.224231
860.000000	48.360213
859.000000	48.554386
858.000000	48.242219
857.000000	48.596424
856.000000	48.502418
855.000000	48.529041
854.000000	48.315618
853.000000	48.236225
852.000000	48.587860
851.000000	48.463499
850.000000	48.604189
849.000000	48.299727
848.000000	48.190434
847.000000	48.376656
846.000000	48.184837
845.000000	48.204498
844.000000	48.296315
843.000000	48.300762
842.000000	48.358675
841.000000	48.256090
840.000000	48.374423
839.000000	48.090023
838.000000	48.191378
837.000000	48.175987
836.000000	48.425535
835.000000	48.093766
834.000000	47.955706
833.000000	48.080259
832.000000	48.075335
831.000000	48.105115
830.000000	47.947053
829.000000	47.958156
828.000000	48.076657
827.000000	47.898464
826.000000	47.953872
825.000000	48.102973
824.000000	47.963868
823.000000	47.791846
822.000000	47.857960
821.000000	47.923168
820.000000	47.966477
819.000000	47.722006
818.000000	47.835688
817.000000	47.977057
816.000000	47.803394
815.000000	47.932723
814.000000	47.897989
813.000000	47.835711
812.000000	47.860465
811.000000	47.698615
810.000000	47.686423
809.000000	47.615750
808.000000	47.676836
807.000000	47.716639
806.000000	47.636144
805.000000	47.739507
804.000000	47.554666
803.000000	47.569507
802.000000	47.600648
801.000000	47.491382
800.000000	47.509882
799.000000	47.554067
798.000000	47.495931
797.000000	47.586795
796.000000	47.503110
795.000000	47.483555
794.000000	47.420296
793.000000	47.441992
792.000000	47.476526
791.000000	47.470992
790.000000	47.387878
789.000000	47.371806
788.000000	47.310591
787.000000	47.314179
786.000000	47.320802
785.000000	47.206794
784.000000	47.238242
783.000000	47.187822
782.000000	47.229602
781.000000	47.233487
780.000000	47.214421
779.000000	47.228620
778.000000	47.045772
777.000000	47.044143
776.000000	47.104611
775.000000	47.110819
774.000000	47.033332
773.000000	46.998574
772.000000	46.948141
771.000000	46.943495
770.000000	46.953150
769.000000	46.967038
768.000000	46.940058
767.000000	47.008662
766.000000	46.886953
765.000000	46.837067
764.000000	46.849223
763.000000	46.847079
762.000000	46.764707
761.000000	46.767364
760.000000	46.785845
759.000000	46.742459
758.000000	46.681913
757.000000	46.710868
756.000000	46.642034
755.000000	46.638313
754.000000	46.612806
753.000000	46.581288
752.000000	46.611099
751.000000	46.521474
750.000000	46.497125
749.000000	46.467364
748.000000	46.411937
747.000000	46.431270
746.000000	46.401208
745.000000	46.374246
744.000000	46.400253
743.000000	46.382544
742.000000	46.328391
741.000000	46.275786
740.000000	46.240578
739.000000	46.244868
738.000000	46.175117
737.000000	46.177077
736.000000	46.184093
735.000000	46.101894
734.000000	46.090519
733.000000	46.058067
732.000000	46.028156
731.000000	46.041091
730.000000	45.999257
729.000000	45.997183
728.000000	45.963652
727.000000	45.952680
726.000000	45.947043
725.000000	45.872283
724.000000	45.807821
723.000000	45.792558
722.000000	45.799670
721.000000	45.747511
720.000000	45.718194
719.000000	45.702521
718.000000	45.658411
717.000000	45.647710
716.000000	45.623230
715.000000	45.555547
714.000000	45.546243
713.000000	45.565078
712.000000	45.518393
711.000000	45.486003
710.000000	45.424955
709.000000	45.402673
708.000000	45.413100
707.000000	45.349357
706.000000	45.298566
705.000000	45.248701
704.000000	45.190081
703.000000	45.169996
702.000000	45.145011
701.000000	45.103352
700.000000	45.086413
699.000000	45.080880
698.000000	45.050521
697.000000	45.009501
696.000000	44.944627
695.000000	44.895810
694.000000	44.859632
693.000000	44.825480
692.000000	44.829675
691.000000	44.817537
690.000000	44.763510
689.000000	44.672730
688.000000	44.658546
687.000000	44.636946
686.000000	44.575378
685.000000	44.533770
684.000000	44.500951
683.000000	44.482409
682.000000	44.450169
681.000000	44.424331
680.000000	44.393638
679.000000	44.318216
678.000000	44.296267
677.000000	44.239680
676.000000	44.222718
675.000000	44.194360
674.000000	44.110447
673.000000	44.114670
672.000000	44.078870
671.000000	44.017668
670.000000	43.937909
669.000000	43.895810
668.000000	43.888687
667.000000	43.900307
666.000000	43.841159
665.000000	43.725331
664.000000	43.722960
663.000000	43.683452
662.000000	43.614178
661.000000	43.570029
660.000000	43.532626
659.000000	43.487880
658.000000	43.493169
657.000000	43.437337
656.000000	43.400875
655.000000	43.327930
654.000000	43.280266
653.000000	43.231154
652.000000	43.196385
651.000000	43.159271
650.000000	43.114879
649.000000	43.060336
648.000000	42.999106
647.000000	42.960097
646.000000	42.962826
645.000000	42.910511
644.000000	42.853708
643.000000	42.826862
642.000000	42.769060
641.000000	42.731377
640.000000	42.684050
639.000000	42.647003
638.000000	42.561888
637.000000	42.539404
636.000000	42.493762
635.000000	42.423511
634.000000	42.378257
633.000000	42.310449
632.000000	42.286814
631.000000	42.241262
630.000000	42.207181
629.000000	42.163811
628.000000	42.104291
627.000000	42.046447
626.000000	41.989172
625.000000	41.957466
624.000000	41.894040
623.000000	41.865487
622.000000	41.825940
621.000000	41.784914
620.000000	41.697161
619.000000	41.591139
618.000000	41.596041
617.000000	41.543448
616.000000	41.545972
615.000000	41.458101
614.000000	41.381934
613.000000	41.357589
612.000000	41.265689
611.000000	41.266155
610.000000	41.125069
609.000000	41.118655
608.000000	41.067002
607.000000	41.033134
606.000000	40.995008
605.000000	40.907383
604.000000	40.891046
603.000000	40.781791
602.000000	40.694798
601.000000	40.711993
600.000000	40.649321
599.000000	40.564543
598.000000	40.514156
597.000000	40.468231
596.000000	40.410415
595.000000	40.323942
594.000000	40.283475
593.000000	40.206819
592.000000	40.138805
591.000000	40.098802
590.000000	40.014516
589.000000	39.957982
588.000000	39.858723
587.000000	39.823850
586.000000	39.741516
585.000000	39.701354
584.000000	39.595015
583.000000	39.566680
582.000000	39.548351
581.000000	39.446141
580.000000	39.363130
579.000000	39.322380
578.000000	39.223131
577.000000	39.176741
576.000000	39.076385
575.000000	39.023280
574.000000	38.969033
573.000000	38.847424
572.000000	38.792651
571.000000	38.769156
570.000000	38.649104
569.000000	38.595535
568.000000	38.545474
567.000000	38.418801
566.000000	38.324531
565.000000	38.275744
564.000000	38.225367
563.000000	38.122435
562.000000	38.029703
561.000000	37.910676
560.000000	37.805016
559.000000	37.736939
558.000000	37.670892
557.000000	37.586075
556.000000	37.515373
555.000000	37.423172
554.000000	37.316487
553.000000	37.259629
552.000000	37.169619
551.000000	37.091996
550.000000	37.008466
549.000000	36.919284
548.000000	36.851006
547.000000	36.769221
546.000000	36.664585
545.000000	36.577127
544.000000	36.475284
543.000000	36.406678
542.000000	36.309485
541.000000	36.231078
540.000000	36.148828
539.000000	36.078849
538.000000	35.968649
537.000000	35.875817
536.000000	35.790230
535.000000	35.712296
534.000000	35.583316
533.000000	35.514167
532.000000	35.439615
531.000000	35.343095
530.000000	35.242103
529.000000	35.164032
528.000000	35.069780
527.000000	34.978129
526.000000	34.878164
525.000000	34.800011
524.000000	34.678017
523.000000	34.569788
522.000000	34.477536
521.000000	34.374329
520.000000	34.292214
519.000000	34.193339
518.000000	34.076809
517.000000	34.020845
516.000000	33.896333
515.000000	33.798230
514.000000	33.688819
513.000000	33.573656
512.000000	33.471505
511.000000	33.381142
510.000000	33.269272
509.000000	33.155607
508.000000	33.055500
507.000000	32.938640
506.000000	32.849934
505.000000	32.759034
504.000000	32.631946
503.000000	32.547116
502.000000	32.434191
501.000000	32.307355
500.000000	32.205382
499.000000	32.124804
498.000000	31.998587
497.000000	31.875932
496.000000	31.783511
495.000000	31.667158
494.000000	31.579001
493.000000	31.484453
492.000000	31.364198
491.000000	31.253026
490.000000	31.133472
489.000000	31.038792
488.000000	30.936072
487.000000	30.839018
486.000000	30.740285
485.000000	30.612010
484.000000	30.502086
483.000000	30.449499
482.000000	30.353066
481.000000	30.239363
480.000000	30.124661
479.000000	30.018402
478.000000	29.895440
477.000000	29.780162
476.000000	29.671418
475.000000	29.581654
474.000000	29.480252
473.000000	29.372406
472.000000	29.268495
471.000000	29.150507
470.000000	29.049633
469.000000	28.939466
468.000000	28.816158
467.000000	28.703732
466.000000	28.604207
465.000000	28.501304
464.000000	28.393915
463.000000	28.288342
462.000000	28.178816
461.000000	28.067296
460.000000	27.931687
459.000000	27.804838
458.000000	27.684614
457.000000	27.545860
456.000000	27.424354
455.000000	27.325257
454.000000	27.190885
453.000000	27.048524
452.000000	26.938098
451.000000	26.812149
450.000000	26.701982
449.000000	26.579549
448.000000	26.417198
447.000000	26.276301
446.000000	26.131204
445.000000	25.969371
444.000000	25.825496
443.000000	25.726177
442.000000	25.599566
441.000000	25.450018
440.000000	25.320607
439.000000	25.179011
438.000000	25.035455
437.000000	24.883725
436.000000	24.722114
435.000000	24.562607
434.000000	24.437555
433.000000	24.320355
432.000000	24.162486
431.000000	24.025683
430.000000	23.865965
429.000000	23.699808
428.000000	23.546603
427.000000	23.375314
426.000000	23.243470
425.000000	23.088442
424.000000	22.920494
423.000000	22.790368
422.000000	22.627342
421.000000	22.506458
420.000000	22.328105
419.000000	22.163924
418.000000	21.984101
417.000000	21.813038
416.000000	21.666102
415.000000	21.476751
414.000000	21.336374
413.000000	21.184648
412.000000	21.026854
411.000000	20.855523
410.000000	20.693046
409.000000	20.539841
408.000000	20.365960
407.000000	20.172715
406.000000	20.053229
405.000000	19.903100
404.000000	19.724367
403.000000	19.533037
402.000000	19.395897
401.000000	19.243069
400.000000	19.100972
399.000000	18.931243
398.000000	18.779917
397.000000	18.646375
396.000000	18.467391
395.000000	18.320098
394.000000	18.175900
393.000000	17.996233
392.000000	17.841028
391.000000	17.691626
390.000000	17.591410
389.000000	17.431924
388.000000	17.250071
387.000000	17.097936
386.000000	16.947086
385.000000	16.801870
384.000000	16.633928
383.000000	16.486698
382.000000	16.346940
381.000000	16.212193
380.000000	16.009775
379.000000	15.915279
378.000000	15.705497
377.000000	15.651824
376.000000	15.536238
375.000000	15.375528
374.000000	15.170803
373.000000	15.003016
372.000000	14.857226
371.000000	14.707263
370.000000	14.557606
369.000000	14.468334
368.000000	14.265472
367.000000	14.130437
366.000000	14.060488
365.000000	13.855642
364.000000	13.760098
363.000000	13.639217
362.000000	13.488939
361.000000	13.374621
360.000000	13.252263
359.000000	13.052303
358.000000	12.947597
357.000000	12.841317
356.000000	12.760139
355.000000	12.610993
354.000000	12.537748
353.000000	12.390072
352.000000	12.291928
351.000000	12.189250
350.000000	12.040969
349.000000	11.955034
348.000000	11.867518
347.000000	11.684592
346.000000	11.557967
345.000000	11.491297
344.000000	11.387422
343.000000	11.159699
342.000000	11.130246
341.000000	11.111008
340.000000	10.946461
339.000000	10.821265
338.000000	10.762060
337.000000	10.677247
336.000000	10.497128
335.000000	10.384842
334.000000	10.325953
333.000000	10.180236
332.000000	10.056087
331.000000	9.976973
330.000000	9.867259
329.000000	9.724118
328.000000	9.657415
327.000000	9.549339
326.000000	9.446357
325.000000	9.371613
324.000000	9.277834
323.000000	9.182805
322.000000	9.141485
321.000000	9.071001
320.000000	9.053906
319.000000	8.899532
318.000000	8.838053
317.000000	8.795961
316.000000	8.730519
315.000000	8.648009
314.000000	8.636003
313.000000	8.556266
312.000000	8.483441
311.000000	8.416196
310.000000	8.407671
309.000000	8.357781
308.000000	8.278609
307.000000	8.231893
306.000000	8.203732
305.000000	8.166760
304.000000	8.086178
303.000000	8.052246
302.000000	8.069032
301.000000	8.014351
300.000000	7.979400
299.000000	7.927293
298.000000	7.906209
297.000000	7.845772
296.000000	7.784320
295.000000	7.754277
294.000000	7.701247
293.000000	7.652053
292.000000	7.602699
291.000000	7.609517
290.000000	7.563052
289.000000	7.487163
288.000000	7.406725
287.000000	7.393027
286.000000	7.398125
285.000000	7.397679
284.000000	7.375112
283.000000	7.395593
282.000000	7.408707
281.000000	7.369942
280.000000	7.402743
279.000000	7.440693
278.000000	7.498394
277.000000	7.512798
276.000000	7.507405
275.000000	7.546710
274.000000	7.559680
273.000000	7.606926
272.000000	7.692380
271.000000	7.677495
270.000000	7.733286
269.000000	7.793305
268.000000	7.840224
267.000000	7.888854
266.000000	7.961693
265.000000	8.043501
264.000000	8.125306
263.000000	8.231547
262.000000	8.266868
261.000000	8.319765
260.000000	8.450002
259.000000	8.553989
258.000000	8.576713
257.000000	8.703430
256.000000	8.814923
255.000000	8.875342
254.000000	8.954081
253.000000	9.079224
252.000000	9.169977
251.000000	9.239259
250.000000	9.329006
249.000000	9.390370
248.000000	9.422166
247.000000	9.520425
246.000000	9.549144
245.000000	9.534641
244.000000	9.521377
243.000000	9.460161
242.000000	9.416894
241.000000	9.368641
240.000000	9.273518
239.000000	9.171555
238.000000	9.025986
237.000000	8.928256
236.000000	8.856811
235.000000	8.712831
234.000000	8.637993
233.000000	8.558988
232.000000	8.450080
231.000000	8.333057
230.000000	8.286877
229.000000	8.216121
228.000000	8.120905
227.000000	8.083743
226.000000	8.039983
225.000000	7.942659
224.000000	7.917028
223.000000	7.939643
222.000000	7.953131
221.000000	7.987011
220.000000	8.020277
219.000000	8.013929
218.000000	8.024188
217.000000	8.117323
216.000000	8.189734
215.000000	8.253993
214.000000	8.316527
213.000000	8.394448
212.000000	8.518558
211.000000	8.608988
210.000000	8.711076
209.000000	8.883447
208.000000	9.048278
207.000000	9.232962
206.000000	9.502115
205.000000	9.670625
204.000000	9.907373
203.000000	10.201512
202.000000	10.367129
201.000000	10.667636
200.000000	11.082852
