PE UV       SUBTECH     SPECTRUM    ASCII       PEDS        4.00        
   -1
TTmsmeh71.Sample.asc
18/03/14
09:22:20.00
18/03/14
09:22:20.00
Administrator

200.000000
1
Lambda 750
750N8071901
PerkinElmer UV WinLab 6.0.4.0738 / 1.61.00 Lambda 900

0
0
3350/servo 860.8/2
0
0
UV/VIS
1
1
1
CommonBeamDepol,150mm sphere / downward view
0
0
0
0
Program
Program
3350/servo 860.8/2
3350/0.2 860.8/0.2
3350/0.2 860.8/0.2
0
1
 
 
 
0
 
860.8
319.2
860.8
Front
100
on
 
 
0
0
0
 
0
 
 
 
0
 
 
0
0
0
0
0
 
 
 
 
0
0


0
0
#HDR
-1
-1
#GR
nm
%T
1.0
0.0
2350.000000
-1.000000
2151
8
11.531057
-0.047648
#DATA
2350.000000	5.597304
2349.000000	5.384772
2348.000000	5.568570
2347.000000	6.189922
2346.000000	6.174852
2345.000000	5.716706
2344.000000	5.814166
2343.000000	5.902925
2342.000000	6.017007
2341.000000	5.872987
2340.000000	5.937821
2339.000000	6.407193
2338.000000	6.583380
2337.000000	6.249704
2336.000000	6.456964
2335.000000	6.526805
2334.000000	6.997365
2333.000000	6.547818
2332.000000	6.807589
2331.000000	6.649444
2330.000000	6.500822
2329.000000	6.340832
2328.000000	6.546117
2327.000000	6.448911
2326.000000	6.493058
2325.000000	6.609529
2324.000000	6.620155
2323.000000	6.348988
2322.000000	6.179122
2321.000000	6.206273
2320.000000	6.570714
2319.000000	6.329417
2318.000000	6.145987
2317.000000	6.032846
2316.000000	6.217814
2315.000000	6.321397
2314.000000	6.011501
2313.000000	5.887471
2312.000000	5.824470
2311.000000	5.895663
2310.000000	5.876993
2309.000000	6.045149
2308.000000	6.106780
2307.000000	6.019341
2306.000000	6.045272
2305.000000	5.913816
2304.000000	6.205593
2303.000000	6.166711
2302.000000	6.149507
2301.000000	6.105698
2300.000000	6.012905
2299.000000	5.859328
2298.000000	5.845705
2297.000000	5.865936
2296.000000	5.972512
2295.000000	5.909746
2294.000000	5.853809
2293.000000	5.783979
2292.000000	5.803504
2291.000000	5.842442
2290.000000	5.676135
2289.000000	5.790339
2288.000000	6.077882
2287.000000	6.035474
2286.000000	5.870968
2285.000000	5.633766
2284.000000	5.796077
2283.000000	5.845502
2282.000000	5.897749
2281.000000	5.771446
2280.000000	5.686744
2279.000000	5.702136
2278.000000	5.631941
2277.000000	5.700264
2276.000000	5.888357
2275.000000	5.965889
2274.000000	5.929401
2273.000000	5.816832
2272.000000	5.934179
2271.000000	5.918031
2270.000000	5.915056
2269.000000	5.985774
2268.000000	6.008076
2267.000000	6.018429
2266.000000	6.087112
2265.000000	6.069643
2264.000000	6.076597
2263.000000	6.077897
2262.000000	6.092668
2261.000000	6.177064
2260.000000	6.227397
2259.000000	6.363392
2258.000000	6.426876
2257.000000	6.457492
2256.000000	6.553914
2255.000000	6.590204
2254.000000	6.528274
2253.000000	6.495874
2252.000000	6.485745
2251.000000	6.547377
2250.000000	6.606215
2249.000000	6.738610
2248.000000	6.855605
2247.000000	6.979398
2246.000000	7.062596
2245.000000	7.137179
2244.000000	7.190179
2243.000000	7.217851
2242.000000	7.125378
2241.000000	7.013266
2240.000000	7.072271
2239.000000	7.097567
2238.000000	7.074790
2237.000000	7.218919
2236.000000	7.335557
2235.000000	7.407696
2234.000000	7.349202
2233.000000	7.333081
2232.000000	7.464103
2231.000000	7.477867
2230.000000	7.364127
2229.000000	7.416198
2228.000000	7.462726
2227.000000	7.464525
2226.000000	7.422577
2225.000000	7.336465
2224.000000	7.375347
2223.000000	7.363849
2222.000000	7.399513
2221.000000	7.258125
2220.000000	7.352072
2219.000000	7.452859
2218.000000	7.409195
2217.000000	7.500374
2216.000000	7.490453
2215.000000	7.301130
2214.000000	7.381537
2213.000000	7.503012
2212.000000	7.257887
2211.000000	7.288107
2210.000000	7.317870
2209.000000	7.175329
2208.000000	7.117907
2207.000000	7.215971
2206.000000	7.221477
2205.000000	7.291842
2204.000000	7.216359
2203.000000	7.126494
2202.000000	7.084084
2201.000000	7.049663
2200.000000	7.098925
2199.000000	7.003693
2198.000000	6.997694
2197.000000	7.048230
2196.000000	6.968477
2195.000000	6.914455
2194.000000	7.021876
2193.000000	7.011196
2192.000000	6.940312
2191.000000	6.830981
2190.000000	6.855697
2189.000000	6.920496
2188.000000	6.858171
2187.000000	6.745296
2186.000000	6.799635
2185.000000	6.878319
2184.000000	6.874842
2183.000000	6.928668
2182.000000	6.915540
2181.000000	6.713416
2180.000000	6.719800
2179.000000	6.821505
2178.000000	6.675844
2177.000000	6.736377
2176.000000	6.731660
2175.000000	6.846131
2174.000000	6.790284
2173.000000	6.661223
2172.000000	6.866665
2171.000000	6.853158
2170.000000	6.874040
2169.000000	6.900267
2168.000000	6.843917
2167.000000	6.929084
2166.000000	6.883635
2165.000000	6.780973
2164.000000	6.870161
2163.000000	7.017858
2162.000000	6.922475
2161.000000	6.913924
2160.000000	6.960071
2159.000000	7.104269
2158.000000	7.210042
2157.000000	7.107471
2156.000000	7.146997
2155.000000	7.072236
2154.000000	7.198681
2153.000000	7.439733
2152.000000	7.463351
2151.000000	7.369057
2150.000000	7.362487
2149.000000	7.453194
2148.000000	7.524801
2147.000000	7.366535
2146.000000	7.554965
2145.000000	7.697570
2144.000000	7.492343
2143.000000	7.423811
2142.000000	7.573915
2141.000000	7.596970
2140.000000	7.743769
2139.000000	7.532846
2138.000000	7.660022
2137.000000	7.682650
2136.000000	7.700302
2135.000000	7.804766
2134.000000	7.778567
2133.000000	7.492067
2132.000000	7.797620
2131.000000	7.870944
2130.000000	8.076478
2129.000000	7.963422
2128.000000	7.871734
2127.000000	7.916864
2126.000000	7.800795
2125.000000	7.867042
2124.000000	7.893989
2123.000000	7.833074
2122.000000	7.992838
2121.000000	7.887133
2120.000000	7.762149
2119.000000	7.906928
2118.000000	7.925664
2117.000000	8.000673
2116.000000	7.934530
2115.000000	8.033833
2114.000000	7.845105
2113.000000	7.819717
2112.000000	7.906031
2111.000000	7.949302
2110.000000	7.880391
2109.000000	7.823616
2108.000000	7.972376
2107.000000	7.920492
2106.000000	7.949297
2105.000000	8.071217
2104.000000	7.960139
2103.000000	7.961197
2102.000000	7.824812
2101.000000	7.759504
2100.000000	7.975409
2099.000000	7.975216
2098.000000	7.982162
2097.000000	7.942575
2096.000000	7.882579
2095.000000	7.923126
2094.000000	7.807781
2093.000000	7.816610
2092.000000	7.892901
2091.000000	7.917565
2090.000000	7.910594
2089.000000	7.827066
2088.000000	7.949594
2087.000000	7.879950
2086.000000	7.844376
2085.000000	7.809339
2084.000000	7.783456
2083.000000	7.807623
2082.000000	7.829589
2081.000000	7.777648
2080.000000	7.799432
2079.000000	7.759283
2078.000000	7.675506
2077.000000	7.639515
2076.000000	7.505054
2075.000000	7.541318
2074.000000	7.572461
2073.000000	7.499654
2072.000000	7.469326
2071.000000	7.517857
2070.000000	7.516129
2069.000000	7.391816
2068.000000	7.408870
2067.000000	7.379581
2066.000000	7.285986
2065.000000	7.160448
2064.000000	7.143420
2063.000000	7.075761
2062.000000	7.070130
2061.000000	7.091863
2060.000000	7.030472
2059.000000	7.003135
2058.000000	6.979885
2057.000000	6.960448
2056.000000	6.979154
2055.000000	6.964148
2054.000000	6.839352
2053.000000	6.778662
2052.000000	6.764751
2051.000000	6.705178
2050.000000	6.694106
2049.000000	6.677994
2048.000000	6.594967
2047.000000	6.585900
2046.000000	6.585549
2045.000000	6.568125
2044.000000	6.563603
2043.000000	6.553157
2042.000000	6.546873
2041.000000	6.556830
2040.000000	6.517065
2039.000000	6.540235
2038.000000	6.594962
2037.000000	6.605332
2036.000000	6.609318
2035.000000	6.586343
2034.000000	6.579175
2033.000000	6.646135
2032.000000	6.664428
2031.000000	6.670814
2030.000000	6.710252
2029.000000	6.734593
2028.000000	6.752464
2027.000000	6.784350
2026.000000	6.817237
2025.000000	6.825657
2024.000000	6.812878
2023.000000	6.811793
2022.000000	6.842451
2021.000000	6.840312
2020.000000	6.812814
2019.000000	6.824063
2018.000000	6.812646
2017.000000	6.774032
2016.000000	6.796820
2015.000000	6.806584
2014.000000	6.791222
2013.000000	6.782117
2012.000000	6.765515
2011.000000	6.798724
2010.000000	6.779367
2009.000000	6.721373
2008.000000	6.714676
2007.000000	6.689795
2006.000000	6.653682
2005.000000	6.591608
2004.000000	6.565264
2003.000000	6.561900
2002.000000	6.508625
2001.000000	6.502429
2000.000000	6.494510
1999.000000	6.462753
1998.000000	6.432967
1997.000000	6.372276
1996.000000	6.345114
1995.000000	6.310396
1994.000000	6.254118
1993.000000	6.242564
1992.000000	6.209434
1991.000000	6.190470
1990.000000	6.162891
1989.000000	6.144424
1988.000000	6.078459
1987.000000	6.067633
1986.000000	6.030482
1985.000000	6.002725
1984.000000	5.981038
1983.000000	5.944021
1982.000000	5.928981
1981.000000	5.915848
1980.000000	5.870702
1979.000000	5.816791
1978.000000	5.789674
1977.000000	5.748196
1976.000000	5.769927
1975.000000	5.742254
1974.000000	5.716123
1973.000000	5.685108
1972.000000	5.667554
1971.000000	5.655879
1970.000000	5.630693
1969.000000	5.587357
1968.000000	5.587110
1967.000000	5.548768
1966.000000	5.551641
1965.000000	5.494562
1964.000000	5.439517
1963.000000	5.435608
1962.000000	5.412609
1961.000000	5.382533
1960.000000	5.377160
1959.000000	5.338796
1958.000000	5.327325
1957.000000	5.354216
1956.000000	5.313914
1955.000000	5.337214
1954.000000	5.303480
1953.000000	5.304060
1952.000000	5.314532
1951.000000	5.316246
1950.000000	5.265583
1949.000000	5.262550
1948.000000	5.252185
1947.000000	5.251412
1946.000000	5.294942
1945.000000	5.286165
1944.000000	5.267523
1943.000000	5.301065
1942.000000	5.239770
1941.000000	5.296987
1940.000000	5.307208
1939.000000	5.386808
1938.000000	5.415073
1937.000000	5.400571
1936.000000	5.406119
1935.000000	5.508869
1934.000000	5.483966
1933.000000	5.462951
1932.000000	5.449161
1931.000000	5.540853
1930.000000	5.572732
1929.000000	5.593892
1928.000000	5.682630
1927.000000	5.629699
1926.000000	5.763698
1925.000000	5.820195
1924.000000	5.901972
1923.000000	5.952416
1922.000000	5.976586
1921.000000	6.086387
1920.000000	6.184417
1919.000000	6.181770
1918.000000	6.303656
1917.000000	6.303211
1916.000000	6.292120
1915.000000	6.562834
1914.000000	6.654784
1913.000000	6.752455
1912.000000	6.824270
1911.000000	6.844671
1910.000000	7.031413
1909.000000	7.049996
1908.000000	7.146036
1907.000000	7.256886
1906.000000	7.384912
1905.000000	7.520491
1904.000000	7.667042
1903.000000	7.756901
1902.000000	7.839161
1901.000000	7.969290
1900.000000	8.099701
1899.000000	8.188562
1898.000000	8.311645
1897.000000	8.426634
1896.000000	8.613409
1895.000000	8.772816
1894.000000	8.827674
1893.000000	8.930287
1892.000000	8.991033
1891.000000	9.148859
1890.000000	9.257654
1889.000000	9.373703
1888.000000	9.521810
1887.000000	9.594639
1886.000000	9.696641
1885.000000	9.810096
1884.000000	9.919431
1883.000000	10.025374
1882.000000	10.117888
1881.000000	10.236545
1880.000000	10.343621
1879.000000	10.395610
1878.000000	10.464013
1877.000000	10.560973
1876.000000	10.616994
1875.000000	10.670406
1874.000000	10.741578
1873.000000	10.825525
1872.000000	10.894692
1871.000000	10.861118
1870.000000	10.876995
1869.000000	10.966015
1868.000000	10.967026
1867.000000	10.968443
1866.000000	10.975251
1865.000000	10.985867
1864.000000	11.006250
1863.000000	10.972700
1862.000000	10.967334
1861.000000	10.954056
1860.000000	11.002107
1859.000000	10.973499
1858.000000	10.999308
1857.000000	11.029932
1856.000000	11.058534
1855.000000	11.058426
1854.000000	11.071258
1853.000000	11.092267
1852.000000	11.118129
1851.000000	11.131683
1850.000000	11.106003
1849.000000	11.110730
1848.000000	11.121595
1847.000000	11.121959
1846.000000	11.130864
1845.000000	11.119295
1844.000000	11.100714
1843.000000	11.117096
1842.000000	11.105215
1841.000000	11.081361
1840.000000	11.085550
1839.000000	11.080846
1838.000000	11.082953
1837.000000	11.025456
1836.000000	11.008759
1835.000000	10.990190
1834.000000	10.930086
1833.000000	10.886417
1832.000000	10.879196
1831.000000	10.875522
1830.000000	10.878792
1829.000000	10.872767
1828.000000	10.849664
1827.000000	10.811935
1826.000000	10.814217
1825.000000	10.801667
1824.000000	10.752457
1823.000000	10.744842
1822.000000	10.747727
1821.000000	10.741486
1820.000000	10.733335
1819.000000	10.699004
1818.000000	10.685874
1817.000000	10.693139
1816.000000	10.698534
1815.000000	10.684163
1814.000000	10.649912
1813.000000	10.648241
1812.000000	10.643700
1811.000000	10.631251
1810.000000	10.629687
1809.000000	10.630134
1808.000000	10.624686
1807.000000	10.603142
1806.000000	10.594104
1805.000000	10.596453
1804.000000	10.597494
1803.000000	10.586610
1802.000000	10.581994
1801.000000	10.585434
1800.000000	10.570890
1799.000000	10.571707
1798.000000	10.574497
1797.000000	10.565168
1796.000000	10.569660
1795.000000	10.587023
1794.000000	10.585349
1793.000000	10.578801
1792.000000	10.564843
1791.000000	10.566508
1790.000000	10.575015
1789.000000	10.584566
1788.000000	10.603179
1787.000000	10.627748
1786.000000	10.633265
1785.000000	10.627003
1784.000000	10.627671
1783.000000	10.629268
1782.000000	10.628477
1781.000000	10.626120
1780.000000	10.608163
1779.000000	10.616662
1778.000000	10.609867
1777.000000	10.577923
1776.000000	10.575200
1775.000000	10.547826
1774.000000	10.539254
1773.000000	10.530843
1772.000000	10.503749
1771.000000	10.487062
1770.000000	10.462963
1769.000000	10.454472
1768.000000	10.446555
1767.000000	10.432699
1766.000000	10.408876
1765.000000	10.375987
1764.000000	10.377219
1763.000000	10.377081
1762.000000	10.358385
1761.000000	10.328263
1760.000000	10.310584
1759.000000	10.310659
1758.000000	10.305888
1757.000000	10.284753
1756.000000	10.289715
1755.000000	10.254233
1754.000000	10.249336
1753.000000	10.239591
1752.000000	10.212041
1751.000000	10.201021
1750.000000	10.194712
1749.000000	10.193574
1748.000000	10.161543
1747.000000	10.135962
1746.000000	10.148101
1745.000000	10.119610
1744.000000	10.080371
1743.000000	10.092255
1742.000000	10.085209
1741.000000	10.048496
1740.000000	10.035875
1739.000000	10.024743
1738.000000	10.002596
1737.000000	9.977895
1736.000000	10.004239
1735.000000	9.982155
1734.000000	9.980797
1733.000000	9.948975
1732.000000	9.971905
1731.000000	9.951787
1730.000000	9.966835
1729.000000	9.968676
1728.000000	9.960878
1727.000000	9.955375
1726.000000	9.986543
1725.000000	9.992839
1724.000000	10.003650
1723.000000	10.030735
1722.000000	10.032342
1721.000000	10.070922
1720.000000	10.075670
1719.000000	10.123711
1718.000000	10.117490
1717.000000	10.128207
1716.000000	10.142682
1715.000000	10.163460
1714.000000	10.192139
1713.000000	10.186005
1712.000000	10.175539
1711.000000	10.222817
1710.000000	10.255349
1709.000000	10.256158
1708.000000	10.246809
1707.000000	10.274464
1706.000000	10.281528
1705.000000	10.268248
1704.000000	10.309954
1703.000000	10.304284
1702.000000	10.292935
1701.000000	10.329154
1700.000000	10.301777
1699.000000	10.285794
1698.000000	10.313496
1697.000000	10.343866
1696.000000	10.363058
1695.000000	10.374148
1694.000000	10.365418
1693.000000	10.353512
1692.000000	10.397670
1691.000000	10.403252
1690.000000	10.417877
1689.000000	10.435486
1688.000000	10.464336
1687.000000	10.477621
1686.000000	10.512553
1685.000000	10.513182
1684.000000	10.573288
1683.000000	10.605881
1682.000000	10.629794
1681.000000	10.662191
1680.000000	10.690060
1679.000000	10.725569
1678.000000	10.767652
1677.000000	10.787509
1676.000000	10.827752
1675.000000	10.865587
1674.000000	10.896123
1673.000000	10.918295
1672.000000	10.943113
1671.000000	10.975987
1670.000000	11.018018
1669.000000	11.007819
1668.000000	11.025042
1667.000000	11.070442
1666.000000	11.080171
1665.000000	11.090374
1664.000000	11.083183
1663.000000	11.087982
1662.000000	11.116863
1661.000000	11.111618
1660.000000	11.136914
1659.000000	11.160113
1658.000000	11.171065
1657.000000	11.194677
1656.000000	11.189018
1655.000000	11.197833
1654.000000	11.213532
1653.000000	11.211760
1652.000000	11.220107
1651.000000	11.201199
1650.000000	11.201805
1649.000000	11.200508
1648.000000	11.178429
1647.000000	11.174117
1646.000000	11.169797
1645.000000	11.159721
1644.000000	11.155350
1643.000000	11.158602
1642.000000	11.149025
1641.000000	11.138665
1640.000000	11.127217
1639.000000	11.127669
1638.000000	11.118203
1637.000000	11.105246
1636.000000	11.091087
1635.000000	11.083652
1634.000000	11.059659
1633.000000	11.049996
1632.000000	11.045168
1631.000000	11.033660
1630.000000	11.022967
1629.000000	11.007260
1628.000000	10.993588
1627.000000	10.988701
1626.000000	10.970764
1625.000000	10.959066
1624.000000	10.941407
1623.000000	10.935809
1622.000000	10.940245
1621.000000	10.924897
1620.000000	10.898579
1619.000000	10.874546
1618.000000	10.868887
1617.000000	10.865712
1616.000000	10.837984
1615.000000	10.819171
1614.000000	10.810863
1613.000000	10.807977
1612.000000	10.800365
1611.000000	10.792825
1610.000000	10.781207
1609.000000	10.760701
1608.000000	10.759346
1607.000000	10.751843
1606.000000	10.738585
1605.000000	10.728829
1604.000000	10.708490
1603.000000	10.687423
1602.000000	10.679676
1601.000000	10.664582
1600.000000	10.659689
1599.000000	10.655646
1598.000000	10.639000
1597.000000	10.629176
1596.000000	10.613349
1595.000000	10.606404
1594.000000	10.601868
1593.000000	10.584800
1592.000000	10.576953
1591.000000	10.576877
1590.000000	10.571698
1589.000000	10.555356
1588.000000	10.542960
1587.000000	10.536599
1586.000000	10.528928
1585.000000	10.518878
1584.000000	10.509392
1583.000000	10.502586
1582.000000	10.491098
1581.000000	10.481617
1580.000000	10.473386
1579.000000	10.469703
1578.000000	10.463045
1577.000000	10.443955
1576.000000	10.425363
1575.000000	10.409201
1574.000000	10.402510
1573.000000	10.383249
1572.000000	10.363269
1571.000000	10.357504
1570.000000	10.353893
1569.000000	10.347325
1568.000000	10.336422
1567.000000	10.329211
1566.000000	10.324394
1565.000000	10.310462
1564.000000	10.293016
1563.000000	10.284277
1562.000000	10.278219
1561.000000	10.260079
1560.000000	10.239496
1559.000000	10.229049
1558.000000	10.220204
1557.000000	10.211249
1556.000000	10.197266
1555.000000	10.185441
1554.000000	10.175610
1553.000000	10.152008
1552.000000	10.146401
1551.000000	10.134137
1550.000000	10.119309
1549.000000	10.105138
1548.000000	10.083648
1547.000000	10.071224
1546.000000	10.050397
1545.000000	10.023794
1544.000000	10.006814
1543.000000	9.983791
1542.000000	9.967957
1541.000000	9.942941
1540.000000	9.918374
1539.000000	9.888390
1538.000000	9.859352
1537.000000	9.845546
1536.000000	9.815952
1535.000000	9.799294
1534.000000	9.776401
1533.000000	9.765759
1532.000000	9.747296
1531.000000	9.748446
1530.000000	9.755485
1529.000000	9.765171
1528.000000	9.761635
1527.000000	9.717033
1526.000000	9.682970
1525.000000	9.648406
1524.000000	9.622264
1523.000000	9.634238
1522.000000	9.639134
1521.000000	9.603997
1520.000000	9.562238
1519.000000	9.544102
1518.000000	9.509098
1517.000000	9.512959
1516.000000	9.531971
1515.000000	9.498072
1514.000000	9.505243
1513.000000	9.500768
1512.000000	9.493786
1511.000000	9.481514
1510.000000	9.457201
1509.000000	9.448065
1508.000000	9.423548
1507.000000	9.438569
1506.000000	9.451766
1505.000000	9.424028
1504.000000	9.419547
1503.000000	9.409112
1502.000000	9.403768
1501.000000	9.392425
1500.000000	9.388645
1499.000000	9.365089
1498.000000	9.374383
1497.000000	9.391693
1496.000000	9.392963
1495.000000	9.382542
1494.000000	9.381822
1493.000000	9.382852
1492.000000	9.403132
1491.000000	9.390137
1490.000000	9.407426
1489.000000	9.402127
1488.000000	9.408158
1487.000000	9.381617
1486.000000	9.396466
1485.000000	9.407454
1484.000000	9.414622
1483.000000	9.399499
1482.000000	9.410163
1481.000000	9.408772
1480.000000	9.423617
1479.000000	9.432624
1478.000000	9.406612
1477.000000	9.426143
1476.000000	9.414193
1475.000000	9.437848
1474.000000	9.440634
1473.000000	9.423117
1472.000000	9.429163
1471.000000	9.415444
1470.000000	9.418705
1469.000000	9.413093
1468.000000	9.403068
1467.000000	9.424083
1466.000000	9.403012
1465.000000	9.443351
1464.000000	9.456947
1463.000000	9.436835
1462.000000	9.437640
1461.000000	9.459283
1460.000000	9.487297
1459.000000	9.465313
1458.000000	9.463260
1457.000000	9.463237
1456.000000	9.488651
1455.000000	9.493411
1454.000000	9.488308
1453.000000	9.487626
1452.000000	9.504726
1451.000000	9.502882
1450.000000	9.543007
1449.000000	9.549616
1448.000000	9.550627
1447.000000	9.550243
1446.000000	9.549707
1445.000000	9.570277
1444.000000	9.597086
1443.000000	9.640496
1442.000000	9.656791
1441.000000	9.654613
1440.000000	9.666008
1439.000000	9.685828
1438.000000	9.693098
1437.000000	9.706362
1436.000000	9.720497
1435.000000	9.749500
1434.000000	9.766537
1433.000000	9.776142
1432.000000	9.818328
1431.000000	9.838290
1430.000000	9.862171
1429.000000	9.898668
1428.000000	9.932552
1427.000000	9.969477
1426.000000	9.996875
1425.000000	10.023733
1424.000000	10.068934
1423.000000	10.111897
1422.000000	10.142132
1421.000000	10.186146
1420.000000	10.208467
1419.000000	10.228832
1418.000000	10.262870
1417.000000	10.298987
1416.000000	10.322898
1415.000000	10.369354
1414.000000	10.414529
1413.000000	10.460476
1412.000000	10.483729
1411.000000	10.522597
1410.000000	10.585722
1409.000000	10.626675
1408.000000	10.653541
1407.000000	10.692201
1406.000000	10.732689
1405.000000	10.760579
1404.000000	10.786932
1403.000000	10.830154
1402.000000	10.863733
1401.000000	10.909955
1400.000000	10.950752
1399.000000	10.987795
1398.000000	11.012363
1397.000000	11.038153
1396.000000	11.065770
1395.000000	11.090581
1394.000000	11.116666
1393.000000	11.139900
1392.000000	11.158849
1391.000000	11.183282
1390.000000	11.204145
1389.000000	11.220622
1388.000000	11.233770
1387.000000	11.251278
1386.000000	11.265185
1385.000000	11.291012
1384.000000	11.324208
1383.000000	11.342517
1382.000000	11.346688
1381.000000	11.358900
1380.000000	11.381583
1379.000000	11.399189
1378.000000	11.400378
1377.000000	11.401523
1376.000000	11.411840
1375.000000	11.403290
1374.000000	11.384401
1373.000000	11.404879
1372.000000	11.437658
1371.000000	11.438736
1370.000000	11.436502
1369.000000	11.446059
1368.000000	11.463646
1367.000000	11.474969
1366.000000	11.485069
1365.000000	11.496601
1364.000000	11.494900
1363.000000	11.499756
1362.000000	11.500406
1361.000000	11.501687
1360.000000	11.517575
1359.000000	11.523395
1358.000000	11.521815
1357.000000	11.530528
1356.000000	11.524318
1355.000000	11.511680
1354.000000	11.506949
1353.000000	11.493165
1352.000000	11.497638
1351.000000	11.511382
1350.000000	11.510226
1349.000000	11.492008
1348.000000	11.484257
1347.000000	11.491709
1346.000000	11.515642
1345.000000	11.523153
1344.000000	11.499482
1343.000000	11.486289
1342.000000	11.477692
1341.000000	11.483923
1340.000000	11.514454
1339.000000	11.517856
1338.000000	11.501553
1337.000000	11.493290
1336.000000	11.504057
1335.000000	11.512345
1334.000000	11.531057
1333.000000	11.520496
1332.000000	11.518341
1331.000000	11.509742
1330.000000	11.485013
1329.000000	11.482880
1328.000000	11.498612
1327.000000	11.493554
1326.000000	11.477593
1325.000000	11.480725
1324.000000	11.480550
1323.000000	11.483735
1322.000000	11.493978
1321.000000	11.480913
1320.000000	11.442059
1319.000000	11.437503
1318.000000	11.447096
1317.000000	11.460175
1316.000000	11.456042
1315.000000	11.431302
1314.000000	11.406269
1313.000000	11.405244
1312.000000	11.437111
1311.000000	11.442668
1310.000000	11.431195
1309.000000	11.406816
1308.000000	11.394080
1307.000000	11.408443
1306.000000	11.414494
1305.000000	11.427682
1304.000000	11.402758
1303.000000	11.387935
1302.000000	11.385255
1301.000000	11.417763
1300.000000	11.442958
1299.000000	11.420226
1298.000000	11.409469
1297.000000	11.397213
1296.000000	11.397671
1295.000000	11.403262
1294.000000	11.413400
1293.000000	11.408081
1292.000000	11.398425
1291.000000	11.413110
1290.000000	11.406962
1289.000000	11.370378
1288.000000	11.382854
1287.000000	11.362789
1286.000000	11.363269
1285.000000	11.369503
1284.000000	11.362062
1283.000000	11.380951
1282.000000	11.384946
1281.000000	11.377793
1280.000000	11.329024
1279.000000	11.336898
1278.000000	11.323389
1277.000000	11.319123
1276.000000	11.327264
1275.000000	11.332371
1274.000000	11.324869
1273.000000	11.309033
1272.000000	11.295529
1271.000000	11.306945
1270.000000	11.299172
1269.000000	11.295645
1268.000000	11.319293
1267.000000	11.324558
1266.000000	11.320951
1265.000000	11.289157
1264.000000	11.274494
1263.000000	11.259580
1262.000000	11.260388
1261.000000	11.261646
1260.000000	11.285046
1259.000000	11.276820
1258.000000	11.263819
1257.000000	11.247577
1256.000000	11.242670
1255.000000	11.252837
1254.000000	11.267152
1253.000000	11.266232
1252.000000	11.253377
1251.000000	11.254717
1250.000000	11.264351
1249.000000	11.252646
1248.000000	11.245695
1247.000000	11.271772
1246.000000	11.258937
1245.000000	11.256044
1244.000000	11.255059
1243.000000	11.230323
1242.000000	11.222701
1241.000000	11.245182
1240.000000	11.239026
1239.000000	11.239491
1238.000000	11.202626
1237.000000	11.220632
1236.000000	11.235275
1235.000000	11.220935
1234.000000	11.205792
1233.000000	11.195805
1232.000000	11.193075
1231.000000	11.203066
1230.000000	11.178273
1229.000000	11.157513
1228.000000	11.156178
1227.000000	11.143952
1226.000000	11.147105
1225.000000	11.138074
1224.000000	11.102912
1223.000000	11.089113
1222.000000	11.086249
1221.000000	11.083611
1220.000000	11.081825
1219.000000	11.058883
1218.000000	11.043352
1217.000000	11.037415
1216.000000	11.061214
1215.000000	11.055841
1214.000000	11.017979
1213.000000	10.992963
1212.000000	10.983577
1211.000000	10.989798
1210.000000	10.990798
1209.000000	11.004535
1208.000000	11.003457
1207.000000	10.967695
1206.000000	10.927629
1205.000000	10.924453
1204.000000	10.918994
1203.000000	10.895148
1202.000000	10.885295
1201.000000	10.906143
1200.000000	10.915029
1199.000000	10.874985
1198.000000	10.860708
1197.000000	10.875194
1196.000000	10.896425
1195.000000	10.889517
1194.000000	10.878638
1193.000000	10.872563
1192.000000	10.868726
1191.000000	10.874826
1190.000000	10.868028
1189.000000	10.839578
1188.000000	10.836027
1187.000000	10.848235
1186.000000	10.838555
1185.000000	10.825576
1184.000000	10.814874
1183.000000	10.823943
1182.000000	10.841451
1181.000000	10.845576
1180.000000	10.852816
1179.000000	10.859933
1178.000000	10.871713
1177.000000	10.885313
1176.000000	10.893478
1175.000000	10.900766
1174.000000	10.906059
1173.000000	10.919283
1172.000000	10.936365
1171.000000	10.944896
1170.000000	10.938746
1169.000000	10.938820
1168.000000	10.943786
1167.000000	10.946964
1166.000000	10.958016
1165.000000	10.967384
1164.000000	10.978286
1163.000000	11.000936
1162.000000	11.004222
1161.000000	10.985775
1160.000000	10.977976
1159.000000	10.977319
1158.000000	10.988538
1157.000000	11.013416
1156.000000	11.033332
1155.000000	11.048690
1154.000000	11.046271
1153.000000	11.044987
1152.000000	11.062731
1151.000000	11.074571
1150.000000	11.077627
1149.000000	11.081887
1148.000000	11.085707
1147.000000	11.083149
1146.000000	11.089576
1145.000000	11.102698
1144.000000	11.109487
1143.000000	11.098895
1142.000000	11.094078
1141.000000	11.095759
1140.000000	11.095174
1139.000000	11.100914
1138.000000	11.116426
1137.000000	11.132130
1136.000000	11.129895
1135.000000	11.134073
1134.000000	11.147712
1133.000000	11.152108
1132.000000	11.149818
1131.000000	11.152848
1130.000000	11.166497
1129.000000	11.155345
1128.000000	11.138476
1127.000000	11.143616
1126.000000	11.139161
1125.000000	11.148500
1124.000000	11.154301
1123.000000	11.155839
1122.000000	11.153714
1121.000000	11.147305
1120.000000	11.153581
1119.000000	11.155824
1118.000000	11.155698
1117.000000	11.155580
1116.000000	11.156324
1115.000000	11.149380
1114.000000	11.151279
1113.000000	11.161167
1112.000000	11.158022
1111.000000	11.144739
1110.000000	11.143336
1109.000000	11.136505
1108.000000	11.136866
1107.000000	11.144511
1106.000000	11.131930
1105.000000	11.114490
1104.000000	11.104010
1103.000000	11.112540
1102.000000	11.118321
1101.000000	11.122139
1100.000000	11.125534
1099.000000	11.116910
1098.000000	11.132136
1097.000000	11.123317
1096.000000	11.103300
1095.000000	11.091953
1094.000000	11.109120
1093.000000	11.111299
1092.000000	11.115854
1091.000000	11.127925
1090.000000	11.126808
1089.000000	11.131412
1088.000000	11.107288
1087.000000	11.077422
1086.000000	11.085506
1085.000000	11.111641
1084.000000	11.112911
1083.000000	11.116918
1082.000000	11.110394
1081.000000	11.095837
1080.000000	11.073783
1079.000000	11.077291
1078.000000	11.074766
1077.000000	11.084061
1076.000000	11.089060
1075.000000	11.095779
1074.000000	11.068346
1073.000000	11.058606
1072.000000	11.074737
1071.000000	11.075866
1070.000000	11.082040
1069.000000	11.093320
1068.000000	11.094699
1067.000000	11.057411
1066.000000	11.045353
1065.000000	11.041126
1064.000000	11.053633
1063.000000	11.041145
1062.000000	11.062730
1061.000000	11.059161
1060.000000	11.048010
1059.000000	11.037969
1058.000000	11.051837
1057.000000	11.053356
1056.000000	11.054659
1055.000000	11.044179
1054.000000	11.037612
1053.000000	11.038136
1052.000000	11.047576
1051.000000	11.041257
1050.000000	11.045350
1049.000000	11.036241
1048.000000	11.005256
1047.000000	11.039995
1046.000000	11.060184
1045.000000	11.042341
1044.000000	11.032409
1043.000000	11.009943
1042.000000	11.019473
1041.000000	11.028384
1040.000000	11.029787
1039.000000	11.012454
1038.000000	11.019489
1037.000000	11.029291
1036.000000	11.046084
1035.000000	11.014648
1034.000000	11.023245
1033.000000	11.022424
1032.000000	11.030935
1031.000000	11.018122
1030.000000	11.029403
1029.000000	11.028964
1028.000000	11.043325
1027.000000	11.024141
1026.000000	11.026417
1025.000000	11.032123
1024.000000	11.042709
1023.000000	11.019343
1022.000000	11.017636
1021.000000	11.015969
1020.000000	11.015758
1019.000000	11.025519
1018.000000	11.026113
1017.000000	11.038437
1016.000000	11.022794
1015.000000	11.011597
1014.000000	11.025044
1013.000000	11.020099
1012.000000	11.019682
1011.000000	11.033820
1010.000000	11.030323
1009.000000	11.023139
1008.000000	11.038853
1007.000000	11.026968
1006.000000	11.038926
1005.000000	11.036724
1004.000000	11.030874
1003.000000	11.034435
1002.000000	11.056048
1001.000000	11.040090
1000.000000	11.048775
999.000000	11.030193
998.000000	11.045271
997.000000	11.058746
996.000000	11.051592
995.000000	11.062888
994.000000	11.069015
993.000000	11.077119
992.000000	11.075149
991.000000	11.087203
990.000000	11.080815
989.000000	11.089506
988.000000	11.098004
987.000000	11.098718
986.000000	11.100504
985.000000	11.121800
984.000000	11.136172
983.000000	11.145343
982.000000	11.147642
981.000000	11.145568
980.000000	11.160731
979.000000	11.160517
978.000000	11.173421
977.000000	11.176347
976.000000	11.183506
975.000000	11.191659
974.000000	11.177406
973.000000	11.170582
972.000000	11.185923
971.000000	11.187912
970.000000	11.190647
969.000000	11.198446
968.000000	11.184320
967.000000	11.190948
966.000000	11.194039
965.000000	11.187198
964.000000	11.182487
963.000000	11.180974
962.000000	11.174791
961.000000	11.170620
960.000000	11.169406
959.000000	11.167034
958.000000	11.163697
957.000000	11.164365
956.000000	11.165600
955.000000	11.174800
954.000000	11.162819
953.000000	11.160086
952.000000	11.178808
951.000000	11.175611
950.000000	11.163725
949.000000	11.163161
948.000000	11.158547
947.000000	11.152775
946.000000	11.159316
945.000000	11.156055
944.000000	11.140295
943.000000	11.136557
942.000000	11.147055
941.000000	11.135512
940.000000	11.131840
939.000000	11.135953
938.000000	11.112095
937.000000	11.097535
936.000000	11.086831
935.000000	11.081581
934.000000	11.091494
933.000000	11.086297
932.000000	11.098379
931.000000	11.097432
930.000000	11.090706
929.000000	11.077812
928.000000	11.069628
927.000000	11.077192
926.000000	11.070977
925.000000	11.063850
924.000000	11.037517
923.000000	11.046005
922.000000	11.055622
921.000000	11.045313
920.000000	11.058202
919.000000	11.046576
918.000000	11.031488
917.000000	11.044253
916.000000	11.061455
915.000000	11.043236
914.000000	11.027680
913.000000	11.031470
912.000000	11.027752
911.000000	11.009869
910.000000	11.025921
909.000000	11.011061
908.000000	11.011400
907.000000	11.031168
906.000000	11.055666
905.000000	11.037395
904.000000	11.011003
903.000000	11.025927
902.000000	11.046612
901.000000	11.010988
900.000000	10.979937
899.000000	10.993781
898.000000	11.033525
897.000000	11.005721
896.000000	10.968817
895.000000	10.957784
894.000000	11.029162
893.000000	10.983663
892.000000	10.974417
891.000000	11.011424
890.000000	11.029108
889.000000	10.960641
888.000000	10.982098
887.000000	10.971863
886.000000	10.910089
885.000000	10.940558
884.000000	10.968560
883.000000	10.955662
882.000000	10.915993
881.000000	10.898947
880.000000	10.959610
879.000000	10.902464
878.000000	10.887353
877.000000	10.914015
876.000000	10.946698
875.000000	10.966239
874.000000	10.911372
873.000000	10.907097
872.000000	10.841723
871.000000	10.860010
870.000000	10.871320
869.000000	10.894049
868.000000	10.834446
867.000000	10.803899
866.000000	10.818201
865.000000	10.983394
864.000000	10.865634
863.000000	10.865545
862.000000	10.928643
861.000000	10.773553
860.000000	10.705672
859.000000	10.156868
858.000000	10.075716
857.000000	10.033335
856.000000	9.996648
855.000000	9.971870
854.000000	9.972611
853.000000	9.959916
852.000000	9.946380
851.000000	9.926974
850.000000	9.952671
849.000000	9.976330
848.000000	9.909867
847.000000	9.942218
846.000000	9.962390
845.000000	9.914384
844.000000	9.901394
843.000000	9.882228
842.000000	9.904589
841.000000	9.799706
840.000000	9.898048
839.000000	9.821998
838.000000	9.844145
837.000000	9.847686
836.000000	9.811823
835.000000	9.843572
834.000000	9.767434
833.000000	9.864803
832.000000	9.824527
831.000000	9.801302
830.000000	9.795492
829.000000	9.732040
828.000000	9.744500
827.000000	9.723810
826.000000	9.762014
825.000000	9.757590
824.000000	9.753184
823.000000	9.664110
822.000000	9.693062
821.000000	9.661731
820.000000	9.695836
819.000000	9.662858
818.000000	9.645157
817.000000	9.656424
816.000000	9.599424
815.000000	9.629162
814.000000	9.627508
813.000000	9.605285
812.000000	9.582282
811.000000	9.563437
810.000000	9.540086
809.000000	9.572375
808.000000	9.582858
807.000000	9.565284
806.000000	9.554885
805.000000	9.507593
804.000000	9.495821
803.000000	9.495451
802.000000	9.489014
801.000000	9.496401
800.000000	9.479637
799.000000	9.474743
798.000000	9.438290
797.000000	9.447244
796.000000	9.437885
795.000000	9.438932
794.000000	9.419915
793.000000	9.429020
792.000000	9.418070
791.000000	9.368285
790.000000	9.371350
789.000000	9.362873
788.000000	9.326724
787.000000	9.343309
786.000000	9.331125
785.000000	9.303720
784.000000	9.298165
783.000000	9.282956
782.000000	9.261006
781.000000	9.270321
780.000000	9.258192
779.000000	9.257555
778.000000	9.202574
777.000000	9.229956
776.000000	9.204823
775.000000	9.182683
774.000000	9.173356
773.000000	9.161319
772.000000	9.142838
771.000000	9.145601
770.000000	9.112867
769.000000	9.113033
768.000000	9.111641
767.000000	9.101931
766.000000	9.077404
765.000000	9.047813
764.000000	9.049886
763.000000	9.055663
762.000000	9.041942
761.000000	8.997219
760.000000	8.986923
759.000000	8.993319
758.000000	8.976208
757.000000	8.964082
756.000000	8.939397
755.000000	8.935746
754.000000	8.921079
753.000000	8.895992
752.000000	8.885986
751.000000	8.880464
750.000000	8.849439
749.000000	8.831680
748.000000	8.808548
747.000000	8.814993
746.000000	8.806246
745.000000	8.793136
744.000000	8.780454
743.000000	8.746143
742.000000	8.740122
741.000000	8.731394
740.000000	8.702401
739.000000	8.691212
738.000000	8.683637
737.000000	8.670034
736.000000	8.668635
735.000000	8.658055
734.000000	8.630030
733.000000	8.601877
732.000000	8.573162
731.000000	8.566984
730.000000	8.554205
729.000000	8.542720
728.000000	8.530279
727.000000	8.524876
726.000000	8.507148
725.000000	8.472541
724.000000	8.452600
723.000000	8.440967
722.000000	8.429647
721.000000	8.416751
720.000000	8.397010
719.000000	8.380052
718.000000	8.353158
717.000000	8.339970
716.000000	8.340575
715.000000	8.309115
714.000000	8.289863
713.000000	8.287015
712.000000	8.267893
711.000000	8.253532
710.000000	8.222616
709.000000	8.208451
708.000000	8.194908
707.000000	8.172439
706.000000	8.156607
705.000000	8.144316
704.000000	8.121014
703.000000	8.088154
702.000000	8.070552
701.000000	8.046843
700.000000	8.029087
699.000000	8.018648
698.000000	8.002238
697.000000	7.993669
696.000000	7.975341
695.000000	7.941758
694.000000	7.918399
693.000000	7.894766
692.000000	7.892710
691.000000	7.880467
690.000000	7.847789
689.000000	7.805572
688.000000	7.786000
687.000000	7.780247
686.000000	7.753587
685.000000	7.714631
684.000000	7.700013
683.000000	7.693864
682.000000	7.666394
681.000000	7.646663
680.000000	7.628455
679.000000	7.604454
678.000000	7.590069
677.000000	7.566422
676.000000	7.545346
675.000000	7.522789
674.000000	7.497728
673.000000	7.487803
672.000000	7.463861
671.000000	7.440237
670.000000	7.409116
669.000000	7.388177
668.000000	7.379862
667.000000	7.357520
666.000000	7.332356
665.000000	7.306506
664.000000	7.285629
663.000000	7.264379
662.000000	7.239392
661.000000	7.211877
660.000000	7.190760
659.000000	7.172699
658.000000	7.151317
657.000000	7.133644
656.000000	7.114447
655.000000	7.095777
654.000000	7.061692
653.000000	7.051096
652.000000	7.023359
651.000000	6.987823
650.000000	6.968500
649.000000	6.947530
648.000000	6.930635
647.000000	6.902480
646.000000	6.882084
645.000000	6.855902
644.000000	6.820637
643.000000	6.801600
642.000000	6.784331
641.000000	6.770057
640.000000	6.731233
639.000000	6.699767
638.000000	6.682012
637.000000	6.667724
636.000000	6.643013
635.000000	6.609004
634.000000	6.597024
633.000000	6.568131
632.000000	6.539014
631.000000	6.520313
630.000000	6.501780
629.000000	6.480482
628.000000	6.452501
627.000000	6.419046
626.000000	6.395054
625.000000	6.375426
624.000000	6.344088
623.000000	6.314612
622.000000	6.291949
621.000000	6.265699
620.000000	6.240421
619.000000	6.206124
618.000000	6.182428
617.000000	6.159204
616.000000	6.132397
615.000000	6.107475
614.000000	6.078626
613.000000	6.062100
612.000000	6.037812
611.000000	6.010282
610.000000	5.971345
609.000000	5.959421
608.000000	5.922055
607.000000	5.896918
606.000000	5.874121
605.000000	5.839086
604.000000	5.813110
603.000000	5.783486
602.000000	5.754804
601.000000	5.747685
600.000000	5.704003
599.000000	5.689450
598.000000	5.650975
597.000000	5.634585
596.000000	5.603442
595.000000	5.573513
594.000000	5.534867
593.000000	5.504576
592.000000	5.480470
591.000000	5.464706
590.000000	5.425037
589.000000	5.396569
588.000000	5.373405
587.000000	5.350507
586.000000	5.323778
585.000000	5.288192
584.000000	5.268842
583.000000	5.239075
582.000000	5.213901
581.000000	5.168968
580.000000	5.149785
579.000000	5.112261
578.000000	5.088378
577.000000	5.058467
576.000000	5.020189
575.000000	4.990152
574.000000	4.971857
573.000000	4.931568
572.000000	4.911976
571.000000	4.899259
570.000000	4.854639
569.000000	4.830326
568.000000	4.805262
567.000000	4.768467
566.000000	4.735368
565.000000	4.705427
564.000000	4.683735
563.000000	4.641590
562.000000	4.615393
561.000000	4.588590
560.000000	4.566225
559.000000	4.540535
558.000000	4.506697
557.000000	4.472908
556.000000	4.444240
555.000000	4.422639
554.000000	4.378907
553.000000	4.352251
552.000000	4.326687
551.000000	4.290487
550.000000	4.258289
549.000000	4.225819
548.000000	4.202736
547.000000	4.161284
546.000000	4.131831
545.000000	4.098615
544.000000	4.071825
543.000000	4.037153
542.000000	4.000078
541.000000	3.973403
540.000000	3.936884
539.000000	3.906819
538.000000	3.882190
537.000000	3.844925
536.000000	3.808904
535.000000	3.773382
534.000000	3.743750
533.000000	3.710011
532.000000	3.677236
531.000000	3.644282
530.000000	3.607006
529.000000	3.572755
528.000000	3.539055
527.000000	3.508767
526.000000	3.482511
525.000000	3.446632
524.000000	3.406145
523.000000	3.369024
522.000000	3.334866
521.000000	3.300141
520.000000	3.258436
519.000000	3.222650
518.000000	3.188978
517.000000	3.161307
516.000000	3.127109
515.000000	3.087835
514.000000	3.050450
513.000000	3.015088
512.000000	2.980405
511.000000	2.946590
510.000000	2.909599
509.000000	2.877255
508.000000	2.842503
507.000000	2.806884
506.000000	2.773526
505.000000	2.743390
504.000000	2.709972
503.000000	2.683836
502.000000	2.648814
501.000000	2.617740
500.000000	2.586315
499.000000	2.559955
498.000000	2.533480
497.000000	2.502637
496.000000	2.473818
495.000000	2.449081
494.000000	2.418247
493.000000	2.389298
492.000000	2.364505
491.000000	2.340705
490.000000	2.314134
489.000000	2.291010
488.000000	2.262989
487.000000	2.237375
486.000000	2.218339
485.000000	2.195198
484.000000	2.173511
483.000000	2.152368
482.000000	2.131439
481.000000	2.101105
480.000000	2.069781
479.000000	2.038886
478.000000	2.003780
477.000000	1.974963
476.000000	1.951453
475.000000	1.931128
474.000000	1.901901
473.000000	1.871278
472.000000	1.839948
471.000000	1.810629
470.000000	1.786185
469.000000	1.761281
468.000000	1.735664
467.000000	1.707748
466.000000	1.679140
465.000000	1.652587
464.000000	1.625143
463.000000	1.602792
462.000000	1.578184
461.000000	1.550258
460.000000	1.523365
459.000000	1.496517
458.000000	1.473867
457.000000	1.447234
456.000000	1.419823
455.000000	1.398201
454.000000	1.372225
453.000000	1.341554
452.000000	1.311741
451.000000	1.289220
450.000000	1.269879
449.000000	1.243945
448.000000	1.218826
447.000000	1.199369
446.000000	1.178001
445.000000	1.159578
444.000000	1.140830
443.000000	1.114315
442.000000	1.091810
441.000000	1.071338
440.000000	1.049988
439.000000	1.028287
438.000000	1.006572
437.000000	0.984646
436.000000	0.964253
435.000000	0.944550
434.000000	0.926940
433.000000	0.907813
432.000000	0.889323
431.000000	0.872917
430.000000	0.853946
429.000000	0.831580
428.000000	0.814828
427.000000	0.797791
426.000000	0.785492
425.000000	0.765746
424.000000	0.743903
423.000000	0.727453
422.000000	0.710373
421.000000	0.694725
420.000000	0.678897
419.000000	0.660932
418.000000	0.641083
417.000000	0.623911
416.000000	0.611712
415.000000	0.594216
414.000000	0.574716
413.000000	0.559950
412.000000	0.544362
411.000000	0.530486
410.000000	0.514221
409.000000	0.497382
408.000000	0.486298
407.000000	0.471475
406.000000	0.455725
405.000000	0.444476
404.000000	0.429575
403.000000	0.414566
402.000000	0.403898
401.000000	0.390034
400.000000	0.375407
399.000000	0.363585
398.000000	0.354246
397.000000	0.343169
396.000000	0.333021
395.000000	0.322914
394.000000	0.308192
393.000000	0.298578
392.000000	0.290466
391.000000	0.278537
390.000000	0.269502
389.000000	0.263914
388.000000	0.253104
387.000000	0.245029
386.000000	0.232090
385.000000	0.225516
384.000000	0.218261
383.000000	0.208953
382.000000	0.200522
381.000000	0.191300
380.000000	0.188651
379.000000	0.177010
378.000000	0.169827
377.000000	0.189958
376.000000	0.187358
375.000000	0.174621
374.000000	0.173098
373.000000	0.162917
372.000000	0.151585
371.000000	0.146623
370.000000	0.139289
369.000000	0.136598
368.000000	0.130410
367.000000	0.126324
366.000000	0.115353
365.000000	0.111805
364.000000	0.106612
363.000000	0.101495
362.000000	0.099277
361.000000	0.091843
360.000000	0.092804
359.000000	0.087410
358.000000	0.082481
357.000000	0.075126
356.000000	0.079544
355.000000	0.073351
354.000000	0.071115
353.000000	0.060952
352.000000	0.064381
351.000000	0.065409
350.000000	0.065239
349.000000	0.057830
348.000000	0.062275
347.000000	0.054388
346.000000	0.055946
345.000000	0.047504
344.000000	0.055244
343.000000	0.048309
342.000000	0.044494
341.000000	0.041684
340.000000	0.041871
339.000000	0.044365
338.000000	0.038410
337.000000	0.043603
336.000000	0.042338
335.000000	0.036353
334.000000	0.036665
333.000000	0.030084
332.000000	0.036017
331.000000	0.034421
330.000000	0.030890
329.000000	0.031778
328.000000	0.031757
327.000000	0.026843
326.000000	0.025985
325.000000	0.023124
324.000000	0.018330
323.000000	0.020677
322.000000	0.026620
321.000000	0.029833
320.000000	0.032188
319.000000	0.032915
318.000000	0.036531
317.000000	0.035206
316.000000	0.039204
315.000000	0.040445
314.000000	0.044470
313.000000	0.042047
312.000000	0.044422
311.000000	0.040682
310.000000	0.036888
309.000000	0.039523
308.000000	0.041336
307.000000	0.037071
306.000000	0.040481
305.000000	0.043105
304.000000	0.036050
303.000000	0.039622
302.000000	0.038011
301.000000	0.037586
300.000000	0.036832
299.000000	0.036172
298.000000	0.040863
297.000000	0.037305
296.000000	0.038172
295.000000	0.037882
294.000000	0.040430
293.000000	0.038459
292.000000	0.040303
291.000000	0.034187
290.000000	0.037422
289.000000	0.035107
288.000000	0.038069
287.000000	0.037018
286.000000	0.033007
285.000000	0.037419
284.000000	0.039903
283.000000	0.038385
282.000000	0.040172
281.000000	0.036559
280.000000	0.030165
279.000000	0.039691
278.000000	0.044840
277.000000	0.047173
276.000000	0.040888
275.000000	0.044599
274.000000	0.043454
273.000000	0.049073
272.000000	0.047559
271.000000	0.047647
270.000000	0.049417
269.000000	0.048650
268.000000	0.051199
267.000000	0.054862
266.000000	0.054196
265.000000	0.051577
264.000000	0.048903
263.000000	0.049415
262.000000	0.050090
261.000000	0.056852
260.000000	0.060027
259.000000	0.056242
258.000000	0.055640
257.000000	0.054737
256.000000	0.059603
255.000000	0.058172
254.000000	0.063912
253.000000	0.056861
252.000000	0.061854
251.000000	0.061002
250.000000	0.062234
249.000000	0.063487
248.000000	0.063907
247.000000	0.055960
246.000000	0.056269
245.000000	0.054012
244.000000	0.056192
243.000000	0.064149
242.000000	0.062852
241.000000	0.054449
240.000000	0.044772
239.000000	0.045393
238.000000	0.043657
237.000000	0.041918
236.000000	0.041066
235.000000	0.042678
234.000000	0.041824
233.000000	0.042045
232.000000	0.039304
231.000000	0.036817
230.000000	0.034334
229.000000	0.024743
228.000000	0.021513
227.000000	0.025126
226.000000	0.025934
225.000000	0.018799
224.000000	0.023686
223.000000	0.017480
222.000000	0.008116
221.000000	0.010780
220.000000	0.011831
219.000000	0.011437
218.000000	0.003474
217.000000	-0.002772
216.000000	0.003712
215.000000	0.006947
214.000000	0.009866
213.000000	0.005608
212.000000	0.003550
211.000000	0.003465
210.000000	-0.002743
209.000000	-0.002751
208.000000	-0.006479
207.000000	-0.009182
206.000000	-0.006319
205.000000	-0.016898
204.000000	-0.015382
203.000000	-0.024685
202.000000	-0.047648
201.000000	-0.043646
200.000000	-0.027038
