PE UV       SUBTECH     SPECTRUM    ASCII       PEDS        4.00        
   -1
TTmsfkat91.Sample.asc
18/03/14
11:23:14.00
18/03/14
11:23:14.00
Administrator

200.000000
1
Lambda 750
750N8071901
PerkinElmer UV WinLab 6.0.4.0738 / 1.61.00 Lambda 900

0
0
3350/servo 860.8/2
0
0
UV/VIS
1
1
1
CommonBeamDepol,150mm sphere / downward view
0
0
0
0
Program
Program
3350/servo 860.8/2
3350/0.2 860.8/0.2
3350/0.2 860.8/0.2
0
1
 
 
 
0
 
860.8
319.2
860.8
Front
100
on
 
 
0
0
0
 
0
 
 
 
0
 
 
0
0
0
0
0
 
 
 
 
0
0


0
0
#HDR
-1
-1
#GR
nm
%T
1.0
0.0
2350.000000
-1.000000
2151
8
14.946114
0.064348
#DATA
2350.000000	5.502214
2349.000000	5.311546
2348.000000	5.150816
2347.000000	5.749649
2346.000000	5.940359
2345.000000	5.707619
2344.000000	5.494246
2343.000000	5.608961
2342.000000	5.710911
2341.000000	5.907978
2340.000000	5.727040
2339.000000	5.935070
2338.000000	6.010597
2337.000000	6.545954
2336.000000	6.380167
2335.000000	6.653142
2334.000000	6.275809
2333.000000	6.570346
2332.000000	6.549364
2331.000000	6.512022
2330.000000	6.356274
2329.000000	6.278220
2328.000000	6.295335
2327.000000	6.283694
2326.000000	6.281131
2325.000000	6.298599
2324.000000	6.055301
2323.000000	6.049744
2322.000000	6.188717
2321.000000	6.085911
2320.000000	6.137193
2319.000000	6.140174
2318.000000	5.887349
2317.000000	5.913964
2316.000000	5.805810
2315.000000	5.892215
2314.000000	5.916770
2313.000000	5.819132
2312.000000	5.677231
2311.000000	5.721776
2310.000000	6.046671
2309.000000	5.878155
2308.000000	5.786906
2307.000000	5.681532
2306.000000	5.811161
2305.000000	5.745317
2304.000000	5.609429
2303.000000	5.737198
2302.000000	5.695972
2301.000000	5.608409
2300.000000	5.535841
2299.000000	5.653867
2298.000000	5.416827
2297.000000	5.475791
2296.000000	5.539273
2295.000000	5.399695
2294.000000	5.300893
2293.000000	5.421260
2292.000000	5.519003
2291.000000	5.558216
2290.000000	5.471106
2289.000000	5.458364
2288.000000	5.290843
2287.000000	5.343606
2286.000000	5.360018
2285.000000	5.142168
2284.000000	5.156984
2283.000000	5.195664
2282.000000	5.325508
2281.000000	5.207369
2280.000000	5.275297
2279.000000	5.304941
2278.000000	5.345989
2277.000000	5.377814
2276.000000	5.303539
2275.000000	5.340027
2274.000000	5.250181
2273.000000	5.333318
2272.000000	5.432519
2271.000000	5.398027
2270.000000	5.445750
2269.000000	5.426607
2268.000000	5.344107
2267.000000	5.380469
2266.000000	5.436194
2265.000000	5.498575
2264.000000	5.480131
2263.000000	5.477851
2262.000000	5.565110
2261.000000	5.699961
2260.000000	5.730031
2259.000000	5.731471
2258.000000	5.828225
2257.000000	5.976290
2256.000000	5.999527
2255.000000	5.966505
2254.000000	5.976649
2253.000000	6.110134
2252.000000	6.213958
2251.000000	6.288069
2250.000000	6.365023
2249.000000	6.398919
2248.000000	6.473635
2247.000000	6.536117
2246.000000	6.661491
2245.000000	6.705245
2244.000000	6.685793
2243.000000	6.822361
2242.000000	6.887848
2241.000000	6.826413
2240.000000	6.900604
2239.000000	6.971038
2238.000000	6.968471
2237.000000	6.984877
2236.000000	7.063046
2235.000000	7.182162
2234.000000	7.216004
2233.000000	7.067921
2232.000000	6.989646
2231.000000	7.170309
2230.000000	7.171237
2229.000000	7.201419
2228.000000	7.303196
2227.000000	7.264234
2226.000000	7.113197
2225.000000	7.097299
2224.000000	7.083499
2223.000000	7.090221
2222.000000	7.187268
2221.000000	7.200173
2220.000000	7.198803
2219.000000	7.143226
2218.000000	7.113301
2217.000000	7.046657
2216.000000	7.096352
2215.000000	7.230395
2214.000000	7.125593
2213.000000	6.971491
2212.000000	7.016187
2211.000000	6.942697
2210.000000	6.803746
2209.000000	6.765868
2208.000000	6.944525
2207.000000	6.907030
2206.000000	6.896517
2205.000000	6.859174
2204.000000	6.794933
2203.000000	6.785754
2202.000000	6.806707
2201.000000	6.669395
2200.000000	6.581165
2199.000000	6.744053
2198.000000	6.680600
2197.000000	6.611960
2196.000000	6.535913
2195.000000	6.406286
2194.000000	6.443624
2193.000000	6.480514
2192.000000	6.458246
2191.000000	6.420195
2190.000000	6.439950
2189.000000	6.362516
2188.000000	6.374762
2187.000000	6.394996
2186.000000	6.341154
2185.000000	6.292243
2184.000000	6.284208
2183.000000	6.337948
2182.000000	6.398103
2181.000000	6.277889
2180.000000	6.227580
2179.000000	6.062047
2178.000000	6.248847
2177.000000	6.293691
2176.000000	6.178106
2175.000000	6.222122
2174.000000	6.193183
2173.000000	6.262098
2172.000000	6.376664
2171.000000	6.356197
2170.000000	6.310991
2169.000000	6.358243
2168.000000	6.408346
2167.000000	6.415225
2166.000000	6.422145
2165.000000	6.440755
2164.000000	6.455058
2163.000000	6.362972
2162.000000	6.405764
2161.000000	6.541368
2160.000000	6.635522
2159.000000	6.694162
2158.000000	6.526569
2157.000000	6.757557
2156.000000	6.715434
2155.000000	6.744616
2154.000000	6.989057
2153.000000	7.012969
2152.000000	6.976814
2151.000000	7.064840
2150.000000	7.212204
2149.000000	7.137445
2148.000000	7.020436
2147.000000	7.075779
2146.000000	7.161958
2145.000000	7.332916
2144.000000	7.258518
2143.000000	7.126101
2142.000000	7.176748
2141.000000	7.597374
2140.000000	7.519430
2139.000000	7.631139
2138.000000	7.527127
2137.000000	7.554282
2136.000000	7.433972
2135.000000	7.436961
2134.000000	7.586424
2133.000000	7.374003
2132.000000	7.691657
2131.000000	7.912055
2130.000000	7.753507
2129.000000	7.718851
2128.000000	7.682830
2127.000000	7.749967
2126.000000	7.768369
2125.000000	7.577797
2124.000000	7.560428
2123.000000	7.743830
2122.000000	7.780838
2121.000000	7.760567
2120.000000	7.633883
2119.000000	7.739411
2118.000000	7.845564
2117.000000	7.817395
2116.000000	7.741395
2115.000000	8.007045
2114.000000	7.915222
2113.000000	7.760379
2112.000000	7.944571
2111.000000	7.797501
2110.000000	7.896739
2109.000000	7.852631
2108.000000	7.841263
2107.000000	7.925739
2106.000000	7.890666
2105.000000	7.881623
2104.000000	7.919613
2103.000000	7.888484
2102.000000	7.847496
2101.000000	7.921559
2100.000000	7.956138
2099.000000	7.787196
2098.000000	7.751464
2097.000000	7.876246
2096.000000	7.774214
2095.000000	7.823084
2094.000000	7.858943
2093.000000	7.854350
2092.000000	7.827093
2091.000000	7.839677
2090.000000	7.774725
2089.000000	7.762178
2088.000000	7.777560
2087.000000	7.758285
2086.000000	7.795945
2085.000000	7.692704
2084.000000	7.566630
2083.000000	7.596828
2082.000000	7.626603
2081.000000	7.671652
2080.000000	7.664926
2079.000000	7.555504
2078.000000	7.456076
2077.000000	7.504575
2076.000000	7.410390
2075.000000	7.348495
2074.000000	7.355684
2073.000000	7.347778
2072.000000	7.288493
2071.000000	7.212480
2070.000000	7.199009
2069.000000	7.183702
2068.000000	7.025849
2067.000000	6.975177
2066.000000	6.946213
2065.000000	6.898832
2064.000000	6.866051
2063.000000	6.848370
2062.000000	6.834709
2061.000000	6.744901
2060.000000	6.660293
2059.000000	6.597874
2058.000000	6.497542
2057.000000	6.480229
2056.000000	6.467938
2055.000000	6.394436
2054.000000	6.306223
2053.000000	6.292949
2052.000000	6.236373
2051.000000	6.182477
2050.000000	6.155186
2049.000000	6.117300
2048.000000	6.102348
2047.000000	6.081431
2046.000000	6.001632
2045.000000	6.011100
2044.000000	6.042192
2043.000000	6.026002
2042.000000	5.970109
2041.000000	6.038456
2040.000000	6.097588
2039.000000	6.068014
2038.000000	6.010062
2037.000000	6.017025
2036.000000	6.063673
2035.000000	6.136950
2034.000000	6.181173
2033.000000	6.199789
2032.000000	6.186353
2031.000000	6.183966
2030.000000	6.264824
2029.000000	6.329666
2028.000000	6.351327
2027.000000	6.376369
2026.000000	6.403924
2025.000000	6.418316
2024.000000	6.455227
2023.000000	6.470555
2022.000000	6.431288
2021.000000	6.414938
2020.000000	6.444307
2019.000000	6.470614
2018.000000	6.442821
2017.000000	6.440110
2016.000000	6.457126
2015.000000	6.442520
2014.000000	6.433933
2013.000000	6.430461
2012.000000	6.393365
2011.000000	6.400264
2010.000000	6.393590
2009.000000	6.300288
2008.000000	6.234145
2007.000000	6.221551
2006.000000	6.193843
2005.000000	6.144800
2004.000000	6.118523
2003.000000	6.104911
2002.000000	6.087985
2001.000000	6.059218
2000.000000	5.999856
1999.000000	5.990773
1998.000000	5.957081
1997.000000	5.927023
1996.000000	5.869190
1995.000000	5.840302
1994.000000	5.829541
1993.000000	5.739190
1992.000000	5.687994
1991.000000	5.657353
1990.000000	5.611700
1989.000000	5.598321
1988.000000	5.589891
1987.000000	5.530825
1986.000000	5.488523
1985.000000	5.441376
1984.000000	5.379894
1983.000000	5.329884
1982.000000	5.302279
1981.000000	5.315295
1980.000000	5.296664
1979.000000	5.225994
1978.000000	5.139660
1977.000000	5.140263
1976.000000	5.101117
1975.000000	5.069612
1974.000000	5.053247
1973.000000	5.011959
1972.000000	4.974769
1971.000000	4.980078
1970.000000	4.977824
1969.000000	4.941668
1968.000000	4.921281
1967.000000	4.872294
1966.000000	4.810442
1965.000000	4.810390
1964.000000	4.753190
1963.000000	4.727652
1962.000000	4.708851
1961.000000	4.685240
1960.000000	4.624431
1959.000000	4.594987
1958.000000	4.582434
1957.000000	4.601290
1956.000000	4.598260
1955.000000	4.571831
1954.000000	4.573929
1953.000000	4.548305
1952.000000	4.573158
1951.000000	4.558302
1950.000000	4.473224
1949.000000	4.444629
1948.000000	4.474478
1947.000000	4.481601
1946.000000	4.491083
1945.000000	4.490851
1944.000000	4.496952
1943.000000	4.495537
1942.000000	4.566721
1941.000000	4.561885
1940.000000	4.589030
1939.000000	4.568223
1938.000000	4.628510
1937.000000	4.588689
1936.000000	4.645411
1935.000000	4.657989
1934.000000	4.685536
1933.000000	4.711713
1932.000000	4.785697
1931.000000	4.836907
1930.000000	4.804208
1929.000000	4.919911
1928.000000	4.964833
1927.000000	5.028247
1926.000000	5.124983
1925.000000	5.236770
1924.000000	5.274053
1923.000000	5.427176
1922.000000	5.504620
1921.000000	5.490358
1920.000000	5.588323
1919.000000	5.601392
1918.000000	5.746477
1917.000000	5.911953
1916.000000	5.920491
1915.000000	6.110385
1914.000000	6.254316
1913.000000	6.419423
1912.000000	6.558305
1911.000000	6.567551
1910.000000	6.750071
1909.000000	6.887148
1908.000000	7.056414
1907.000000	7.175842
1906.000000	7.323396
1905.000000	7.557113
1904.000000	7.690113
1903.000000	7.884812
1902.000000	8.041727
1901.000000	8.251956
1900.000000	8.415222
1899.000000	8.627987
1898.000000	8.766803
1897.000000	8.943550
1896.000000	9.215430
1895.000000	9.363563
1894.000000	9.546912
1893.000000	9.742352
1892.000000	9.955627
1891.000000	10.115761
1890.000000	10.278294
1889.000000	10.475818
1888.000000	10.663326
1887.000000	10.792149
1886.000000	10.982002
1885.000000	11.161539
1884.000000	11.310445
1883.000000	11.463480
1882.000000	11.600289
1881.000000	11.725332
1880.000000	11.850036
1879.000000	11.964494
1878.000000	12.084671
1877.000000	12.254734
1876.000000	12.353114
1875.000000	12.513399
1874.000000	12.572061
1873.000000	12.674736
1872.000000	12.795005
1871.000000	12.879609
1870.000000	12.937566
1869.000000	13.008635
1868.000000	13.058432
1867.000000	13.081078
1866.000000	13.117673
1865.000000	13.127984
1864.000000	13.126866
1863.000000	13.142745
1862.000000	13.172040
1861.000000	13.203409
1860.000000	13.283176
1859.000000	13.285407
1858.000000	13.268859
1857.000000	13.312830
1856.000000	13.334863
1855.000000	13.317245
1854.000000	13.355325
1853.000000	13.404655
1852.000000	13.381086
1851.000000	13.379526
1850.000000	13.382189
1849.000000	13.386652
1848.000000	13.366302
1847.000000	13.347402
1846.000000	13.352247
1845.000000	13.352006
1844.000000	13.360448
1843.000000	13.326246
1842.000000	13.303154
1841.000000	13.340308
1840.000000	13.304378
1839.000000	13.270069
1838.000000	13.255086
1837.000000	13.203574
1836.000000	13.195404
1835.000000	13.161716
1834.000000	13.147393
1833.000000	13.141094
1832.000000	13.136902
1831.000000	13.084561
1830.000000	13.078152
1829.000000	13.066449
1828.000000	13.051377
1827.000000	13.008060
1826.000000	12.981595
1825.000000	12.964410
1824.000000	12.945345
1823.000000	12.932301
1822.000000	12.895470
1821.000000	12.849850
1820.000000	12.830431
1819.000000	12.820757
1818.000000	12.808605
1817.000000	12.807451
1816.000000	12.783001
1815.000000	12.754615
1814.000000	12.744915
1813.000000	12.725279
1812.000000	12.695891
1811.000000	12.688854
1810.000000	12.687475
1809.000000	12.676566
1808.000000	12.674469
1807.000000	12.645819
1806.000000	12.614862
1805.000000	12.604735
1804.000000	12.574475
1803.000000	12.558906
1802.000000	12.557767
1801.000000	12.537826
1800.000000	12.528541
1799.000000	12.532161
1798.000000	12.530927
1797.000000	12.525147
1796.000000	12.489177
1795.000000	12.475604
1794.000000	12.496489
1793.000000	12.490088
1792.000000	12.469220
1791.000000	12.445571
1790.000000	12.439977
1789.000000	12.438567
1788.000000	12.428773
1787.000000	12.432707
1786.000000	12.435941
1785.000000	12.434769
1784.000000	12.408719
1783.000000	12.401303
1782.000000	12.408477
1781.000000	12.407181
1780.000000	12.382242
1779.000000	12.387813
1778.000000	12.385648
1777.000000	12.345794
1776.000000	12.304116
1775.000000	12.292512
1774.000000	12.269428
1773.000000	12.254304
1772.000000	12.262167
1771.000000	12.229193
1770.000000	12.211016
1769.000000	12.194264
1768.000000	12.135752
1767.000000	12.111637
1766.000000	12.101684
1765.000000	12.084965
1764.000000	12.070494
1763.000000	12.037803
1762.000000	12.004143
1761.000000	11.993869
1760.000000	11.956472
1759.000000	11.922137
1758.000000	11.925249
1757.000000	11.913722
1756.000000	11.891219
1755.000000	11.859992
1754.000000	11.846966
1753.000000	11.809686
1752.000000	11.782445
1751.000000	11.785316
1750.000000	11.778778
1749.000000	11.763298
1748.000000	11.716931
1747.000000	11.680558
1746.000000	11.658936
1745.000000	11.638890
1744.000000	11.624605
1743.000000	11.621553
1742.000000	11.583738
1741.000000	11.555172
1740.000000	11.519633
1739.000000	11.523516
1738.000000	11.534577
1737.000000	11.506723
1736.000000	11.464188
1735.000000	11.473198
1734.000000	11.511187
1733.000000	11.496950
1732.000000	11.477212
1731.000000	11.473945
1730.000000	11.445724
1729.000000	11.453427
1728.000000	11.476153
1727.000000	11.475536
1726.000000	11.500461
1725.000000	11.522904
1724.000000	11.568856
1723.000000	11.607728
1722.000000	11.640644
1721.000000	11.659472
1720.000000	11.692287
1719.000000	11.760984
1718.000000	11.758821
1717.000000	11.784741
1716.000000	11.817179
1715.000000	11.828476
1714.000000	11.865716
1713.000000	11.915750
1712.000000	11.921099
1711.000000	11.962917
1710.000000	11.965825
1709.000000	12.005958
1708.000000	12.029489
1707.000000	12.025483
1706.000000	12.029532
1705.000000	12.058323
1704.000000	12.068125
1703.000000	12.058535
1702.000000	12.079911
1701.000000	12.060295
1700.000000	12.063286
1699.000000	12.040555
1698.000000	12.058766
1697.000000	12.080431
1696.000000	12.120371
1695.000000	12.107903
1694.000000	12.089794
1693.000000	12.127614
1692.000000	12.144300
1691.000000	12.144495
1690.000000	12.184854
1689.000000	12.210417
1688.000000	12.255398
1687.000000	12.273973
1686.000000	12.335966
1685.000000	12.373326
1684.000000	12.419352
1683.000000	12.459799
1682.000000	12.530898
1681.000000	12.611213
1680.000000	12.653331
1679.000000	12.693802
1678.000000	12.760919
1677.000000	12.807773
1676.000000	12.889732
1675.000000	12.949079
1674.000000	12.985485
1673.000000	13.044876
1672.000000	13.109389
1671.000000	13.173860
1670.000000	13.225656
1669.000000	13.252809
1668.000000	13.301372
1667.000000	13.352891
1666.000000	13.362700
1665.000000	13.387278
1664.000000	13.421534
1663.000000	13.451121
1662.000000	13.481037
1661.000000	13.489994
1660.000000	13.498789
1659.000000	13.539162
1658.000000	13.548835
1657.000000	13.571224
1656.000000	13.588532
1655.000000	13.587339
1654.000000	13.596016
1653.000000	13.602658
1652.000000	13.605391
1651.000000	13.597014
1650.000000	13.600086
1649.000000	13.588799
1648.000000	13.566708
1647.000000	13.562059
1646.000000	13.560191
1645.000000	13.546132
1644.000000	13.527925
1643.000000	13.521163
1642.000000	13.509951
1641.000000	13.512432
1640.000000	13.487766
1639.000000	13.471119
1638.000000	13.448602
1637.000000	13.449085
1636.000000	13.430302
1635.000000	13.417372
1634.000000	13.390813
1633.000000	13.378310
1632.000000	13.355693
1631.000000	13.328125
1630.000000	13.308410
1629.000000	13.280980
1628.000000	13.256315
1627.000000	13.250938
1626.000000	13.233909
1625.000000	13.200802
1624.000000	13.170154
1623.000000	13.155490
1622.000000	13.147258
1621.000000	13.117393
1620.000000	13.090249
1619.000000	13.057013
1618.000000	13.028646
1617.000000	12.996311
1616.000000	12.969032
1615.000000	12.949216
1614.000000	12.937318
1613.000000	12.914135
1612.000000	12.879108
1611.000000	12.859503
1610.000000	12.831075
1609.000000	12.805115
1608.000000	12.793222
1607.000000	12.762457
1606.000000	12.723486
1605.000000	12.702087
1604.000000	12.670168
1603.000000	12.630739
1602.000000	12.605180
1601.000000	12.582580
1600.000000	12.565629
1599.000000	12.540035
1598.000000	12.511711
1597.000000	12.491657
1596.000000	12.465421
1595.000000	12.440994
1594.000000	12.415980
1593.000000	12.398917
1592.000000	12.382471
1591.000000	12.346797
1590.000000	12.319923
1589.000000	12.306394
1588.000000	12.290092
1587.000000	12.265335
1586.000000	12.242289
1585.000000	12.227301
1584.000000	12.212060
1583.000000	12.189081
1582.000000	12.165801
1581.000000	12.132377
1580.000000	12.110647
1579.000000	12.108290
1578.000000	12.094543
1577.000000	12.061679
1576.000000	12.028447
1575.000000	12.010679
1574.000000	11.993976
1573.000000	11.968784
1572.000000	11.946237
1571.000000	11.915950
1570.000000	11.901524
1569.000000	11.891564
1568.000000	11.873254
1567.000000	11.861798
1566.000000	11.845815
1565.000000	11.830066
1564.000000	11.817843
1563.000000	11.810945
1562.000000	11.788869
1561.000000	11.768161
1560.000000	11.740179
1559.000000	11.729515
1558.000000	11.722660
1557.000000	11.711611
1556.000000	11.701293
1555.000000	11.682904
1554.000000	11.657505
1553.000000	11.642017
1552.000000	11.625698
1551.000000	11.618685
1550.000000	11.593563
1549.000000	11.560372
1548.000000	11.541468
1547.000000	11.517377
1546.000000	11.499838
1545.000000	11.456488
1544.000000	11.425829
1543.000000	11.395236
1542.000000	11.360551
1541.000000	11.329735
1540.000000	11.288059
1539.000000	11.234211
1538.000000	11.195683
1537.000000	11.174367
1536.000000	11.131784
1535.000000	11.089885
1534.000000	11.048728
1533.000000	11.016635
1532.000000	10.987224
1531.000000	10.967027
1530.000000	10.969857
1529.000000	10.987918
1528.000000	11.009102
1527.000000	10.992955
1526.000000	10.930347
1525.000000	10.874595
1524.000000	10.827718
1523.000000	10.794040
1522.000000	10.771106
1521.000000	10.767704
1520.000000	10.721690
1519.000000	10.691088
1518.000000	10.679976
1517.000000	10.693244
1516.000000	10.668668
1515.000000	10.637188
1514.000000	10.636940
1513.000000	10.638563
1512.000000	10.614384
1511.000000	10.595949
1510.000000	10.549200
1509.000000	10.530468
1508.000000	10.550424
1507.000000	10.553147
1506.000000	10.530452
1505.000000	10.515938
1504.000000	10.496789
1503.000000	10.489339
1502.000000	10.471029
1501.000000	10.447474
1500.000000	10.437533
1499.000000	10.447881
1498.000000	10.446126
1497.000000	10.444127
1496.000000	10.418836
1495.000000	10.423302
1494.000000	10.408068
1493.000000	10.423906
1492.000000	10.427703
1491.000000	10.453785
1490.000000	10.448094
1489.000000	10.431832
1488.000000	10.439355
1487.000000	10.439378
1486.000000	10.462122
1485.000000	10.461380
1484.000000	10.471728
1483.000000	10.479022
1482.000000	10.486275
1481.000000	10.485223
1480.000000	10.494618
1479.000000	10.506208
1478.000000	10.518917
1477.000000	10.537275
1476.000000	10.543054
1475.000000	10.539622
1474.000000	10.527062
1473.000000	10.548244
1472.000000	10.558469
1471.000000	10.559655
1470.000000	10.561535
1469.000000	10.567978
1468.000000	10.574605
1467.000000	10.580876
1466.000000	10.580856
1465.000000	10.618291
1464.000000	10.650962
1463.000000	10.659241
1462.000000	10.651567
1461.000000	10.676496
1460.000000	10.702973
1459.000000	10.688770
1458.000000	10.695529
1457.000000	10.705105
1456.000000	10.750073
1455.000000	10.787535
1454.000000	10.791455
1453.000000	10.781338
1452.000000	10.787668
1451.000000	10.807860
1450.000000	10.870674
1449.000000	10.885872
1448.000000	10.885611
1447.000000	10.916442
1446.000000	10.937426
1445.000000	10.956886
1444.000000	10.979257
1443.000000	11.032091
1442.000000	11.066399
1441.000000	11.090241
1440.000000	11.101622
1439.000000	11.120443
1438.000000	11.149455
1437.000000	11.186542
1436.000000	11.223538
1435.000000	11.252155
1434.000000	11.290146
1433.000000	11.343363
1432.000000	11.394671
1431.000000	11.427979
1430.000000	11.462908
1429.000000	11.507602
1428.000000	11.558413
1427.000000	11.613341
1426.000000	11.669493
1425.000000	11.728921
1424.000000	11.786565
1423.000000	11.841512
1422.000000	11.906069
1421.000000	11.942266
1420.000000	12.014283
1419.000000	12.086415
1418.000000	12.143094
1417.000000	12.191837
1416.000000	12.271882
1415.000000	12.362625
1414.000000	12.427990
1413.000000	12.488009
1412.000000	12.570945
1411.000000	12.643227
1410.000000	12.714475
1409.000000	12.782064
1408.000000	12.861674
1407.000000	12.928950
1406.000000	13.000061
1405.000000	13.081858
1404.000000	13.158038
1403.000000	13.247826
1402.000000	13.322293
1401.000000	13.376375
1400.000000	13.421986
1399.000000	13.491012
1398.000000	13.568151
1397.000000	13.628064
1396.000000	13.683166
1395.000000	13.751687
1394.000000	13.803552
1393.000000	13.851433
1392.000000	13.907300
1391.000000	13.953055
1390.000000	13.997725
1389.000000	14.052862
1388.000000	14.095464
1387.000000	14.152205
1386.000000	14.207372
1385.000000	14.243954
1384.000000	14.267877
1383.000000	14.283973
1382.000000	14.312459
1381.000000	14.354332
1380.000000	14.378137
1379.000000	14.394399
1378.000000	14.418463
1377.000000	14.431294
1376.000000	14.439917
1375.000000	14.453458
1374.000000	14.476260
1373.000000	14.497667
1372.000000	14.496804
1371.000000	14.501419
1370.000000	14.511805
1369.000000	14.513883
1368.000000	14.528570
1367.000000	14.529675
1366.000000	14.538601
1365.000000	14.548689
1364.000000	14.551055
1363.000000	14.568063
1362.000000	14.599296
1361.000000	14.627455
1360.000000	14.646519
1359.000000	14.650487
1358.000000	14.654286
1357.000000	14.673247
1356.000000	14.683043
1355.000000	14.695347
1354.000000	14.709612
1353.000000	14.718913
1352.000000	14.724978
1351.000000	14.742703
1350.000000	14.752115
1349.000000	14.734871
1348.000000	14.734716
1347.000000	14.752392
1346.000000	14.771041
1345.000000	14.772778
1344.000000	14.777716
1343.000000	14.769255
1342.000000	14.788228
1341.000000	14.814183
1340.000000	14.830375
1339.000000	14.836382
1338.000000	14.834711
1337.000000	14.836944
1336.000000	14.857934
1335.000000	14.874884
1334.000000	14.877487
1333.000000	14.877669
1332.000000	14.879570
1331.000000	14.881783
1330.000000	14.892442
1329.000000	14.912919
1328.000000	14.921568
1327.000000	14.898072
1326.000000	14.908127
1325.000000	14.932509
1324.000000	14.916301
1323.000000	14.919757
1322.000000	14.930184
1321.000000	14.922873
1320.000000	14.930857
1319.000000	14.946114
1318.000000	14.935699
1317.000000	14.922539
1316.000000	14.924203
1315.000000	14.914856
1314.000000	14.917949
1313.000000	14.917698
1312.000000	14.906557
1311.000000	14.904931
1310.000000	14.904628
1309.000000	14.903246
1308.000000	14.906129
1307.000000	14.917730
1306.000000	14.899674
1305.000000	14.884443
1304.000000	14.863151
1303.000000	14.854641
1302.000000	14.871149
1301.000000	14.884416
1300.000000	14.883525
1299.000000	14.860914
1298.000000	14.851464
1297.000000	14.840699
1296.000000	14.835956
1295.000000	14.830050
1294.000000	14.826780
1293.000000	14.804248
1292.000000	14.810265
1291.000000	14.802970
1290.000000	14.815556
1289.000000	14.815440
1288.000000	14.786086
1287.000000	14.754337
1286.000000	14.750686
1285.000000	14.752461
1284.000000	14.739194
1283.000000	14.755755
1282.000000	14.747097
1281.000000	14.746825
1280.000000	14.762309
1279.000000	14.745407
1278.000000	14.736447
1277.000000	14.693310
1276.000000	14.681981
1275.000000	14.707174
1274.000000	14.706618
1273.000000	14.698080
1272.000000	14.690312
1271.000000	14.697061
1270.000000	14.720192
1269.000000	14.733064
1268.000000	14.720770
1267.000000	14.720190
1266.000000	14.727841
1265.000000	14.688102
1264.000000	14.682009
1263.000000	14.691110
1262.000000	14.696993
1261.000000	14.720847
1260.000000	14.705069
1259.000000	14.655872
1258.000000	14.680136
1257.000000	14.662924
1256.000000	14.677155
1255.000000	14.691916
1254.000000	14.672785
1253.000000	14.668360
1252.000000	14.658733
1251.000000	14.651601
1250.000000	14.634769
1249.000000	14.638365
1248.000000	14.626283
1247.000000	14.611276
1246.000000	14.603977
1245.000000	14.610281
1244.000000	14.603982
1243.000000	14.606682
1242.000000	14.558240
1241.000000	14.545878
1240.000000	14.533632
1239.000000	14.549601
1238.000000	14.540019
1237.000000	14.498423
1236.000000	14.485300
1235.000000	14.484474
1234.000000	14.458998
1233.000000	14.451053
1232.000000	14.459053
1231.000000	14.470001
1230.000000	14.450919
1229.000000	14.414545
1228.000000	14.407961
1227.000000	14.405265
1226.000000	14.422158
1225.000000	14.414108
1224.000000	14.420557
1223.000000	14.425680
1222.000000	14.402591
1221.000000	14.385314
1220.000000	14.375486
1219.000000	14.366636
1218.000000	14.348470
1217.000000	14.332120
1216.000000	14.319336
1215.000000	14.306991
1214.000000	14.277797
1213.000000	14.257178
1212.000000	14.273399
1211.000000	14.283155
1210.000000	14.260266
1209.000000	14.259651
1208.000000	14.240803
1207.000000	14.200289
1206.000000	14.173373
1205.000000	14.187213
1204.000000	14.171084
1203.000000	14.128489
1202.000000	14.136201
1201.000000	14.138293
1200.000000	14.093445
1199.000000	14.058862
1198.000000	14.039398
1197.000000	14.057260
1196.000000	14.063236
1195.000000	14.039583
1194.000000	14.001332
1193.000000	13.989225
1192.000000	13.966591
1191.000000	13.952595
1190.000000	13.919468
1189.000000	13.878687
1188.000000	13.883430
1187.000000	13.896859
1186.000000	13.875571
1185.000000	13.872918
1184.000000	13.866125
1183.000000	13.869807
1182.000000	13.876909
1181.000000	13.871868
1180.000000	13.894869
1179.000000	13.914776
1178.000000	13.923607
1177.000000	13.925853
1176.000000	13.934766
1175.000000	13.958670
1174.000000	13.980973
1173.000000	13.989019
1172.000000	13.999620
1171.000000	14.015204
1170.000000	14.019625
1169.000000	14.027817
1168.000000	14.049712
1167.000000	14.074725
1166.000000	14.084431
1165.000000	14.100606
1164.000000	14.130627
1163.000000	14.155016
1162.000000	14.170777
1161.000000	14.181026
1160.000000	14.186261
1159.000000	14.183154
1158.000000	14.193892
1157.000000	14.204340
1156.000000	14.214180
1155.000000	14.238174
1154.000000	14.259792
1153.000000	14.285600
1152.000000	14.304301
1151.000000	14.318018
1150.000000	14.338701
1149.000000	14.347006
1148.000000	14.355433
1147.000000	14.367520
1146.000000	14.377294
1145.000000	14.386266
1144.000000	14.368405
1143.000000	14.368512
1142.000000	14.384554
1141.000000	14.389395
1140.000000	14.405428
1139.000000	14.412384
1138.000000	14.417158
1137.000000	14.427653
1136.000000	14.441805
1135.000000	14.456650
1134.000000	14.470605
1133.000000	14.470542
1132.000000	14.484165
1131.000000	14.494933
1130.000000	14.470438
1129.000000	14.459829
1128.000000	14.481778
1127.000000	14.491018
1126.000000	14.494400
1125.000000	14.490363
1124.000000	14.495646
1123.000000	14.495608
1122.000000	14.489760
1121.000000	14.492924
1120.000000	14.492076
1119.000000	14.489690
1118.000000	14.497245
1117.000000	14.487230
1116.000000	14.481627
1115.000000	14.476763
1114.000000	14.486701
1113.000000	14.490205
1112.000000	14.476351
1111.000000	14.470618
1110.000000	14.464997
1109.000000	14.455759
1108.000000	14.454357
1107.000000	14.457815
1106.000000	14.450110
1105.000000	14.455847
1104.000000	14.429988
1103.000000	14.416187
1102.000000	14.409135
1101.000000	14.397155
1100.000000	14.414569
1099.000000	14.427869
1098.000000	14.425058
1097.000000	14.421471
1096.000000	14.430197
1095.000000	14.393246
1094.000000	14.363573
1093.000000	14.387220
1092.000000	14.389021
1091.000000	14.385757
1090.000000	14.403636
1089.000000	14.406784
1088.000000	14.363414
1087.000000	14.344173
1086.000000	14.338447
1085.000000	14.349356
1084.000000	14.355145
1083.000000	14.353056
1082.000000	14.363980
1081.000000	14.338231
1080.000000	14.322004
1079.000000	14.318306
1078.000000	14.318110
1077.000000	14.338598
1076.000000	14.333983
1075.000000	14.343890
1074.000000	14.306418
1073.000000	14.287967
1072.000000	14.276225
1071.000000	14.282556
1070.000000	14.285021
1069.000000	14.294250
1068.000000	14.297419
1067.000000	14.282700
1066.000000	14.253727
1065.000000	14.252421
1064.000000	14.250305
1063.000000	14.247826
1062.000000	14.243142
1061.000000	14.251385
1060.000000	14.253132
1059.000000	14.220394
1058.000000	14.206496
1057.000000	14.223813
1056.000000	14.210268
1055.000000	14.229695
1054.000000	14.190087
1053.000000	14.193032
1052.000000	14.201459
1051.000000	14.187936
1050.000000	14.193723
1049.000000	14.210760
1048.000000	14.130287
1047.000000	14.164684
1046.000000	14.168813
1045.000000	14.154740
1044.000000	14.131174
1043.000000	14.137827
1042.000000	14.140995
1041.000000	14.141927
1040.000000	14.134317
1039.000000	14.109470
1038.000000	14.106091
1037.000000	14.117823
1036.000000	14.133953
1035.000000	14.097952
1034.000000	14.105720
1033.000000	14.111195
1032.000000	14.104104
1031.000000	14.073884
1030.000000	14.072776
1029.000000	14.075938
1028.000000	14.080182
1027.000000	14.069643
1026.000000	14.071389
1025.000000	14.079858
1024.000000	14.083399
1023.000000	14.064880
1022.000000	14.044791
1021.000000	14.051620
1020.000000	14.039725
1019.000000	14.045312
1018.000000	14.065708
1017.000000	14.063070
1016.000000	14.033133
1015.000000	14.036198
1014.000000	14.034910
1013.000000	14.006501
1012.000000	14.021554
1011.000000	14.027263
1010.000000	14.000135
1009.000000	14.011207
1008.000000	14.023615
1007.000000	14.009275
1006.000000	14.019613
1005.000000	14.027099
1004.000000	14.015768
1003.000000	14.005473
1002.000000	14.017177
1001.000000	13.984477
1000.000000	13.962812
999.000000	13.979764
998.000000	14.009911
997.000000	14.015951
996.000000	14.005992
995.000000	13.990891
994.000000	13.984500
993.000000	13.982648
992.000000	13.986633
991.000000	13.975959
990.000000	13.975519
989.000000	13.971779
988.000000	13.962476
987.000000	13.972010
986.000000	13.986575
985.000000	14.001294
984.000000	14.011048
983.000000	14.026772
982.000000	14.020124
981.000000	14.027932
980.000000	14.043858
979.000000	14.034711
978.000000	14.031205
977.000000	14.034378
976.000000	14.042604
975.000000	14.041464
974.000000	14.048286
973.000000	14.048846
972.000000	14.039937
971.000000	14.037402
970.000000	14.041948
969.000000	14.048724
968.000000	14.039101
967.000000	14.031731
966.000000	14.022573
965.000000	14.021185
964.000000	14.027901
963.000000	14.033276
962.000000	14.031969
961.000000	14.021971
960.000000	14.024009
959.000000	14.022159
958.000000	14.001810
957.000000	13.995659
956.000000	13.991960
955.000000	14.011458
954.000000	14.022982
953.000000	14.012705
952.000000	14.002115
951.000000	13.979297
950.000000	13.955795
949.000000	13.966073
948.000000	13.975471
947.000000	13.964873
946.000000	13.966476
945.000000	13.968214
944.000000	13.972416
943.000000	13.964953
942.000000	13.970749
941.000000	13.970918
940.000000	13.954812
939.000000	13.951366
938.000000	13.949492
937.000000	13.922233
936.000000	13.893885
935.000000	13.901661
934.000000	13.903902
933.000000	13.896752
932.000000	13.893456
931.000000	13.879713
930.000000	13.868770
929.000000	13.861075
928.000000	13.867251
927.000000	13.858739
926.000000	13.861384
925.000000	13.871507
924.000000	13.840188
923.000000	13.828047
922.000000	13.826167
921.000000	13.833546
920.000000	13.820147
919.000000	13.817490
918.000000	13.809119
917.000000	13.796614
916.000000	13.821532
915.000000	13.807474
914.000000	13.789553
913.000000	13.787047
912.000000	13.795230
911.000000	13.794116
910.000000	13.815420
909.000000	13.777402
908.000000	13.748639
907.000000	13.761950
906.000000	13.748332
905.000000	13.769824
904.000000	13.753495
903.000000	13.727722
902.000000	13.762884
901.000000	13.780331
900.000000	13.747503
899.000000	13.763986
898.000000	13.761795
897.000000	13.730348
896.000000	13.749327
895.000000	13.745092
894.000000	13.740999
893.000000	13.734193
892.000000	13.763110
891.000000	13.746702
890.000000	13.701850
889.000000	13.669095
888.000000	13.690981
887.000000	13.663079
886.000000	13.684652
885.000000	13.660808
884.000000	13.635794
883.000000	13.691155
882.000000	13.665527
881.000000	13.653872
880.000000	13.660857
879.000000	13.606321
878.000000	13.620982
877.000000	13.567344
876.000000	13.563468
875.000000	13.623800
874.000000	13.627242
873.000000	13.629255
872.000000	13.611987
871.000000	13.605240
870.000000	13.654450
869.000000	13.642809
868.000000	13.547409
867.000000	13.586915
866.000000	13.579357
865.000000	13.498820
864.000000	13.520260
863.000000	13.645783
862.000000	13.498477
861.000000	13.472323
860.000000	13.549653
859.000000	13.869648
858.000000	13.818735
857.000000	13.695210
856.000000	13.830512
855.000000	13.849642
854.000000	13.836304
853.000000	13.710587
852.000000	13.689560
851.000000	13.836820
850.000000	13.697060
849.000000	13.692325
848.000000	13.705251
847.000000	13.703100
846.000000	13.636616
845.000000	13.742902
844.000000	13.692617
843.000000	13.694082
842.000000	13.643066
841.000000	13.650315
840.000000	13.633100
839.000000	13.608409
838.000000	13.626528
837.000000	13.556062
836.000000	13.624356
835.000000	13.533870
834.000000	13.529236
833.000000	13.540874
832.000000	13.540131
831.000000	13.497791
830.000000	13.511736
829.000000	13.482330
828.000000	13.522041
827.000000	13.495964
826.000000	13.474273
825.000000	13.478369
824.000000	13.465036
823.000000	13.383897
822.000000	13.401792
821.000000	13.378346
820.000000	13.395315
819.000000	13.350814
818.000000	13.367577
817.000000	13.356941
816.000000	13.341903
815.000000	13.365482
814.000000	13.310239
813.000000	13.303585
812.000000	13.279955
811.000000	13.263067
810.000000	13.303428
809.000000	13.290354
808.000000	13.309331
807.000000	13.321987
806.000000	13.305613
805.000000	13.281533
804.000000	13.224300
803.000000	13.250795
802.000000	13.243576
801.000000	13.203211
800.000000	13.233481
799.000000	13.230132
798.000000	13.173664
797.000000	13.228270
796.000000	13.209221
795.000000	13.117374
794.000000	13.161731
793.000000	13.161969
792.000000	13.130010
791.000000	13.124282
790.000000	13.102803
789.000000	13.090643
788.000000	13.076688
787.000000	13.079133
786.000000	13.056694
785.000000	13.021029
784.000000	13.047896
783.000000	13.046319
782.000000	13.022414
781.000000	13.013104
780.000000	12.995707
779.000000	13.006746
778.000000	12.967609
777.000000	12.963898
776.000000	12.933838
775.000000	12.929778
774.000000	12.897236
773.000000	12.896384
772.000000	12.883751
771.000000	12.913246
770.000000	12.867943
769.000000	12.875361
768.000000	12.844439
767.000000	12.826205
766.000000	12.811262
765.000000	12.799247
764.000000	12.795749
763.000000	12.809418
762.000000	12.790497
761.000000	12.760684
760.000000	12.741135
759.000000	12.753812
758.000000	12.733811
757.000000	12.724956
756.000000	12.687339
755.000000	12.695826
754.000000	12.689239
753.000000	12.682002
752.000000	12.652059
751.000000	12.633770
750.000000	12.620793
749.000000	12.613160
748.000000	12.588049
747.000000	12.572686
746.000000	12.565005
745.000000	12.563935
744.000000	12.552705
743.000000	12.529664
742.000000	12.499561
741.000000	12.474437
740.000000	12.479751
739.000000	12.462555
738.000000	12.439232
737.000000	12.428545
736.000000	12.424694
735.000000	12.399027
734.000000	12.389230
733.000000	12.360358
732.000000	12.348645
731.000000	12.332706
730.000000	12.335245
729.000000	12.341676
728.000000	12.304460
727.000000	12.292643
726.000000	12.286714
725.000000	12.256987
724.000000	12.245866
723.000000	12.222675
722.000000	12.210166
721.000000	12.204149
720.000000	12.179916
719.000000	12.161721
718.000000	12.153291
717.000000	12.143621
716.000000	12.133082
715.000000	12.106159
714.000000	12.092862
713.000000	12.097407
712.000000	12.075692
711.000000	12.050269
710.000000	12.024341
709.000000	12.019735
708.000000	12.002236
707.000000	11.978814
706.000000	11.962228
705.000000	11.945428
704.000000	11.937121
703.000000	11.933277
702.000000	11.917747
701.000000	11.883284
700.000000	11.858326
699.000000	11.843404
698.000000	11.823149
697.000000	11.807324
696.000000	11.784566
695.000000	11.762047
694.000000	11.755129
693.000000	11.737422
692.000000	11.718582
691.000000	11.697473
690.000000	11.685683
689.000000	11.648856
688.000000	11.619627
687.000000	11.603658
686.000000	11.583975
685.000000	11.569477
684.000000	11.552582
683.000000	11.539240
682.000000	11.513960
681.000000	11.488480
680.000000	11.471988
679.000000	11.466196
678.000000	11.454665
677.000000	11.423091
676.000000	11.395951
675.000000	11.370576
674.000000	11.351959
673.000000	11.335755
672.000000	11.323783
671.000000	11.291772
670.000000	11.275834
669.000000	11.264998
668.000000	11.246185
667.000000	11.229673
666.000000	11.213679
665.000000	11.189097
664.000000	11.173288
663.000000	11.150220
662.000000	11.116375
661.000000	11.093309
660.000000	11.081164
659.000000	11.071490
658.000000	11.048942
657.000000	11.025558
656.000000	10.991844
655.000000	10.976398
654.000000	10.951133
653.000000	10.928628
652.000000	10.921952
651.000000	10.888095
650.000000	10.865504
649.000000	10.851083
648.000000	10.824176
647.000000	10.811291
646.000000	10.797656
645.000000	10.775626
644.000000	10.749764
643.000000	10.736875
642.000000	10.712077
641.000000	10.693236
640.000000	10.661887
639.000000	10.650777
638.000000	10.611203
637.000000	10.594742
636.000000	10.578975
635.000000	10.549463
634.000000	10.526529
633.000000	10.502903
632.000000	10.493290
631.000000	10.465407
630.000000	10.447521
629.000000	10.433876
628.000000	10.399616
627.000000	10.362772
626.000000	10.352182
625.000000	10.333163
624.000000	10.299437
623.000000	10.275710
622.000000	10.267169
621.000000	10.241296
620.000000	10.219199
619.000000	10.183649
618.000000	10.164861
617.000000	10.151819
616.000000	10.119486
615.000000	10.095249
614.000000	10.049419
613.000000	10.039344
612.000000	10.022043
611.000000	10.004026
610.000000	9.966786
609.000000	9.943750
608.000000	9.910523
607.000000	9.909745
606.000000	9.869275
605.000000	9.851392
604.000000	9.828192
603.000000	9.791511
602.000000	9.753280
601.000000	9.762873
600.000000	9.721475
599.000000	9.707571
598.000000	9.659878
597.000000	9.642937
596.000000	9.618972
595.000000	9.599765
594.000000	9.566652
593.000000	9.533476
592.000000	9.508113
591.000000	9.481039
590.000000	9.446354
589.000000	9.423515
588.000000	9.395468
587.000000	9.382204
586.000000	9.345584
585.000000	9.310314
584.000000	9.284111
583.000000	9.260174
582.000000	9.243516
581.000000	9.199395
580.000000	9.171681
579.000000	9.153267
578.000000	9.102960
577.000000	9.098392
576.000000	9.050863
575.000000	9.010316
574.000000	8.994925
573.000000	8.955224
572.000000	8.933226
571.000000	8.904780
570.000000	8.864957
569.000000	8.845524
568.000000	8.814539
567.000000	8.771993
566.000000	8.738593
565.000000	8.716518
564.000000	8.689171
563.000000	8.654107
562.000000	8.617796
561.000000	8.603177
560.000000	8.574463
559.000000	8.539971
558.000000	8.510990
557.000000	8.484310
556.000000	8.441525
555.000000	8.405018
554.000000	8.369509
553.000000	8.342247
552.000000	8.311989
551.000000	8.282321
550.000000	8.239995
549.000000	8.205646
548.000000	8.165711
547.000000	8.129060
546.000000	8.096841
545.000000	8.066981
544.000000	8.031041
543.000000	7.993091
542.000000	7.962300
541.000000	7.930097
540.000000	7.887042
539.000000	7.852995
538.000000	7.821193
537.000000	7.777229
536.000000	7.737326
535.000000	7.706015
534.000000	7.658705
533.000000	7.628492
532.000000	7.595935
531.000000	7.552232
530.000000	7.509936
529.000000	7.467816
528.000000	7.437163
527.000000	7.397817
526.000000	7.356170
525.000000	7.317586
524.000000	7.275437
523.000000	7.236202
522.000000	7.199513
521.000000	7.157940
520.000000	7.114737
519.000000	7.075298
518.000000	7.028202
517.000000	6.994597
516.000000	6.949988
515.000000	6.910148
514.000000	6.862723
513.000000	6.820190
512.000000	6.778040
511.000000	6.743135
510.000000	6.700934
509.000000	6.665626
508.000000	6.620800
507.000000	6.575188
506.000000	6.534482
505.000000	6.503368
504.000000	6.459804
503.000000	6.423265
502.000000	6.373253
501.000000	6.328930
500.000000	6.293924
499.000000	6.262801
498.000000	6.226648
497.000000	6.185637
496.000000	6.140132
495.000000	6.103374
494.000000	6.059842
493.000000	6.017546
492.000000	5.978975
491.000000	5.937272
490.000000	5.909953
489.000000	5.870486
488.000000	5.826259
487.000000	5.793182
486.000000	5.757311
485.000000	5.723716
484.000000	5.695537
483.000000	5.658626
482.000000	5.614832
481.000000	5.572738
480.000000	5.529710
479.000000	5.488472
478.000000	5.444778
477.000000	5.401139
476.000000	5.357602
475.000000	5.318058
474.000000	5.277091
473.000000	5.236410
472.000000	5.193130
471.000000	5.153758
470.000000	5.115532
469.000000	5.071525
468.000000	5.025698
467.000000	4.983960
466.000000	4.946237
465.000000	4.911137
464.000000	4.869551
463.000000	4.824429
462.000000	4.785142
461.000000	4.742784
460.000000	4.703519
459.000000	4.663263
458.000000	4.612283
457.000000	4.559071
456.000000	4.513879
455.000000	4.477921
454.000000	4.432718
453.000000	4.384818
452.000000	4.345562
451.000000	4.300354
450.000000	4.252961
449.000000	4.209175
448.000000	4.164198
447.000000	4.118668
446.000000	4.068601
445.000000	4.026198
444.000000	3.984785
443.000000	3.936008
442.000000	3.885362
441.000000	3.828889
440.000000	3.784218
439.000000	3.736626
438.000000	3.686309
437.000000	3.640473
436.000000	3.587650
435.000000	3.540638
434.000000	3.487568
433.000000	3.437388
432.000000	3.393335
431.000000	3.345619
430.000000	3.292402
429.000000	3.242331
428.000000	3.194972
427.000000	3.145159
426.000000	3.100252
425.000000	3.050543
424.000000	2.996101
423.000000	2.941809
422.000000	2.899216
421.000000	2.848532
420.000000	2.797644
419.000000	2.741330
418.000000	2.691333
417.000000	2.640279
416.000000	2.590718
415.000000	2.542615
414.000000	2.494492
413.000000	2.447076
412.000000	2.393920
411.000000	2.339461
410.000000	2.286719
409.000000	2.234143
408.000000	2.187871
407.000000	2.141997
406.000000	2.094106
405.000000	2.049258
404.000000	2.001903
403.000000	1.956217
402.000000	1.909471
401.000000	1.871113
400.000000	1.830763
399.000000	1.783384
398.000000	1.742749
397.000000	1.710502
396.000000	1.680004
395.000000	1.632556
394.000000	1.594165
393.000000	1.551517
392.000000	1.523658
391.000000	1.485002
390.000000	1.460655
389.000000	1.423355
388.000000	1.392728
387.000000	1.348596
386.000000	1.319206
385.000000	1.288569
384.000000	1.254392
383.000000	1.220269
382.000000	1.188514
381.000000	1.160826
380.000000	1.125163
379.000000	1.096471
378.000000	1.066162
377.000000	1.063673
376.000000	1.024580
375.000000	0.991048
374.000000	0.959420
373.000000	0.941090
372.000000	0.901298
371.000000	0.872177
370.000000	0.844235
369.000000	0.814089
368.000000	0.810074
367.000000	0.774909
366.000000	0.751102
365.000000	0.728645
364.000000	0.698484
363.000000	0.689848
362.000000	0.675831
361.000000	0.649616
360.000000	0.627245
359.000000	0.618583
358.000000	0.599919
357.000000	0.572765
356.000000	0.565675
355.000000	0.548965
354.000000	0.525396
353.000000	0.519958
352.000000	0.512529
351.000000	0.486933
350.000000	0.472472
349.000000	0.468216
348.000000	0.456716
347.000000	0.434178
346.000000	0.423963
345.000000	0.412103
344.000000	0.399818
343.000000	0.394941
342.000000	0.368491
341.000000	0.371065
340.000000	0.351992
339.000000	0.351479
338.000000	0.338625
337.000000	0.329117
336.000000	0.317393
335.000000	0.299937
334.000000	0.293038
333.000000	0.288121
332.000000	0.287675
331.000000	0.261819
330.000000	0.263957
329.000000	0.268811
328.000000	0.246741
327.000000	0.239363
326.000000	0.235713
325.000000	0.236069
324.000000	0.228567
323.000000	0.220771
322.000000	0.216303
321.000000	0.230075
320.000000	0.217431
319.000000	0.209230
318.000000	0.216786
317.000000	0.219046
316.000000	0.234488
315.000000	0.225666
314.000000	0.218751
313.000000	0.216584
312.000000	0.219067
311.000000	0.213373
310.000000	0.208419
309.000000	0.210083
308.000000	0.210641
307.000000	0.204123
306.000000	0.204063
305.000000	0.196695
304.000000	0.188620
303.000000	0.201981
302.000000	0.203802
301.000000	0.194765
300.000000	0.189605
299.000000	0.195349
298.000000	0.194722
297.000000	0.189105
296.000000	0.187819
295.000000	0.189041
294.000000	0.183598
293.000000	0.179201
292.000000	0.179707
291.000000	0.183097
290.000000	0.184628
289.000000	0.171953
288.000000	0.175942
287.000000	0.179395
286.000000	0.178825
285.000000	0.179832
284.000000	0.184401
283.000000	0.187217
282.000000	0.189503
281.000000	0.189629
280.000000	0.185432
279.000000	0.191408
278.000000	0.207304
277.000000	0.207580
276.000000	0.212265
275.000000	0.208348
274.000000	0.215871
273.000000	0.225419
272.000000	0.232918
271.000000	0.243603
270.000000	0.248504
269.000000	0.244478
268.000000	0.248317
267.000000	0.253072
266.000000	0.265158
265.000000	0.267552
264.000000	0.279895
263.000000	0.286011
262.000000	0.289462
261.000000	0.293733
260.000000	0.305180
259.000000	0.313614
258.000000	0.313668
257.000000	0.320786
256.000000	0.329295
255.000000	0.335918
254.000000	0.343703
253.000000	0.353888
252.000000	0.358654
251.000000	0.364910
250.000000	0.364960
249.000000	0.368913
248.000000	0.380612
247.000000	0.371142
246.000000	0.359454
245.000000	0.359129
244.000000	0.354797
243.000000	0.343181
242.000000	0.327219
241.000000	0.308100
240.000000	0.296981
239.000000	0.284979
238.000000	0.273822
237.000000	0.265312
236.000000	0.242440
235.000000	0.224614
234.000000	0.219903
233.000000	0.209519
232.000000	0.192095
231.000000	0.180975
230.000000	0.168757
229.000000	0.157513
228.000000	0.147371
227.000000	0.138091
226.000000	0.128163
225.000000	0.120130
224.000000	0.110166
223.000000	0.102251
222.000000	0.104796
221.000000	0.102618
220.000000	0.096793
219.000000	0.101606
218.000000	0.100341
217.000000	0.090244
216.000000	0.084959
215.000000	0.082538
214.000000	0.082872
213.000000	0.081832
212.000000	0.073293
211.000000	0.066890
210.000000	0.064348
209.000000	0.069609
208.000000	0.072440
207.000000	0.072385
206.000000	0.074647
205.000000	0.068236
204.000000	0.068244
203.000000	0.067529
202.000000	0.066141
201.000000	0.083036
200.000000	0.086390
