PE IR       SUBTECH     SPECTRUM    ASCII       PEDS        4.00        
   -1
AD10-F001_1.ASC
23/09/08
10:47:25.00
23/09/08
11:14:38.00
uco
Sample 001 By uco Date Friday, September 08 2023
450.000000
#HDR
-1
-1
#GR
cm-1
%T
1.0
0.0
4000.000000
-1.000000
3551
8
99.969431
91.265199
#DATA
4000.000000	99.920246
3999.000000	99.917701
3998.000000	99.911871
3997.000000	99.905577
3996.000000	99.902144
3995.000000	99.903269
3994.000000	99.917831
3993.000000	99.922648
3992.000000	99.924948
3991.000000	99.923573
3990.000000	99.919797
3989.000000	99.916118
3988.000000	99.914242
3987.000000	99.913808
3986.000000	99.913142
3985.000000	99.911062
3984.000000	99.907760
3983.000000	99.904051
3982.000000	99.900311
3981.000000	99.896499
3980.000000	99.893012
3979.000000	99.890935
3978.000000	99.891194
3977.000000	99.893672
3976.000000	99.897405
3975.000000	99.901420
3974.000000	99.905108
3973.000000	99.907852
3972.000000	99.908684
3971.000000	99.906851
3970.000000	99.902724
3969.000000	99.898091
3968.000000	99.895247
3967.000000	99.895491
3966.000000	99.898273
3965.000000	99.901388
3964.000000	99.902197
3963.000000	99.899279
3962.000000	99.893636
3961.000000	99.888388
3960.000000	99.886463
3959.000000	99.888565
3958.000000	99.892883
3957.000000	99.896487
3956.000000	99.897191
3955.000000	99.894514
3954.000000	99.889891
3953.000000	99.885872
3952.000000	99.884577
3951.000000	99.886323
3950.000000	99.889228
3949.000000	99.890702
3948.000000	99.889779
3947.000000	99.888058
3946.000000	99.888367
3945.000000	99.891721
3944.000000	99.895685
3943.000000	99.896449
3942.000000	99.892268
3941.000000	99.884792
3940.000000	99.877332
3939.000000	99.872683
3938.000000	99.872027
3937.000000	99.875228
3936.000000	99.881256
3935.000000	99.887900
3934.000000	99.892301
3933.000000	99.892758
3932.000000	99.890260
3931.000000	99.887515
3930.000000	99.886277
3929.000000	99.886998
3928.000000	99.889869
3927.000000	99.894125
3926.000000	99.897314
3925.000000	99.897165
3924.000000	99.894106
3923.000000	99.890267
3922.000000	99.886975
3921.000000	99.884424
3920.000000	99.882952
3919.000000	99.883196
3918.000000	99.884683
3917.000000	99.885279
3916.000000	99.882895
3915.000000	99.877679
3914.000000	99.871459
3913.000000	99.866557
3912.000000	99.864640
3911.000000	99.866389
3910.000000	99.870916
3909.000000	99.876521
3908.000000	99.881940
3907.000000	99.885740
3906.000000	99.884977
3905.000000	99.876571
3904.000000	99.862580
3903.000000	99.850899
3902.000000	99.847558
3901.000000	99.851222
3900.000000	99.856660
3899.000000	99.860615
3898.000000	99.863004
3897.000000	99.864506
3896.000000	99.865047
3895.000000	99.865222
3894.000000	99.865824
3893.000000	99.866285
3892.000000	99.864589
3891.000000	99.860614
3890.000000	99.856472
3889.000000	99.854772
3888.000000	99.855928
3887.000000	99.855714
3886.000000	99.850905
3885.000000	99.846755
3884.000000	99.850523
3883.000000	99.861859
3882.000000	99.873398
3881.000000	99.877755
3880.000000	99.874901
3879.000000	99.870535
3878.000000	99.869525
3877.000000	99.873532
3876.000000	99.879708
3875.000000	99.882174
3874.000000	99.878850
3873.000000	99.874121
3872.000000	99.871977
3871.000000	99.870710
3870.000000	99.868304
3869.000000	99.868277
3868.000000	99.873746
3867.000000	99.882411
3866.000000	99.888032
3865.000000	99.886423
3864.000000	99.880373
3863.000000	99.875586
3862.000000	99.873122
3861.000000	99.870779
3860.000000	99.866343
3859.000000	99.858036
3858.000000	99.846353
3857.000000	99.836450
3856.000000	99.835734
3855.000000	99.842831
3854.000000	99.844709
3853.000000	99.843533
3852.000000	99.848167
3851.000000	99.853527
3850.000000	99.854449
3849.000000	99.852849
3848.000000	99.853533
3847.000000	99.860135
3846.000000	99.872041
3845.000000	99.885312
3844.000000	99.894980
3843.000000	99.898344
3842.000000	99.896188
3841.000000	99.891154
3840.000000	99.884581
3839.000000	99.877073
3838.000000	99.870892
3837.000000	99.868585
3836.000000	99.870546
3835.000000	99.875310
3834.000000	99.880933
3833.000000	99.885608
3832.000000	99.888555
3831.000000	99.890569
3830.000000	99.893138
3829.000000	99.896686
3828.000000	99.898786
3827.000000	99.895445
3826.000000	99.885735
3825.000000	99.874790
3824.000000	99.869872
3823.000000	99.872622
3822.000000	99.875120
3821.000000	99.872014
3820.000000	99.867385
3819.000000	99.864357
3818.000000	99.862806
3817.000000	99.859117
3816.000000	99.852704
3815.000000	99.850490
3814.000000	99.856804
3813.000000	99.867280
3812.000000	99.875090
3811.000000	99.878242
3810.000000	99.880294
3809.000000	99.884384
3808.000000	99.886961
3807.000000	99.883132
3806.000000	99.874998
3805.000000	99.869436
3804.000000	99.870398
3803.000000	99.874332
3802.000000	99.873296
3801.000000	99.868170
3800.000000	99.865637
3799.000000	99.867443
3798.000000	99.870469
3797.000000	99.870813
3796.000000	99.868233
3795.000000	99.866197
3794.000000	99.867480
3793.000000	99.871528
3792.000000	99.876116
3791.000000	99.879470
3790.000000	99.880988
3789.000000	99.881018
3788.000000	99.880386
3787.000000	99.879649
3786.000000	99.878885
3785.000000	99.878724
3784.000000	99.880831
3783.000000	99.886312
3782.000000	99.893197
3781.000000	99.896029
3780.000000	99.890072
3779.000000	99.878267
3778.000000	99.868990
3777.000000	99.867023
3776.000000	99.870275
3775.000000	99.874000
3774.000000	99.875645
3773.000000	99.875726
3772.000000	99.874625
3771.000000	99.871751
3770.000000	99.869287
3769.000000	99.871577
3768.000000	99.878598
3767.000000	99.884353
3766.000000	99.882619
3765.000000	99.873041
3764.000000	99.861409
3763.000000	99.854069
3762.000000	99.852632
3761.000000	99.854479
3760.000000	99.856799
3759.000000	99.858925
3758.000000	99.859898
3757.000000	99.858912
3756.000000	99.858262
3755.000000	99.861277
3754.000000	99.866344
3753.000000	99.865265
3752.000000	99.851221
3751.000000	99.831262
3750.000000	99.820725
3749.000000	99.821865
3748.000000	99.828152
3747.000000	99.837331
3746.000000	99.847278
3745.000000	99.852410
3744.000000	99.856589
3743.000000	99.866650
3742.000000	99.877936
3741.000000	99.883476
3740.000000	99.883675
3739.000000	99.884889
3738.000000	99.890734
3737.000000	99.895195
3736.000000	99.892741
3735.000000	99.889817
3734.000000	99.893482
3733.000000	99.899319
3732.000000	99.899425
3731.000000	99.891830
3730.000000	99.880180
3729.000000	99.869006
3728.000000	99.861066
3727.000000	99.857777
3726.000000	99.860480
3725.000000	99.867898
3724.000000	99.874760
3723.000000	99.876516
3722.000000	99.873531
3721.000000	99.870287
3720.000000	99.870103
3719.000000	99.871711
3718.000000	99.871198
3717.000000	99.867398
3716.000000	99.864647
3715.000000	99.868193
3714.000000	99.876702
3713.000000	99.880851
3712.000000	99.873282
3711.000000	99.861146
3710.000000	99.858064
3709.000000	99.867926
3708.000000	99.884655
3707.000000	99.900064
3706.000000	99.909630
3705.000000	99.914020
3704.000000	99.916349
3703.000000	99.918471
3702.000000	99.920494
3701.000000	99.922091
3700.000000	99.923143
3699.000000	99.923312
3698.000000	99.921039
3697.000000	99.913935
3696.000000	99.901711
3695.000000	99.887019
3694.000000	99.873073
3693.000000	99.862728
3692.000000	99.858507
3691.000000	99.861989
3690.000000	99.871473
3689.000000	99.882292
3688.000000	99.889285
3687.000000	99.890676
3686.000000	99.889661
3685.000000	99.889315
3684.000000	99.890458
3683.000000	99.893174
3682.000000	99.897004
3681.000000	99.898613
3680.000000	99.894348
3679.000000	99.886186
3678.000000	99.880725
3677.000000	99.879916
3676.000000	99.879271
3675.000000	99.878889
3674.000000	99.877478
3673.000000	99.872838
3672.000000	99.865894
3671.000000	99.857040
3670.000000	99.850363
3669.000000	99.853869
3668.000000	99.865592
3667.000000	99.877402
3666.000000	99.885312
3665.000000	99.889617
3664.000000	99.892340
3663.000000	99.894993
3662.000000	99.896954
3661.000000	99.896378
3660.000000	99.893640
3659.000000	99.891471
3658.000000	99.891347
3657.000000	99.891010
3656.000000	99.888731
3655.000000	99.886215
3654.000000	99.886594
3653.000000	99.892301
3652.000000	99.902014
3651.000000	99.909666
3650.000000	99.911446
3649.000000	99.912355
3648.000000	99.914950
3647.000000	99.914111
3646.000000	99.907435
3645.000000	99.898057
3644.000000	99.889378
3643.000000	99.882810
3642.000000	99.878750
3641.000000	99.877379
3640.000000	99.878198
3639.000000	99.879708
3638.000000	99.881175
3637.000000	99.883346
3636.000000	99.886114
3635.000000	99.886732
3634.000000	99.882717
3633.000000	99.876112
3632.000000	99.871905
3631.000000	99.871081
3630.000000	99.866421
3629.000000	99.856862
3628.000000	99.855676
3627.000000	99.866592
3626.000000	99.882210
3625.000000	99.896416
3624.000000	99.906840
3623.000000	99.914076
3622.000000	99.920120
3621.000000	99.925543
3620.000000	99.928751
3619.000000	99.928162
3618.000000	99.923019
3617.000000	99.913621
3616.000000	99.902990
3615.000000	99.894192
3614.000000	99.887537
3613.000000	99.881701
3612.000000	99.875868
3611.000000	99.870432
3610.000000	99.866219
3609.000000	99.864822
3608.000000	99.868588
3607.000000	99.876954
3606.000000	99.885150
3605.000000	99.888905
3604.000000	99.888240
3603.000000	99.885439
3602.000000	99.882548
3601.000000	99.880661
3600.000000	99.880639
3599.000000	99.882293
3598.000000	99.883646
3597.000000	99.881770
3596.000000	99.875453
3595.000000	99.867458
3594.000000	99.863561
3593.000000	99.867763
3592.000000	99.878857
3591.000000	99.892534
3590.000000	99.902989
3589.000000	99.903995
3588.000000	99.894442
3587.000000	99.882709
3586.000000	99.876297
3585.000000	99.874311
3584.000000	99.873018
3583.000000	99.870027
3582.000000	99.864960
3581.000000	99.859219
3580.000000	99.854946
3579.000000	99.853038
3578.000000	99.851954
3577.000000	99.849345
3576.000000	99.844450
3575.000000	99.839203
3574.000000	99.836303
3573.000000	99.836917
3572.000000	99.840555
3571.000000	99.846775
3570.000000	99.855170
3569.000000	99.863123
3568.000000	99.867039
3567.000000	99.867247
3566.000000	99.866230
3565.000000	99.863392
3564.000000	99.858382
3563.000000	99.853483
3562.000000	99.851496
3561.000000	99.853724
3560.000000	99.859263
3559.000000	99.865708
3558.000000	99.870794
3557.000000	99.873289
3556.000000	99.872661
3555.000000	99.868668
3554.000000	99.861824
3553.000000	99.854237
3552.000000	99.848798
3551.000000	99.846369
3550.000000	99.844766
3549.000000	99.841060
3548.000000	99.834359
3547.000000	99.827361
3546.000000	99.824878
3545.000000	99.829242
3544.000000	99.837581
3543.000000	99.844686
3542.000000	99.847037
3541.000000	99.844608
3540.000000	99.840110
3539.000000	99.836587
3538.000000	99.835104
3537.000000	99.834167
3536.000000	99.831941
3535.000000	99.828594
3534.000000	99.826620
3533.000000	99.828657
3532.000000	99.834909
3531.000000	99.842278
3530.000000	99.846066
3529.000000	99.843619
3528.000000	99.836959
3527.000000	99.831322
3526.000000	99.830404
3525.000000	99.833451
3524.000000	99.836614
3523.000000	99.836651
3522.000000	99.833378
3521.000000	99.829079
3520.000000	99.826068
3519.000000	99.824499
3518.000000	99.822559
3517.000000	99.818547
3516.000000	99.812841
3515.000000	99.807684
3514.000000	99.805308
3513.000000	99.806376
3512.000000	99.810086
3511.000000	99.815286
3510.000000	99.821220
3509.000000	99.827034
3508.000000	99.831089
3507.000000	99.831327
3506.000000	99.826569
3505.000000	99.817524
3504.000000	99.807612
3503.000000	99.801804
3502.000000	99.802646
3501.000000	99.807577
3500.000000	99.811192
3499.000000	99.809941
3498.000000	99.804608
3497.000000	99.799131
3496.000000	99.796531
3495.000000	99.796011
3494.000000	99.794545
3493.000000	99.791038
3492.000000	99.787627
3491.000000	99.786756
3490.000000	99.788193
3489.000000	99.789684
3488.000000	99.789909
3487.000000	99.789655
3486.000000	99.790114
3485.000000	99.791137
3484.000000	99.791788
3483.000000	99.792019
3482.000000	99.793152
3481.000000	99.796198
3480.000000	99.800058
3479.000000	99.802050
3478.000000	99.800497
3477.000000	99.796360
3476.000000	99.792210
3475.000000	99.789711
3474.000000	99.788469
3473.000000	99.787482
3472.000000	99.786927
3471.000000	99.787842
3470.000000	99.790370
3469.000000	99.793101
3468.000000	99.794179
3467.000000	99.792912
3466.000000	99.790397
3465.000000	99.788679
3464.000000	99.789208
3463.000000	99.791836
3462.000000	99.795301
3461.000000	99.798482
3460.000000	99.800819
3459.000000	99.801641
3458.000000	99.800085
3457.000000	99.796124
3456.000000	99.791347
3455.000000	99.787798
3454.000000	99.786277
3453.000000	99.786236
3452.000000	99.787113
3451.000000	99.788928
3450.000000	99.791368
3449.000000	99.793260
3448.000000	99.793644
3447.000000	99.792912
3446.000000	99.791800
3445.000000	99.789852
3444.000000	99.786034
3443.000000	99.780708
3442.000000	99.776210
3441.000000	99.774847
3440.000000	99.776397
3439.000000	99.777936
3438.000000	99.776447
3437.000000	99.771511
3436.000000	99.765435
3435.000000	99.760628
3434.000000	99.757302
3433.000000	99.754075
3432.000000	99.750412
3431.000000	99.747545
3430.000000	99.746844
3429.000000	99.748373
3428.000000	99.751527
3427.000000	99.756147
3426.000000	99.762042
3425.000000	99.767846
3424.000000	99.771261
3423.000000	99.770533
3422.000000	99.765567
3421.000000	99.758021
3420.000000	99.750549
3419.000000	99.745377
3418.000000	99.743056
3417.000000	99.742483
3416.000000	99.742012
3415.000000	99.740372
3414.000000	99.736931
3413.000000	99.732115
3412.000000	99.727842
3411.000000	99.726444
3410.000000	99.728409
3409.000000	99.731962
3408.000000	99.735588
3407.000000	99.739958
3406.000000	99.746162
3405.000000	99.752718
3404.000000	99.756002
3403.000000	99.753863
3402.000000	99.747750
3401.000000	99.740973
3400.000000	99.735847
3399.000000	99.732957
3398.000000	99.732151
3397.000000	99.732971
3396.000000	99.734192
3395.000000	99.734054
3394.000000	99.731705
3393.000000	99.728327
3392.000000	99.726261
3391.000000	99.726719
3390.000000	99.728645
3389.000000	99.729898
3388.000000	99.729108
3387.000000	99.726255
3386.000000	99.722119
3385.000000	99.717744
3384.000000	99.714123
3383.000000	99.711405
3382.000000	99.708367
3381.000000	99.703480
3380.000000	99.696986
3379.000000	99.691502
3378.000000	99.689993
3377.000000	99.693226
3376.000000	99.699141
3375.000000	99.704400
3374.000000	99.706529
3373.000000	99.705119
3372.000000	99.701342
3371.000000	99.696175
3370.000000	99.689119
3369.000000	99.679130
3368.000000	99.667111
3367.000000	99.656786
3366.000000	99.652057
3365.000000	99.653262
3364.000000	99.656634
3363.000000	99.657646
3362.000000	99.654698
3361.000000	99.649651
3360.000000	99.645358
3359.000000	99.643155
3358.000000	99.642487
3357.000000	99.642122
3356.000000	99.641069
3355.000000	99.638576
3354.000000	99.634328
3353.000000	99.629358
3352.000000	99.626218
3351.000000	99.627112
3350.000000	99.631508
3349.000000	99.636268
3348.000000	99.638606
3347.000000	99.638507
3346.000000	99.637970
3345.000000	99.638315
3344.000000	99.638760
3343.000000	99.637416
3342.000000	99.633108
3341.000000	99.626199
3340.000000	99.618289
3339.000000	99.611456
3338.000000	99.607461
3337.000000	99.606904
3336.000000	99.608508
3335.000000	99.609305
3334.000000	99.606367
3333.000000	99.599316
3332.000000	99.591288
3331.000000	99.586870
3330.000000	99.588429
3329.000000	99.594056
3328.000000	99.598840
3327.000000	99.598175
3326.000000	99.590777
3325.000000	99.579708
3324.000000	99.570630
3323.000000	99.567785
3322.000000	99.570691
3321.000000	99.574988
3320.000000	99.576896
3319.000000	99.576441
3318.000000	99.576052
3317.000000	99.576811
3316.000000	99.577297
3315.000000	99.575969
3314.000000	99.573426
3313.000000	99.571627
3312.000000	99.571549
3311.000000	99.572225
3310.000000	99.571926
3309.000000	99.569795
3308.000000	99.566197
3307.000000	99.561826
3306.000000	99.556863
3305.000000	99.551131
3304.000000	99.544844
3303.000000	99.538787
3302.000000	99.533687
3301.000000	99.529677
3300.000000	99.526669
3299.000000	99.525035
3298.000000	99.525561
3297.000000	99.528610
3296.000000	99.533366
3295.000000	99.537916
3294.000000	99.540206
3293.000000	99.539313
3292.000000	99.536080
3291.000000	99.532401
3290.000000	99.529656
3289.000000	99.527857
3288.000000	99.526281
3287.000000	99.524643
3286.000000	99.523587
3285.000000	99.524380
3284.000000	99.528127
3283.000000	99.534651
3282.000000	99.541720
3281.000000	99.545965
3280.000000	99.545484
3279.000000	99.541586
3278.000000	99.537571
3277.000000	99.535633
3276.000000	99.535160
3275.000000	99.534110
3274.000000	99.531588
3273.000000	99.528788
3272.000000	99.527657
3271.000000	99.528887
3270.000000	99.531201
3269.000000	99.532476
3268.000000	99.531495
3267.000000	99.528720
3266.000000	99.525689
3265.000000	99.523979
3264.000000	99.524570
3263.000000	99.527531
3262.000000	99.531786
3261.000000	99.535376
3260.000000	99.536473
3259.000000	99.534485
3258.000000	99.530387
3257.000000	99.526092
3256.000000	99.523431
3255.000000	99.523226
3254.000000	99.525055
3253.000000	99.528072
3252.000000	99.532116
3251.000000	99.537535
3250.000000	99.543673
3249.000000	99.548217
3248.000000	99.548980
3247.000000	99.546244
3246.000000	99.542654
3245.000000	99.540547
3244.000000	99.539838
3243.000000	99.538752
3242.000000	99.535999
3241.000000	99.532086
3240.000000	99.529088
3239.000000	99.529397
3238.000000	99.533852
3237.000000	99.540247
3236.000000	99.544249
3235.000000	99.542883
3234.000000	99.537241
3233.000000	99.531240
3232.000000	99.528052
3231.000000	99.528422
3230.000000	99.531937
3229.000000	99.538050
3228.000000	99.545049
3227.000000	99.549506
3226.000000	99.548655
3225.000000	99.543304
3224.000000	99.537426
3223.000000	99.534671
3222.000000	99.535705
3221.000000	99.538764
3220.000000	99.541630
3219.000000	99.542824
3218.000000	99.541801
3217.000000	99.538873
3216.000000	99.535025
3215.000000	99.531617
3214.000000	99.530070
3213.000000	99.531316
3212.000000	99.534883
3211.000000	99.538536
3210.000000	99.539618
3209.000000	99.537243
3208.000000	99.532993
3207.000000	99.529296
3206.000000	99.527473
3205.000000	99.527439
3204.000000	99.528437
3203.000000	99.529512
3202.000000	99.529883
3201.000000	99.529790
3200.000000	99.530824
3199.000000	99.534466
3198.000000	99.539982
3197.000000	99.544375
3196.000000	99.545022
3195.000000	99.542325
3194.000000	99.539367
3193.000000	99.539056
3192.000000	99.541589
3191.000000	99.544570
3190.000000	99.545355
3189.000000	99.543216
3188.000000	99.539460
3187.000000	99.535915
3186.000000	99.533674
3185.000000	99.532973
3184.000000	99.533678
3183.000000	99.535568
3182.000000	99.538469
3181.000000	99.542309
3180.000000	99.546794
3179.000000	99.550899
3178.000000	99.553037
3177.000000	99.552300
3176.000000	99.549563
3175.000000	99.547034
3174.000000	99.546494
3173.000000	99.547954
3172.000000	99.549811
3171.000000	99.550228
3170.000000	99.548632
3169.000000	99.546305
3168.000000	99.545579
3167.000000	99.548044
3166.000000	99.553181
3165.000000	99.558642
3164.000000	99.562093
3163.000000	99.563012
3162.000000	99.562837
3161.000000	99.563204
3160.000000	99.564068
3159.000000	99.563660
3158.000000	99.560499
3157.000000	99.555373
3156.000000	99.551075
3155.000000	99.550009
3154.000000	99.552194
3153.000000	99.555675
3152.000000	99.558774
3151.000000	99.561580
3150.000000	99.565057
3149.000000	99.568903
3148.000000	99.570827
3147.000000	99.568442
3146.000000	99.561884
3145.000000	99.554211
3144.000000	99.549084
3143.000000	99.548064
3142.000000	99.550129
3141.000000	99.553275
3140.000000	99.556302
3139.000000	99.559401
3138.000000	99.563578
3137.000000	99.569293
3136.000000	99.575288
3135.000000	99.579057
3134.000000	99.579211
3133.000000	99.577220
3132.000000	99.576114
3131.000000	99.577531
3130.000000	99.580762
3129.000000	99.584263
3128.000000	99.586873
3127.000000	99.587610
3126.000000	99.585695
3125.000000	99.581606
3124.000000	99.577305
3123.000000	99.574565
3122.000000	99.573521
3121.000000	99.573243
3120.000000	99.572935
3119.000000	99.571824
3118.000000	99.568907
3117.000000	99.564217
3116.000000	99.560029
3115.000000	99.559300
3114.000000	99.562705
3113.000000	99.568067
3112.000000	99.572765
3111.000000	99.575750
3110.000000	99.577273
3109.000000	99.577900
3108.000000	99.578446
3107.000000	99.579789
3106.000000	99.581524
3105.000000	99.581320
3104.000000	99.576904
3103.000000	99.568928
3102.000000	99.561151
3101.000000	99.557413
3100.000000	99.558530
3099.000000	99.562132
3098.000000	99.565076
3097.000000	99.565925
3096.000000	99.565561
3095.000000	99.565881
3094.000000	99.567847
3093.000000	99.570590
3092.000000	99.572238
3091.000000	99.571524
3090.000000	99.568751
3089.000000	99.565426
3088.000000	99.563032
3087.000000	99.561973
3086.000000	99.561390
3085.000000	99.559791
3084.000000	99.555961
3083.000000	99.549762
3082.000000	99.542624
3081.000000	99.537190
3080.000000	99.535815
3079.000000	99.538817
3078.000000	99.544348
3077.000000	99.550015
3076.000000	99.554220
3075.000000	99.555911
3074.000000	99.554172
3073.000000	99.549251
3072.000000	99.543619
3071.000000	99.540566
3070.000000	99.541129
3069.000000	99.543122
3068.000000	99.543721
3067.000000	99.542472
3066.000000	99.541285
3065.000000	99.541931
3064.000000	99.544251
3063.000000	99.546723
3062.000000	99.548159
3061.000000	99.548597
3060.000000	99.548779
3059.000000	99.549025
3058.000000	99.549027
3057.000000	99.548891
3056.000000	99.549885
3055.000000	99.553342
3054.000000	99.558743
3053.000000	99.563646
3052.000000	99.565739
3051.000000	99.564478
3050.000000	99.560664
3049.000000	99.555346
3048.000000	99.549763
3047.000000	99.545656
3046.000000	99.544486
3045.000000	99.546010
3044.000000	99.548176
3043.000000	99.548809
3042.000000	99.547431
3041.000000	99.545490
3040.000000	99.544990
3039.000000	99.546921
3038.000000	99.550751
3037.000000	99.555116
3036.000000	99.558788
3035.000000	99.561109
3034.000000	99.561887
3033.000000	99.561246
3032.000000	99.559575
3031.000000	99.557462
3030.000000	99.555643
3029.000000	99.554954
3028.000000	99.555948
3027.000000	99.558201
3026.000000	99.560033
3025.000000	99.559344
3024.000000	99.555085
3023.000000	99.548256
3022.000000	99.541738
3021.000000	99.539000
3020.000000	99.542058
3019.000000	99.549792
3018.000000	99.558177
3017.000000	99.562726
3016.000000	99.561221
3015.000000	99.554651
3014.000000	99.546350
3013.000000	99.540325
3012.000000	99.539158
3011.000000	99.541996
3010.000000	99.544891
3009.000000	99.544251
3008.000000	99.540018
3007.000000	99.534739
3006.000000	99.529833
3005.000000	99.524141
3004.000000	99.516413
3003.000000	99.507902
3002.000000	99.501534
3001.000000	99.499231
3000.000000	99.500794
2999.000000	99.504758
2998.000000	99.509318
2997.000000	99.512573
2996.000000	99.512863
2995.000000	99.509441
2994.000000	99.502749
2993.000000	99.493914
2992.000000	99.483888
2991.000000	99.472969
2990.000000	99.461167
2989.000000	99.449054
2988.000000	99.438030
2987.000000	99.429298
2986.000000	99.422617
2985.000000	99.416338
2984.000000	99.408515
2983.000000	99.397806
2982.000000	99.383820
2981.000000	99.367467
2980.000000	99.350836
2979.000000	99.335837
2978.000000	99.322571
2977.000000	99.309548
2976.000000	99.295451
2975.000000	99.280056
2974.000000	99.263381
2973.000000	99.244983
2972.000000	99.224541
2971.000000	99.202264
2970.000000	99.178193
2969.000000	99.151906
2968.000000	99.123822
2967.000000	99.096185
2966.000000	99.071517
2965.000000	99.049943
2964.000000	99.028695
2963.000000	99.004642
2962.000000	98.977089
2961.000000	98.948184
2960.000000	98.920931
2959.000000	98.896899
2958.000000	98.875617
2957.000000	98.855808
2956.000000	98.837057
2955.000000	98.820341
2954.000000	98.807375
2953.000000	98.799680
2952.000000	98.797641
2951.000000	98.799657
2950.000000	98.802226
2949.000000	98.801816
2948.000000	98.797026
2947.000000	98.788439
2946.000000	98.776163
2945.000000	98.758297
2944.000000	98.732511
2943.000000	98.698548
2942.000000	98.658501
2941.000000	98.614771
2940.000000	98.568422
2939.000000	98.519397
2938.000000	98.467534
2937.000000	98.413018
2936.000000	98.355901
2935.000000	98.295545
2934.000000	98.230831
2933.000000	98.161080
2932.000000	98.086790
2931.000000	98.009228
2930.000000	97.929576
2929.000000	97.848923
2928.000000	97.769174
2927.000000	97.693399
2926.000000	97.624802
2925.000000	97.565550
2924.000000	97.516534
2923.000000	97.478053
2922.000000	97.450569
2921.000000	97.435324
2920.000000	97.434833
2919.000000	97.452278
2918.000000	97.490081
2917.000000	97.548878
2916.000000	97.627719
2915.000000	97.724463
2914.000000	97.834990
2913.000000	97.952403
2912.000000	98.067883
2911.000000	98.173324
2910.000000	98.263552
2909.000000	98.337212
2908.000000	98.396793
2907.000000	98.447534
2906.000000	98.494752
2905.000000	98.540595
2904.000000	98.583267
2903.000000	98.619428
2902.000000	98.647804
2901.000000	98.670097
2900.000000	98.689940
2899.000000	98.711255
2898.000000	98.736660
2897.000000	98.766315
2896.000000	98.797619
2895.000000	98.826558
2894.000000	98.850098
2893.000000	98.867774
2892.000000	98.881553
2891.000000	98.894541
2890.000000	98.909408
2889.000000	98.927127
2888.000000	98.946541
2887.000000	98.965372
2886.000000	98.982106
2885.000000	98.996935
2884.000000	99.010789
2883.000000	99.023740
2882.000000	99.034560
2881.000000	99.041469
2880.000000	99.042914
2879.000000	99.038225
2878.000000	99.028603
2877.000000	99.017547
2876.000000	99.008893
2875.000000	99.003481
2874.000000	98.998162
2873.000000	98.989010
2872.000000	98.975631
2871.000000	98.961925
2870.000000	98.952652
2869.000000	98.949121
2868.000000	98.947813
2867.000000	98.942729
2866.000000	98.929599
2865.000000	98.908556
2864.000000	98.882631
2863.000000	98.853611
2862.000000	98.819763
2861.000000	98.777806
2860.000000	98.726064
2859.000000	98.664783
2858.000000	98.594636
2857.000000	98.517078
2856.000000	98.436357
2855.000000	98.359269
2854.000000	98.292237
2853.000000	98.239334
2852.000000	98.203876
2851.000000	98.191103
2850.000000	98.207682
2849.000000	98.257892
2848.000000	98.339533
2847.000000	98.443142
2846.000000	98.555710
2845.000000	98.666581
2844.000000	98.770435
2843.000000	98.865377
2842.000000	98.949439
2841.000000	99.020322
2840.000000	99.078366
2839.000000	99.127190
2838.000000	99.170261
2837.000000	99.208000
2836.000000	99.239214
2835.000000	99.264291
2834.000000	99.285570
2833.000000	99.305119
2832.000000	99.323441
2831.000000	99.340076
2830.000000	99.354315
2829.000000	99.365519
2828.000000	99.373715
2827.000000	99.379890
2826.000000	99.384958
2825.000000	99.388621
2824.000000	99.390300
2823.000000	99.391206
2822.000000	99.394355
2821.000000	99.401790
2820.000000	99.412156
2819.000000	99.421636
2818.000000	99.427463
2817.000000	99.430512
2816.000000	99.434462
2815.000000	99.442204
2814.000000	99.452874
2813.000000	99.462554
2812.000000	99.467947
2811.000000	99.469069
2810.000000	99.468332
2809.000000	99.467664
2808.000000	99.467092
2807.000000	99.465762
2806.000000	99.463485
2805.000000	99.461214
2804.000000	99.460408
2803.000000	99.461987
2802.000000	99.465629
2801.000000	99.470076
2800.000000	99.474170
2799.000000	99.477319
2798.000000	99.479010
2797.000000	99.478699
2796.000000	99.476810
2795.000000	99.475249
2794.000000	99.476014
2793.000000	99.479447
2792.000000	99.484470
2791.000000	99.490121
2790.000000	99.495883
2789.000000	99.500693
2788.000000	99.502992
2787.000000	99.502366
2786.000000	99.500327
2785.000000	99.498761
2784.000000	99.498071
2783.000000	99.497471
2782.000000	99.496689
2781.000000	99.496478
2780.000000	99.497397
2779.000000	99.498929
2778.000000	99.500298
2777.000000	99.501696
2776.000000	99.504004
2775.000000	99.507342
2774.000000	99.510561
2773.000000	99.512509
2772.000000	99.513344
2771.000000	99.514152
2770.000000	99.515636
2769.000000	99.517779
2768.000000	99.520461
2767.000000	99.523514
2766.000000	99.526142
2765.000000	99.527208
2764.000000	99.526506
2763.000000	99.525167
2762.000000	99.524365
2761.000000	99.524123
2760.000000	99.523791
2759.000000	99.523269
2758.000000	99.523345
2757.000000	99.525077
2756.000000	99.529043
2755.000000	99.534710
2754.000000	99.540275
2753.000000	99.543650
2752.000000	99.544024
2751.000000	99.542157
2750.000000	99.539046
2749.000000	99.535111
2748.000000	99.531062
2747.000000	99.528412
2746.000000	99.528047
2745.000000	99.528831
2744.000000	99.528848
2743.000000	99.527923
2742.000000	99.527852
2741.000000	99.529942
2740.000000	99.533129
2739.000000	99.534935
2738.000000	99.534019
2737.000000	99.531669
2736.000000	99.530835
2735.000000	99.533321
2734.000000	99.537711
2733.000000	99.540580
2732.000000	99.540270
2731.000000	99.538742
2730.000000	99.538904
2729.000000	99.540777
2728.000000	99.541630
2727.000000	99.539752
2726.000000	99.536589
2725.000000	99.534906
2724.000000	99.536024
2723.000000	99.539391
2722.000000	99.543721
2721.000000	99.547621
2720.000000	99.549770
2719.000000	99.549499
2718.000000	99.547261
2717.000000	99.544192
2716.000000	99.541372
2715.000000	99.539678
2714.000000	99.539809
2713.000000	99.541835
2712.000000	99.544771
2711.000000	99.547035
2710.000000	99.547604
2709.000000	99.546885
2708.000000	99.546626
2707.000000	99.548727
2706.000000	99.553575
2705.000000	99.559294
2704.000000	99.563099
2703.000000	99.563718
2702.000000	99.562399
2701.000000	99.561451
2700.000000	99.561967
2699.000000	99.562926
2698.000000	99.562186
2697.000000	99.558373
2696.000000	99.552339
2695.000000	99.547049
2694.000000	99.545609
2693.000000	99.548932
2692.000000	99.555114
2691.000000	99.560920
2690.000000	99.563715
2689.000000	99.562426
2688.000000	99.557706
2687.000000	99.551766
2686.000000	99.547475
2685.000000	99.546655
2684.000000	99.548788
2683.000000	99.551487
2682.000000	99.552416
2681.000000	99.551016
2680.000000	99.548691
2679.000000	99.547339
2678.000000	99.547582
2677.000000	99.548474
2676.000000	99.549026
2675.000000	99.549587
2674.000000	99.551192
2673.000000	99.553808
2672.000000	99.556047
2671.000000	99.556727
2670.000000	99.555973
2669.000000	99.554573
2668.000000	99.553052
2667.000000	99.551773
2666.000000	99.550986
2665.000000	99.549969
2664.000000	99.546850
2663.000000	99.540518
2662.000000	99.532682
2661.000000	99.526839
2660.000000	99.524853
2659.000000	99.525391
2658.000000	99.526326
2657.000000	99.527888
2656.000000	99.532327
2655.000000	99.540448
2654.000000	99.549563
2653.000000	99.555692
2652.000000	99.557353
2651.000000	99.556355
2650.000000	99.555029
2649.000000	99.553945
2648.000000	99.552973
2647.000000	99.553351
2646.000000	99.556810
2645.000000	99.562604
2644.000000	99.567199
2643.000000	99.567901
2642.000000	99.565775
2641.000000	99.564027
2640.000000	99.564349
2639.000000	99.566090
2638.000000	99.568327
2637.000000	99.570973
2636.000000	99.573679
2635.000000	99.575237
2634.000000	99.574984
2633.000000	99.574063
2632.000000	99.574607
2631.000000	99.577903
2630.000000	99.583436
2629.000000	99.589102
2628.000000	99.592299
2627.000000	99.591826
2626.000000	99.589220
2625.000000	99.587415
2624.000000	99.587588
2623.000000	99.588254
2622.000000	99.588164
2621.000000	99.588859
2620.000000	99.592811
2619.000000	99.599470
2618.000000	99.604740
2617.000000	99.604760
2616.000000	99.599418
2615.000000	99.592317
2614.000000	99.588294
2613.000000	99.590572
2612.000000	99.598411
2611.000000	99.606788
2610.000000	99.609858
2609.000000	99.606063
2608.000000	99.599379
2607.000000	99.594842
2606.000000	99.593745
2605.000000	99.594240
2604.000000	99.595279
2603.000000	99.597750
2602.000000	99.601666
2601.000000	99.604635
2600.000000	99.604888
2599.000000	99.604707
2598.000000	99.608717
2597.000000	99.618132
2596.000000	99.628126
2595.000000	99.632452
2594.000000	99.630315
2593.000000	99.627223
2592.000000	99.628383
2591.000000	99.632681
2590.000000	99.634525
2589.000000	99.630762
2588.000000	99.623937
2587.000000	99.618677
2586.000000	99.617021
2585.000000	99.618118
2584.000000	99.620621
2583.000000	99.623738
2582.000000	99.626814
2581.000000	99.629518
2580.000000	99.632148
2579.000000	99.634757
2578.000000	99.636595
2577.000000	99.637535
2576.000000	99.639278
2575.000000	99.643652
2574.000000	99.650136
2573.000000	99.656462
2572.000000	99.661059
2571.000000	99.663266
2570.000000	99.661829
2569.000000	99.655824
2568.000000	99.647678
2567.000000	99.642938
2566.000000	99.645702
2565.000000	99.655241
2564.000000	99.667376
2563.000000	99.677550
2562.000000	99.682153
2561.000000	99.679604
2560.000000	99.672236
2559.000000	99.665522
2558.000000	99.662988
2557.000000	99.662418
2556.000000	99.658954
2555.000000	99.651652
2554.000000	99.645173
2553.000000	99.644917
2552.000000	99.651791
2551.000000	99.661665
2550.000000	99.668491
2549.000000	99.667803
2548.000000	99.658748
2547.000000	99.644002
2546.000000	99.627932
2545.000000	99.615000
2544.000000	99.609510
2543.000000	99.614675
2542.000000	99.629548
2541.000000	99.647130
2540.000000	99.658110
2539.000000	99.658038
2538.000000	99.650270
2537.000000	99.641870
2536.000000	99.637715
2535.000000	99.638438
2534.000000	99.641777
2533.000000	99.644370
2532.000000	99.643558
2531.000000	99.639411
2530.000000	99.634785
2529.000000	99.632171
2528.000000	99.630723
2527.000000	99.627269
2526.000000	99.619871
2525.000000	99.609530
2524.000000	99.599183
2523.000000	99.592444
2522.000000	99.592533
2521.000000	99.599764
2520.000000	99.609238
2519.000000	99.613042
2518.000000	99.606623
2517.000000	99.592876
2516.000000	99.579384
2515.000000	99.572377
2514.000000	99.573642
2513.000000	99.581374
2512.000000	99.591903
2511.000000	99.600916
2510.000000	99.604971
2509.000000	99.602880
2508.000000	99.595752
2507.000000	99.586364
2506.000000	99.579057
2505.000000	99.578709
2504.000000	99.587319
2503.000000	99.601212
2502.000000	99.613538
2501.000000	99.620484
2500.000000	99.623800
2499.000000	99.626596
2498.000000	99.628201
2497.000000	99.624909
2496.000000	99.615220
2495.000000	99.602773
2494.000000	99.593892
2493.000000	99.592857
2492.000000	99.599390
2491.000000	99.609883
2490.000000	99.620636
2489.000000	99.630257
2488.000000	99.638997
2487.000000	99.645986
2486.000000	99.648209
2485.000000	99.643319
2484.000000	99.633448
2483.000000	99.624997
2482.000000	99.623760
2481.000000	99.630393
2480.000000	99.640630
2479.000000	99.649675
2478.000000	99.655962
2477.000000	99.660916
2476.000000	99.666087
2475.000000	99.671198
2474.000000	99.674825
2473.000000	99.676110
2472.000000	99.675391
2471.000000	99.673539
2470.000000	99.671203
2469.000000	99.668632
2468.000000	99.666107
2467.000000	99.664746
2466.000000	99.666587
2465.000000	99.672760
2464.000000	99.681126
2463.000000	99.687111
2462.000000	99.688076
2461.000000	99.685937
2460.000000	99.684029
2459.000000	99.682408
2458.000000	99.678446
2457.000000	99.671765
2456.000000	99.666176
2455.000000	99.665952
2454.000000	99.671574
2453.000000	99.679377
2452.000000	99.683829
2451.000000	99.680360
2450.000000	99.668966
2449.000000	99.656288
2448.000000	99.651644
2447.000000	99.658732
2446.000000	99.672139
2445.000000	99.683293
2444.000000	99.688424
2443.000000	99.689473
2442.000000	99.689420
2441.000000	99.689588
2440.000000	99.690482
2439.000000	99.692207
2438.000000	99.693643
2437.000000	99.693262
2436.000000	99.691294
2435.000000	99.689688
2434.000000	99.689594
2433.000000	99.690074
2432.000000	99.689678
2431.000000	99.688370
2430.000000	99.687463
2429.000000	99.688227
2428.000000	99.690818
2427.000000	99.694271
2426.000000	99.697469
2425.000000	99.700184
2424.000000	99.702889
2423.000000	99.705626
2422.000000	99.707629
2421.000000	99.708197
2420.000000	99.707150
2419.000000	99.704297
2418.000000	99.699417
2417.000000	99.693308
2416.000000	99.688113
2415.000000	99.686061
2414.000000	99.688035
2413.000000	99.692832
2412.000000	99.696922
2411.000000	99.696034
2410.000000	99.689282
2409.000000	99.681634
2408.000000	99.679634
2407.000000	99.683950
2406.000000	99.688596
2405.000000	99.688336
2404.000000	99.684295
2403.000000	99.681301
2402.000000	99.682701
2401.000000	99.689431
2400.000000	99.700899
2399.000000	99.713748
2398.000000	99.722096
2397.000000	99.722443
2396.000000	99.717441
2395.000000	99.712201
2394.000000	99.707914
2393.000000	99.702140
2392.000000	99.694422
2391.000000	99.688603
2390.000000	99.688912
2389.000000	99.695723
2388.000000	99.705786
2387.000000	99.714728
2386.000000	99.720388
2385.000000	99.724322
2384.000000	99.729854
2383.000000	99.738266
2382.000000	99.746794
2381.000000	99.752541
2380.000000	99.755514
2379.000000	99.756027
2378.000000	99.751932
2377.000000	99.741445
2376.000000	99.727799
2375.000000	99.717450
2374.000000	99.715418
2373.000000	99.723818
2372.000000	99.741982
2371.000000	99.763065
2370.000000	99.774990
2369.000000	99.771263
2368.000000	99.756770
2367.000000	99.741341
2366.000000	99.730665
2365.000000	99.725988
2364.000000	99.726779
2363.000000	99.727580
2362.000000	99.721694
2361.000000	99.712769
2360.000000	99.711584
2359.000000	99.723128
2358.000000	99.740381
2357.000000	99.752991
2356.000000	99.752795
2355.000000	99.735237
2354.000000	99.711591
2353.000000	99.700991
2352.000000	99.708120
2351.000000	99.719174
2350.000000	99.719820
2349.000000	99.708485
2348.000000	99.694487
2347.000000	99.692171
2346.000000	99.703775
2345.000000	99.711028
2344.000000	99.698267
2343.000000	99.673705
2342.000000	99.658862
2341.000000	99.662524
2340.000000	99.673866
2339.000000	99.678595
2338.000000	99.676531
2337.000000	99.675940
2336.000000	99.679252
2335.000000	99.682930
2334.000000	99.688932
2333.000000	99.701864
2332.000000	99.717014
2331.000000	99.723779
2330.000000	99.717563
2329.000000	99.703670
2328.000000	99.686589
2327.000000	99.669260
2326.000000	99.656285
2325.000000	99.651527
2324.000000	99.654414
2323.000000	99.658998
2322.000000	99.659352
2321.000000	99.650275
2320.000000	99.629861
2319.000000	99.602347
2318.000000	99.577537
2317.000000	99.565264
2316.000000	99.568950
2315.000000	99.585736
2314.000000	99.608293
2313.000000	99.628426
2312.000000	99.640143
2311.000000	99.643294
2310.000000	99.642411
2309.000000	99.642356
2308.000000	99.645738
2307.000000	99.653231
2306.000000	99.664016
2305.000000	99.674844
2304.000000	99.682279
2303.000000	99.685478
2302.000000	99.687016
2301.000000	99.690023
2300.000000	99.695891
2299.000000	99.703677
2298.000000	99.709609
2297.000000	99.709276
2296.000000	99.700567
2295.000000	99.686335
2294.000000	99.671947
2293.000000	99.661423
2292.000000	99.656011
2291.000000	99.655588
2290.000000	99.659297
2289.000000	99.664519
2288.000000	99.667506
2287.000000	99.665696
2286.000000	99.659557
2285.000000	99.651921
2284.000000	99.646465
2283.000000	99.645035
2282.000000	99.646401
2281.000000	99.648356
2280.000000	99.652081
2279.000000	99.661570
2278.000000	99.676834
2277.000000	99.689903
2276.000000	99.690743
2275.000000	99.677435
2274.000000	99.658394
2273.000000	99.645138
2272.000000	99.643934
2271.000000	99.653271
2270.000000	99.666286
2269.000000	99.675505
2268.000000	99.677931
2267.000000	99.676711
2266.000000	99.676503
2265.000000	99.677310
2264.000000	99.674918
2263.000000	99.667880
2262.000000	99.661330
2261.000000	99.661823
2260.000000	99.669770
2259.000000	99.678979
2258.000000	99.684052
2257.000000	99.686120
2256.000000	99.690327
2255.000000	99.698300
2254.000000	99.705132
2253.000000	99.704765
2252.000000	99.697013
2251.000000	99.688104
2250.000000	99.684825
2249.000000	99.689000
2248.000000	99.696784
2247.000000	99.702659
2246.000000	99.704830
2245.000000	99.707101
2244.000000	99.713736
2243.000000	99.722549
2242.000000	99.726722
2241.000000	99.724602
2240.000000	99.722527
2239.000000	99.723855
2238.000000	99.720343
2237.000000	99.701629
2236.000000	99.670834
2235.000000	99.643372
2234.000000	99.631694
2233.000000	99.638321
2232.000000	99.661377
2231.000000	99.696340
2230.000000	99.730537
2229.000000	99.746885
2228.000000	99.740580
2227.000000	99.726625
2226.000000	99.725200
2225.000000	99.742600
2224.000000	99.768558
2223.000000	99.787251
2222.000000	99.787981
2221.000000	99.770313
2220.000000	99.742799
2219.000000	99.714103
2218.000000	99.685675
2217.000000	99.658271
2216.000000	99.643154
2215.000000	99.655573
2214.000000	99.694402
2213.000000	99.738535
2212.000000	99.768619
2211.000000	99.782867
2210.000000	99.784990
2209.000000	99.769278
2208.000000	99.730387
2207.000000	99.679869
2206.000000	99.639213
2205.000000	99.618585
2204.000000	99.612271
2203.000000	99.612749
2202.000000	99.619281
2201.000000	99.633008
2200.000000	99.652962
2199.000000	99.677959
2198.000000	99.704795
2197.000000	99.724072
2196.000000	99.725912
2195.000000	99.711838
2194.000000	99.695199
2193.000000	99.688683
2192.000000	99.694859
2191.000000	99.707563
2190.000000	99.716668
2189.000000	99.712336
2188.000000	99.692918
2187.000000	99.670680
2186.000000	99.662749
2185.000000	99.672118
2184.000000	99.681223
2183.000000	99.669661
2182.000000	99.637553
2181.000000	99.607776
2180.000000	99.604458
2179.000000	99.631464
2178.000000	99.672890
2177.000000	99.710758
2176.000000	99.738701
2175.000000	99.759876
2174.000000	99.776399
2173.000000	99.785691
2172.000000	99.785692
2171.000000	99.777201
2170.000000	99.761357
2169.000000	99.741045
2168.000000	99.724331
2167.000000	99.718689
2166.000000	99.719671
2165.000000	99.711754
2164.000000	99.684836
2163.000000	99.645699
2162.000000	99.610896
2161.000000	99.596123
2160.000000	99.613691
2159.000000	99.667595
2158.000000	99.742507
2157.000000	99.809373
2156.000000	99.851947
2155.000000	99.877622
2154.000000	99.899368
2153.000000	99.918977
2152.000000	99.930224
2151.000000	99.928353
2150.000000	99.911623
2149.000000	99.880235
2148.000000	99.840749
2147.000000	99.809213
2146.000000	99.804427
2145.000000	99.834414
2144.000000	99.886829
2143.000000	99.933186
2142.000000	99.947417
2141.000000	99.927191
2140.000000	99.897488
2139.000000	99.886587
2138.000000	99.897785
2137.000000	99.908897
2136.000000	99.897929
2135.000000	99.864573
2134.000000	99.826640
2133.000000	99.802633
2132.000000	99.799586
2131.000000	99.811410
2130.000000	99.825469
2129.000000	99.832799
2128.000000	99.833755
2127.000000	99.832197
2126.000000	99.825852
2125.000000	99.808294
2124.000000	99.781132
2123.000000	99.757495
2122.000000	99.749653
2121.000000	99.756275
2120.000000	99.765049
2119.000000	99.765986
2118.000000	99.759578
2117.000000	99.753720
2116.000000	99.754948
2115.000000	99.761854
2114.000000	99.766195
2113.000000	99.761267
2112.000000	99.749386
2111.000000	99.739191
2110.000000	99.736109
2109.000000	99.738685
2108.000000	99.743762
2107.000000	99.751001
2106.000000	99.760809
2105.000000	99.771603
2104.000000	99.781590
2103.000000	99.790791
2102.000000	99.799710
2101.000000	99.807846
2100.000000	99.814280
2099.000000	99.817646
2098.000000	99.815772
2097.000000	99.808512
2096.000000	99.800342
2095.000000	99.795659
2094.000000	99.791672
2093.000000	99.781290
2092.000000	99.764079
2091.000000	99.749080
2090.000000	99.744824
2089.000000	99.749777
2088.000000	99.754048
2087.000000	99.748588
2086.000000	99.731968
2085.000000	99.711023
2084.000000	99.695427
2083.000000	99.688971
2082.000000	99.686715
2081.000000	99.682960
2080.000000	99.679627
2079.000000	99.682464
2078.000000	99.691259
2077.000000	99.700453
2076.000000	99.708496
2075.000000	99.719148
2074.000000	99.733038
2073.000000	99.745265
2072.000000	99.752585
2071.000000	99.755846
2070.000000	99.754544
2069.000000	99.746862
2068.000000	99.735991
2067.000000	99.727817
2066.000000	99.721308
2065.000000	99.710285
2064.000000	99.696185
2063.000000	99.688448
2062.000000	99.690307
2061.000000	99.695436
2060.000000	99.700031
2059.000000	99.705474
2058.000000	99.706047
2057.000000	99.690180
2056.000000	99.662157
2055.000000	99.647287
2054.000000	99.662351
2053.000000	99.692252
2052.000000	99.710890
2051.000000	99.715226
2050.000000	99.722347
2049.000000	99.738876
2048.000000	99.752047
2047.000000	99.753581
2046.000000	99.753795
2045.000000	99.763514
2044.000000	99.776443
2043.000000	99.778457
2042.000000	99.765586
2041.000000	99.746220
2040.000000	99.728811
2039.000000	99.711703
2038.000000	99.687306
2037.000000	99.657822
2036.000000	99.644354
2035.000000	99.671074
2034.000000	99.737210
2033.000000	99.812324
2032.000000	99.863796
2031.000000	99.881368
2030.000000	99.871076
2029.000000	99.842733
2028.000000	99.812164
2027.000000	99.798005
2026.000000	99.804515
2025.000000	99.817297
2024.000000	99.824593
2023.000000	99.832346
2022.000000	99.849148
2021.000000	99.868532
2020.000000	99.877890
2019.000000	99.875673
2018.000000	99.869190
2017.000000	99.863938
2016.000000	99.864092
2015.000000	99.873698
2014.000000	99.887713
2013.000000	99.891286
2012.000000	99.878939
2011.000000	99.866356
2010.000000	99.872000
2009.000000	99.893619
2008.000000	99.913605
2007.000000	99.922577
2006.000000	99.924579
2005.000000	99.922490
2004.000000	99.912726
2003.000000	99.894169
2002.000000	99.873102
2001.000000	99.857468
2000.000000	99.849338
1999.000000	99.844102
1998.000000	99.837233
1997.000000	99.831652
1996.000000	99.834480
1995.000000	99.843776
1994.000000	99.844074
1993.000000	99.823068
1992.000000	99.790515
1991.000000	99.767489
1990.000000	99.759036
1989.000000	99.755179
1988.000000	99.754622
1987.000000	99.766037
1986.000000	99.784865
1985.000000	99.789380
1984.000000	99.767885
1983.000000	99.733742
1982.000000	99.705107
1981.000000	99.686568
1980.000000	99.681878
1979.000000	99.707400
1978.000000	99.772055
1977.000000	99.850566
1976.000000	99.899404
1975.000000	99.896532
1974.000000	99.849868
1973.000000	99.783619
1972.000000	99.732021
1971.000000	99.725997
1970.000000	99.768121
1969.000000	99.827888
1968.000000	99.872607
1967.000000	99.898082
1966.000000	99.919099
1965.000000	99.940982
1964.000000	99.957147
1963.000000	99.963125
1962.000000	99.955853
1961.000000	99.928216
1960.000000	99.879512
1959.000000	99.825919
1958.000000	99.787885
1957.000000	99.770368
1956.000000	99.764622
1955.000000	99.765222
1954.000000	99.775030
1953.000000	99.793650
1952.000000	99.810133
1951.000000	99.812487
1950.000000	99.802726
1949.000000	99.798354
1948.000000	99.815222
1947.000000	99.847642
1946.000000	99.870487
1945.000000	99.866585
1944.000000	99.847465
1943.000000	99.838066
1942.000000	99.842154
1941.000000	99.839448
1940.000000	99.820579
1939.000000	99.802816
1938.000000	99.806688
1937.000000	99.830478
1936.000000	99.852370
1935.000000	99.853720
1934.000000	99.834322
1933.000000	99.809478
1932.000000	99.797180
1931.000000	99.803723
1930.000000	99.818736
1929.000000	99.826792
1928.000000	99.825973
1927.000000	99.829644
1926.000000	99.847284
1925.000000	99.871031
1924.000000	99.885316
1923.000000	99.884666
1922.000000	99.875532
1921.000000	99.862742
1920.000000	99.844300
1919.000000	99.820580
1918.000000	99.800030
1917.000000	99.790965
1916.000000	99.791679
1915.000000	99.794795
1914.000000	99.796774
1913.000000	99.799016
1912.000000	99.803060
1911.000000	99.807203
1910.000000	99.808704
1909.000000	99.808631
1908.000000	99.811763
1907.000000	99.819499
1906.000000	99.825732
1905.000000	99.823564
1904.000000	99.815118
1903.000000	99.809757
1902.000000	99.811231
1901.000000	99.812428
1900.000000	99.806244
1899.000000	99.795410
1898.000000	99.787170
1897.000000	99.783997
1896.000000	99.784368
1895.000000	99.789026
1894.000000	99.799721
1893.000000	99.812328
1892.000000	99.818465
1891.000000	99.814414
1890.000000	99.805396
1889.000000	99.801351
1888.000000	99.807622
1887.000000	99.820802
1886.000000	99.833629
1885.000000	99.841605
1884.000000	99.845512
1883.000000	99.847647
1882.000000	99.846386
1881.000000	99.838172
1880.000000	99.825501
1879.000000	99.817198
1878.000000	99.818621
1877.000000	99.826094
1876.000000	99.832964
1875.000000	99.836975
1874.000000	99.838570
1873.000000	99.836632
1872.000000	99.831658
1871.000000	99.830691
1870.000000	99.842943
1869.000000	99.866664
1868.000000	99.886101
1867.000000	99.890447
1866.000000	99.885117
1865.000000	99.880548
1864.000000	99.882057
1863.000000	99.887956
1862.000000	99.891522
1861.000000	99.886877
1860.000000	99.874846
1859.000000	99.861758
1858.000000	99.852498
1857.000000	99.847584
1856.000000	99.846971
1855.000000	99.852499
1854.000000	99.863536
1853.000000	99.873612
1852.000000	99.876111
1851.000000	99.871372
1850.000000	99.865049
1849.000000	99.861557
1848.000000	99.860578
1847.000000	99.859125
1846.000000	99.855814
1845.000000	99.853939
1844.000000	99.859408
1843.000000	99.873461
1842.000000	99.889734
1841.000000	99.900248
1840.000000	99.903110
1839.000000	99.902823
1838.000000	99.903704
1837.000000	99.905714
1836.000000	99.907382
1835.000000	99.908941
1834.000000	99.910420
1833.000000	99.911153
1832.000000	99.912628
1831.000000	99.916397
1830.000000	99.917431
1829.000000	99.909623
1828.000000	99.896649
1827.000000	99.885867
1826.000000	99.879504
1825.000000	99.875917
1824.000000	99.874446
1823.000000	99.876227
1822.000000	99.879607
1821.000000	99.880851
1820.000000	99.879703
1819.000000	99.879770
1818.000000	99.884225
1817.000000	99.893183
1816.000000	99.904864
1815.000000	99.916875
1814.000000	99.926001
1813.000000	99.929832
1812.000000	99.929466
1811.000000	99.927556
1810.000000	99.923693
1809.000000	99.914833
1808.000000	99.900646
1807.000000	99.885404
1806.000000	99.872228
1805.000000	99.858429
1804.000000	99.840401
1803.000000	99.820484
1802.000000	99.804697
1801.000000	99.795341
1800.000000	99.789299
1799.000000	99.783370
1798.000000	99.777509
1797.000000	99.771381
1796.000000	99.762098
1795.000000	99.747409
1794.000000	99.729091
1793.000000	99.714965
1792.000000	99.714695
1791.000000	99.730661
1790.000000	99.756589
1789.000000	99.782290
1788.000000	99.799513
1787.000000	99.807858
1786.000000	99.814244
1785.000000	99.824734
1784.000000	99.838853
1783.000000	99.852150
1782.000000	99.860080
1781.000000	99.860253
1780.000000	99.855111
1779.000000	99.851412
1778.000000	99.854401
1777.000000	99.864312
1776.000000	99.879441
1775.000000	99.898473
1774.000000	99.918886
1773.000000	99.933869
1772.000000	99.934022
1771.000000	99.918492
1770.000000	99.895903
1769.000000	99.873324
1768.000000	99.855739
1767.000000	99.847812
1766.000000	99.848277
1765.000000	99.848869
1764.000000	99.842709
1763.000000	99.831416
1762.000000	99.821853
1761.000000	99.818627
1760.000000	99.820305
1759.000000	99.820615
1758.000000	99.813830
1757.000000	99.799373
1756.000000	99.783638
1755.000000	99.771865
1754.000000	99.758679
1753.000000	99.735118
1752.000000	99.702284
1751.000000	99.673560
1750.000000	99.658392
1749.000000	99.649606
1748.000000	99.636836
1747.000000	99.619181
1746.000000	99.598783
1745.000000	99.575983
1744.000000	99.552914
1743.000000	99.533194
1742.000000	99.516176
1741.000000	99.497743
1740.000000	99.479581
1739.000000	99.470187
1738.000000	99.469385
1737.000000	99.468255
1736.000000	99.463436
1735.000000	99.470536
1734.000000	99.504381
1733.000000	99.545856
1732.000000	99.573627
1731.000000	99.592355
1730.000000	99.612730
1729.000000	99.636935
1728.000000	99.661711
1727.000000	99.684149
1726.000000	99.702382
1725.000000	99.715496
1724.000000	99.726657
1723.000000	99.741447
1722.000000	99.760722
1721.000000	99.778552
1720.000000	99.790603
1719.000000	99.797316
1718.000000	99.797752
1717.000000	99.794125
1716.000000	99.791430
1715.000000	99.790096
1714.000000	99.790326
1713.000000	99.791260
1712.000000	99.791204
1711.000000	99.791918
1710.000000	99.795963
1709.000000	99.802184
1708.000000	99.807057
1707.000000	99.809507
1706.000000	99.810862
1705.000000	99.811164
1704.000000	99.807238
1703.000000	99.794371
1702.000000	99.769079
1701.000000	99.740174
1700.000000	99.723755
1699.000000	99.723532
1698.000000	99.725865
1697.000000	99.710556
1696.000000	99.674955
1695.000000	99.641143
1694.000000	99.626927
1693.000000	99.624579
1692.000000	99.620006
1691.000000	99.607178
1690.000000	99.586969
1689.000000	99.566206
1688.000000	99.553893
1687.000000	99.551536
1686.000000	99.550166
1685.000000	99.535622
1684.000000	99.493280
1683.000000	99.438530
1682.000000	99.399900
1681.000000	99.375977
1680.000000	99.358354
1679.000000	99.343883
1678.000000	99.327008
1677.000000	99.299949
1676.000000	99.264570
1675.000000	99.236652
1674.000000	99.226629
1673.000000	99.224849
1672.000000	99.216911
1671.000000	99.198800
1670.000000	99.173648
1669.000000	99.145855
1668.000000	99.122357
1667.000000	99.107673
1666.000000	99.096654
1665.000000	99.081844
1664.000000	99.062026
1663.000000	99.040943
1662.000000	99.021005
1661.000000	99.002187
1660.000000	98.985983
1659.000000	98.974403
1658.000000	98.967187
1657.000000	98.960605
1656.000000	98.955965
1655.000000	98.960188
1654.000000	98.982983
1653.000000	98.997302
1652.000000	98.982374
1651.000000	98.966148
1650.000000	98.954887
1649.000000	98.946281
1648.000000	98.941471
1647.000000	98.939362
1646.000000	98.937986
1645.000000	98.934526
1644.000000	98.929348
1643.000000	98.924500
1642.000000	98.922578
1641.000000	98.926378
1640.000000	98.936348
1639.000000	98.951355
1638.000000	98.968947
1637.000000	98.985992
1636.000000	98.997591
1635.000000	99.000648
1634.000000	98.999519
1633.000000	98.999253
1632.000000	98.999968
1631.000000	99.002788
1630.000000	99.010725
1629.000000	99.023788
1628.000000	99.039814
1627.000000	99.057319
1626.000000	99.075147
1625.000000	99.092378
1624.000000	99.111801
1623.000000	99.136612
1622.000000	99.163590
1621.000000	99.187267
1620.000000	99.209563
1619.000000	99.236401
1618.000000	99.268732
1617.000000	99.297015
1616.000000	99.310970
1615.000000	99.315914
1614.000000	99.321353
1613.000000	99.328597
1612.000000	99.337899
1611.000000	99.352385
1610.000000	99.371629
1609.000000	99.388411
1608.000000	99.398108
1607.000000	99.405349
1606.000000	99.415350
1605.000000	99.427022
1604.000000	99.437682
1603.000000	99.446481
1602.000000	99.451622
1601.000000	99.450437
1600.000000	99.444506
1599.000000	99.439539
1598.000000	99.438038
1597.000000	99.437126
1596.000000	99.433892
1595.000000	99.428388
1594.000000	99.420584
1593.000000	99.408747
1592.000000	99.393170
1591.000000	99.376922
1590.000000	99.360581
1589.000000	99.340950
1588.000000	99.316781
1587.000000	99.290478
1586.000000	99.262213
1585.000000	99.228604
1584.000000	99.190181
1583.000000	99.152886
1582.000000	99.119973
1581.000000	99.089818
1580.000000	99.063871
1579.000000	99.049125
1578.000000	99.049255
1577.000000	99.056476
1576.000000	99.057809
1575.000000	99.053724
1574.000000	99.051981
1573.000000	99.053254
1572.000000	99.057677
1571.000000	99.070546
1570.000000	99.094841
1569.000000	99.119495
1568.000000	99.135586
1567.000000	99.146354
1566.000000	99.153238
1565.000000	99.153526
1564.000000	99.149434
1563.000000	99.146008
1562.000000	99.143330
1561.000000	99.137903
1560.000000	99.138107
1559.000000	99.127949
1558.000000	99.092413
1557.000000	99.053065
1556.000000	99.018758
1555.000000	98.991439
1554.000000	98.969257
1553.000000	98.947046
1552.000000	98.915523
1551.000000	98.875160
1550.000000	98.833213
1549.000000	98.794508
1548.000000	98.753862
1547.000000	98.701137
1546.000000	98.631402
1545.000000	98.551198
1544.000000	98.475879
1543.000000	98.419503
1542.000000	98.384268
1541.000000	98.363910
1540.000000	98.354112
1539.000000	98.352898
1538.000000	98.354065
1537.000000	98.352526
1536.000000	98.350836
1535.000000	98.357564
1534.000000	98.379160
1533.000000	98.403913
1532.000000	98.417528
1531.000000	98.420265
1530.000000	98.414785
1529.000000	98.398442
1528.000000	98.370993
1527.000000	98.337994
1526.000000	98.307421
1525.000000	98.283410
1524.000000	98.262181
1523.000000	98.233171
1522.000000	98.184486
1521.000000	98.122133
1520.000000	98.070983
1519.000000	98.037584
1518.000000	98.003666
1517.000000	97.953505
1516.000000	97.892784
1515.000000	97.836164
1514.000000	97.781447
1513.000000	97.719909
1512.000000	97.656940
1511.000000	97.604373
1510.000000	97.563417
1509.000000	97.525228
1508.000000	97.483647
1507.000000	97.431007
1506.000000	97.364577
1505.000000	97.299110
1504.000000	97.242241
1503.000000	97.185640
1502.000000	97.121137
1501.000000	97.049417
1500.000000	96.979168
1499.000000	96.918875
1498.000000	96.859172
1497.000000	96.785299
1496.000000	96.705117
1495.000000	96.637410
1494.000000	96.578741
1493.000000	96.512221
1492.000000	96.432258
1491.000000	96.349160
1490.000000	96.275143
1489.000000	96.213934
1488.000000	96.161827
1487.000000	96.110747
1486.000000	96.053679
1485.000000	95.988186
1484.000000	95.917888
1483.000000	95.847333
1482.000000	95.776767
1481.000000	95.705829
1480.000000	95.636465
1479.000000	95.567110
1478.000000	95.490488
1477.000000	95.402945
1476.000000	95.310771
1475.000000	95.220569
1474.000000	95.125788
1473.000000	95.018968
1472.000000	94.916716
1471.000000	94.838746
1470.000000	94.776977
1469.000000	94.714916
1468.000000	94.649036
1467.000000	94.583826
1466.000000	94.521383
1465.000000	94.462548
1464.000000	94.414080
1463.000000	94.378650
1462.000000	94.346188
1461.000000	94.306563
1460.000000	94.257249
1459.000000	94.196812
1458.000000	94.116275
1457.000000	94.025631
1456.000000	93.967757
1455.000000	93.948122
1454.000000	93.928562
1453.000000	93.890478
1452.000000	93.841868
1451.000000	93.795034
1450.000000	93.748916
1449.000000	93.698488
1448.000000	93.650783
1447.000000	93.615421
1446.000000	93.585959
1445.000000	93.550034
1444.000000	93.506593
1443.000000	93.462901
1442.000000	93.422834
1441.000000	93.383312
1440.000000	93.339257
1439.000000	93.286146
1438.000000	93.223020
1437.000000	93.160361
1436.000000	93.117444
1435.000000	93.095488
1434.000000	93.071223
1433.000000	93.028619
1432.000000	92.973198
1431.000000	92.917210
1430.000000	92.861618
1429.000000	92.801563
1428.000000	92.741949
1427.000000	92.687705
1426.000000	92.631699
1425.000000	92.566990
1424.000000	92.501795
1423.000000	92.445914
1422.000000	92.388373
1421.000000	92.309886
1420.000000	92.211985
1419.000000	92.118951
1418.000000	92.044823
1417.000000	91.980339
1416.000000	91.916235
1415.000000	91.849977
1414.000000	91.777527
1413.000000	91.697611
1412.000000	91.618875
1411.000000	91.550739
1410.000000	91.488262
1409.000000	91.422297
1408.000000	91.358383
1407.000000	91.310058
1406.000000	91.280405
1405.000000	91.265199
1404.000000	91.267258
1403.000000	91.285278
1402.000000	91.301856
1401.000000	91.303700
1400.000000	91.301838
1399.000000	91.315431
1398.000000	91.340121
1397.000000	91.360129
1396.000000	91.384012
1395.000000	91.437284
1394.000000	91.523643
1393.000000	91.625010
1392.000000	91.732611
1391.000000	91.845615
1390.000000	91.958675
1389.000000	92.072663
1388.000000	92.205482
1387.000000	92.369246
1386.000000	92.543960
1385.000000	92.705194
1384.000000	92.855816
1383.000000	93.008311
1382.000000	93.161200
1381.000000	93.306291
1380.000000	93.446250
1379.000000	93.588305
1378.000000	93.728860
1377.000000	93.861592
1376.000000	93.993351
1375.000000	94.136841
1374.000000	94.288943
1373.000000	94.433180
1372.000000	94.562335
1371.000000	94.680612
1370.000000	94.793432
1369.000000	94.906722
1368.000000	95.024498
1367.000000	95.140896
1366.000000	95.244760
1365.000000	95.336289
1364.000000	95.430244
1363.000000	95.538276
1362.000000	95.654431
1361.000000	95.766578
1360.000000	95.871292
1359.000000	95.968234
1358.000000	96.055307
1357.000000	96.134440
1356.000000	96.211191
1355.000000	96.285456
1354.000000	96.351135
1353.000000	96.407808
1352.000000	96.462648
1351.000000	96.518636
1350.000000	96.570663
1349.000000	96.615092
1348.000000	96.654972
1347.000000	96.693228
1346.000000	96.728669
1345.000000	96.761011
1344.000000	96.791788
1343.000000	96.818673
1342.000000	96.837705
1341.000000	96.853138
1340.000000	96.877026
1339.000000	96.914004
1338.000000	96.954732
1337.000000	96.991135
1336.000000	97.025766
1335.000000	97.062240
1334.000000	97.098619
1333.000000	97.133063
1332.000000	97.168200
1331.000000	97.206001
1330.000000	97.243671
1329.000000	97.278049
1328.000000	97.309532
1327.000000	97.339239
1326.000000	97.366463
1325.000000	97.390935
1324.000000	97.413970
1323.000000	97.435469
1322.000000	97.453933
1321.000000	97.470510
1320.000000	97.488858
1319.000000	97.509989
1318.000000	97.531477
1317.000000	97.552561
1316.000000	97.574723
1315.000000	97.597029
1314.000000	97.616886
1313.000000	97.636232
1312.000000	97.660908
1311.000000	97.692204
1310.000000	97.724407
1309.000000	97.752281
1308.000000	97.775866
1307.000000	97.797082
1306.000000	97.816364
1305.000000	97.833957
1304.000000	97.851060
1303.000000	97.867738
1302.000000	97.882802
1301.000000	97.896812
1300.000000	97.912407
1299.000000	97.931157
1298.000000	97.952667
1297.000000	97.976194
1296.000000	97.999829
1295.000000	98.018988
1294.000000	98.029939
1293.000000	98.034415
1292.000000	98.037020
1291.000000	98.038920
1290.000000	98.038274
1289.000000	98.036413
1288.000000	98.038352
1287.000000	98.046236
1286.000000	98.056504
1285.000000	98.064777
1284.000000	98.070001
1283.000000	98.072912
1282.000000	98.074152
1281.000000	98.074926
1280.000000	98.077074
1279.000000	98.081842
1278.000000	98.089982
1277.000000	98.102346
1276.000000	98.118044
1275.000000	98.133038
1274.000000	98.143435
1273.000000	98.149690
1272.000000	98.155134
1271.000000	98.161277
1270.000000	98.167222
1269.000000	98.172217
1268.000000	98.175450
1267.000000	98.174787
1266.000000	98.169887
1265.000000	98.165592
1264.000000	98.167794
1263.000000	98.175881
1262.000000	98.183064
1261.000000	98.184499
1260.000000	98.181657
1259.000000	98.178870
1258.000000	98.178779
1257.000000	98.181046
1256.000000	98.182435
1255.000000	98.178322
1254.000000	98.167475
1253.000000	98.155061
1252.000000	98.147716
1251.000000	98.146150
1250.000000	98.145506
1249.000000	98.141988
1248.000000	98.135503
1247.000000	98.126273
1246.000000	98.113596
1245.000000	98.099112
1244.000000	98.087340
1243.000000	98.081116
1242.000000	98.078971
1241.000000	98.078063
1240.000000	98.076984
1239.000000	98.074804
1238.000000	98.070344
1237.000000	98.064179
1236.000000	98.059296
1235.000000	98.058600
1234.000000	98.063330
1233.000000	98.074122
1232.000000	98.091465
1231.000000	98.113914
1230.000000	98.137882
1229.000000	98.160694
1228.000000	98.182419
1227.000000	98.204308
1226.000000	98.227107
1225.000000	98.251358
1224.000000	98.277505
1223.000000	98.304714
1222.000000	98.330774
1221.000000	98.353757
1220.000000	98.373173
1219.000000	98.389797
1218.000000	98.405304
1217.000000	98.421265
1216.000000	98.437193
1215.000000	98.450345
1214.000000	98.458631
1213.000000	98.463077
1212.000000	98.466038
1211.000000	98.468064
1210.000000	98.468176
1209.000000	98.465950
1208.000000	98.461696
1207.000000	98.455500
1206.000000	98.447984
1205.000000	98.441211
1204.000000	98.437064
1203.000000	98.435458
1202.000000	98.435546
1201.000000	98.437671
1200.000000	98.442508
1199.000000	98.449311
1198.000000	98.456642
1197.000000	98.464090
1196.000000	98.471953
1195.000000	98.480310
1194.000000	98.489994
1193.000000	98.502806
1192.000000	98.518646
1191.000000	98.533566
1190.000000	98.543062
1189.000000	98.546608
1188.000000	98.547096
1187.000000	98.546662
1186.000000	98.544802
1185.000000	98.539951
1184.000000	98.531123
1183.000000	98.518967
1182.000000	98.507024
1181.000000	98.500805
1180.000000	98.503265
1179.000000	98.511397
1178.000000	98.518949
1177.000000	98.522124
1176.000000	98.521342
1175.000000	98.518434
1174.000000	98.513957
1173.000000	98.507317
1172.000000	98.498864
1171.000000	98.491468
1170.000000	98.488892
1169.000000	98.491305
1168.000000	98.493661
1167.000000	98.491182
1166.000000	98.485918
1165.000000	98.484512
1164.000000	98.489467
1163.000000	98.496639
1162.000000	98.502155
1161.000000	98.507384
1160.000000	98.514882
1159.000000	98.523521
1158.000000	98.530650
1157.000000	98.535942
1156.000000	98.540345
1155.000000	98.544131
1154.000000	98.548868
1153.000000	98.558507
1152.000000	98.575145
1151.000000	98.595827
1150.000000	98.616243
1149.000000	98.635378
1148.000000	98.654128
1147.000000	98.672232
1146.000000	98.689693
1145.000000	98.708292
1144.000000	98.728119
1143.000000	98.744943
1142.000000	98.754711
1141.000000	98.758855
1140.000000	98.762284
1139.000000	98.768244
1138.000000	98.777704
1137.000000	98.791100
1136.000000	98.807454
1135.000000	98.823936
1134.000000	98.839079
1133.000000	98.853773
1132.000000	98.866599
1131.000000	98.871930
1130.000000	98.866809
1129.000000	98.856851
1128.000000	98.850914
1127.000000	98.852075
1126.000000	98.857352
1125.000000	98.863499
1124.000000	98.868927
1123.000000	98.872296
1122.000000	98.873954
1121.000000	98.877032
1120.000000	98.882725
1119.000000	98.886092
1118.000000	98.880836
1117.000000	98.867218
1116.000000	98.851455
1115.000000	98.838786
1114.000000	98.830667
1113.000000	98.826764
1112.000000	98.825282
1111.000000	98.822623
1110.000000	98.817150
1109.000000	98.812525
1108.000000	98.813583
1107.000000	98.819548
1106.000000	98.825304
1105.000000	98.828317
1104.000000	98.829822
1103.000000	98.829853
1102.000000	98.825660
1101.000000	98.816302
1100.000000	98.805294
1099.000000	98.797321
1098.000000	98.794684
1097.000000	98.795594
1096.000000	98.795154
1095.000000	98.789153
1094.000000	98.779186
1093.000000	98.772046
1092.000000	98.771507
1091.000000	98.772842
1090.000000	98.768178
1089.000000	98.755065
1088.000000	98.736173
1087.000000	98.713386
1086.000000	98.687706
1085.000000	98.663864
1084.000000	98.649131
1083.000000	98.645600
1082.000000	98.646956
1081.000000	98.644774
1080.000000	98.636934
1079.000000	98.629385
1078.000000	98.630708
1077.000000	98.644489
1076.000000	98.665363
1075.000000	98.683285
1074.000000	98.693112
1073.000000	98.698474
1072.000000	98.704891
1071.000000	98.711919
1070.000000	98.715137
1069.000000	98.713443
1068.000000	98.710075
1067.000000	98.707328
1066.000000	98.704307
1065.000000	98.699923
1064.000000	98.695220
1063.000000	98.692366
1062.000000	98.693161
1061.000000	98.698080
1060.000000	98.705216
1059.000000	98.711160
1058.000000	98.714602
1057.000000	98.717734
1056.000000	98.722300
1055.000000	98.726195
1054.000000	98.726675
1053.000000	98.725387
1052.000000	98.727284
1051.000000	98.735029
1050.000000	98.746826
1049.000000	98.759136
1048.000000	98.769304
1047.000000	98.776333
1046.000000	98.780911
1045.000000	98.783792
1044.000000	98.783440
1043.000000	98.777693
1042.000000	98.768941
1041.000000	98.764432
1040.000000	98.768561
1039.000000	98.777046
1038.000000	98.781324
1037.000000	98.777047
1036.000000	98.766299
1035.000000	98.753931
1034.000000	98.744690
1033.000000	98.741627
1032.000000	98.744123
1031.000000	98.748538
1030.000000	98.752624
1029.000000	98.757554
1028.000000	98.764036
1027.000000	98.769510
1026.000000	98.772024
1025.000000	98.773946
1024.000000	98.778681
1023.000000	98.786068
1022.000000	98.794260
1021.000000	98.803500
1020.000000	98.814405
1019.000000	98.824956
1018.000000	98.833084
1017.000000	98.840290
1016.000000	98.848888
1015.000000	98.857805
1014.000000	98.865286
1013.000000	98.873915
1012.000000	98.888164
1011.000000	98.907810
1010.000000	98.928049
1009.000000	98.945667
1008.000000	98.961232
1007.000000	98.975283
1006.000000	98.986305
1005.000000	98.993321
1004.000000	98.997994
1003.000000	99.003419
1002.000000	99.012085
1001.000000	99.024640
1000.000000	99.039517
999.000000	99.054907
998.000000	99.072149
997.000000	99.094993
996.000000	99.123609
995.000000	99.151278
994.000000	99.169774
993.000000	99.177324
992.000000	99.179497
991.000000	99.183866
990.000000	99.194954
989.000000	99.211988
988.000000	99.229774
987.000000	99.243745
986.000000	99.255334
985.000000	99.269685
984.000000	99.286861
983.000000	99.299901
982.000000	99.304409
981.000000	99.305616
980.000000	99.311553
979.000000	99.322185
978.000000	99.330152
977.000000	99.330209
976.000000	99.323762
975.000000	99.315994
974.000000	99.312352
973.000000	99.316101
972.000000	99.325260
971.000000	99.333035
970.000000	99.334898
969.000000	99.333961
968.000000	99.336570
967.000000	99.344813
966.000000	99.356744
965.000000	99.371456
964.000000	99.388964
963.000000	99.406288
962.000000	99.418644
961.000000	99.424945
960.000000	99.429005
959.000000	99.435683
958.000000	99.448131
957.000000	99.466890
956.000000	99.488412
955.000000	99.506197
954.000000	99.517031
953.000000	99.524620
952.000000	99.533764
951.000000	99.542970
950.000000	99.547263
949.000000	99.546484
948.000000	99.545729
947.000000	99.548301
946.000000	99.552726
945.000000	99.556594
944.000000	99.559010
943.000000	99.559295
942.000000	99.557518
941.000000	99.556815
940.000000	99.561301
939.000000	99.570781
938.000000	99.580552
937.000000	99.587576
936.000000	99.594358
935.000000	99.605482
934.000000	99.621892
933.000000	99.639249
932.000000	99.651387
931.000000	99.655830
930.000000	99.656469
929.000000	99.659789
928.000000	99.667790
927.000000	99.676559
926.000000	99.682493
925.000000	99.686543
924.000000	99.690637
923.000000	99.693415
922.000000	99.692896
921.000000	99.690719
920.000000	99.690448
919.000000	99.693798
918.000000	99.701221
917.000000	99.713397
916.000000	99.728569
915.000000	99.741152
914.000000	99.747334
913.000000	99.750369
912.000000	99.756112
911.000000	99.765071
910.000000	99.772711
909.000000	99.776133
908.000000	99.776462
907.000000	99.775788
906.000000	99.775721
905.000000	99.777891
904.000000	99.782581
903.000000	99.788094
902.000000	99.794251
901.000000	99.804460
900.000000	99.821132
899.000000	99.841307
898.000000	99.860569
897.000000	99.878273
896.000000	99.895059
895.000000	99.908179
894.000000	99.914802
893.000000	99.918156
892.000000	99.925002
891.000000	99.937935
890.000000	99.953656
889.000000	99.966512
888.000000	99.969431
887.000000	99.952347
886.000000	99.904308
885.000000	99.814115
884.000000	99.664817
883.000000	99.432737
882.000000	99.094076
881.000000	98.631453
880.000000	98.032055
879.000000	97.292025
878.000000	96.432623
877.000000	95.502339
876.000000	94.559217
875.000000	93.669362
874.000000	92.949735
873.000000	92.592519
872.000000	92.792869
871.000000	93.589141
870.000000	94.773872
869.000000	96.003881
868.000000	97.010568
867.000000	97.716019
866.000000	98.183048
865.000000	98.500269
864.000000	98.722452
863.000000	98.880102
862.000000	98.998213
861.000000	99.095027
860.000000	99.176578
859.000000	99.242294
858.000000	99.294918
857.000000	99.340175
856.000000	99.381038
855.000000	99.417606
854.000000	99.451011
853.000000	99.482280
852.000000	99.505504
851.000000	99.508300
850.000000	99.485687
849.000000	99.452461
848.000000	99.435801
847.000000	99.452400
846.000000	99.495388
845.000000	99.545338
844.000000	99.589718
843.000000	99.628159
842.000000	99.662444
841.000000	99.688846
840.000000	99.702484
839.000000	99.705131
838.000000	99.705589
837.000000	99.712786
836.000000	99.729972
835.000000	99.754556
834.000000	99.781092
833.000000	99.804308
832.000000	99.821255
831.000000	99.832588
830.000000	99.841817
829.000000	99.851787
828.000000	99.861356
827.000000	99.866669
826.000000	99.866271
825.000000	99.863464
824.000000	99.862349
823.000000	99.863029
822.000000	99.862839
821.000000	99.861426
820.000000	99.861953
819.000000	99.867060
818.000000	99.875409
817.000000	99.882774
816.000000	99.885691
815.000000	99.884250
814.000000	99.882543
813.000000	99.885787
812.000000	99.894880
811.000000	99.903217
810.000000	99.901340
809.000000	99.886961
808.000000	99.869615
807.000000	99.863489
806.000000	99.875421
805.000000	99.900181
804.000000	99.926159
803.000000	99.943293
802.000000	99.946305
801.000000	99.935191
800.000000	99.916075
799.000000	99.899332
798.000000	99.892265
797.000000	99.892978
796.000000	99.894248
795.000000	99.893483
794.000000	99.894829
793.000000	99.900583
792.000000	99.905844
791.000000	99.905466
790.000000	99.902825
789.000000	99.906136
788.000000	99.916879
787.000000	99.926744
786.000000	99.926927
785.000000	99.917260
784.000000	99.905145
783.000000	99.898196
782.000000	99.898818
781.000000	99.903768
780.000000	99.907876
779.000000	99.909281
778.000000	99.910637
777.000000	99.913780
776.000000	99.915208
775.000000	99.910603
774.000000	99.902919
773.000000	99.900860
772.000000	99.907935
771.000000	99.917365
770.000000	99.920201
769.000000	99.915048
768.000000	99.907048
767.000000	99.900291
766.000000	99.894730
765.000000	99.888849
764.000000	99.882328
763.000000	99.876766
762.000000	99.875585
761.000000	99.881803
760.000000	99.893882
759.000000	99.905079
758.000000	99.909632
757.000000	99.908989
756.000000	99.909565
755.000000	99.914946
754.000000	99.922330
753.000000	99.926497
752.000000	99.925210
751.000000	99.920263
750.000000	99.914928
749.000000	99.911526
748.000000	99.910335
747.000000	99.909006
746.000000	99.903534
745.000000	99.891836
744.000000	99.877694
743.000000	99.869840
742.000000	99.874220
741.000000	99.886505
740.000000	99.894993
739.000000	99.892620
738.000000	99.883111
737.000000	99.873103
736.000000	99.861766
735.000000	99.843205
734.000000	99.818039
733.000000	99.796412
732.000000	99.787375
731.000000	99.788458
730.000000	99.787726
729.000000	99.774267
728.000000	99.748943
727.000000	99.724324
726.000000	99.709597
725.000000	99.699111
724.000000	99.680329
723.000000	99.649745
722.000000	99.613130
721.000000	99.571303
720.000000	99.515615
719.000000	99.438364
718.000000	99.334471
717.000000	99.187250
716.000000	98.970585
715.000000	98.688185
714.000000	98.408675
713.000000	98.238247
712.000000	98.243890
711.000000	98.404220
710.000000	98.635437
709.000000	98.854212
708.000000	99.017489
707.000000	99.123780
706.000000	99.190684
705.000000	99.235733
704.000000	99.270892
703.000000	99.302560
702.000000	99.334381
701.000000	99.368198
700.000000	99.400907
699.000000	99.427518
698.000000	99.444500
697.000000	99.451023
696.000000	99.450605
695.000000	99.449479
694.000000	99.455904
693.000000	99.473716
692.000000	99.495466
691.000000	99.512976
690.000000	99.527563
689.000000	99.545516
688.000000	99.565896
687.000000	99.579359
686.000000	99.583633
685.000000	99.584906
684.000000	99.582539
683.000000	99.570137
682.000000	99.550749
681.000000	99.535431
680.000000	99.524556
679.000000	99.509934
678.000000	99.495516
677.000000	99.490422
676.000000	99.492947
675.000000	99.493238
674.000000	99.493401
673.000000	99.509105
672.000000	99.550961
671.000000	99.621347
670.000000	99.722274
669.000000	99.836727
668.000000	99.867816
667.000000	99.768420
666.000000	99.653403
665.000000	99.553507
664.000000	99.466590
663.000000	99.412704
662.000000	99.399740
661.000000	99.413322
660.000000	99.432019
659.000000	99.448438
658.000000	99.460373
657.000000	99.455129
656.000000	99.430313
655.000000	99.406598
654.000000	99.400153
653.000000	99.400922
652.000000	99.396039
651.000000	99.391188
650.000000	99.396552
649.000000	99.406119
648.000000	99.408749
647.000000	99.404015
646.000000	99.393797
645.000000	99.377814
644.000000	99.361140
643.000000	99.351606
642.000000	99.348958
641.000000	99.344863
640.000000	99.339067
639.000000	99.343391
638.000000	99.361057
637.000000	99.378767
636.000000	99.387910
635.000000	99.394315
634.000000	99.400897
633.000000	99.397145
632.000000	99.375333
631.000000	99.347113
630.000000	99.332077
629.000000	99.334900
628.000000	99.345510
627.000000	99.354943
626.000000	99.359935
625.000000	99.361108
624.000000	99.359820
623.000000	99.355229
622.000000	99.345107
621.000000	99.331705
620.000000	99.323717
619.000000	99.326105
618.000000	99.330301
617.000000	99.322847
616.000000	99.303021
615.000000	99.282694
614.000000	99.270282
613.000000	99.265217
612.000000	99.266916
611.000000	99.276244
610.000000	99.287700
609.000000	99.293458
608.000000	99.297859
607.000000	99.314526
606.000000	99.343017
605.000000	99.367129
604.000000	99.378324
603.000000	99.384840
602.000000	99.393307
601.000000	99.396239
600.000000	99.386982
599.000000	99.373337
598.000000	99.362764
597.000000	99.345654
596.000000	99.311413
595.000000	99.272973
594.000000	99.256981
593.000000	99.270347
592.000000	99.292170
591.000000	99.302213
590.000000	99.303095
589.000000	99.307893
588.000000	99.319160
587.000000	99.328257
586.000000	99.326031
585.000000	99.309332
584.000000	99.283718
583.000000	99.264120
582.000000	99.266642
581.000000	99.293134
580.000000	99.326327
579.000000	99.344615
578.000000	99.339337
577.000000	99.316895
576.000000	99.290834
575.000000	99.274265
574.000000	99.273110
573.000000	99.281603
572.000000	99.287224
571.000000	99.282200
570.000000	99.270169
569.000000	99.258969
568.000000	99.247364
567.000000	99.223402
566.000000	99.178666
565.000000	99.122222
564.000000	99.077369
563.000000	99.064206
562.000000	99.084036
561.000000	99.121991
560.000000	99.164249
559.000000	99.205688
558.000000	99.241711
557.000000	99.263376
556.000000	99.264314
555.000000	99.249410
554.000000	99.233655
553.000000	99.230612
552.000000	99.242100
551.000000	99.256522
550.000000	99.257969
549.000000	99.242894
548.000000	99.227158
547.000000	99.229746
546.000000	99.248080
545.000000	99.257714
544.000000	99.243278
543.000000	99.219381
542.000000	99.213553
541.000000	99.235250
540.000000	99.267721
539.000000	99.286176
538.000000	99.277489
537.000000	99.246733
536.000000	99.211352
535.000000	99.188490
534.000000	99.181957
533.000000	99.180501
532.000000	99.171176
531.000000	99.151397
530.000000	99.127403
529.000000	99.106832
528.000000	99.096888
527.000000	99.105632
526.000000	99.134181
525.000000	99.168933
524.000000	99.191432
523.000000	99.191746
522.000000	99.171255
521.000000	99.143727
520.000000	99.134372
519.000000	99.164782
518.000000	99.228900
517.000000	99.292859
516.000000	99.329514
515.000000	99.339192
514.000000	99.332730
513.000000	99.315186
512.000000	99.295585
511.000000	99.295715
510.000000	99.330716
509.000000	99.386671
508.000000	99.432233
507.000000	99.449374
506.000000	99.441323
505.000000	99.415338
504.000000	99.376253
503.000000	99.341830
502.000000	99.342180
501.000000	99.383937
500.000000	99.433326
499.000000	99.452903
498.000000	99.437673
497.000000	99.410280
496.000000	99.391465
495.000000	99.382923
494.000000	99.378298
493.000000	99.378964
492.000000	99.393441
491.000000	99.426395
490.000000	99.472507
489.000000	99.522475
488.000000	99.568359
487.000000	99.597556
486.000000	99.589016
485.000000	99.531708
484.000000	99.450063
483.000000	99.393040
482.000000	99.384710
481.000000	99.398383
480.000000	99.392982
479.000000	99.364206
478.000000	99.349465
477.000000	99.386481
476.000000	99.476361
475.000000	99.582995
474.000000	99.653505
473.000000	99.647358
472.000000	99.577028
471.000000	99.513639
470.000000	99.513936
469.000000	99.567163
468.000000	99.623766
467.000000	99.648965
466.000000	99.649405
465.000000	99.649542
464.000000	99.658261
463.000000	99.665657
462.000000	99.657229
461.000000	99.629839
460.000000	99.599454
459.000000	99.596197
458.000000	99.637890
457.000000	99.696982
456.000000	99.731846
455.000000	99.742448
454.000000	99.759930
453.000000	99.807226
452.000000	99.875796
451.000000	99.931413
450.000000	99.951946
