PE IR       SUBTECH     SPECTRUM    ASCII       PEDS        4.00        
   -1
AD10-C004_1.ASC
23/09/08
11:01:41.00
23/09/08
11:14:38.00
uco
Sample 004 By uco Date Friday, September 08 2023
450.000000
#HDR
-1
-1
#GR
cm-1
%T
1.0
0.0
4000.000000
-1.000000
3551
8
100.817948
97.725901
#DATA
4000.000000	100.341827
3999.000000	100.340658
3998.000000	100.337465
3997.000000	100.331870
3996.000000	100.326020
3995.000000	100.336966
3994.000000	100.337182
3993.000000	100.338592
3992.000000	100.339362
3991.000000	100.338714
3990.000000	100.337291
3989.000000	100.336203
3988.000000	100.335854
3987.000000	100.335843
3986.000000	100.335577
3985.000000	100.334789
3984.000000	100.333604
3983.000000	100.332334
3982.000000	100.331398
3981.000000	100.331239
3980.000000	100.331970
3979.000000	100.332945
3978.000000	100.332962
3977.000000	100.331210
3976.000000	100.328133
3975.000000	100.325226
3974.000000	100.323689
3973.000000	100.323507
3972.000000	100.323805
3971.000000	100.323872
3970.000000	100.323496
3969.000000	100.322594
3968.000000	100.321185
3967.000000	100.319744
3966.000000	100.319169
3965.000000	100.319811
3964.000000	100.320588
3963.000000	100.319658
3962.000000	100.316346
3961.000000	100.312260
3960.000000	100.309867
3959.000000	100.310357
3958.000000	100.312859
3957.000000	100.315207
3956.000000	100.315349
3955.000000	100.312051
3954.000000	100.305568
3953.000000	100.297874
3952.000000	100.291804
3951.000000	100.289549
3950.000000	100.291113
3949.000000	100.294503
3948.000000	100.297500
3947.000000	100.299337
3946.000000	100.301177
3945.000000	100.304230
3944.000000	100.307738
3943.000000	100.309519
3942.000000	100.307934
3941.000000	100.303406
3940.000000	100.297845
3939.000000	100.293211
3938.000000	100.290585
3937.000000	100.290061
3936.000000	100.291065
3935.000000	100.292069
3934.000000	100.291179
3933.000000	100.288076
3932.000000	100.284874
3931.000000	100.284182
3930.000000	100.285840
3929.000000	100.287648
3928.000000	100.288630
3927.000000	100.289236
3926.000000	100.289588
3925.000000	100.288842
3924.000000	100.286503
3923.000000	100.282815
3922.000000	100.277967
3921.000000	100.272125
3920.000000	100.266916
3919.000000	100.265687
3918.000000	100.270909
3917.000000	100.280673
3916.000000	100.289268
3915.000000	100.292401
3914.000000	100.290128
3913.000000	100.285847
3912.000000	100.283307
3911.000000	100.284537
3910.000000	100.288799
3909.000000	100.293470
3908.000000	100.296469
3907.000000	100.296395
3906.000000	100.291221
3905.000000	100.278216
3904.000000	100.258292
3903.000000	100.239212
3902.000000	100.230265
3901.000000	100.234092
3900.000000	100.245344
3899.000000	100.255894
3898.000000	100.261377
3897.000000	100.262406
3896.000000	100.260570
3895.000000	100.256930
3894.000000	100.252563
3893.000000	100.249092
3892.000000	100.247728
3891.000000	100.247961
3890.000000	100.248184
3889.000000	100.249061
3888.000000	100.253120
3887.000000	100.259527
3886.000000	100.263713
3885.000000	100.262920
3884.000000	100.259003
3883.000000	100.255316
3882.000000	100.252934
3881.000000	100.250857
3880.000000	100.249000
3879.000000	100.248255
3878.000000	100.249920
3877.000000	100.255328
3876.000000	100.263328
3875.000000	100.268872
3874.000000	100.267803
3873.000000	100.262438
3872.000000	100.258535
3871.000000	100.257904
3870.000000	100.257503
3869.000000	100.255560
3868.000000	100.254069
3867.000000	100.254983
3866.000000	100.256156
3865.000000	100.253675
3864.000000	100.247672
3863.000000	100.241514
3862.000000	100.236162
3861.000000	100.230696
3860.000000	100.225643
3859.000000	100.221673
3858.000000	100.219272
3857.000000	100.219301
3856.000000	100.222808
3855.000000	100.226950
3854.000000	100.222816
3853.000000	100.216478
3852.000000	100.220571
3851.000000	100.231045
3850.000000	100.239117
3849.000000	100.241853
3848.000000	100.240695
3847.000000	100.239958
3846.000000	100.242988
3845.000000	100.250020
3844.000000	100.257653
3843.000000	100.261022
3842.000000	100.257680
3841.000000	100.249808
3840.000000	100.241369
3839.000000	100.235476
3838.000000	100.234316
3837.000000	100.237445
3836.000000	100.242748
3835.000000	100.249347
3834.000000	100.257618
3833.000000	100.266540
3832.000000	100.272637
3831.000000	100.272398
3830.000000	100.266356
3829.000000	100.258751
3828.000000	100.252989
3827.000000	100.248328
3826.000000	100.241902
3825.000000	100.234611
3824.000000	100.231827
3823.000000	100.237527
3822.000000	100.246569
3821.000000	100.249556
3820.000000	100.245170
3819.000000	100.239367
3818.000000	100.238155
3817.000000	100.240068
3816.000000	100.239389
3815.000000	100.235204
3814.000000	100.231911
3813.000000	100.232427
3812.000000	100.235300
3811.000000	100.238950
3810.000000	100.244116
3809.000000	100.251079
3808.000000	100.255031
3807.000000	100.250241
3806.000000	100.238720
3805.000000	100.229360
3804.000000	100.228681
3803.000000	100.235681
3802.000000	100.242607
3801.000000	100.244449
3800.000000	100.242485
3799.000000	100.240629
3798.000000	100.240406
3797.000000	100.240096
3796.000000	100.238130
3795.000000	100.235672
3794.000000	100.234830
3793.000000	100.235961
3792.000000	100.237923
3791.000000	100.239819
3790.000000	100.241171
3789.000000	100.241287
3788.000000	100.239751
3787.000000	100.236944
3786.000000	100.233655
3785.000000	100.230502
3784.000000	100.227873
3783.000000	100.226433
3782.000000	100.226625
3781.000000	100.227258
3780.000000	100.225909
3779.000000	100.222688
3778.000000	100.220637
3777.000000	100.222191
3776.000000	100.226537
3775.000000	100.230395
3774.000000	100.231029
3773.000000	100.228374
3772.000000	100.223690
3771.000000	100.217621
3770.000000	100.211546
3769.000000	100.208165
3768.000000	100.209290
3767.000000	100.213947
3766.000000	100.219181
3765.000000	100.221837
3764.000000	100.220869
3763.000000	100.218089
3762.000000	100.215352
3761.000000	100.212150
3760.000000	100.206874
3759.000000	100.199671
3758.000000	100.191546
3757.000000	100.183631
3756.000000	100.178851
3755.000000	100.180490
3754.000000	100.187326
3753.000000	100.191903
3752.000000	100.186679
3751.000000	100.174044
3750.000000	100.163945
3749.000000	100.159477
3748.000000	100.159971
3747.000000	100.168512
3746.000000	100.186695
3745.000000	100.207242
3744.000000	100.221262
3743.000000	100.227615
3742.000000	100.229434
3741.000000	100.227916
3740.000000	100.223839
3739.000000	100.219423
3738.000000	100.215920
3737.000000	100.209168
3736.000000	100.197958
3735.000000	100.192061
3734.000000	100.198540
3733.000000	100.210249
3732.000000	100.216149
3731.000000	100.213227
3730.000000	100.206247
3729.000000	100.200853
3728.000000	100.198827
3727.000000	100.197685
3726.000000	100.194607
3725.000000	100.189863
3724.000000	100.185966
3723.000000	100.185500
3722.000000	100.189367
3721.000000	100.197190
3720.000000	100.206957
3719.000000	100.214619
3718.000000	100.215566
3717.000000	100.208225
3716.000000	100.197166
3715.000000	100.189557
3714.000000	100.188228
3713.000000	100.190111
3712.000000	100.191954
3711.000000	100.196229
3710.000000	100.205481
3709.000000	100.216851
3708.000000	100.226364
3707.000000	100.231609
3706.000000	100.232222
3705.000000	100.230738
3704.000000	100.230989
3703.000000	100.234940
3702.000000	100.240949
3701.000000	100.244961
3700.000000	100.244415
3699.000000	100.240599
3698.000000	100.236348
3697.000000	100.232541
3696.000000	100.228010
3695.000000	100.221187
3694.000000	100.211054
3693.000000	100.198882
3692.000000	100.188834
3691.000000	100.186381
3690.000000	100.193399
3689.000000	100.205302
3688.000000	100.214416
3687.000000	100.217819
3686.000000	100.219783
3685.000000	100.223479
3684.000000	100.227207
3683.000000	100.228340
3682.000000	100.226585
3681.000000	100.221219
3680.000000	100.209783
3679.000000	100.192860
3678.000000	100.176838
3677.000000	100.169760
3676.000000	100.173546
3675.000000	100.183490
3674.000000	100.189827
3673.000000	100.190806
3672.000000	100.191566
3671.000000	100.194026
3670.000000	100.197032
3669.000000	100.201734
3668.000000	100.208633
3667.000000	100.216573
3666.000000	100.223543
3665.000000	100.227434
3664.000000	100.227845
3663.000000	100.226749
3662.000000	100.225849
3661.000000	100.224426
3660.000000	100.221680
3659.000000	100.218825
3658.000000	100.217571
3657.000000	100.216864
3656.000000	100.214061
3655.000000	100.209197
3654.000000	100.205489
3653.000000	100.206473
3652.000000	100.211639
3651.000000	100.215771
3650.000000	100.215704
3649.000000	100.216934
3648.000000	100.221771
3647.000000	100.223241
3646.000000	100.218444
3645.000000	100.212073
3644.000000	100.208693
3643.000000	100.208890
3642.000000	100.210769
3641.000000	100.212224
3640.000000	100.212099
3639.000000	100.209759
3638.000000	100.206085
3637.000000	100.204436
3636.000000	100.207642
3635.000000	100.213443
3634.000000	100.215108
3633.000000	100.208940
3632.000000	100.198660
3631.000000	100.191661
3630.000000	100.192152
3629.000000	100.200985
3628.000000	100.216014
3627.000000	100.228974
3626.000000	100.235964
3625.000000	100.238987
3624.000000	100.241557
3623.000000	100.246719
3622.000000	100.255726
3621.000000	100.266141
3620.000000	100.272578
3619.000000	100.271097
3618.000000	100.262290
3617.000000	100.249626
3616.000000	100.237700
3615.000000	100.229539
3614.000000	100.224502
3613.000000	100.219554
3612.000000	100.212563
3611.000000	100.204569
3610.000000	100.198819
3609.000000	100.199376
3608.000000	100.208476
3607.000000	100.222804
3606.000000	100.235389
3605.000000	100.241915
3604.000000	100.243657
3603.000000	100.243920
3602.000000	100.244708
3601.000000	100.246330
3600.000000	100.248825
3599.000000	100.251973
3598.000000	100.254116
3597.000000	100.252550
3596.000000	100.246198
3595.000000	100.237858
3594.000000	100.232222
3593.000000	100.231697
3592.000000	100.234321
3591.000000	100.237379
3590.000000	100.239817
3589.000000	100.242065
3588.000000	100.245392
3587.000000	100.251242
3586.000000	100.257479
3585.000000	100.261105
3584.000000	100.262880
3583.000000	100.264696
3582.000000	100.266634
3581.000000	100.267552
3580.000000	100.266949
3579.000000	100.265737
3578.000000	100.264453
3577.000000	100.262248
3576.000000	100.257972
3575.000000	100.252619
3574.000000	100.249028
3573.000000	100.249126
3572.000000	100.252322
3571.000000	100.256742
3570.000000	100.260870
3569.000000	100.262853
3568.000000	100.261539
3567.000000	100.259579
3566.000000	100.260631
3565.000000	100.263564
3564.000000	100.266179
3563.000000	100.268337
3562.000000	100.270505
3561.000000	100.272858
3560.000000	100.275577
3559.000000	100.278844
3558.000000	100.282563
3557.000000	100.285784
3556.000000	100.286839
3555.000000	100.284429
3554.000000	100.279001
3553.000000	100.273058
3552.000000	100.269590
3551.000000	100.269197
3550.000000	100.269409
3549.000000	100.267036
3548.000000	100.260914
3547.000000	100.253665
3546.000000	100.250425
3545.000000	100.253985
3544.000000	100.261671
3543.000000	100.268574
3542.000000	100.272074
3541.000000	100.273254
3540.000000	100.275234
3539.000000	100.280171
3538.000000	100.287359
3537.000000	100.293568
3536.000000	100.295987
3535.000000	100.294678
3534.000000	100.292276
3533.000000	100.291681
3532.000000	100.293920
3531.000000	100.297733
3530.000000	100.300359
3529.000000	100.299333
3528.000000	100.294453
3527.000000	100.288357
3526.000000	100.284662
3525.000000	100.285394
3524.000000	100.289687
3523.000000	100.294611
3522.000000	100.297686
3521.000000	100.299058
3520.000000	100.301079
3519.000000	100.305122
3518.000000	100.309466
3517.000000	100.310724
3516.000000	100.307384
3515.000000	100.301372
3514.000000	100.296077
3513.000000	100.293665
3512.000000	100.294444
3511.000000	100.297890
3510.000000	100.303175
3509.000000	100.308582
3508.000000	100.311553
3507.000000	100.310287
3506.000000	100.305290
3505.000000	100.299067
3504.000000	100.295111
3503.000000	100.296135
3502.000000	100.301784
3501.000000	100.308407
3500.000000	100.311794
3499.000000	100.310190
3498.000000	100.305205
3497.000000	100.300875
3496.000000	100.300738
3495.000000	100.304924
3494.000000	100.310065
3493.000000	100.312575
3492.000000	100.311801
3491.000000	100.309832
3490.000000	100.309000
3489.000000	100.310160
3488.000000	100.312857
3487.000000	100.316060
3486.000000	100.318526
3485.000000	100.319335
3484.000000	100.318771
3483.000000	100.318529
3482.000000	100.320447
3481.000000	100.324722
3480.000000	100.329624
3479.000000	100.332913
3478.000000	100.333361
3477.000000	100.331117
3476.000000	100.327213
3475.000000	100.322804
3474.000000	100.318739
3473.000000	100.315913
3472.000000	100.315689
3471.000000	100.319109
3470.000000	100.325251
3469.000000	100.331136
3468.000000	100.334043
3467.000000	100.333967
3466.000000	100.333393
3465.000000	100.334555
3464.000000	100.337461
3463.000000	100.340591
3462.000000	100.342877
3461.000000	100.344298
3460.000000	100.344669
3459.000000	100.342845
3458.000000	100.338141
3457.000000	100.332166
3456.000000	100.328524
3455.000000	100.329684
3454.000000	100.334345
3453.000000	100.338626
3452.000000	100.339807
3451.000000	100.338426
3450.000000	100.336539
3449.000000	100.335281
3448.000000	100.335017
3447.000000	100.336619
3446.000000	100.340285
3445.000000	100.343558
3444.000000	100.342799
3443.000000	100.337114
3442.000000	100.329749
3441.000000	100.324791
3440.000000	100.323251
3439.000000	100.323057
3438.000000	100.322242
3437.000000	100.321076
3436.000000	100.321394
3435.000000	100.324470
3434.000000	100.329566
3433.000000	100.334391
3432.000000	100.337010
3431.000000	100.337478
3430.000000	100.337180
3429.000000	100.337125
3428.000000	100.337640
3427.000000	100.339337
3426.000000	100.342818
3425.000000	100.346913
3424.000000	100.348500
3423.000000	100.345184
3422.000000	100.337872
3421.000000	100.330199
3420.000000	100.325476
3419.000000	100.324392
3418.000000	100.325348
3417.000000	100.326401
3416.000000	100.326808
3415.000000	100.327103
3414.000000	100.327728
3413.000000	100.327905
3412.000000	100.326462
3411.000000	100.323626
3410.000000	100.321284
3409.000000	100.321404
3408.000000	100.324682
3407.000000	100.330393
3406.000000	100.336655
3405.000000	100.340975
3404.000000	100.341961
3403.000000	100.340923
3402.000000	100.340705
3401.000000	100.342388
3400.000000	100.343827
3399.000000	100.342055
3398.000000	100.336579
3397.000000	100.329933
3396.000000	100.325596
3395.000000	100.325788
3394.000000	100.330304
3393.000000	100.336294
3392.000000	100.339704
3391.000000	100.338356
3390.000000	100.333899
3389.000000	100.330014
3388.000000	100.328808
3387.000000	100.329389
3386.000000	100.329585
3385.000000	100.328028
3384.000000	100.324467
3383.000000	100.319257
3382.000000	100.313463
3381.000000	100.309025
3380.000000	100.307698
3379.000000	100.309529
3378.000000	100.312631
3377.000000	100.314624
3376.000000	100.314318
3375.000000	100.312309
3374.000000	100.310304
3373.000000	100.309717
3372.000000	100.310401
3371.000000	100.310539
3370.000000	100.307993
3369.000000	100.302131
3368.000000	100.294713
3367.000000	100.289104
3366.000000	100.288167
3365.000000	100.292067
3364.000000	100.297759
3363.000000	100.301100
3362.000000	100.300123
3361.000000	100.296468
3360.000000	100.293521
3359.000000	100.293166
3358.000000	100.294389
3357.000000	100.294680
3356.000000	100.292353
3355.000000	100.287668
3354.000000	100.282368
3353.000000	100.278527
3352.000000	100.277528
3351.000000	100.279354
3350.000000	100.282351
3349.000000	100.283805
3348.000000	100.281483
3347.000000	100.275269
3346.000000	100.267444
3345.000000	100.261071
3344.000000	100.257856
3343.000000	100.257451
3342.000000	100.258378
3341.000000	100.259106
3340.000000	100.258474
3339.000000	100.256286
3338.000000	100.254196
3337.000000	100.255258
3336.000000	100.261341
3335.000000	100.270758
3334.000000	100.279084
3333.000000	100.282549
3332.000000	100.280323
3331.000000	100.273898
3330.000000	100.265340
3329.000000	100.256321
3328.000000	100.248071
3327.000000	100.241563
3326.000000	100.237801
3325.000000	100.237780
3324.000000	100.241423
3323.000000	100.246350
3322.000000	100.248799
3321.000000	100.246945
3320.000000	100.243010
3319.000000	100.241159
3318.000000	100.243152
3317.000000	100.246612
3316.000000	100.247627
3315.000000	100.244548
3314.000000	100.239108
3313.000000	100.234420
3312.000000	100.232283
3311.000000	100.232120
3310.000000	100.232149
3309.000000	100.231437
3308.000000	100.230636
3307.000000	100.230646
3306.000000	100.230907
3305.000000	100.229456
3304.000000	100.224631
3303.000000	100.216499
3302.000000	100.206899
3301.000000	100.198509
3300.000000	100.193678
3299.000000	100.193326
3298.000000	100.196563
3297.000000	100.201675
3296.000000	100.207523
3295.000000	100.213692
3294.000000	100.219397
3293.000000	100.223136
3292.000000	100.223905
3291.000000	100.222244
3290.000000	100.219569
3289.000000	100.216712
3288.000000	100.213522
3287.000000	100.209695
3286.000000	100.205545
3285.000000	100.201986
3284.000000	100.199930
3283.000000	100.199498
3282.000000	100.199712
3281.000000	100.199280
3280.000000	100.198067
3279.000000	100.197474
3278.000000	100.199048
3277.000000	100.202606
3276.000000	100.205840
3275.000000	100.206023
3274.000000	100.202390
3273.000000	100.197143
3272.000000	100.193893
3271.000000	100.194394
3270.000000	100.196478
3269.000000	100.195790
3268.000000	100.190021
3267.000000	100.181430
3266.000000	100.175077
3265.000000	100.174757
3264.000000	100.180646
3263.000000	100.190219
3262.000000	100.200477
3261.000000	100.209183
3260.000000	100.214666
3259.000000	100.215423
3258.000000	100.210807
3257.000000	100.202216
3256.000000	100.193065
3255.000000	100.186657
3254.000000	100.183774
3253.000000	100.182629
3252.000000	100.181166
3251.000000	100.179005
3250.000000	100.177206
3249.000000	100.176855
3248.000000	100.178283
3247.000000	100.181060
3246.000000	100.184084
3245.000000	100.185838
3244.000000	100.185058
3243.000000	100.181416
3242.000000	100.175764
3241.000000	100.170125
3240.000000	100.167319
3239.000000	100.169536
3238.000000	100.176383
3237.000000	100.184396
3236.000000	100.189235
3235.000000	100.188791
3234.000000	100.184197
3233.000000	100.178112
3232.000000	100.172470
3231.000000	100.167879
3230.000000	100.164644
3229.000000	100.163643
3228.000000	100.165766
3227.000000	100.170417
3226.000000	100.175071
3225.000000	100.176963
3224.000000	100.175325
3223.000000	100.171832
3222.000000	100.168862
3221.000000	100.167783
3220.000000	100.168563
3219.000000	100.170016
3218.000000	100.170157
3217.000000	100.167349
3216.000000	100.162118
3215.000000	100.157541
3214.000000	100.156637
3213.000000	100.159152
3212.000000	100.161667
3211.000000	100.161144
3210.000000	100.157901
3209.000000	100.154914
3208.000000	100.154857
3207.000000	100.158031
3206.000000	100.162622
3205.000000	100.166408
3204.000000	100.168325
3203.000000	100.168798
3202.000000	100.168581
3201.000000	100.167543
3200.000000	100.165049
3199.000000	100.161480
3198.000000	100.158484
3197.000000	100.157070
3196.000000	100.155997
3195.000000	100.152950
3194.000000	100.147167
3193.000000	100.140216
3192.000000	100.134245
3191.000000	100.130047
3190.000000	100.126992
3189.000000	100.124269
3188.000000	100.121764
3187.000000	100.119963
3186.000000	100.119382
3185.000000	100.120091
3184.000000	100.121864
3183.000000	100.124846
3182.000000	100.129777
3181.000000	100.136862
3180.000000	100.144258
3179.000000	100.148509
3178.000000	100.147286
3177.000000	100.141661
3176.000000	100.135298
3175.000000	100.131481
3174.000000	100.131079
3173.000000	100.132872
3172.000000	100.135012
3171.000000	100.136210
3170.000000	100.136179
3169.000000	100.135417
3168.000000	100.134453
3167.000000	100.133272
3166.000000	100.131648
3165.000000	100.129902
3164.000000	100.128854
3163.000000	100.128864
3162.000000	100.129370
3161.000000	100.129631
3160.000000	100.129538
3159.000000	100.129310
3158.000000	100.128701
3157.000000	100.127215
3156.000000	100.125108
3155.000000	100.123490
3154.000000	100.123104
3153.000000	100.123573
3152.000000	100.124308
3151.000000	100.125594
3150.000000	100.127818
3149.000000	100.129768
3148.000000	100.128852
3147.000000	100.123727
3146.000000	100.116274
3145.000000	100.110253
3144.000000	100.108038
3143.000000	100.108862
3142.000000	100.110191
3141.000000	100.110368
3140.000000	100.109943
3139.000000	100.110841
3138.000000	100.114536
3137.000000	100.120819
3136.000000	100.127833
3135.000000	100.133002
3134.000000	100.134229
3133.000000	100.130897
3132.000000	100.124497
3131.000000	100.118448
3130.000000	100.116526
3129.000000	100.120283
3128.000000	100.127415
3127.000000	100.133144
3126.000000	100.133872
3125.000000	100.129699
3124.000000	100.123558
3123.000000	100.118312
3122.000000	100.114854
3121.000000	100.112441
3120.000000	100.110219
3119.000000	100.108176
3118.000000	100.107009
3117.000000	100.107415
3116.000000	100.109499
3115.000000	100.112565
3114.000000	100.115372
3113.000000	100.116757
3112.000000	100.116323
3111.000000	100.114768
3110.000000	100.113496
3109.000000	100.113758
3108.000000	100.115914
3107.000000	100.119103
3106.000000	100.121160
3105.000000	100.119334
3104.000000	100.112326
3103.000000	100.102191
3102.000000	100.093492
3101.000000	100.089721
3100.000000	100.090599
3099.000000	100.093204
3098.000000	100.095184
3097.000000	100.096316
3096.000000	100.097538
3095.000000	100.099513
3094.000000	100.102144
3093.000000	100.104785
3092.000000	100.106670
3091.000000	100.107504
3090.000000	100.107711
3089.000000	100.107758
3088.000000	100.107296
3087.000000	100.105474
3086.000000	100.102058
3085.000000	100.097738
3084.000000	100.093359
3083.000000	100.089322
3082.000000	100.085795
3081.000000	100.082913
3080.000000	100.080762
3079.000000	100.079738
3078.000000	100.080971
3077.000000	100.085238
3076.000000	100.090827
3075.000000	100.093463
3074.000000	100.089766
3073.000000	100.081015
3072.000000	100.072715
3071.000000	100.069975
3070.000000	100.073257
3069.000000	100.078380
3068.000000	100.080255
3067.000000	100.076850
3066.000000	100.070487
3065.000000	100.065865
3064.000000	100.066330
3063.000000	100.071267
3062.000000	100.076768
3061.000000	100.079025
3060.000000	100.077398
3059.000000	100.074341
3058.000000	100.072684
3057.000000	100.073258
3056.000000	100.075016
3055.000000	100.076839
3054.000000	100.078485
3053.000000	100.080008
3052.000000	100.080981
3051.000000	100.080808
3050.000000	100.079596
3049.000000	100.078309
3048.000000	100.077988
3047.000000	100.078819
3046.000000	100.079836
3045.000000	100.079410
3044.000000	100.076400
3043.000000	100.071409
3042.000000	100.066876
3041.000000	100.065278
3040.000000	100.067059
3039.000000	100.070646
3038.000000	100.074446
3037.000000	100.077943
3036.000000	100.080520
3035.000000	100.080532
3034.000000	100.076982
3033.000000	100.071656
3032.000000	100.067985
3031.000000	100.067430
3030.000000	100.068327
3029.000000	100.068704
3028.000000	100.068619
3027.000000	100.068741
3026.000000	100.067919
3025.000000	100.064029
3024.000000	100.057126
3023.000000	100.050334
3022.000000	100.047068
3021.000000	100.048175
3020.000000	100.052165
3019.000000	100.057359
3018.000000	100.062870
3017.000000	100.067795
3016.000000	100.070510
3015.000000	100.069512
3014.000000	100.065132
3013.000000	100.060144
3012.000000	100.058019
3011.000000	100.059749
3010.000000	100.062335
3009.000000	100.061037
3008.000000	100.053659
3007.000000	100.042714
3006.000000	100.033315
3005.000000	100.028968
3004.000000	100.029260
3003.000000	100.031237
3002.000000	100.032691
3001.000000	100.034046
3000.000000	100.037227
2999.000000	100.042951
2998.000000	100.049386
2997.000000	100.053743
2996.000000	100.054985
2995.000000	100.054435
2994.000000	100.053553
2993.000000	100.051819
2992.000000	100.047554
2991.000000	100.040649
2990.000000	100.033592
2989.000000	100.029398
2988.000000	100.028923
2987.000000	100.030562
2986.000000	100.032079
2985.000000	100.032024
2984.000000	100.029626
2983.000000	100.024617
2982.000000	100.017876
2981.000000	100.011514
2980.000000	100.007219
2979.000000	100.004613
2978.000000	100.001968
2977.000000	99.998452
2976.000000	99.994808
2975.000000	99.991715
2974.000000	99.988437
2973.000000	99.983616
2972.000000	99.976788
2971.000000	99.968549
2970.000000	99.959740
2969.000000	99.951090
2968.000000	99.943330
2967.000000	99.936941
2966.000000	99.931720
2965.000000	99.926895
2964.000000	99.921543
2963.000000	99.914801
2962.000000	99.906155
2961.000000	99.895970
2960.000000	99.885411
2959.000000	99.875436
2958.000000	99.866252
2957.000000	99.858035
2956.000000	99.851571
2955.000000	99.847489
2954.000000	99.845336
2953.000000	99.844134
2952.000000	99.843413
2951.000000	99.842904
2950.000000	99.841659
2949.000000	99.838660
2948.000000	99.834167
2947.000000	99.829276
2946.000000	99.823960
2945.000000	99.816730
2944.000000	99.806741
2943.000000	99.795124
2942.000000	99.783498
2941.000000	99.771906
2940.000000	99.759200
2939.000000	99.744881
2938.000000	99.729441
2937.000000	99.712972
2936.000000	99.694385
2935.000000	99.672518
2934.000000	99.647627
2933.000000	99.621349
2932.000000	99.595178
2931.000000	99.569121
2930.000000	99.541982
2929.000000	99.512805
2928.000000	99.481723
2927.000000	99.449538
2926.000000	99.417415
2925.000000	99.387767
2924.000000	99.364417
2923.000000	99.349982
2922.000000	99.342649
2921.000000	99.337300
2920.000000	99.331364
2919.000000	99.328760
2918.000000	99.336770
2917.000000	99.359052
2916.000000	99.392671
2915.000000	99.431752
2914.000000	99.472449
2913.000000	99.513833
2912.000000	99.555119
2911.000000	99.593822
2910.000000	99.626972
2909.000000	99.653603
2908.000000	99.675594
2907.000000	99.696061
2906.000000	99.717033
2905.000000	99.738357
2904.000000	99.758485
2903.000000	99.775683
2902.000000	99.789196
2901.000000	99.798888
2900.000000	99.805282
2899.000000	99.809805
2898.000000	99.814433
2897.000000	99.820895
2896.000000	99.829678
2895.000000	99.839840
2894.000000	99.849769
2893.000000	99.858300
2892.000000	99.865241
2891.000000	99.871069
2890.000000	99.876322
2889.000000	99.881306
2888.000000	99.886088
2887.000000	99.890494
2886.000000	99.894239
2885.000000	99.897389
2884.000000	99.900684
2883.000000	99.905021
2882.000000	99.910438
2881.000000	99.915785
2880.000000	99.919568
2879.000000	99.921045
2878.000000	99.920554
2877.000000	99.919021
2876.000000	99.917156
2875.000000	99.914852
2874.000000	99.911200
2873.000000	99.905385
2872.000000	99.897789
2871.000000	99.890075
2870.000000	99.883955
2869.000000	99.879784
2868.000000	99.876308
2867.000000	99.871637
2866.000000	99.864559
2865.000000	99.855249
2864.000000	99.844733
2863.000000	99.833540
2862.000000	99.820918
2861.000000	99.805723
2860.000000	99.787830
2859.000000	99.767947
2858.000000	99.746013
2857.000000	99.720680
2856.000000	99.691179
2855.000000	99.659260
2854.000000	99.628878
2853.000000	99.604108
2852.000000	99.587805
2851.000000	99.581808
2850.000000	99.587182
2849.000000	99.603752
2848.000000	99.629794
2847.000000	99.662860
2846.000000	99.701108
2845.000000	99.743515
2844.000000	99.788342
2843.000000	99.831698
2842.000000	99.868471
2841.000000	99.895607
2840.000000	99.914547
2839.000000	99.929603
2838.000000	99.943724
2837.000000	99.956358
2836.000000	99.965563
2835.000000	99.971265
2834.000000	99.975721
2833.000000	99.981334
2832.000000	99.988881
2831.000000	99.997485
2830.000000	100.005289
2829.000000	100.010243
2828.000000	100.011300
2827.000000	100.009472
2826.000000	100.007234
2825.000000	100.006433
2824.000000	100.006943
2823.000000	100.007583
2822.000000	100.007976
2821.000000	100.009051
2820.000000	100.011732
2819.000000	100.015622
2818.000000	100.019433
2817.000000	100.022650
2816.000000	100.026183
2815.000000	100.030865
2814.000000	100.035594
2813.000000	100.037893
2812.000000	100.036534
2811.000000	100.032835
2810.000000	100.028896
2809.000000	100.025268
2808.000000	100.021193
2807.000000	100.016634
2806.000000	100.012920
2805.000000	100.011300
2804.000000	100.011671
2803.000000	100.013016
2802.000000	100.014540
2801.000000	100.016148
2800.000000	100.018266
2799.000000	100.021357
2798.000000	100.025223
2797.000000	100.028664
2796.000000	100.030136
2795.000000	100.028895
2794.000000	100.025386
2793.000000	100.020925
2792.000000	100.017473
2791.000000	100.017142
2790.000000	100.020676
2789.000000	100.026152
2788.000000	100.030270
2787.000000	100.031419
2786.000000	100.030774
2785.000000	100.029967
2784.000000	100.028665
2783.000000	100.025375
2782.000000	100.020090
2781.000000	100.015082
2780.000000	100.013095
2779.000000	100.015232
2778.000000	100.020202
2777.000000	100.024916
2776.000000	100.026255
2775.000000	100.023500
2774.000000	100.019308
2773.000000	100.017552
2772.000000	100.019844
2771.000000	100.024525
2770.000000	100.029022
2769.000000	100.032271
2768.000000	100.034532
2767.000000	100.035855
2766.000000	100.035896
2765.000000	100.035119
2764.000000	100.035140
2763.000000	100.037265
2762.000000	100.040802
2761.000000	100.043229
2760.000000	100.042291
2759.000000	100.038110
2758.000000	100.033263
2757.000000	100.030618
2756.000000	100.031067
2755.000000	100.033427
2754.000000	100.036277
2753.000000	100.039171
2752.000000	100.041849
2751.000000	100.043098
2750.000000	100.041415
2749.000000	100.036769
2748.000000	100.030944
2747.000000	100.025877
2746.000000	100.022223
2745.000000	100.019796
2744.000000	100.018715
2743.000000	100.019394
2742.000000	100.021627
2741.000000	100.024336
2740.000000	100.026414
2739.000000	100.027557
2738.000000	100.028314
2737.000000	100.029678
2736.000000	100.032566
2735.000000	100.037067
2734.000000	100.041835
2733.000000	100.044662
2732.000000	100.044277
2731.000000	100.041658
2730.000000	100.039252
2729.000000	100.038771
2728.000000	100.039951
2727.000000	100.041474
2726.000000	100.042633
2725.000000	100.043713
2724.000000	100.045007
2723.000000	100.046233
2722.000000	100.047202
2721.000000	100.048440
2720.000000	100.050301
2719.000000	100.051582
2718.000000	100.050068
2717.000000	100.045179
2716.000000	100.039582
2715.000000	100.037209
2714.000000	100.039429
2713.000000	100.043643
2712.000000	100.045841
2711.000000	100.044168
2710.000000	100.039957
2709.000000	100.036033
2708.000000	100.034608
2707.000000	100.036430
2706.000000	100.040830
2705.000000	100.046015
2704.000000	100.049771
2703.000000	100.050810
2702.000000	100.049870
2701.000000	100.049252
2700.000000	100.050702
2699.000000	100.053536
2698.000000	100.055072
2697.000000	100.053167
2696.000000	100.048291
2695.000000	100.043044
2694.000000	100.039912
2693.000000	100.039819
2692.000000	100.042402
2691.000000	100.046645
2690.000000	100.050751
2689.000000	100.052234
2688.000000	100.049406
2687.000000	100.043247
2686.000000	100.037262
2685.000000	100.034859
2684.000000	100.036649
2683.000000	100.040330
2682.000000	100.042915
2681.000000	100.042838
2680.000000	100.040248
2679.000000	100.036174
2678.000000	100.032028
2677.000000	100.029497
2676.000000	100.029805
2675.000000	100.032524
2674.000000	100.035627
2673.000000	100.037408
2672.000000	100.038214
2671.000000	100.039673
2670.000000	100.042301
2669.000000	100.044635
2668.000000	100.045053
2667.000000	100.043809
2666.000000	100.042554
2665.000000	100.042009
2664.000000	100.040744
2663.000000	100.036624
2662.000000	100.029327
2661.000000	100.021143
2660.000000	100.015140
2659.000000	100.012643
2658.000000	100.012763
2657.000000	100.014285
2656.000000	100.017258
2655.000000	100.022134
2654.000000	100.027910
2653.000000	100.032414
2652.000000	100.034606
2651.000000	100.035578
2650.000000	100.036799
2649.000000	100.038370
2648.000000	100.039807
2647.000000	100.041561
2646.000000	100.044211
2645.000000	100.046454
2644.000000	100.045640
2643.000000	100.040989
2642.000000	100.035194
2641.000000	100.032037
2640.000000	100.032917
2639.000000	100.036340
2638.000000	100.040169
2637.000000	100.043409
2636.000000	100.045989
2635.000000	100.047888
2634.000000	100.048995
2633.000000	100.049422
2632.000000	100.049552
2631.000000	100.049874
2630.000000	100.050946
2629.000000	100.053334
2628.000000	100.057327
2627.000000	100.062618
2626.000000	100.068201
2625.000000	100.072529
2624.000000	100.074007
2623.000000	100.072008
2622.000000	100.067964
2621.000000	100.065228
2620.000000	100.066860
2619.000000	100.072735
2618.000000	100.078866
2617.000000	100.080323
2616.000000	100.075533
2615.000000	100.067918
2614.000000	100.063226
2613.000000	100.064878
2612.000000	100.071298
2611.000000	100.077365
2610.000000	100.078560
2609.000000	100.074272
2608.000000	100.067614
2607.000000	100.062333
2606.000000	100.060189
2605.000000	100.061252
2604.000000	100.065603
2603.000000	100.073462
2602.000000	100.083542
2601.000000	100.092779
2600.000000	100.099077
2599.000000	100.103822
2598.000000	100.110170
2597.000000	100.118376
2596.000000	100.124223
2595.000000	100.123364
2594.000000	100.116650
2593.000000	100.109468
2592.000000	100.105413
2591.000000	100.102466
2590.000000	100.096741
2589.000000	100.088646
2588.000000	100.083057
2587.000000	100.083362
2586.000000	100.087690
2585.000000	100.091743
2584.000000	100.093457
2583.000000	100.093800
2582.000000	100.094864
2581.000000	100.098725
2580.000000	100.106354
2579.000000	100.115260
2578.000000	100.119578
2577.000000	100.115608
2576.000000	100.107069
2575.000000	100.102046
2574.000000	100.104310
2573.000000	100.110118
2572.000000	100.113739
2571.000000	100.113325
2570.000000	100.110537
2569.000000	100.107582
2568.000000	100.106679
2567.000000	100.109968
2566.000000	100.117263
2565.000000	100.125067
2564.000000	100.129807
2563.000000	100.131066
2562.000000	100.130281
2561.000000	100.128172
2560.000000	100.125533
2559.000000	100.124706
2558.000000	100.127159
2557.000000	100.130550
2556.000000	100.131291
2555.000000	100.129770
2554.000000	100.130069
2553.000000	100.134343
2552.000000	100.140259
2551.000000	100.144430
2550.000000	100.145756
2549.000000	100.144475
2548.000000	100.140470
2547.000000	100.134039
2546.000000	100.126882
2545.000000	100.121135
2544.000000	100.118429
2543.000000	100.120097
2542.000000	100.126234
2541.000000	100.133685
2540.000000	100.137143
2539.000000	100.134112
2538.000000	100.127554
2537.000000	100.122265
2536.000000	100.119788
2535.000000	100.118288
2534.000000	100.115976
2533.000000	100.112585
2532.000000	100.108453
2531.000000	100.104551
2530.000000	100.103287
2529.000000	100.106813
2528.000000	100.113642
2527.000000	100.118692
2526.000000	100.118107
2525.000000	100.113424
2524.000000	100.110011
2523.000000	100.111745
2522.000000	100.117922
2521.000000	100.125040
2520.000000	100.130069
2519.000000	100.130960
2518.000000	100.125196
2517.000000	100.110712
2516.000000	100.090378
2515.000000	100.074086
2514.000000	100.072733
2513.000000	100.088029
2512.000000	100.109340
2511.000000	100.122536
2510.000000	100.121591
2509.000000	100.111021
2508.000000	100.098769
2507.000000	100.089503
2506.000000	100.084579
2505.000000	100.084662
2504.000000	100.089563
2503.000000	100.096677
2502.000000	100.102409
2501.000000	100.105705
2500.000000	100.108555
2499.000000	100.112234
2498.000000	100.114373
2497.000000	100.111174
2496.000000	100.102353
2495.000000	100.092689
2494.000000	100.088306
2493.000000	100.091682
2492.000000	100.100171
2491.000000	100.108698
2490.000000	100.113612
2489.000000	100.114861
2488.000000	100.115049
2487.000000	100.116136
2486.000000	100.116894
2485.000000	100.114326
2484.000000	100.108265
2483.000000	100.103520
2482.000000	100.105912
2481.000000	100.116372
2480.000000	100.129959
2479.000000	100.140664
2478.000000	100.145795
2477.000000	100.145763
2476.000000	100.141995
2475.000000	100.136437
2474.000000	100.131767
2473.000000	100.130146
2472.000000	100.131850
2471.000000	100.135870
2470.000000	100.141120
2469.000000	100.145910
2468.000000	100.147285
2467.000000	100.143141
2466.000000	100.135124
2465.000000	100.127707
2464.000000	100.123880
2463.000000	100.123290
2462.000000	100.124809
2461.000000	100.128557
2460.000000	100.133830
2459.000000	100.136884
2458.000000	100.133720
2457.000000	100.125223
2456.000000	100.117514
2455.000000	100.116078
2454.000000	100.120200
2453.000000	100.123881
2452.000000	100.121958
2451.000000	100.115168
2450.000000	100.109620
2449.000000	100.111364
2448.000000	100.120871
2447.000000	100.132233
2446.000000	100.138003
2445.000000	100.135234
2444.000000	100.127301
2443.000000	100.120561
2442.000000	100.119355
2441.000000	100.123445
2440.000000	100.129051
2439.000000	100.132174
2438.000000	100.131776
2437.000000	100.130535
2436.000000	100.132430
2435.000000	100.139121
2434.000000	100.148187
2433.000000	100.154517
2432.000000	100.153929
2431.000000	100.146848
2430.000000	100.139119
2429.000000	100.138026
2428.000000	100.145972
2427.000000	100.158114
2426.000000	100.167404
2425.000000	100.171533
2424.000000	100.173627
2423.000000	100.176541
2422.000000	100.178560
2421.000000	100.175781
2420.000000	100.167141
2419.000000	100.155620
2418.000000	100.145068
2417.000000	100.137148
2416.000000	100.131446
2415.000000	100.127656
2414.000000	100.126975
2413.000000	100.130962
2412.000000	100.138831
2411.000000	100.146641
2410.000000	100.150472
2409.000000	100.150460
2408.000000	100.150625
2407.000000	100.154235
2406.000000	100.160188
2405.000000	100.164394
2404.000000	100.164093
2403.000000	100.160832
2402.000000	100.159896
2401.000000	100.166324
2400.000000	100.179712
2399.000000	100.192674
2398.000000	100.196555
2397.000000	100.189621
2396.000000	100.178343
2395.000000	100.169934
2394.000000	100.165494
2393.000000	100.161787
2392.000000	100.157210
2391.000000	100.153623
2390.000000	100.153085
2389.000000	100.155469
2388.000000	100.159700
2387.000000	100.164626
2386.000000	100.169385
2385.000000	100.173699
2384.000000	100.178435
2383.000000	100.185367
2382.000000	100.194767
2381.000000	100.205137
2380.000000	100.213754
2379.000000	100.217061
2378.000000	100.212395
2377.000000	100.200451
2376.000000	100.185804
2375.000000	100.173524
2374.000000	100.167246
2373.000000	100.169458
2372.000000	100.180214
2371.000000	100.193300
2370.000000	100.199144
2369.000000	100.194646
2368.000000	100.183445
2367.000000	100.168921
2366.000000	100.153595
2365.000000	100.144776
2364.000000	100.149797
2363.000000	100.160549
2362.000000	100.158420
2361.000000	100.139954
2360.000000	100.121182
2359.000000	100.120041
2358.000000	100.138412
2357.000000	100.163828
2356.000000	100.178301
2355.000000	100.168370
2354.000000	100.146122
2353.000000	100.137127
2352.000000	100.147870
2351.000000	100.160378
2350.000000	100.157821
2349.000000	100.141990
2348.000000	100.125999
2347.000000	100.124863
2346.000000	100.138387
2345.000000	100.145613
2344.000000	100.130987
2343.000000	100.104397
2342.000000	100.089667
2341.000000	100.096339
2340.000000	100.112257
2339.000000	100.120773
2338.000000	100.119977
2337.000000	100.117617
2336.000000	100.116975
2335.000000	100.116609
2334.000000	100.120819
2333.000000	100.133986
2332.000000	100.148350
2331.000000	100.152400
2330.000000	100.145229
2329.000000	100.136835
2328.000000	100.129114
2327.000000	100.117266
2326.000000	100.101111
2325.000000	100.086894
2324.000000	100.080574
2323.000000	100.079931
2322.000000	100.078870
2321.000000	100.070277
2320.000000	100.052330
2319.000000	100.031028
2318.000000	100.016055
2317.000000	100.013508
2316.000000	100.021759
2315.000000	100.036970
2314.000000	100.055569
2313.000000	100.073494
2312.000000	100.084763
2311.000000	100.087138
2310.000000	100.085404
2309.000000	100.087107
2308.000000	100.095591
2307.000000	100.108389
2306.000000	100.120980
2305.000000	100.129311
2304.000000	100.132197
2303.000000	100.131474
2302.000000	100.131177
2301.000000	100.134442
2300.000000	100.141932
2299.000000	100.152273
2298.000000	100.161203
2297.000000	100.162717
2296.000000	100.152155
2295.000000	100.132405
2294.000000	100.113417
2293.000000	100.104295
2292.000000	100.105145
2291.000000	100.108269
2290.000000	100.106958
2289.000000	100.101120
2288.000000	100.095220
2287.000000	100.091973
2286.000000	100.089871
2285.000000	100.085544
2284.000000	100.078440
2283.000000	100.071852
2282.000000	100.070672
2281.000000	100.078023
2280.000000	100.093810
2279.000000	100.114102
2278.000000	100.131334
2277.000000	100.137340
2276.000000	100.128882
2275.000000	100.111699
2274.000000	100.097840
2273.000000	100.097965
2272.000000	100.113954
2271.000000	100.137526
2270.000000	100.155761
2269.000000	100.160151
2268.000000	100.152831
2267.000000	100.144160
2266.000000	100.142933
2265.000000	100.148802
2264.000000	100.154300
2263.000000	100.153370
2262.000000	100.146798
2261.000000	100.140127
2260.000000	100.138080
2259.000000	100.140435
2258.000000	100.142807
2257.000000	100.141357
2256.000000	100.137318
2255.000000	100.135370
2254.000000	100.137090
2253.000000	100.138605
2252.000000	100.136233
2251.000000	100.131994
2250.000000	100.130669
2249.000000	100.133387
2248.000000	100.137804
2247.000000	100.143630
2246.000000	100.153757
2245.000000	100.169017
2244.000000	100.184095
2243.000000	100.190550
2242.000000	100.183959
2241.000000	100.168661
2240.000000	100.155664
2239.000000	100.153376
2238.000000	100.158775
2237.000000	100.159446
2236.000000	100.146586
2235.000000	100.124783
2234.000000	100.107521
2233.000000	100.105211
2232.000000	100.118976
2231.000000	100.142166
2230.000000	100.163722
2229.000000	100.172708
2228.000000	100.166013
2227.000000	100.152451
2226.000000	100.145705
2225.000000	100.152760
2224.000000	100.170607
2223.000000	100.191661
2222.000000	100.208134
2221.000000	100.212940
2220.000000	100.202381
2219.000000	100.179091
2218.000000	100.149472
2217.000000	100.119481
2216.000000	100.095837
2215.000000	100.087854
2214.000000	100.101249
2213.000000	100.129960
2212.000000	100.160183
2211.000000	100.183438
2210.000000	100.199268
2209.000000	100.204910
2208.000000	100.192302
2207.000000	100.160445
2206.000000	100.123762
2205.000000	100.100200
2204.000000	100.092919
2203.000000	100.090358
2202.000000	100.084373
2201.000000	100.082294
2200.000000	100.097890
2199.000000	100.133090
2198.000000	100.171393
2197.000000	100.189186
2196.000000	100.174899
2195.000000	100.139898
2194.000000	100.112736
2193.000000	100.120488
2192.000000	100.167484
2191.000000	100.226724
2190.000000	100.255515
2189.000000	100.228376
2188.000000	100.160152
2187.000000	100.093075
2186.000000	100.059428
2185.000000	100.060316
2184.000000	100.077351
2183.000000	100.095477
2182.000000	100.109959
2181.000000	100.121219
2180.000000	100.134382
2179.000000	100.158839
2178.000000	100.196852
2177.000000	100.233827
2176.000000	100.249862
2175.000000	100.240892
2174.000000	100.219848
2173.000000	100.198293
2172.000000	100.177414
2171.000000	100.156775
2170.000000	100.139991
2169.000000	100.128024
2168.000000	100.116059
2167.000000	100.103225
2166.000000	100.098685
2165.000000	100.110197
2164.000000	100.129806
2163.000000	100.139624
2162.000000	100.132229
2161.000000	100.118946
2160.000000	100.116582
2159.000000	100.128748
2158.000000	100.145138
2157.000000	100.159953
2156.000000	100.180806
2155.000000	100.213836
2154.000000	100.248803
2153.000000	100.268674
2152.000000	100.272098
2151.000000	100.275793
2150.000000	100.290955
2149.000000	100.306727
2148.000000	100.305475
2147.000000	100.288031
2146.000000	100.273818
2145.000000	100.278257
2144.000000	100.297938
2143.000000	100.317248
2142.000000	100.322852
2141.000000	100.313170
2140.000000	100.300626
2139.000000	100.302644
2138.000000	100.323288
2137.000000	100.344367
2136.000000	100.341410
2135.000000	100.310254
2134.000000	100.271901
2133.000000	100.250612
2132.000000	100.253215
2131.000000	100.269821
2130.000000	100.287316
2129.000000	100.298239
2128.000000	100.301886
2127.000000	100.301679
2126.000000	100.300673
2125.000000	100.298270
2124.000000	100.291881
2123.000000	100.281190
2122.000000	100.268386
2121.000000	100.253983
2120.000000	100.235337
2119.000000	100.211096
2118.000000	100.185749
2117.000000	100.168552
2116.000000	100.167872
2115.000000	100.185503
2114.000000	100.214398
2113.000000	100.241704
2112.000000	100.257117
2111.000000	100.260108
2110.000000	100.258022
2109.000000	100.257577
2108.000000	100.259833
2107.000000	100.262380
2106.000000	100.263146
2105.000000	100.261461
2104.000000	100.258452
2103.000000	100.257744
2102.000000	100.263365
2101.000000	100.274941
2100.000000	100.285697
2099.000000	100.286476
2098.000000	100.272383
2097.000000	100.247391
2096.000000	100.223472
2095.000000	100.212440
2094.000000	100.215376
2093.000000	100.221258
2092.000000	100.219496
2091.000000	100.212366
2090.000000	100.210714
2089.000000	100.217681
2088.000000	100.221961
2087.000000	100.210357
2086.000000	100.183379
2085.000000	100.155226
2084.000000	100.140208
2083.000000	100.141317
2082.000000	100.150658
2081.000000	100.157763
2080.000000	100.157736
2079.000000	100.153901
2078.000000	100.153467
2077.000000	100.160253
2076.000000	100.171495
2075.000000	100.181303
2074.000000	100.185621
2073.000000	100.183820
2072.000000	100.177914
2071.000000	100.171278
2070.000000	100.167072
2069.000000	100.167006
2068.000000	100.171599
2067.000000	100.180719
2066.000000	100.192091
2065.000000	100.200227
2064.000000	100.200859
2063.000000	100.197573
2062.000000	100.200338
2061.000000	100.214814
2060.000000	100.233552
2059.000000	100.239316
2058.000000	100.218875
2057.000000	100.176117
2056.000000	100.132602
2055.000000	100.110937
2054.000000	100.113237
2053.000000	100.118157
2052.000000	100.104188
2051.000000	100.074290
2050.000000	100.053122
2049.000000	100.060587
2048.000000	100.092453
2047.000000	100.130650
2046.000000	100.165231
2045.000000	100.195482
2044.000000	100.216889
2043.000000	100.220902
2042.000000	100.206702
2041.000000	100.184543
2040.000000	100.164763
2039.000000	100.148517
2038.000000	100.132336
2037.000000	100.118031
2036.000000	100.115418
2035.000000	100.135790
2034.000000	100.181947
2033.000000	100.241639
2032.000000	100.291032
2031.000000	100.309270
2030.000000	100.291631
2029.000000	100.251806
2028.000000	100.214022
2027.000000	100.198066
2026.000000	100.206879
2025.000000	100.226745
2024.000000	100.240522
2023.000000	100.241805
2022.000000	100.235775
2021.000000	100.229348
2020.000000	100.224868
2019.000000	100.222971
2018.000000	100.227295
2017.000000	100.242753
2016.000000	100.268413
2015.000000	100.293661
2014.000000	100.301487
2013.000000	100.278710
2012.000000	100.231149
2011.000000	100.187629
2010.000000	100.180302
2009.000000	100.215925
2008.000000	100.267790
2007.000000	100.301567
2006.000000	100.306002
2005.000000	100.293371
2004.000000	100.278228
2003.000000	100.265656
2002.000000	100.258055
2001.000000	100.260105
2000.000000	100.270139
1999.000000	100.273926
1998.000000	100.255909
1997.000000	100.218212
1996.000000	100.182443
1995.000000	100.168740
1994.000000	100.177513
1993.000000	100.193355
1992.000000	100.201968
1991.000000	100.200935
1990.000000	100.196972
1989.000000	100.198708
1988.000000	100.211394
1987.000000	100.230719
1986.000000	100.241390
1985.000000	100.229402
1984.000000	100.197318
1983.000000	100.160924
1982.000000	100.130560
1981.000000	100.105189
1980.000000	100.088276
1979.000000	100.097715
1978.000000	100.146368
1977.000000	100.215890
1976.000000	100.267102
1975.000000	100.278511
1974.000000	100.260016
1973.000000	100.233887
1972.000000	100.217796
1971.000000	100.222798
1970.000000	100.253917
1969.000000	100.304642
1968.000000	100.353605
1967.000000	100.375963
1966.000000	100.365755
1965.000000	100.344826
1964.000000	100.341066
1963.000000	100.356859
1962.000000	100.364157
1961.000000	100.335606
1960.000000	100.278628
1959.000000	100.227985
1958.000000	100.207803
1957.000000	100.215093
1956.000000	100.236848
1955.000000	100.266094
1954.000000	100.296046
1953.000000	100.312356
1952.000000	100.303020
1951.000000	100.272069
1950.000000	100.237267
1949.000000	100.216102
1948.000000	100.216490
1947.000000	100.236310
1946.000000	100.266470
1945.000000	100.296569
1944.000000	100.320612
1943.000000	100.335423
1942.000000	100.334704
1941.000000	100.314027
1940.000000	100.283869
1939.000000	100.266601
1938.000000	100.275909
1937.000000	100.302339
1936.000000	100.322961
1935.000000	100.324980
1934.000000	100.314112
1933.000000	100.302444
1932.000000	100.294489
1931.000000	100.286040
1930.000000	100.273513
1929.000000	100.260144
1928.000000	100.253952
1927.000000	100.260324
1926.000000	100.276390
1925.000000	100.293501
1924.000000	100.304697
1923.000000	100.309340
1922.000000	100.309591
1921.000000	100.305610
1920.000000	100.297831
1919.000000	100.289505
1918.000000	100.282487
1917.000000	100.272070
1916.000000	100.252938
1915.000000	100.229828
1914.000000	100.214511
1913.000000	100.213766
1912.000000	100.223172
1911.000000	100.232792
1910.000000	100.237695
1909.000000	100.240664
1908.000000	100.247134
1907.000000	100.258922
1906.000000	100.271256
1905.000000	100.275533
1904.000000	100.267381
1903.000000	100.252639
1902.000000	100.241279
1901.000000	100.236214
1900.000000	100.234100
1899.000000	100.234512
1898.000000	100.239974
1897.000000	100.247355
1896.000000	100.247247
1895.000000	100.237001
1894.000000	100.227865
1893.000000	100.231630
1892.000000	100.246311
1891.000000	100.259499
1890.000000	100.261019
1889.000000	100.251940
1888.000000	100.242420
1887.000000	100.242207
1886.000000	100.253360
1885.000000	100.268402
1884.000000	100.276495
1883.000000	100.274658
1882.000000	100.270208
1881.000000	100.270175
1880.000000	100.273597
1879.000000	100.275820
1878.000000	100.275657
1877.000000	100.275656
1876.000000	100.276959
1875.000000	100.277015
1874.000000	100.272713
1873.000000	100.264234
1872.000000	100.256230
1871.000000	100.255021
1870.000000	100.262023
1869.000000	100.269065
1868.000000	100.265895
1867.000000	100.256098
1866.000000	100.254961
1865.000000	100.269041
1864.000000	100.289075
1863.000000	100.302072
1862.000000	100.303496
1861.000000	100.296792
1860.000000	100.285938
1859.000000	100.273838
1858.000000	100.265812
1857.000000	100.267749
1856.000000	100.280006
1855.000000	100.296853
1854.000000	100.310176
1853.000000	100.312319
1852.000000	100.301296
1851.000000	100.285035
1850.000000	100.275923
1849.000000	100.279831
1848.000000	100.290724
1847.000000	100.298824
1846.000000	100.301251
1845.000000	100.301307
1844.000000	100.300182
1843.000000	100.296110
1842.000000	100.291090
1841.000000	100.288538
1840.000000	100.288177
1839.000000	100.287317
1838.000000	100.284731
1837.000000	100.282981
1836.000000	100.285484
1835.000000	100.293173
1834.000000	100.304560
1833.000000	100.317103
1832.000000	100.327982
1831.000000	100.331784
1830.000000	100.323911
1829.000000	100.310920
1828.000000	100.304602
1827.000000	100.307295
1826.000000	100.311910
1825.000000	100.312237
1824.000000	100.309683
1823.000000	100.308503
1822.000000	100.309319
1821.000000	100.310158
1820.000000	100.310059
1819.000000	100.308978
1818.000000	100.307411
1817.000000	100.307868
1816.000000	100.312836
1815.000000	100.321680
1814.000000	100.330588
1813.000000	100.335294
1812.000000	100.333874
1811.000000	100.326577
1810.000000	100.316535
1809.000000	100.308810
1808.000000	100.305321
1807.000000	100.304208
1806.000000	100.303334
1805.000000	100.301477
1804.000000	100.297773
1803.000000	100.292198
1802.000000	100.285207
1801.000000	100.277205
1800.000000	100.268016
1799.000000	100.258183
1798.000000	100.251960
1797.000000	100.252385
1796.000000	100.254970
1795.000000	100.252289
1794.000000	100.241480
1793.000000	100.227892
1792.000000	100.221535
1791.000000	100.225198
1790.000000	100.233312
1789.000000	100.240757
1788.000000	100.245250
1787.000000	100.247772
1786.000000	100.252519
1785.000000	100.262327
1784.000000	100.274402
1783.000000	100.283957
1782.000000	100.288271
1781.000000	100.286952
1780.000000	100.282546
1779.000000	100.278864
1778.000000	100.279020
1777.000000	100.283481
1776.000000	100.290367
1775.000000	100.298473
1774.000000	100.306712
1773.000000	100.312735
1772.000000	100.315602
1771.000000	100.315278
1770.000000	100.310918
1769.000000	100.303450
1768.000000	100.296147
1767.000000	100.292717
1766.000000	100.294193
1765.000000	100.297990
1764.000000	100.300241
1763.000000	100.298297
1762.000000	100.292381
1761.000000	100.287016
1760.000000	100.286891
1759.000000	100.290245
1758.000000	100.290749
1757.000000	100.283090
1756.000000	100.270313
1755.000000	100.259956
1754.000000	100.253039
1753.000000	100.245335
1752.000000	100.235846
1751.000000	100.229708
1750.000000	100.229963
1749.000000	100.231889
1748.000000	100.231715
1747.000000	100.231556
1746.000000	100.232416
1745.000000	100.232660
1744.000000	100.232033
1743.000000	100.230425
1742.000000	100.225175
1741.000000	100.214353
1740.000000	100.202049
1739.000000	100.195989
1738.000000	100.195844
1737.000000	100.194590
1736.000000	100.188320
1735.000000	100.182348
1734.000000	100.189240
1733.000000	100.210248
1732.000000	100.235037
1731.000000	100.260339
1730.000000	100.285679
1729.000000	100.304229
1728.000000	100.311772
1727.000000	100.312906
1726.000000	100.314949
1725.000000	100.319891
1724.000000	100.325570
1723.000000	100.329303
1722.000000	100.331452
1721.000000	100.333249
1720.000000	100.335992
1719.000000	100.338149
1718.000000	100.336741
1717.000000	100.339354
1716.000000	100.347326
1715.000000	100.349295
1714.000000	100.343162
1713.000000	100.332712
1712.000000	100.320957
1711.000000	100.312396
1710.000000	100.311411
1709.000000	100.317853
1708.000000	100.326786
1707.000000	100.332945
1706.000000	100.336275
1705.000000	100.341719
1704.000000	100.347520
1703.000000	100.346418
1702.000000	100.334577
1701.000000	100.314178
1700.000000	100.290093
1699.000000	100.271534
1698.000000	100.264935
1697.000000	100.265714
1696.000000	100.266860
1695.000000	100.263023
1694.000000	100.259512
1693.000000	100.263055
1692.000000	100.268933
1691.000000	100.270137
1690.000000	100.264589
1689.000000	100.256313
1688.000000	100.250775
1687.000000	100.249567
1686.000000	100.251264
1685.000000	100.253523
1684.000000	100.252093
1683.000000	100.245879
1682.000000	100.240721
1681.000000	100.240524
1680.000000	100.242293
1679.000000	100.239837
1678.000000	100.230408
1677.000000	100.214726
1676.000000	100.199876
1675.000000	100.195318
1674.000000	100.201561
1673.000000	100.208811
1672.000000	100.209664
1671.000000	100.203635
1670.000000	100.198187
1669.000000	100.199530
1668.000000	100.204210
1667.000000	100.207655
1666.000000	100.207358
1665.000000	100.202259
1664.000000	100.193446
1663.000000	100.183590
1662.000000	100.176463
1661.000000	100.172932
1660.000000	100.173195
1659.000000	100.177083
1658.000000	100.183969
1657.000000	100.189050
1656.000000	100.192958
1655.000000	100.199401
1654.000000	100.215176
1653.000000	100.227254
1652.000000	100.215415
1651.000000	100.199852
1650.000000	100.192899
1649.000000	100.187053
1648.000000	100.175645
1647.000000	100.165001
1646.000000	100.165923
1645.000000	100.173576
1644.000000	100.179446
1643.000000	100.181746
1642.000000	100.180209
1641.000000	100.178339
1640.000000	100.178629
1639.000000	100.181526
1638.000000	100.187616
1637.000000	100.198471
1636.000000	100.212415
1635.000000	100.219594
1634.000000	100.215658
1633.000000	100.211818
1632.000000	100.213714
1631.000000	100.219150
1630.000000	100.226963
1629.000000	100.234196
1628.000000	100.238198
1627.000000	100.239995
1626.000000	100.242777
1625.000000	100.247492
1624.000000	100.253133
1623.000000	100.258157
1622.000000	100.260664
1621.000000	100.258706
1620.000000	100.253612
1619.000000	100.247902
1618.000000	100.242746
1617.000000	100.240383
1616.000000	100.244783
1615.000000	100.257099
1614.000000	100.272256
1613.000000	100.283465
1612.000000	100.288949
1611.000000	100.294235
1610.000000	100.304154
1609.000000	100.314638
1608.000000	100.318659
1607.000000	100.317000
1606.000000	100.315002
1605.000000	100.314267
1604.000000	100.313978
1603.000000	100.314148
1602.000000	100.314241
1601.000000	100.311891
1600.000000	100.306310
1599.000000	100.300447
1598.000000	100.296605
1597.000000	100.294026
1596.000000	100.291695
1595.000000	100.290673
1594.000000	100.291579
1593.000000	100.291481
1592.000000	100.287423
1591.000000	100.280565
1590.000000	100.273099
1589.000000	100.263853
1588.000000	100.250976
1587.000000	100.235923
1586.000000	100.220378
1585.000000	100.202048
1584.000000	100.179561
1583.000000	100.157714
1582.000000	100.142128
1581.000000	100.132536
1580.000000	100.125142
1579.000000	100.119002
1578.000000	100.115198
1577.000000	100.113398
1576.000000	100.113571
1575.000000	100.118382
1574.000000	100.127210
1573.000000	100.136455
1572.000000	100.145901
1571.000000	100.157689
1570.000000	100.171304
1569.000000	100.179227
1568.000000	100.179802
1567.000000	100.180929
1566.000000	100.185915
1565.000000	100.189759
1564.000000	100.188640
1563.000000	100.186304
1562.000000	100.186563
1561.000000	100.194294
1560.000000	100.202198
1559.000000	100.188379
1558.000000	100.162352
1557.000000	100.134125
1556.000000	100.109498
1555.000000	100.097400
1554.000000	100.091427
1553.000000	100.089036
1552.000000	100.081869
1551.000000	100.067760
1550.000000	100.047281
1549.000000	100.024950
1548.000000	100.001325
1547.000000	99.973856
1546.000000	99.938854
1545.000000	99.896409
1544.000000	99.852772
1543.000000	99.814516
1542.000000	99.782564
1541.000000	99.763430
1540.000000	99.772923
1539.000000	99.797690
1538.000000	99.808843
1537.000000	99.808474
1536.000000	99.805876
1535.000000	99.805307
1534.000000	99.813285
1533.000000	99.829008
1532.000000	99.842899
1531.000000	99.846883
1530.000000	99.844328
1529.000000	99.838546
1528.000000	99.828296
1527.000000	99.811166
1526.000000	99.788804
1525.000000	99.767470
1524.000000	99.752248
1523.000000	99.743110
1522.000000	99.740595
1521.000000	99.744758
1520.000000	99.745530
1519.000000	99.736408
1518.000000	99.719842
1517.000000	99.699137
1516.000000	99.676309
1515.000000	99.648639
1514.000000	99.615441
1513.000000	99.583016
1512.000000	99.560022
1511.000000	99.547366
1510.000000	99.536405
1509.000000	99.520526
1508.000000	99.504125
1507.000000	99.503957
1506.000000	99.504834
1505.000000	99.479459
1504.000000	99.448128
1503.000000	99.423601
1502.000000	99.398993
1501.000000	99.374897
1500.000000	99.353565
1499.000000	99.337211
1498.000000	99.318613
1497.000000	99.295971
1496.000000	99.276342
1495.000000	99.261207
1494.000000	99.244016
1493.000000	99.220540
1492.000000	99.193457
1491.000000	99.169979
1490.000000	99.155627
1489.000000	99.150342
1488.000000	99.145083
1487.000000	99.131400
1486.000000	99.111044
1485.000000	99.086099
1484.000000	99.057695
1483.000000	99.029504
1482.000000	99.004162
1481.000000	98.981466
1480.000000	98.958957
1479.000000	98.935420
1478.000000	98.911368
1477.000000	98.885930
1476.000000	98.854441
1475.000000	98.814307
1474.000000	98.772880
1473.000000	98.749382
1472.000000	98.751511
1471.000000	98.754971
1470.000000	98.740675
1469.000000	98.713538
1468.000000	98.684041
1467.000000	98.660619
1466.000000	98.647670
1465.000000	98.643453
1464.000000	98.639762
1463.000000	98.628337
1462.000000	98.609473
1461.000000	98.586386
1460.000000	98.559710
1459.000000	98.528905
1458.000000	98.501756
1457.000000	98.500734
1456.000000	98.520995
1455.000000	98.529834
1454.000000	98.518162
1453.000000	98.496270
1452.000000	98.474656
1451.000000	98.457673
1450.000000	98.442839
1449.000000	98.432871
1448.000000	98.433197
1447.000000	98.438462
1446.000000	98.433290
1445.000000	98.413000
1444.000000	98.387670
1443.000000	98.368300
1442.000000	98.356923
1441.000000	98.345868
1440.000000	98.326075
1439.000000	98.296181
1438.000000	98.266874
1437.000000	98.258127
1436.000000	98.273661
1435.000000	98.287070
1434.000000	98.277767
1433.000000	98.251340
1432.000000	98.223381
1431.000000	98.205988
1430.000000	98.199288
1429.000000	98.195447
1428.000000	98.187571
1427.000000	98.173497
1426.000000	98.156329
1425.000000	98.142131
1424.000000	98.134222
1423.000000	98.122645
1422.000000	98.093919
1421.000000	98.052500
1420.000000	98.023074
1419.000000	98.024401
1418.000000	98.037667
1417.000000	98.035675
1416.000000	98.019058
1415.000000	97.996627
1414.000000	97.969607
1413.000000	97.939916
1412.000000	97.915971
1411.000000	97.903805
1410.000000	97.896171
1409.000000	97.883346
1408.000000	97.866646
1407.000000	97.853745
1406.000000	97.847762
1405.000000	97.846047
1404.000000	97.844868
1403.000000	97.838025
1402.000000	97.820571
1401.000000	97.797667
1400.000000	97.783552
1399.000000	97.784337
1398.000000	97.784635
1397.000000	97.770019
1396.000000	97.751007
1395.000000	97.748486
1394.000000	97.760564
1393.000000	97.766799
1392.000000	97.760615
1391.000000	97.748304
1390.000000	97.734813
1389.000000	97.725901
1388.000000	97.733132
1387.000000	97.762248
1386.000000	97.797328
1385.000000	97.818827
1384.000000	97.828420
1383.000000	97.839356
1382.000000	97.857431
1381.000000	97.879543
1380.000000	97.904382
1379.000000	97.935150
1378.000000	97.970558
1377.000000	98.004809
1376.000000	98.038857
1375.000000	98.082572
1374.000000	98.138248
1373.000000	98.190591
1372.000000	98.225572
1371.000000	98.247958
1370.000000	98.272262
1369.000000	98.307196
1368.000000	98.350747
1367.000000	98.393744
1366.000000	98.429645
1365.000000	98.461415
1364.000000	98.497827
1363.000000	98.544076
1362.000000	98.594609
1361.000000	98.637846
1360.000000	98.669730
1359.000000	98.695447
1358.000000	98.721518
1357.000000	98.751835
1356.000000	98.786606
1355.000000	98.821603
1354.000000	98.850978
1353.000000	98.874129
1352.000000	98.896414
1351.000000	98.922641
1350.000000	98.952279
1349.000000	98.979924
1348.000000	99.001044
1347.000000	99.015423
1346.000000	99.026228
1345.000000	99.037530
1344.000000	99.051987
1343.000000	99.069229
1342.000000	99.087333
1341.000000	99.105735
1340.000000	99.125664
1339.000000	99.146597
1338.000000	99.163980
1337.000000	99.175322
1336.000000	99.184220
1335.000000	99.194427
1334.000000	99.205427
1333.000000	99.215637
1332.000000	99.226259
1331.000000	99.239686
1330.000000	99.255711
1329.000000	99.271804
1328.000000	99.286388
1327.000000	99.300039
1326.000000	99.313575
1325.000000	99.326504
1324.000000	99.338318
1323.000000	99.348510
1322.000000	99.355900
1321.000000	99.360531
1320.000000	99.365965
1319.000000	99.376931
1318.000000	99.393606
1317.000000	99.410870
1316.000000	99.423627
1315.000000	99.430593
1314.000000	99.433822
1313.000000	99.437233
1312.000000	99.444597
1311.000000	99.456519
1310.000000	99.469421
1309.000000	99.479265
1308.000000	99.485949
1307.000000	99.493160
1306.000000	99.503929
1305.000000	99.516974
1304.000000	99.528612
1303.000000	99.536397
1302.000000	99.540654
1301.000000	99.543710
1300.000000	99.548310
1299.000000	99.556144
1298.000000	99.567078
1297.000000	99.579341
1296.000000	99.590305
1295.000000	99.597897
1294.000000	99.602023
1293.000000	99.604670
1292.000000	99.607926
1291.000000	99.611778
1290.000000	99.614681
1289.000000	99.616270
1288.000000	99.618317
1287.000000	99.622722
1286.000000	99.629432
1285.000000	99.636756
1284.000000	99.642825
1283.000000	99.646295
1282.000000	99.646995
1281.000000	99.646281
1280.000000	99.645966
1279.000000	99.646976
1278.000000	99.649449
1277.000000	99.653709
1276.000000	99.659744
1275.000000	99.666006
1274.000000	99.670315
1273.000000	99.672344
1272.000000	99.674048
1271.000000	99.677111
1270.000000	99.680922
1269.000000	99.683434
1268.000000	99.683034
1267.000000	99.679441
1266.000000	99.674186
1265.000000	99.670807
1264.000000	99.672879
1263.000000	99.680610
1262.000000	99.690422
1261.000000	99.698461
1260.000000	99.703633
1259.000000	99.707209
1258.000000	99.710764
1257.000000	99.714999
1256.000000	99.718994
1255.000000	99.720127
1254.000000	99.716527
1253.000000	99.710082
1252.000000	99.705069
1251.000000	99.703366
1250.000000	99.702868
1249.000000	99.701126
1248.000000	99.698413
1247.000000	99.695980
1246.000000	99.693595
1245.000000	99.691052
1244.000000	99.690119
1243.000000	99.692483
1242.000000	99.697112
1241.000000	99.701847
1240.000000	99.706248
1239.000000	99.710537
1238.000000	99.712926
1237.000000	99.710886
1236.000000	99.704960
1235.000000	99.699138
1234.000000	99.697179
1233.000000	99.699746
1232.000000	99.705049
1231.000000	99.710847
1230.000000	99.715881
1229.000000	99.720693
1228.000000	99.726778
1227.000000	99.734188
1226.000000	99.740785
1225.000000	99.744909
1224.000000	99.747874
1223.000000	99.752257
1222.000000	99.758434
1221.000000	99.764435
1220.000000	99.768944
1219.000000	99.772911
1218.000000	99.777898
1217.000000	99.783815
1216.000000	99.788605
1215.000000	99.789986
1214.000000	99.788015
1213.000000	99.786221
1212.000000	99.789111
1211.000000	99.797468
1210.000000	99.806885
1209.000000	99.811932
1208.000000	99.810975
1207.000000	99.806373
1206.000000	99.801560
1205.000000	99.799184
1204.000000	99.800736
1203.000000	99.805873
1202.000000	99.812093
1201.000000	99.816475
1200.000000	99.818044
1199.000000	99.817838
1198.000000	99.817094
1197.000000	99.816297
1196.000000	99.815547
1195.000000	99.814821
1194.000000	99.814047
1193.000000	99.813567
1192.000000	99.814334
1191.000000	99.817139
1190.000000	99.821888
1189.000000	99.827736
1188.000000	99.833105
1187.000000	99.835410
1186.000000	99.832470
1185.000000	99.825309
1184.000000	99.818238
1183.000000	99.814921
1182.000000	99.815168
1181.000000	99.816436
1180.000000	99.817354
1179.000000	99.818221
1178.000000	99.818968
1177.000000	99.818701
1176.000000	99.816951
1175.000000	99.813767
1174.000000	99.808881
1173.000000	99.802439
1172.000000	99.796642
1171.000000	99.794946
1170.000000	99.798593
1169.000000	99.804686
1168.000000	99.808452
1167.000000	99.807522
1166.000000	99.804417
1165.000000	99.804898
1164.000000	99.812950
1163.000000	99.826357
1162.000000	99.837841
1161.000000	99.841741
1160.000000	99.839389
1159.000000	99.837190
1158.000000	99.839810
1157.000000	99.846096
1156.000000	99.851291
1155.000000	99.851953
1154.000000	99.848609
1153.000000	99.844745
1152.000000	99.843799
1151.000000	99.846851
1150.000000	99.852868
1149.000000	99.860697
1148.000000	99.869838
1147.000000	99.879169
1146.000000	99.886722
1145.000000	99.891968
1144.000000	99.896880
1143.000000	99.902927
1142.000000	99.908016
1141.000000	99.908753
1140.000000	99.905651
1139.000000	99.903599
1138.000000	99.906456
1137.000000	99.913157
1136.000000	99.920276
1135.000000	99.926717
1134.000000	99.934089
1133.000000	99.943288
1132.000000	99.952525
1131.000000	99.958910
1130.000000	99.960887
1129.000000	99.958981
1128.000000	99.955214
1127.000000	99.952413
1126.000000	99.953172
1125.000000	99.958218
1124.000000	99.965728
1123.000000	99.972833
1122.000000	99.977890
1121.000000	99.980774
1120.000000	99.981053
1119.000000	99.977300
1118.000000	99.969331
1117.000000	99.960384
1116.000000	99.955306
1115.000000	99.955974
1114.000000	99.959322
1113.000000	99.960330
1112.000000	99.956351
1111.000000	99.948377
1110.000000	99.939302
1109.000000	99.931990
1108.000000	99.928674
1107.000000	99.930313
1106.000000	99.935890
1105.000000	99.942674
1104.000000	99.947326
1103.000000	99.947326
1102.000000	99.941744
1101.000000	99.931827
1100.000000	99.920392
1099.000000	99.909759
1098.000000	99.901825
1097.000000	99.897897
1096.000000	99.898514
1095.000000	99.902629
1094.000000	99.908053
1093.000000	99.913123
1092.000000	99.917329
1091.000000	99.920057
1090.000000	99.919865
1089.000000	99.915650
1088.000000	99.907635
1087.000000	99.896723
1086.000000	99.884211
1085.000000	99.873139
1084.000000	99.868425
1083.000000	99.872961
1082.000000	99.882917
1081.000000	99.888879
1080.000000	99.883404
1079.000000	99.867907
1078.000000	99.851857
1077.000000	99.845095
1076.000000	99.850425
1075.000000	99.862695
1074.000000	99.874051
1073.000000	99.879644
1072.000000	99.878701
1071.000000	99.872290
1070.000000	99.862551
1069.000000	99.853646
1068.000000	99.850367
1067.000000	99.854151
1066.000000	99.861927
1065.000000	99.870285
1064.000000	99.879043
1063.000000	99.888830
1062.000000	99.896938
1061.000000	99.898590
1060.000000	99.892312
1059.000000	99.881803
1058.000000	99.872298
1057.000000	99.866691
1056.000000	99.864980
1055.000000	99.865193
1054.000000	99.864396
1053.000000	99.861096
1052.000000	99.857740
1051.000000	99.858738
1050.000000	99.864448
1049.000000	99.869340
1048.000000	99.868386
1047.000000	99.863722
1046.000000	99.862061
1045.000000	99.865824
1044.000000	99.869791
1043.000000	99.867337
1042.000000	99.858061
1041.000000	99.847720
1040.000000	99.841753
1039.000000	99.841309
1038.000000	99.845135
1037.000000	99.852149
1036.000000	99.860303
1035.000000	99.865196
1034.000000	99.863377
1033.000000	99.856918
1032.000000	99.851840
1031.000000	99.851343
1030.000000	99.853030
1029.000000	99.853484
1028.000000	99.852718
1027.000000	99.852030
1026.000000	99.850009
1025.000000	99.843987
1024.000000	99.834558
1023.000000	99.825822
1022.000000	99.821146
1021.000000	99.820935
1020.000000	99.824447
1019.000000	99.831164
1018.000000	99.839573
1017.000000	99.846677
1016.000000	99.850144
1015.000000	99.850312
1014.000000	99.850081
1013.000000	99.853219
1012.000000	99.861825
1011.000000	99.873916
1010.000000	99.884017
1009.000000	99.888146
1008.000000	99.888235
1007.000000	99.889817
1006.000000	99.895812
1005.000000	99.904640
1004.000000	99.913937
1003.000000	99.923125
1002.000000	99.931734
1001.000000	99.938368
1000.000000	99.942866
999.000000	99.947250
998.000000	99.953007
997.000000	99.959307
996.000000	99.964933
995.000000	99.969627
994.000000	99.972102
993.000000	99.970082
992.000000	99.965131
991.000000	99.964565
990.000000	99.974322
989.000000	99.991113
988.000000	100.006147
987.000000	100.015991
986.000000	100.025136
985.000000	100.037245
984.000000	100.048696
983.000000	100.053788
982.000000	100.052809
981.000000	100.051237
980.000000	100.052484
979.000000	100.054794
978.000000	100.055062
977.000000	100.052895
976.000000	100.050400
975.000000	100.049686
974.000000	100.051211
973.000000	100.053810
972.000000	100.055918
971.000000	100.057138
970.000000	100.058559
969.000000	100.061374
968.000000	100.065774
967.000000	100.071318
966.000000	100.077402
965.000000	100.082768
964.000000	100.085722
963.000000	100.086102
962.000000	100.086300
961.000000	100.089132
960.000000	100.095229
959.000000	100.103763
958.000000	100.114827
957.000000	100.128951
956.000000	100.144220
955.000000	100.156203
954.000000	100.162015
953.000000	100.163224
952.000000	100.163758
951.000000	100.165861
950.000000	100.169150
949.000000	100.172730
948.000000	100.176633
947.000000	100.181128
946.000000	100.185531
945.000000	100.188230
944.000000	100.187884
943.000000	100.185071
942.000000	100.183044
941.000000	100.185808
940.000000	100.194186
939.000000	100.204070
938.000000	100.209948
937.000000	100.210736
936.000000	100.210902
935.000000	100.215111
934.000000	100.222824
933.000000	100.229239
932.000000	100.231039
931.000000	100.229580
930.000000	100.228461
929.000000	100.229683
928.000000	100.232832
927.000000	100.236752
926.000000	100.240691
925.000000	100.244302
924.000000	100.247664
923.000000	100.251273
922.000000	100.255202
921.000000	100.258452
920.000000	100.260199
919.000000	100.261780
918.000000	100.266323
917.000000	100.275439
916.000000	100.286507
915.000000	100.293707
914.000000	100.292260
913.000000	100.282193
912.000000	100.268277
911.000000	100.256353
910.000000	100.249379
909.000000	100.246689
908.000000	100.246726
907.000000	100.249467
906.000000	100.255825
905.000000	100.265745
904.000000	100.277574
903.000000	100.288706
902.000000	100.296221
901.000000	100.298149
900.000000	100.295673
899.000000	100.293635
898.000000	100.297372
897.000000	100.308366
896.000000	100.323424
895.000000	100.336989
894.000000	100.343885
893.000000	100.341978
892.000000	100.334953
891.000000	100.331479
890.000000	100.338074
889.000000	100.352053
888.000000	100.364208
887.000000	100.367591
886.000000	100.360163
885.000000	100.338245
884.000000	100.292741
883.000000	100.215945
882.000000	100.107522
881.000000	99.969885
880.000000	99.800193
879.000000	99.593687
878.000000	99.354673
877.000000	99.096473
876.000000	98.828596
875.000000	98.549945
874.000000	98.265513
873.000000	98.013062
872.000000	97.868359
871.000000	97.906132
870.000000	98.140526
869.000000	98.504205
868.000000	98.889612
867.000000	99.214443
866.000000	99.453807
865.000000	99.622760
864.000000	99.742887
863.000000	99.828233
862.000000	99.889264
861.000000	99.935326
860.000000	99.971610
859.000000	99.999858
858.000000	100.023620
857.000000	100.047531
856.000000	100.071649
855.000000	100.092071
854.000000	100.107786
853.000000	100.121698
852.000000	100.132966
851.000000	100.134053
850.000000	100.120076
849.000000	100.098267
848.000000	100.084051
847.000000	100.088071
846.000000	100.108873
845.000000	100.136806
844.000000	100.162082
843.000000	100.179827
842.000000	100.190662
841.000000	100.198173
840.000000	100.205132
839.000000	100.211318
838.000000	100.214799
837.000000	100.215105
836.000000	100.214951
835.000000	100.218779
834.000000	100.228908
833.000000	100.242460
832.000000	100.252796
831.000000	100.255311
830.000000	100.251992
829.000000	100.249473
828.000000	100.252515
827.000000	100.260243
826.000000	100.268390
825.000000	100.273414
824.000000	100.273910
823.000000	100.269867
822.000000	100.262582
821.000000	100.255725
820.000000	100.254793
819.000000	100.263290
818.000000	100.278166
817.000000	100.290343
816.000000	100.292481
815.000000	100.286852
814.000000	100.283404
813.000000	100.288472
812.000000	100.297278
811.000000	100.299303
810.000000	100.289950
809.000000	100.275578
808.000000	100.267988
807.000000	100.274948
806.000000	100.294091
805.000000	100.313697
804.000000	100.320853
803.000000	100.311420
802.000000	100.292231
801.000000	100.273706
800.000000	100.262249
799.000000	100.259830
798.000000	100.265988
797.000000	100.276444
796.000000	100.282786
795.000000	100.279036
794.000000	100.268578
793.000000	100.261232
792.000000	100.263505
791.000000	100.274276
790.000000	100.289224
789.000000	100.305714
788.000000	100.322063
787.000000	100.334587
786.000000	100.337996
785.000000	100.329708
784.000000	100.313842
783.000000	100.299693
782.000000	100.294174
781.000000	100.295941
780.000000	100.299112
779.000000	100.301643
778.000000	100.305616
777.000000	100.309668
776.000000	100.308093
775.000000	100.300568
774.000000	100.296505
773.000000	100.304252
772.000000	100.320087
771.000000	100.332905
770.000000	100.335849
769.000000	100.328354
768.000000	100.311988
767.000000	100.292366
766.000000	100.281469
765.000000	100.287973
764.000000	100.305350
763.000000	100.317758
762.000000	100.318266
761.000000	100.313833
760.000000	100.312182
759.000000	100.312713
758.000000	100.313130
757.000000	100.316385
756.000000	100.325672
755.000000	100.337899
754.000000	100.346807
753.000000	100.349390
752.000000	100.346526
751.000000	100.340673
750.000000	100.335156
749.000000	100.332538
748.000000	100.331505
747.000000	100.327871
746.000000	100.320489
745.000000	100.313463
744.000000	100.311293
743.000000	100.315124
742.000000	100.324232
741.000000	100.336980
740.000000	100.349383
739.000000	100.356955
738.000000	100.358845
737.000000	100.356329
736.000000	100.347588
735.000000	100.329656
734.000000	100.306430
733.000000	100.288140
732.000000	100.280362
731.000000	100.278762
730.000000	100.276897
729.000000	100.273202
728.000000	100.271163
727.000000	100.275796
726.000000	100.287488
725.000000	100.299821
724.000000	100.304869
723.000000	100.300970
722.000000	100.291935
721.000000	100.277768
720.000000	100.251734
719.000000	100.210184
718.000000	100.159382
717.000000	100.105522
716.000000	100.043218
715.000000	99.965553
714.000000	99.884970
713.000000	99.831754
712.000000	99.828071
711.000000	99.869452
710.000000	99.933536
709.000000	99.997725
708.000000	100.047474
707.000000	100.079273
706.000000	100.097712
705.000000	100.109813
704.000000	100.121302
703.000000	100.134629
702.000000	100.151536
701.000000	100.173579
700.000000	100.197330
699.000000	100.218331
698.000000	100.235394
697.000000	100.248344
696.000000	100.255936
695.000000	100.257695
694.000000	100.262096
693.000000	100.280858
692.000000	100.311051
691.000000	100.338390
690.000000	100.353489
689.000000	100.358211
688.000000	100.356745
687.000000	100.348757
686.000000	100.339198
685.000000	100.336836
684.000000	100.337324
683.000000	100.327338
682.000000	100.306646
681.000000	100.289141
680.000000	100.279685
679.000000	100.272708
678.000000	100.273065
677.000000	100.286591
676.000000	100.304457
675.000000	100.313698
674.000000	100.322302
673.000000	100.352320
672.000000	100.410454
671.000000	100.491834
670.000000	100.601091
669.000000	100.739089
668.000000	100.817948
667.000000	100.754670
666.000000	100.635853
665.000000	100.507030
664.000000	100.389417
663.000000	100.317172
662.000000	100.300081
661.000000	100.318289
660.000000	100.341513
659.000000	100.355177
658.000000	100.356288
657.000000	100.337862
656.000000	100.304573
655.000000	100.279306
654.000000	100.275446
653.000000	100.281940
652.000000	100.289463
651.000000	100.304366
650.000000	100.329540
649.000000	100.350677
648.000000	100.356574
647.000000	100.353007
646.000000	100.345807
645.000000	100.334848
644.000000	100.324693
643.000000	100.321755
642.000000	100.322777
641.000000	100.317558
640.000000	100.307895
639.000000	100.309225
638.000000	100.325342
637.000000	100.339736
636.000000	100.339727
635.000000	100.329468
634.000000	100.316922
633.000000	100.304545
632.000000	100.296210
631.000000	100.299712
630.000000	100.315238
629.000000	100.331583
628.000000	100.341083
627.000000	100.347544
626.000000	100.352930
625.000000	100.353492
624.000000	100.348632
623.000000	100.341961
622.000000	100.333459
621.000000	100.320502
620.000000	100.307127
619.000000	100.300627
618.000000	100.298940
617.000000	100.292843
616.000000	100.280986
615.000000	100.269987
614.000000	100.259489
613.000000	100.242250
612.000000	100.221700
611.000000	100.213740
610.000000	100.225280
609.000000	100.243506
608.000000	100.253570
607.000000	100.255644
606.000000	100.254282
605.000000	100.248754
604.000000	100.241008
603.000000	100.242314
602.000000	100.262966
601.000000	100.298259
600.000000	100.331844
599.000000	100.351341
598.000000	100.354381
597.000000	100.342482
596.000000	100.316901
595.000000	100.281272
594.000000	100.242865
593.000000	100.209984
592.000000	100.191146
591.000000	100.193699
590.000000	100.217243
589.000000	100.249576
588.000000	100.273758
587.000000	100.279223
586.000000	100.267468
585.000000	100.250030
584.000000	100.239761
583.000000	100.242304
582.000000	100.254741
581.000000	100.271696
580.000000	100.288992
579.000000	100.300745
578.000000	100.297719
577.000000	100.277559
576.000000	100.254739
575.000000	100.248545
574.000000	100.258275
573.000000	100.262860
572.000000	100.248647
571.000000	100.225001
570.000000	100.209706
569.000000	100.204515
568.000000	100.194931
567.000000	100.170811
566.000000	100.137899
565.000000	100.110013
564.000000	100.095783
563.000000	100.095742
562.000000	100.108095
561.000000	100.135775
560.000000	100.183543
559.000000	100.242695
558.000000	100.285668
557.000000	100.288703
556.000000	100.256830
555.000000	100.218235
554.000000	100.194236
553.000000	100.182648
552.000000	100.171316
551.000000	100.156347
550.000000	100.144454
549.000000	100.145373
548.000000	100.166361
547.000000	100.205469
546.000000	100.244039
545.000000	100.256617
544.000000	100.236200
543.000000	100.201445
542.000000	100.176615
541.000000	100.170776
540.000000	100.178139
539.000000	100.189230
538.000000	100.194851
537.000000	100.187525
536.000000	100.168206
535.000000	100.150326
534.000000	100.148515
533.000000	100.165133
532.000000	100.189178
531.000000	100.205426
530.000000	100.202675
529.000000	100.177582
528.000000	100.135624
527.000000	100.093923
526.000000	100.076660
525.000000	100.093574
524.000000	100.125433
523.000000	100.139470
522.000000	100.118518
521.000000	100.077767
520.000000	100.054251
519.000000	100.073505
518.000000	100.123351
517.000000	100.166568
516.000000	100.179563
515.000000	100.167534
514.000000	100.149870
513.000000	100.144710
512.000000	100.161677
511.000000	100.195814
510.000000	100.227000
509.000000	100.234220
508.000000	100.210711
507.000000	100.167950
506.000000	100.124490
505.000000	100.091482
504.000000	100.071103
503.000000	100.064275
502.000000	100.074126
501.000000	100.097896
500.000000	100.119653
499.000000	100.121277
498.000000	100.103405
497.000000	100.093157
496.000000	100.117893
495.000000	100.167921
494.000000	100.201959
493.000000	100.192334
492.000000	100.151657
491.000000	100.109353
490.000000	100.077806
489.000000	100.060158
488.000000	100.067419
487.000000	100.102535
486.000000	100.141594
485.000000	100.159220
484.000000	100.169370
483.000000	100.205056
482.000000	100.253370
481.000000	100.252937
480.000000	100.166545
479.000000	100.027411
478.000000	99.908666
477.000000	99.865859
476.000000	99.910243
475.000000	100.016876
474.000000	100.135192
473.000000	100.204958
472.000000	100.195348
471.000000	100.131176
470.000000	100.054350
469.000000	99.986681
468.000000	99.940904
467.000000	99.925539
466.000000	99.926304
465.000000	99.920449
464.000000	99.912715
463.000000	99.920451
462.000000	99.928243
461.000000	99.900694
460.000000	99.855633
459.000000	99.875373
458.000000	100.006930
457.000000	100.163773
456.000000	100.231082
455.000000	100.221224
454.000000	100.216020
453.000000	100.257189
452.000000	100.325105
451.000000	100.371508
450.000000	100.366124
