PE IR       SUBTECH     SPECTRUM    ASCII       PEDS        4.00        
   -1
AG10-F012_1.ASC
23/09/08
10:43:35.00
23/09/08
11:14:38.00
uco
Sample 012 By uco Date Friday, September 08 2023
450.000000
#HDR
-1
-1
#GR
cm-1
%T
1.0
0.0
4000.000000
-1.000000
3551
8
100.244559
92.642831
#DATA
4000.000000	99.997181
3999.000000	99.996166
3998.000000	99.996005
3997.000000	100.001414
3996.000000	100.002124
3995.000000	100.002551
3994.000000	100.003350
3993.000000	100.004144
3992.000000	100.003651
3991.000000	100.001084
3990.000000	99.997048
3989.000000	99.993061
3988.000000	99.990529
3987.000000	99.990162
3986.000000	99.991853
3985.000000	99.994690
3984.000000	99.997235
3983.000000	99.998327
3982.000000	99.997922
3981.000000	99.997064
3980.000000	99.996874
3979.000000	99.997554
3978.000000	99.998329
3977.000000	99.998164
3976.000000	99.996582
3975.000000	99.994056
3974.000000	99.991800
3973.000000	99.991032
3972.000000	99.992054
3971.000000	99.993873
3970.000000	99.994833
3969.000000	99.993877
3968.000000	99.991422
3967.000000	99.988913
3966.000000	99.987550
3965.000000	99.987400
3964.000000	99.987526
3963.000000	99.986852
3962.000000	99.984922
3961.000000	99.982034
3960.000000	99.978940
3959.000000	99.976659
3958.000000	99.976085
3957.000000	99.977430
3956.000000	99.979759
3955.000000	99.981168
3954.000000	99.979881
3953.000000	99.975297
3952.000000	99.968401
3951.000000	99.961471
3950.000000	99.957082
3949.000000	99.956963
3948.000000	99.961133
3947.000000	99.968176
3946.000000	99.976620
3945.000000	99.985065
3944.000000	99.991566
3943.000000	99.994135
3942.000000	99.991850
3941.000000	99.985540
3940.000000	99.977497
3939.000000	99.970633
3938.000000	99.967330
3937.000000	99.968684
3936.000000	99.973771
3935.000000	99.979368
3934.000000	99.981541
3933.000000	99.978688
3932.000000	99.973350
3931.000000	99.969936
3930.000000	99.970432
3929.000000	99.973442
3928.000000	99.976194
3927.000000	99.976150
3926.000000	99.972514
3925.000000	99.967462
3924.000000	99.964717
3923.000000	99.965583
3922.000000	99.967551
3921.000000	99.966915
3920.000000	99.962433
3919.000000	99.956920
3918.000000	99.955130
3917.000000	99.958963
3916.000000	99.964891
3915.000000	99.967434
3914.000000	99.964081
3913.000000	99.957142
3912.000000	99.951597
3911.000000	99.951960
3910.000000	99.959369
3909.000000	99.971431
3908.000000	99.984023
3907.000000	99.992692
3906.000000	99.993799
3905.000000	99.986902
3904.000000	99.977188
3903.000000	99.972137
3902.000000	99.974447
3901.000000	99.980496
3900.000000	99.984861
3899.000000	99.984293
3898.000000	99.979079
3897.000000	99.971812
3896.000000	99.964984
3895.000000	99.959776
3894.000000	99.955457
3893.000000	99.951098
3892.000000	99.947938
3891.000000	99.948510
3890.000000	99.952245
3889.000000	99.956891
3888.000000	99.961044
3887.000000	99.963210
3886.000000	99.964032
3885.000000	99.967257
3884.000000	99.974153
3883.000000	99.981678
3882.000000	99.985514
3881.000000	99.983884
3880.000000	99.979110
3879.000000	99.973707
3878.000000	99.968929
3877.000000	99.966161
3876.000000	99.965541
3875.000000	99.966337
3874.000000	99.969101
3873.000000	99.974699
3872.000000	99.981668
3871.000000	99.986680
3870.000000	99.988270
3869.000000	99.988073
3868.000000	99.987456
3867.000000	99.986594
3866.000000	99.984240
3865.000000	99.978719
3864.000000	99.970703
3863.000000	99.962451
3862.000000	99.955478
3861.000000	99.951069
3860.000000	99.949638
3859.000000	99.949513
3858.000000	99.949189
3857.000000	99.950710
3856.000000	99.957767
3855.000000	99.966747
3854.000000	99.970248
3853.000000	99.974886
3852.000000	99.982334
3851.000000	99.983474
3850.000000	99.976755
3849.000000	99.967449
3848.000000	99.961243
3847.000000	99.961391
3846.000000	99.967311
3845.000000	99.975753
3844.000000	99.982742
3843.000000	99.985138
3842.000000	99.981613
3841.000000	99.973858
3840.000000	99.965792
3839.000000	99.962039
3838.000000	99.965079
3837.000000	99.972619
3836.000000	99.980110
3835.000000	99.985150
3834.000000	99.988656
3833.000000	99.992702
3832.000000	99.997605
3831.000000	100.000794
3830.000000	99.999483
3829.000000	99.993299
3828.000000	99.984124
3827.000000	99.974867
3826.000000	99.968178
3825.000000	99.966263
3824.000000	99.970399
3823.000000	99.978672
3822.000000	99.986051
3821.000000	99.991037
3820.000000	99.992478
3819.000000	99.986489
3818.000000	99.973947
3817.000000	99.958813
3816.000000	99.947070
3815.000000	99.943660
3814.000000	99.946454
3813.000000	99.949643
3812.000000	99.950163
3811.000000	99.949316
3810.000000	99.950036
3809.000000	99.953156
3808.000000	99.956171
3807.000000	99.957200
3806.000000	99.956496
3805.000000	99.954727
3804.000000	99.952798
3803.000000	99.951922
3802.000000	99.953937
3801.000000	99.961123
3800.000000	99.969555
3799.000000	99.973473
3798.000000	99.971430
3797.000000	99.965140
3796.000000	99.957832
3795.000000	99.952044
3794.000000	99.948443
3793.000000	99.946108
3792.000000	99.943663
3791.000000	99.940218
3790.000000	99.935948
3789.000000	99.931922
3788.000000	99.929672
3787.000000	99.930747
3786.000000	99.936500
3785.000000	99.947064
3784.000000	99.959945
3783.000000	99.970778
3782.000000	99.975557
3781.000000	99.972195
3780.000000	99.962259
3779.000000	99.951601
3778.000000	99.944882
3777.000000	99.942340
3776.000000	99.942202
3775.000000	99.943261
3774.000000	99.944995
3773.000000	99.946890
3772.000000	99.948081
3771.000000	99.948785
3770.000000	99.951688
3769.000000	99.958567
3768.000000	99.966870
3767.000000	99.972224
3766.000000	99.972502
3765.000000	99.968784
3764.000000	99.964033
3763.000000	99.961275
3762.000000	99.961511
3761.000000	99.962967
3760.000000	99.962983
3759.000000	99.960830
3758.000000	99.956840
3757.000000	99.951973
3756.000000	99.948441
3755.000000	99.948476
3754.000000	99.951327
3753.000000	99.952248
3752.000000	99.947909
3751.000000	99.943968
3750.000000	99.947509
3749.000000	99.954594
3748.000000	99.959274
3747.000000	99.962275
3746.000000	99.965524
3745.000000	99.968046
3744.000000	99.971190
3743.000000	99.974149
3742.000000	99.973961
3741.000000	99.972284
3740.000000	99.974944
3739.000000	99.986702
3738.000000	100.004548
3737.000000	100.016514
3736.000000	100.014799
3735.000000	100.005899
3734.000000	99.999472
3733.000000	99.996473
3732.000000	99.993144
3731.000000	99.987067
3730.000000	99.978134
3729.000000	99.967563
3728.000000	99.957190
3727.000000	99.948890
3726.000000	99.943876
3725.000000	99.941411
3724.000000	99.940082
3723.000000	99.940535
3722.000000	99.944736
3721.000000	99.953098
3720.000000	99.962599
3719.000000	99.968719
3718.000000	99.968512
3717.000000	99.962474
3716.000000	99.954504
3715.000000	99.948997
3714.000000	99.947294
3713.000000	99.947827
3712.000000	99.951041
3711.000000	99.960199
3710.000000	99.972979
3709.000000	99.982136
3708.000000	99.984051
3707.000000	99.980092
3706.000000	99.973860
3705.000000	99.969418
3704.000000	99.969213
3703.000000	99.972570
3702.000000	99.976478
3701.000000	99.977906
3700.000000	99.976073
3699.000000	99.972963
3698.000000	99.970490
3697.000000	99.967759
3696.000000	99.962433
3695.000000	99.953622
3694.000000	99.943011
3693.000000	99.933986
3692.000000	99.929811
3691.000000	99.932457
3690.000000	99.941061
3689.000000	99.951360
3688.000000	99.958109
3687.000000	99.960153
3686.000000	99.960919
3685.000000	99.962823
3684.000000	99.965588
3683.000000	99.968186
3682.000000	99.970123
3681.000000	99.971036
3680.000000	99.971086
3679.000000	99.972053
3678.000000	99.976625
3677.000000	99.985422
3676.000000	99.997922
3675.000000	100.011512
3674.000000	100.014902
3673.000000	100.004429
3672.000000	99.989019
3671.000000	99.978016
3670.000000	99.977289
3669.000000	99.985258
3668.000000	99.991619
3667.000000	99.990906
3666.000000	99.985794
3665.000000	99.979809
3664.000000	99.974226
3663.000000	99.969144
3662.000000	99.964535
3661.000000	99.960474
3660.000000	99.957682
3659.000000	99.957054
3658.000000	99.958716
3657.000000	99.962274
3656.000000	99.968311
3655.000000	99.976894
3654.000000	99.987302
3653.000000	99.998904
3652.000000	100.008543
3651.000000	100.010363
3650.000000	100.003985
3649.000000	99.997735
3648.000000	99.994557
3647.000000	99.988579
3646.000000	99.977052
3645.000000	99.963566
3644.000000	99.952791
3643.000000	99.947084
3642.000000	99.945914
3641.000000	99.946805
3640.000000	99.947322
3639.000000	99.946928
3638.000000	99.947533
3637.000000	99.951442
3636.000000	99.958337
3635.000000	99.964735
3634.000000	99.967170
3633.000000	99.965989
3632.000000	99.964620
3631.000000	99.964336
3630.000000	99.962279
3629.000000	99.961570
3628.000000	99.967811
3627.000000	99.975103
3626.000000	99.978717
3625.000000	99.980849
3624.000000	99.984622
3623.000000	99.990862
3622.000000	99.997839
3621.000000	100.002493
3620.000000	100.003651
3619.000000	100.003768
3618.000000	100.004351
3617.000000	100.003779
3616.000000	100.001549
3615.000000	99.997973
3614.000000	99.992094
3613.000000	99.983231
3612.000000	99.973514
3611.000000	99.967376
3610.000000	99.967904
3609.000000	99.974466
3608.000000	99.983367
3607.000000	99.989801
3606.000000	99.990635
3605.000000	99.985735
3604.000000	99.976563
3603.000000	99.964382
3602.000000	99.951445
3601.000000	99.941945
3600.000000	99.939523
3599.000000	99.943574
3598.000000	99.950021
3597.000000	99.954998
3596.000000	99.957712
3595.000000	99.960012
3594.000000	99.963896
3593.000000	99.969466
3592.000000	99.975313
3591.000000	99.980119
3590.000000	99.982139
3589.000000	99.979748
3588.000000	99.975327
3587.000000	99.974106
3586.000000	99.975555
3585.000000	99.975591
3584.000000	99.973748
3583.000000	99.971609
3582.000000	99.969511
3581.000000	99.966651
3580.000000	99.962937
3579.000000	99.959655
3578.000000	99.958088
3577.000000	99.958082
3576.000000	99.958133
3575.000000	99.957181
3574.000000	99.955735
3573.000000	99.955567
3572.000000	99.958340
3571.000000	99.964276
3570.000000	99.971442
3569.000000	99.976480
3568.000000	99.978755
3567.000000	99.981793
3566.000000	99.985720
3565.000000	99.984992
3564.000000	99.977666
3563.000000	99.967499
3562.000000	99.959185
3561.000000	99.955354
3560.000000	99.956219
3559.000000	99.960226
3558.000000	99.965150
3557.000000	99.969037
3556.000000	99.970666
3555.000000	99.969678
3554.000000	99.966769
3553.000000	99.963949
3552.000000	99.963576
3551.000000	99.965879
3550.000000	99.968083
3549.000000	99.966566
3548.000000	99.960110
3547.000000	99.952100
3546.000000	99.948470
3545.000000	99.951705
3544.000000	99.958325
3543.000000	99.963359
3542.000000	99.964730
3541.000000	99.963489
3540.000000	99.961758
3539.000000	99.960994
3538.000000	99.961272
3537.000000	99.961332
3536.000000	99.959908
3535.000000	99.957323
3534.000000	99.955983
3533.000000	99.958536
3532.000000	99.965278
3531.000000	99.973260
3530.000000	99.977991
3529.000000	99.976514
3528.000000	99.969347
3527.000000	99.959814
3526.000000	99.951704
3525.000000	99.947398
3524.000000	99.947185
3523.000000	99.949576
3522.000000	99.952666
3521.000000	99.955894
3520.000000	99.960265
3519.000000	99.966439
3518.000000	99.973236
3517.000000	99.978188
3516.000000	99.979414
3515.000000	99.976572
3514.000000	99.970510
3513.000000	99.962791
3512.000000	99.955625
3511.000000	99.951508
3510.000000	99.952136
3509.000000	99.957075
3508.000000	99.963691
3507.000000	99.968622
3506.000000	99.969596
3505.000000	99.966456
3504.000000	99.961749
3503.000000	99.959190
3502.000000	99.959990
3501.000000	99.961526
3500.000000	99.960503
3499.000000	99.956692
3498.000000	99.953210
3497.000000	99.953674
3496.000000	99.958582
3495.000000	99.964556
3494.000000	99.967477
3493.000000	99.966418
3492.000000	99.964054
3491.000000	99.963348
3490.000000	99.964489
3489.000000	99.965338
3488.000000	99.964364
3487.000000	99.962319
3486.000000	99.961073
3485.000000	99.961690
3484.000000	99.964108
3483.000000	99.967818
3482.000000	99.971983
3481.000000	99.974923
3480.000000	99.974563
3479.000000	99.970072
3478.000000	99.962950
3477.000000	99.956203
3476.000000	99.952328
3475.000000	99.951798
3474.000000	99.953371
3473.000000	99.955911
3472.000000	99.959536
3471.000000	99.964649
3470.000000	99.970162
3469.000000	99.973502
3468.000000	99.972777
3467.000000	99.968875
3466.000000	99.965157
3465.000000	99.964973
3464.000000	99.969355
3463.000000	99.976565
3462.000000	99.983476
3461.000000	99.987446
3460.000000	99.987490
3459.000000	99.984319
3458.000000	99.979665
3457.000000	99.975366
3456.000000	99.972653
3455.000000	99.971744
3454.000000	99.972250
3453.000000	99.973915
3452.000000	99.976721
3451.000000	99.980188
3450.000000	99.983043
3449.000000	99.984223
3448.000000	99.984138
3447.000000	99.984156
3446.000000	99.984497
3445.000000	99.983910
3444.000000	99.981755
3443.000000	99.979176
3442.000000	99.977776
3441.000000	99.977828
3440.000000	99.978413
3439.000000	99.978651
3438.000000	99.978095
3437.000000	99.976393
3436.000000	99.973648
3435.000000	99.970775
3434.000000	99.968754
3433.000000	99.967520
3432.000000	99.966274
3431.000000	99.964828
3430.000000	99.963846
3429.000000	99.963999
3428.000000	99.965546
3427.000000	99.968597
3426.000000	99.972777
3425.000000	99.976506
3424.000000	99.977625
3423.000000	99.975338
3422.000000	99.971224
3421.000000	99.967887
3420.000000	99.966551
3419.000000	99.966051
3418.000000	99.964048
3417.000000	99.959200
3416.000000	99.952492
3415.000000	99.946665
3414.000000	99.943939
3413.000000	99.944103
3412.000000	99.945130
3411.000000	99.945467
3410.000000	99.945198
3409.000000	99.945166
3408.000000	99.945816
3407.000000	99.947193
3406.000000	99.949330
3405.000000	99.952001
3404.000000	99.954387
3403.000000	99.955431
3402.000000	99.954649
3401.000000	99.952528
3400.000000	99.950364
3399.000000	99.949835
3398.000000	99.952264
3397.000000	99.957695
3396.000000	99.964602
3395.000000	99.970783
3394.000000	99.974588
3393.000000	99.975365
3392.000000	99.973161
3391.000000	99.968575
3390.000000	99.962906
3389.000000	99.957727
3388.000000	99.953800
3387.000000	99.950510
3386.000000	99.946658
3385.000000	99.941624
3384.000000	99.935425
3383.000000	99.928147
3382.000000	99.920381
3381.000000	99.914193
3380.000000	99.912337
3379.000000	99.915547
3378.000000	99.921130
3377.000000	99.925241
3376.000000	99.926271
3375.000000	99.925326
3374.000000	99.923833
3373.000000	99.922030
3372.000000	99.919901
3371.000000	99.918176
3370.000000	99.917391
3369.000000	99.916705
3368.000000	99.914794
3367.000000	99.911821
3366.000000	99.909452
3365.000000	99.908588
3364.000000	99.907840
3363.000000	99.904886
3362.000000	99.899171
3361.000000	99.892820
3360.000000	99.888646
3359.000000	99.887258
3358.000000	99.886409
3357.000000	99.883397
3356.000000	99.877934
3355.000000	99.872384
3354.000000	99.869357
3353.000000	99.869719
3352.000000	99.873020
3351.000000	99.878782
3350.000000	99.886282
3349.000000	99.893499
3348.000000	99.897598
3347.000000	99.897012
3346.000000	99.892744
3345.000000	99.887319
3344.000000	99.882681
3343.000000	99.879061
3342.000000	99.875266
3341.000000	99.869668
3340.000000	99.861602
3339.000000	99.852636
3338.000000	99.846292
3337.000000	99.845387
3336.000000	99.848929
3335.000000	99.852112
3334.000000	99.850355
3333.000000	99.843655
3332.000000	99.836555
3331.000000	99.833680
3330.000000	99.835443
3329.000000	99.838104
3328.000000	99.837678
3327.000000	99.833459
3326.000000	99.828054
3325.000000	99.824631
3324.000000	99.824342
3323.000000	99.825977
3322.000000	99.827604
3321.000000	99.828560
3320.000000	99.829983
3319.000000	99.833203
3318.000000	99.837497
3317.000000	99.839840
3316.000000	99.837476
3315.000000	99.830853
3314.000000	99.823627
3313.000000	99.819504
3312.000000	99.819184
3311.000000	99.820394
3310.000000	99.820579
3309.000000	99.819262
3308.000000	99.817844
3307.000000	99.817577
3306.000000	99.818041
3305.000000	99.817449
3304.000000	99.814109
3303.000000	99.807615
3302.000000	99.799037
3301.000000	99.790218
3300.000000	99.782905
3299.000000	99.778336
3298.000000	99.777393
3297.000000	99.780611
3296.000000	99.787524
3295.000000	99.796119
3294.000000	99.803580
3293.000000	99.808063
3292.000000	99.809495
3291.000000	99.808533
3290.000000	99.805418
3289.000000	99.800420
3288.000000	99.794838
3287.000000	99.790463
3286.000000	99.788043
3285.000000	99.787043
3284.000000	99.786820
3283.000000	99.787060
3282.000000	99.786965
3281.000000	99.785219
3280.000000	99.781590
3279.000000	99.777771
3278.000000	99.775886
3277.000000	99.776493
3276.000000	99.778482
3275.000000	99.780367
3274.000000	99.780829
3273.000000	99.778676
3272.000000	99.773670
3271.000000	99.767560
3270.000000	99.763179
3269.000000	99.761775
3268.000000	99.761702
3267.000000	99.760255
3266.000000	99.756734
3265.000000	99.753526
3264.000000	99.754025
3263.000000	99.759536
3262.000000	99.767940
3261.000000	99.775102
3260.000000	99.777747
3259.000000	99.775454
3258.000000	99.770460
3257.000000	99.765872
3256.000000	99.763830
3255.000000	99.764650
3254.000000	99.767205
3253.000000	99.770116
3252.000000	99.772863
3251.000000	99.775885
3250.000000	99.779676
3249.000000	99.783860
3248.000000	99.787089
3247.000000	99.787679
3246.000000	99.784599
3245.000000	99.778355
3244.000000	99.770919
3243.000000	99.764318
3242.000000	99.759293
3241.000000	99.755853
3240.000000	99.755000
3239.000000	99.758544
3238.000000	99.766322
3237.000000	99.774510
3236.000000	99.778267
3235.000000	99.776262
3234.000000	99.771530
3233.000000	99.767882
3232.000000	99.766703
3231.000000	99.767543
3230.000000	99.770152
3229.000000	99.774396
3228.000000	99.778815
3227.000000	99.780861
3226.000000	99.779097
3225.000000	99.774432
3224.000000	99.769112
3223.000000	99.765093
3222.000000	99.763246
3221.000000	99.763142
3220.000000	99.762961
3219.000000	99.760387
3218.000000	99.754758
3217.000000	99.748415
3216.000000	99.745287
3215.000000	99.747588
3214.000000	99.753677
3213.000000	99.759303
3212.000000	99.760974
3211.000000	99.758340
3210.000000	99.753713
3209.000000	99.749776
3208.000000	99.747904
3207.000000	99.748064
3206.000000	99.749500
3205.000000	99.751268
3204.000000	99.752662
3203.000000	99.753677
3202.000000	99.754771
3201.000000	99.755881
3200.000000	99.756132
3199.000000	99.755086
3198.000000	99.753777
3197.000000	99.753571
3196.000000	99.754200
3195.000000	99.754159
3194.000000	99.753148
3193.000000	99.752718
3192.000000	99.753836
3191.000000	99.754974
3190.000000	99.753881
3189.000000	99.750655
3188.000000	99.747730
3187.000000	99.746957
3186.000000	99.747825
3185.000000	99.748588
3184.000000	99.748150
3183.000000	99.746603
3182.000000	99.744914
3181.000000	99.744394
3180.000000	99.745599
3179.000000	99.747303
3178.000000	99.747359
3177.000000	99.745284
3176.000000	99.743337
3175.000000	99.744278
3174.000000	99.748469
3173.000000	99.753715
3172.000000	99.757391
3171.000000	99.758120
3170.000000	99.755938
3169.000000	99.752196
3168.000000	99.749401
3167.000000	99.749879
3166.000000	99.753620
3165.000000	99.757725
3164.000000	99.758774
3163.000000	99.755958
3162.000000	99.751789
3161.000000	99.749610
3160.000000	99.750521
3159.000000	99.752600
3158.000000	99.753022
3157.000000	99.750903
3156.000000	99.748208
3155.000000	99.747942
3154.000000	99.751480
3153.000000	99.757490
3152.000000	99.763280
3151.000000	99.767062
3150.000000	99.768849
3149.000000	99.769172
3148.000000	99.767211
3147.000000	99.761013
3146.000000	99.750198
3145.000000	99.738134
3144.000000	99.730376
3143.000000	99.730114
3142.000000	99.735517
3141.000000	99.741887
3140.000000	99.746149
3139.000000	99.748801
3138.000000	99.752116
3137.000000	99.757173
3136.000000	99.762544
3135.000000	99.765057
3134.000000	99.762072
3133.000000	99.754022
3132.000000	99.745114
3131.000000	99.740676
3130.000000	99.743032
3129.000000	99.749797
3128.000000	99.756244
3127.000000	99.759270
3126.000000	99.759169
3125.000000	99.758029
3124.000000	99.757132
3123.000000	99.756172
3122.000000	99.754654
3121.000000	99.753301
3120.000000	99.753473
3119.000000	99.755199
3118.000000	99.756483
3117.000000	99.755196
3116.000000	99.751519
3115.000000	99.747849
3114.000000	99.746168
3113.000000	99.746018
3112.000000	99.745389
3111.000000	99.743169
3110.000000	99.740432
3109.000000	99.739490
3108.000000	99.741891
3107.000000	99.746998
3106.000000	99.752029
3105.000000	99.753723
3104.000000	99.750639
3103.000000	99.744350
3102.000000	99.738286
3101.000000	99.735180
3100.000000	99.735242
3099.000000	99.736512
3098.000000	99.736692
3097.000000	99.734829
3096.000000	99.731724
3095.000000	99.729180
3094.000000	99.728820
3093.000000	99.731157
3092.000000	99.735195
3091.000000	99.738743
3090.000000	99.739729
3089.000000	99.737794
3088.000000	99.734582
3087.000000	99.732094
3086.000000	99.730899
3085.000000	99.730210
3084.000000	99.729313
3083.000000	99.728157
3082.000000	99.726771
3081.000000	99.725125
3080.000000	99.723927
3079.000000	99.724640
3078.000000	99.727956
3077.000000	99.732554
3076.000000	99.735892
3075.000000	99.735998
3074.000000	99.732473
3073.000000	99.726518
3072.000000	99.720666
3071.000000	99.717775
3070.000000	99.718967
3069.000000	99.722278
3068.000000	99.724139
3067.000000	99.722705
3066.000000	99.719471
3065.000000	99.717452
3064.000000	99.718181
3063.000000	99.720839
3062.000000	99.723733
3061.000000	99.725746
3060.000000	99.726316
3059.000000	99.724919
3058.000000	99.721671
3057.000000	99.718411
3056.000000	99.718142
3055.000000	99.722480
3054.000000	99.729702
3053.000000	99.735926
3052.000000	99.738107
3051.000000	99.735682
3050.000000	99.729856
3049.000000	99.722489
3048.000000	99.715857
3047.000000	99.712305
3046.000000	99.712893
3045.000000	99.716302
3044.000000	99.719709
3043.000000	99.721050
3042.000000	99.720364
3041.000000	99.719029
3040.000000	99.718064
3039.000000	99.717428
3038.000000	99.716754
3037.000000	99.716222
3036.000000	99.716272
3035.000000	99.716582
3034.000000	99.715938
3033.000000	99.713487
3032.000000	99.709785
3031.000000	99.706270
3030.000000	99.704061
3029.000000	99.703651
3028.000000	99.705130
3027.000000	99.707777
3026.000000	99.709694
3025.000000	99.708973
3024.000000	99.705521
3023.000000	99.701105
3022.000000	99.697570
3021.000000	99.695879
3020.000000	99.696782
3019.000000	99.700914
3018.000000	99.707310
3017.000000	99.712784
3016.000000	99.714087
3015.000000	99.710736
3014.000000	99.705347
3013.000000	99.701421
3012.000000	99.700916
3011.000000	99.702941
3010.000000	99.704097
3009.000000	99.700884
3008.000000	99.692858
3007.000000	99.683329
3006.000000	99.676304
3005.000000	99.672964
3004.000000	99.671567
3003.000000	99.670107
3002.000000	99.667944
3001.000000	99.665270
3000.000000	99.662477
2999.000000	99.660402
2998.000000	99.659937
2997.000000	99.660695
2996.000000	99.660708
2995.000000	99.657998
2994.000000	99.651930
2993.000000	99.642585
2992.000000	99.629616
2991.000000	99.612893
2990.000000	99.594340
2989.000000	99.578190
2988.000000	99.568527
2987.000000	99.566090
2986.000000	99.567259
2985.000000	99.566215
2984.000000	99.558542
2983.000000	99.543753
2982.000000	99.525042
2981.000000	99.506751
2980.000000	99.491356
2979.000000	99.478217
2978.000000	99.464867
2977.000000	99.449597
2976.000000	99.432816
2975.000000	99.415962
2974.000000	99.399441
2973.000000	99.382159
2972.000000	99.362960
2971.000000	99.341693
2970.000000	99.318584
2969.000000	99.293353
2968.000000	99.265976
2967.000000	99.238062
2966.000000	99.212371
2965.000000	99.190446
2964.000000	99.171045
2963.000000	99.151372
2962.000000	99.129687
2961.000000	99.106632
2960.000000	99.084229
2959.000000	99.063965
2958.000000	99.045841
2957.000000	99.028933
2956.000000	99.012693
2955.000000	98.997745
2954.000000	98.985603
2953.000000	98.977540
2952.000000	98.973364
2951.000000	98.971131
2950.000000	98.968306
2949.000000	98.963620
2948.000000	98.957683
2947.000000	98.951306
2946.000000	98.943143
2945.000000	98.929554
2944.000000	98.907363
2943.000000	98.876425
2942.000000	98.839203
2941.000000	98.798112
2940.000000	98.754008
2939.000000	98.707134
2938.000000	98.658410
2937.000000	98.608923
2936.000000	98.558059
2935.000000	98.503043
2934.000000	98.441113
2933.000000	98.372382
2932.000000	98.300299
2931.000000	98.229013
2930.000000	98.160478
2929.000000	98.094197
2928.000000	98.029247
2927.000000	97.965953
2926.000000	97.905829
2925.000000	97.851290
2924.000000	97.805824
2923.000000	97.773557
2922.000000	97.757187
2921.000000	97.756264
2920.000000	97.768503
2919.000000	97.792873
2918.000000	97.831074
2917.000000	97.885612
2916.000000	97.956962
2915.000000	98.042640
2914.000000	98.138004
2913.000000	98.237296
2912.000000	98.334242
2911.000000	98.423136
2910.000000	98.500225
2909.000000	98.564634
2908.000000	98.618285
2907.000000	98.664645
2906.000000	98.706835
2905.000000	98.745955
2904.000000	98.781099
2903.000000	98.810934
2902.000000	98.835679
2901.000000	98.857174
2900.000000	98.877880
2899.000000	98.899834
2898.000000	98.923955
2897.000000	98.949774
2896.000000	98.975537
2895.000000	98.999038
2894.000000	99.018949
2893.000000	99.035532
2892.000000	99.050265
2891.000000	99.064873
2890.000000	99.080500
2889.000000	99.097237
2888.000000	99.113904
2887.000000	99.128498
2886.000000	99.139658
2885.000000	99.148143
2884.000000	99.156508
2883.000000	99.166584
2882.000000	99.177175
2881.000000	99.184779
2880.000000	99.186949
2879.000000	99.184567
2878.000000	99.180550
2877.000000	99.176673
2876.000000	99.172095
2875.000000	99.164771
2874.000000	99.153671
2873.000000	99.139631
2872.000000	99.124839
2871.000000	99.111925
2870.000000	99.102971
2869.000000	99.098348
2868.000000	99.096126
2867.000000	99.092812
2866.000000	99.085010
2865.000000	99.070651
2864.000000	99.049007
2863.000000	99.020213
2862.000000	98.984950
2861.000000	98.944074
2860.000000	98.897772
2859.000000	98.844912
2858.000000	98.783900
2857.000000	98.715056
2856.000000	98.642420
2855.000000	98.572867
2854.000000	98.513364
2853.000000	98.468763
2852.000000	98.442002
2851.000000	98.435989
2850.000000	98.454370
2849.000000	98.499799
2848.000000	98.570881
2847.000000	98.660938
2846.000000	98.760305
2845.000000	98.860318
2844.000000	98.955233
2843.000000	99.041523
2842.000000	99.116869
2841.000000	99.180605
2840.000000	99.234444
2839.000000	99.281024
2838.000000	99.321529
2837.000000	99.355449
2836.000000	99.382606
2835.000000	99.404374
2834.000000	99.422618
2833.000000	99.438478
2832.000000	99.452791
2831.000000	99.466667
2830.000000	99.480534
2829.000000	99.493192
2828.000000	99.502870
2827.000000	99.509124
2826.000000	99.512992
2825.000000	99.515550
2824.000000	99.517327
2823.000000	99.519102
2822.000000	99.522204
2821.000000	99.527502
2820.000000	99.534548
2819.000000	99.542070
2818.000000	99.549022
2817.000000	99.555067
2816.000000	99.560451
2815.000000	99.565560
2814.000000	99.570301
2813.000000	99.573815
2812.000000	99.575190
2811.000000	99.574568
2810.000000	99.573136
2809.000000	99.571927
2808.000000	99.571095
2807.000000	99.570654
2806.000000	99.571378
2805.000000	99.574306
2804.000000	99.579392
2803.000000	99.585133
2802.000000	99.589741
2801.000000	99.592516
2800.000000	99.594081
2799.000000	99.595533
2798.000000	99.597529
2797.000000	99.600056
2796.000000	99.602686
2795.000000	99.604819
2794.000000	99.605911
2793.000000	99.605947
2792.000000	99.605788
2791.000000	99.606617
2790.000000	99.608741
2789.000000	99.611246
2788.000000	99.613244
2787.000000	99.615148
2786.000000	99.618044
2785.000000	99.621812
2784.000000	99.624560
2783.000000	99.624352
2782.000000	99.621196
2781.000000	99.617062
2780.000000	99.614157
2779.000000	99.613472
2778.000000	99.614659
2777.000000	99.616700
2776.000000	99.618552
2775.000000	99.619613
2774.000000	99.619991
2773.000000	99.620374
2772.000000	99.621411
2771.000000	99.623079
2770.000000	99.624798
2769.000000	99.626222
2768.000000	99.627721
2767.000000	99.629759
2766.000000	99.631933
2765.000000	99.633181
2764.000000	99.633196
2763.000000	99.633245
2762.000000	99.634974
2761.000000	99.638347
2760.000000	99.641174
2759.000000	99.640983
2758.000000	99.637352
2757.000000	99.632386
2756.000000	99.629022
2755.000000	99.628888
2754.000000	99.631591
2753.000000	99.635693
2752.000000	99.640041
2751.000000	99.644058
2750.000000	99.647019
2749.000000	99.647686
2748.000000	99.645193
2747.000000	99.640301
2746.000000	99.635330
2745.000000	99.632406
2744.000000	99.631691
2743.000000	99.631568
2742.000000	99.630642
2741.000000	99.629213
2740.000000	99.628483
2739.000000	99.628726
2738.000000	99.629132
2737.000000	99.629610
2736.000000	99.631595
2735.000000	99.636006
2734.000000	99.641002
2733.000000	99.643255
2732.000000	99.641791
2731.000000	99.639354
2730.000000	99.639310
2729.000000	99.642012
2728.000000	99.645056
2727.000000	99.646480
2726.000000	99.646579
2725.000000	99.646812
2724.000000	99.648086
2723.000000	99.650464
2722.000000	99.653671
2721.000000	99.657099
2720.000000	99.659542
2719.000000	99.659629
2718.000000	99.656978
2717.000000	99.652972
2716.000000	99.650066
2715.000000	99.649874
2714.000000	99.651807
2713.000000	99.653832
2712.000000	99.654593
2711.000000	99.654427
2710.000000	99.654328
2709.000000	99.654666
2708.000000	99.655324
2707.000000	99.656366
2706.000000	99.657706
2705.000000	99.658455
2704.000000	99.657555
2703.000000	99.655246
2702.000000	99.653356
2701.000000	99.653851
2700.000000	99.657208
2699.000000	99.661935
2698.000000	99.665357
2697.000000	99.665263
2696.000000	99.661651
2695.000000	99.656975
2694.000000	99.654182
2693.000000	99.654461
2692.000000	99.657037
2691.000000	99.660501
2690.000000	99.663426
2689.000000	99.664196
2688.000000	99.661940
2687.000000	99.658205
2686.000000	99.656345
2685.000000	99.658128
2684.000000	99.661586
2683.000000	99.663177
2682.000000	99.661711
2681.000000	99.659299
2680.000000	99.658761
2679.000000	99.660911
2678.000000	99.664243
2677.000000	99.666389
2676.000000	99.665723
2675.000000	99.662386
2674.000000	99.658263
2673.000000	99.655761
2672.000000	99.656178
2671.000000	99.658981
2670.000000	99.662330
2669.000000	99.664239
2668.000000	99.663794
2667.000000	99.661875
2666.000000	99.660341
2665.000000	99.659810
2664.000000	99.658430
2663.000000	99.653793
2662.000000	99.646222
2661.000000	99.639151
2660.000000	99.635699
2659.000000	99.635658
2658.000000	99.636657
2657.000000	99.637619
2656.000000	99.639787
2655.000000	99.644341
2654.000000	99.650336
2653.000000	99.655724
2652.000000	99.659489
2651.000000	99.661813
2650.000000	99.662680
2649.000000	99.661699
2648.000000	99.659561
2647.000000	99.658461
2646.000000	99.659999
2645.000000	99.663010
2644.000000	99.664461
2643.000000	99.662637
2642.000000	99.658829
2641.000000	99.655860
2640.000000	99.655689
2639.000000	99.658766
2638.000000	99.664763
2637.000000	99.672647
2636.000000	99.680145
2635.000000	99.684449
2634.000000	99.684445
2633.000000	99.682068
2632.000000	99.680846
2631.000000	99.682875
2630.000000	99.687314
2629.000000	99.691727
2628.000000	99.694583
2627.000000	99.696279
2626.000000	99.697795
2625.000000	99.698752
2624.000000	99.697515
2623.000000	99.693569
2622.000000	99.689232
2621.000000	99.687990
2620.000000	99.691026
2619.000000	99.696196
2618.000000	99.700612
2617.000000	99.703157
2616.000000	99.704016
2615.000000	99.703378
2614.000000	99.702296
2613.000000	99.703838
2612.000000	99.710716
2611.000000	99.720982
2610.000000	99.728118
2609.000000	99.726903
2608.000000	99.718483
2607.000000	99.708805
2606.000000	99.702948
2605.000000	99.702122
2604.000000	99.704999
2603.000000	99.709941
2602.000000	99.715723
2601.000000	99.721546
2600.000000	99.727151
2599.000000	99.732385
2598.000000	99.736435
2597.000000	99.738088
2596.000000	99.737062
2595.000000	99.734682
2594.000000	99.732899
2593.000000	99.732530
2592.000000	99.732265
2591.000000	99.729618
2590.000000	99.723611
2589.000000	99.716852
2588.000000	99.713974
2587.000000	99.717058
2586.000000	99.723291
2585.000000	99.728055
2584.000000	99.729711
2583.000000	99.730422
2582.000000	99.733058
2581.000000	99.738725
2580.000000	99.746440
2579.000000	99.753245
2578.000000	99.755038
2577.000000	99.749820
2576.000000	99.740825
2575.000000	99.734614
2574.000000	99.735155
2573.000000	99.740858
2572.000000	99.747191
2571.000000	99.750218
2570.000000	99.747655
2569.000000	99.739907
2568.000000	99.731998
2567.000000	99.731642
2566.000000	99.742206
2565.000000	99.758492
2564.000000	99.771651
2563.000000	99.777401
2562.000000	99.777319
2561.000000	99.773834
2560.000000	99.767508
2559.000000	99.759130
2558.000000	99.750865
2557.000000	99.744034
2556.000000	99.738227
2555.000000	99.733920
2554.000000	99.733856
2553.000000	99.740032
2552.000000	99.750599
2551.000000	99.761235
2550.000000	99.768659
2549.000000	99.771423
2548.000000	99.768435
2547.000000	99.759007
2546.000000	99.744896
2545.000000	99.731160
2544.000000	99.723934
2543.000000	99.726609
2542.000000	99.737077
2541.000000	99.748216
2540.000000	99.752335
2539.000000	99.746913
2538.000000	99.736350
2537.000000	99.727497
2536.000000	99.723420
2535.000000	99.721968
2534.000000	99.719901
2533.000000	99.716961
2532.000000	99.715375
2531.000000	99.716389
2530.000000	99.718493
2529.000000	99.719192
2528.000000	99.717786
2527.000000	99.715906
2526.000000	99.715447
2525.000000	99.716686
2524.000000	99.718911
2523.000000	99.722294
2522.000000	99.727948
2521.000000	99.735492
2520.000000	99.741344
2519.000000	99.740384
2518.000000	99.729638
2517.000000	99.710583
2516.000000	99.688657
2515.000000	99.670852
2514.000000	99.662273
2513.000000	99.663030
2512.000000	99.668219
2511.000000	99.672216
2510.000000	99.673138
2509.000000	99.672275
2508.000000	99.669872
2507.000000	99.664254
2506.000000	99.656362
2505.000000	99.652390
2504.000000	99.658898
2503.000000	99.675428
2502.000000	99.694331
2501.000000	99.708280
2500.000000	99.716039
2499.000000	99.720574
2498.000000	99.723650
2497.000000	99.724112
2496.000000	99.720566
2495.000000	99.713928
2494.000000	99.707123
2493.000000	99.703085
2492.000000	99.703159
2491.000000	99.706675
2490.000000	99.711643
2489.000000	99.716132
2488.000000	99.719458
2487.000000	99.722343
2486.000000	99.725947
2485.000000	99.730381
2484.000000	99.733948
2483.000000	99.734433
2482.000000	99.731802
2481.000000	99.729238
2480.000000	99.730588
2479.000000	99.736609
2478.000000	99.744436
2477.000000	99.750746
2476.000000	99.754426
2475.000000	99.756074
2474.000000	99.756204
2473.000000	99.755109
2472.000000	99.754051
2471.000000	99.755226
2470.000000	99.759769
2469.000000	99.765807
2468.000000	99.769286
2467.000000	99.767688
2466.000000	99.763000
2465.000000	99.759968
2464.000000	99.760875
2463.000000	99.763451
2462.000000	99.764856
2461.000000	99.765685
2460.000000	99.767754
2459.000000	99.769485
2458.000000	99.767250
2457.000000	99.761209
2456.000000	99.756002
2455.000000	99.754390
2454.000000	99.753767
2453.000000	99.751105
2452.000000	99.748146
2451.000000	99.748549
2450.000000	99.752014
2449.000000	99.755060
2448.000000	99.756640
2447.000000	99.759291
2446.000000	99.764518
2445.000000	99.769975
2444.000000	99.772113
2443.000000	99.769826
2442.000000	99.765010
2441.000000	99.761018
2440.000000	99.760790
2439.000000	99.765117
2438.000000	99.772361
2437.000000	99.780393
2436.000000	99.788260
2435.000000	99.794922
2434.000000	99.797636
2433.000000	99.793950
2432.000000	99.785459
2431.000000	99.777569
2430.000000	99.774814
2429.000000	99.777254
2428.000000	99.781227
2427.000000	99.782623
2426.000000	99.779963
2425.000000	99.775873
2424.000000	99.775402
2423.000000	99.781165
2422.000000	99.789776
2421.000000	99.794469
2420.000000	99.791580
2419.000000	99.783436
2418.000000	99.774949
2417.000000	99.768776
2416.000000	99.764431
2415.000000	99.760835
2414.000000	99.758455
2413.000000	99.758735
2412.000000	99.761742
2411.000000	99.765107
2410.000000	99.766301
2409.000000	99.765824
2408.000000	99.766718
2407.000000	99.770345
2406.000000	99.774201
2405.000000	99.775057
2404.000000	99.773061
2403.000000	99.771686
2402.000000	99.774684
2401.000000	99.783631
2400.000000	99.796346
2399.000000	99.806430
2398.000000	99.807101
2397.000000	99.798349
2396.000000	99.788743
2395.000000	99.787118
2394.000000	99.793254
2393.000000	99.799631
2392.000000	99.801042
2391.000000	99.799115
2390.000000	99.797718
2389.000000	99.798050
2388.000000	99.799641
2387.000000	99.802168
2386.000000	99.805080
2385.000000	99.807015
2384.000000	99.807513
2383.000000	99.808380
2382.000000	99.811119
2381.000000	99.815123
2380.000000	99.818412
2379.000000	99.819392
2378.000000	99.817849
2377.000000	99.814955
2376.000000	99.812867
2375.000000	99.813438
2374.000000	99.818083
2373.000000	99.828045
2372.000000	99.842840
2371.000000	99.857119
2370.000000	99.862960
2369.000000	99.857686
2368.000000	99.844531
2367.000000	99.826943
2366.000000	99.807621
2365.000000	99.793714
2364.000000	99.794241
2363.000000	99.806311
2362.000000	99.815981
2361.000000	99.817559
2360.000000	99.818151
2359.000000	99.827120
2358.000000	99.843562
2357.000000	99.858068
2356.000000	99.860560
2355.000000	99.844108
2354.000000	99.819319
2353.000000	99.807331
2352.000000	99.814524
2351.000000	99.825517
2350.000000	99.823995
2349.000000	99.810730
2348.000000	99.797088
2347.000000	99.795697
2346.000000	99.805560
2345.000000	99.808647
2344.000000	99.793780
2343.000000	99.771772
2342.000000	99.764350
2341.000000	99.776688
2340.000000	99.792129
2339.000000	99.794485
2338.000000	99.786950
2337.000000	99.782520
2336.000000	99.786067
2335.000000	99.793701
2334.000000	99.804935
2333.000000	99.821545
2332.000000	99.837143
2331.000000	99.841063
2330.000000	99.828942
2329.000000	99.808781
2328.000000	99.787748
2327.000000	99.769462
2326.000000	99.756407
2325.000000	99.750297
2324.000000	99.751722
2323.000000	99.756638
2322.000000	99.760217
2321.000000	99.756652
2320.000000	99.743938
2319.000000	99.726428
2318.000000	99.711310
2317.000000	99.703836
2316.000000	99.704733
2315.000000	99.713955
2314.000000	99.729109
2313.000000	99.744072
2312.000000	99.751015
2311.000000	99.748106
2310.000000	99.740784
2309.000000	99.735697
2308.000000	99.735100
2307.000000	99.737172
2306.000000	99.739338
2305.000000	99.739313
2304.000000	99.737107
2303.000000	99.734900
2302.000000	99.735036
2301.000000	99.737202
2300.000000	99.739884
2299.000000	99.743939
2298.000000	99.750499
2297.000000	99.757466
2296.000000	99.759446
2295.000000	99.754551
2294.000000	99.747055
2293.000000	99.742958
2292.000000	99.743973
2291.000000	99.747019
2290.000000	99.748339
2289.000000	99.746240
2288.000000	99.741689
2287.000000	99.736675
2286.000000	99.732665
2285.000000	99.729673
2284.000000	99.727836
2283.000000	99.728054
2282.000000	99.730769
2281.000000	99.734454
2280.000000	99.737582
2279.000000	99.740855
2278.000000	99.745639
2277.000000	99.750620
2276.000000	99.751820
2275.000000	99.746907
2274.000000	99.738238
2273.000000	99.732286
2272.000000	99.735747
2271.000000	99.750639
2270.000000	99.771467
2269.000000	99.788517
2268.000000	99.795891
2267.000000	99.795286
2266.000000	99.790683
2265.000000	99.782306
2264.000000	99.768963
2263.000000	99.754463
2262.000000	99.747052
2261.000000	99.751710
2260.000000	99.765523
2259.000000	99.780361
2258.000000	99.788964
2257.000000	99.788957
2256.000000	99.783901
2255.000000	99.779959
2254.000000	99.779841
2253.000000	99.781088
2252.000000	99.781150
2251.000000	99.781959
2250.000000	99.786888
2249.000000	99.795533
2248.000000	99.804678
2247.000000	99.812937
2246.000000	99.821207
2245.000000	99.829785
2244.000000	99.837773
2243.000000	99.844054
2242.000000	99.846333
2241.000000	99.841058
2240.000000	99.827500
2239.000000	99.810546
2238.000000	99.796856
2237.000000	99.789711
2236.000000	99.789334
2235.000000	99.795108
2234.000000	99.804077
2233.000000	99.809781
2232.000000	99.807061
2231.000000	99.797039
2230.000000	99.784826
2229.000000	99.774789
2228.000000	99.770803
2227.000000	99.777523
2226.000000	99.796637
2225.000000	99.823199
2224.000000	99.848827
2223.000000	99.866406
2222.000000	99.869360
2221.000000	99.851552
2220.000000	99.813638
2219.000000	99.766414
2218.000000	99.723487
2217.000000	99.694061
2216.000000	99.685008
2215.000000	99.702251
2214.000000	99.742481
2213.000000	99.788563
2212.000000	99.822375
2211.000000	99.839488
2210.000000	99.843316
2209.000000	99.831072
2208.000000	99.798313
2207.000000	99.754377
2206.000000	99.719524
2205.000000	99.704499
2204.000000	99.703035
2203.000000	99.706343
2202.000000	99.714644
2201.000000	99.730542
2200.000000	99.750540
2199.000000	99.768701
2198.000000	99.781930
2197.000000	99.787570
2196.000000	99.782820
2195.000000	99.771841
2194.000000	99.768485
2193.000000	99.785949
2192.000000	99.823272
2191.000000	99.862519
2190.000000	99.877964
2189.000000	99.852451
2188.000000	99.794233
2187.000000	99.737100
2186.000000	99.714182
2185.000000	99.727294
2184.000000	99.746240
2183.000000	99.741760
2182.000000	99.714494
2181.000000	99.690038
2180.000000	99.693692
2179.000000	99.733977
2178.000000	99.802368
2177.000000	99.878600
2176.000000	99.938289
2175.000000	99.963822
2174.000000	99.950383
2173.000000	99.904069
2172.000000	99.839053
2171.000000	99.774718
2170.000000	99.728049
2169.000000	99.703747
2168.000000	99.692789
2167.000000	99.683863
2166.000000	99.675716
2165.000000	99.677666
2164.000000	99.699634
2163.000000	99.741340
2162.000000	99.789953
2161.000000	99.829282
2160.000000	99.854330
2159.000000	99.873843
2158.000000	99.892269
2157.000000	99.899960
2156.000000	99.893566
2155.000000	99.892191
2154.000000	99.917687
2153.000000	99.965090
2152.000000	100.004735
2151.000000	100.012759
2150.000000	99.989839
2149.000000	99.950776
2148.000000	99.908576
2147.000000	99.874108
2146.000000	99.861306
2145.000000	99.879535
2144.000000	99.919387
2143.000000	99.955054
2142.000000	99.965444
2141.000000	99.951897
2140.000000	99.934304
2139.000000	99.929628
2138.000000	99.935697
2137.000000	99.936676
2136.000000	99.922423
2135.000000	99.899674
2134.000000	99.882976
2133.000000	99.878243
2132.000000	99.878839
2131.000000	99.876537
2130.000000	99.872290
2129.000000	99.874374
2128.000000	99.887252
2127.000000	99.904078
2126.000000	99.911645
2125.000000	99.903137
2124.000000	99.884343
2123.000000	99.865894
2122.000000	99.851678
2121.000000	99.838035
2120.000000	99.822581
2119.000000	99.808375
2118.000000	99.798676
2117.000000	99.792923
2116.000000	99.790647
2115.000000	99.794944
2114.000000	99.807288
2113.000000	99.821277
2112.000000	99.826824
2111.000000	99.820908
2110.000000	99.810740
2109.000000	99.806172
2108.000000	99.811503
2107.000000	99.824135
2106.000000	99.838251
2105.000000	99.849095
2104.000000	99.855837
2103.000000	99.861122
2102.000000	99.866902
2101.000000	99.871439
2100.000000	99.871514
2099.000000	99.866324
2098.000000	99.857866
2097.000000	99.848929
2096.000000	99.841737
2095.000000	99.836435
2094.000000	99.829531
2093.000000	99.816795
2092.000000	99.800750
2091.000000	99.792529
2090.000000	99.801760
2089.000000	99.824386
2088.000000	99.844192
2087.000000	99.848497
2086.000000	99.839527
2085.000000	99.828934
2084.000000	99.823300
2083.000000	99.817490
2082.000000	99.802941
2081.000000	99.779994
2080.000000	99.758953
2079.000000	99.748789
2078.000000	99.748341
2077.000000	99.751259
2076.000000	99.755956
2075.000000	99.765815
2074.000000	99.781079
2073.000000	99.796575
2072.000000	99.808149
2071.000000	99.815286
2070.000000	99.816401
2069.000000	99.809013
2068.000000	99.797517
2067.000000	99.792845
2066.000000	99.798988
2065.000000	99.805378
2064.000000	99.799878
2063.000000	99.786007
2062.000000	99.779037
2061.000000	99.786609
2060.000000	99.798409
2059.000000	99.794874
2058.000000	99.765176
2057.000000	99.720214
2056.000000	99.689399
2055.000000	99.697220
2054.000000	99.737363
2053.000000	99.775616
2052.000000	99.784758
2051.000000	99.770472
2050.000000	99.756987
2049.000000	99.754854
2048.000000	99.754083
2047.000000	99.747413
2046.000000	99.743938
2045.000000	99.753128
2044.000000	99.770056
2043.000000	99.785216
2042.000000	99.798084
2041.000000	99.811697
2040.000000	99.820217
2039.000000	99.812141
2038.000000	99.785288
2037.000000	99.753990
2036.000000	99.739678
2035.000000	99.751515
2034.000000	99.775727
2033.000000	99.787844
2032.000000	99.779939
2031.000000	99.772144
2030.000000	99.791358
2029.000000	99.843098
2028.000000	99.909400
2027.000000	99.969401
2026.000000	100.011892
2025.000000	100.031191
2024.000000	100.027138
2023.000000	100.011889
2022.000000	100.005066
2021.000000	100.014093
2020.000000	100.022301
2019.000000	100.003785
2018.000000	99.952083
2017.000000	99.893633
2016.000000	99.865649
2015.000000	99.877087
2014.000000	99.899564
2013.000000	99.897175
2012.000000	99.862237
2011.000000	99.820677
2010.000000	99.803266
2009.000000	99.816221
2008.000000	99.839339
2007.000000	99.849797
2006.000000	99.843966
2005.000000	99.835314
2004.000000	99.836242
2003.000000	99.845762
2002.000000	99.854552
2001.000000	99.856320
2000.000000	99.850418
1999.000000	99.837556
1998.000000	99.821049
1997.000000	99.813256
1996.000000	99.828411
1995.000000	99.862182
1994.000000	99.887987
1993.000000	99.884419
1992.000000	99.863132
1991.000000	99.853485
1990.000000	99.863132
1989.000000	99.875646
1988.000000	99.880455
1987.000000	99.880472
1986.000000	99.871005
1985.000000	99.836339
1984.000000	99.777235
1983.000000	99.721657
1982.000000	99.695095
1981.000000	99.694680
1980.000000	99.705844
1979.000000	99.732081
1978.000000	99.788250
1977.000000	99.868119
1976.000000	99.940665
1975.000000	99.980261
1974.000000	99.982120
1973.000000	99.953931
1972.000000	99.911032
1971.000000	99.874887
1970.000000	99.864303
1969.000000	99.886892
1968.000000	99.936822
1967.000000	99.994494
1966.000000	100.032520
1965.000000	100.036734
1964.000000	100.021730
1963.000000	100.011548
1962.000000	100.004861
1961.000000	99.973988
1960.000000	99.905024
1959.000000	99.823178
1958.000000	99.766381
1957.000000	99.748911
1956.000000	99.761716
1955.000000	99.794618
1954.000000	99.842194
1953.000000	99.893306
1952.000000	99.930811
1951.000000	99.944450
1950.000000	99.938184
1949.000000	99.925285
1948.000000	99.919571
1947.000000	99.927470
1946.000000	99.943635
1945.000000	99.956793
1944.000000	99.962209
1943.000000	99.963794
1942.000000	99.961182
1941.000000	99.945043
1940.000000	99.913468
1939.000000	99.881964
1938.000000	99.870087
1937.000000	99.882840
1936.000000	99.907720
1935.000000	99.928699
1934.000000	99.938139
1933.000000	99.937219
1932.000000	99.931435
1931.000000	99.925868
1930.000000	99.922575
1929.000000	99.921805
1928.000000	99.926229
1927.000000	99.940043
1926.000000	99.961423
1925.000000	99.980129
1924.000000	99.986020
1923.000000	99.979157
1922.000000	99.966878
1921.000000	99.952872
1920.000000	99.936115
1919.000000	99.917934
1918.000000	99.903332
1917.000000	99.893412
1916.000000	99.883293
1915.000000	99.871451
1914.000000	99.863467
1913.000000	99.865482
1912.000000	99.877670
1911.000000	99.894576
1910.000000	99.910251
1909.000000	99.920768
1908.000000	99.924434
1907.000000	99.921150
1906.000000	99.911616
1905.000000	99.898689
1904.000000	99.889020
1903.000000	99.890572
1902.000000	99.904917
1901.000000	99.922562
1900.000000	99.930671
1899.000000	99.925033
1898.000000	99.911597
1897.000000	99.898886
1896.000000	99.891782
1895.000000	99.891816
1894.000000	99.899358
1893.000000	99.912780
1892.000000	99.927345
1891.000000	99.936198
1890.000000	99.933871
1889.000000	99.922237
1888.000000	99.911120
1887.000000	99.909678
1886.000000	99.918907
1885.000000	99.932702
1884.000000	99.943917
1883.000000	99.948813
1882.000000	99.946695
1881.000000	99.938703
1880.000000	99.929228
1879.000000	99.924460
1878.000000	99.927334
1877.000000	99.936485
1876.000000	99.948961
1875.000000	99.960429
1874.000000	99.964324
1873.000000	99.956900
1872.000000	99.944717
1871.000000	99.941541
1870.000000	99.954608
1869.000000	99.974109
1868.000000	99.982067
1867.000000	99.974475
1866.000000	99.962288
1865.000000	99.954729
1864.000000	99.954706
1863.000000	99.961973
1862.000000	99.971937
1861.000000	99.975455
1860.000000	99.967060
1859.000000	99.952190
1858.000000	99.941059
1857.000000	99.937466
1856.000000	99.938463
1855.000000	99.942156
1854.000000	99.948952
1853.000000	99.955913
1852.000000	99.957757
1851.000000	99.953761
1850.000000	99.948228
1849.000000	99.945913
1848.000000	99.949374
1847.000000	99.959284
1846.000000	99.973822
1845.000000	99.986692
1844.000000	99.990079
1843.000000	99.983914
1842.000000	99.975450
1841.000000	99.968331
1840.000000	99.962393
1839.000000	99.959637
1838.000000	99.963002
1837.000000	99.971362
1836.000000	99.979680
1835.000000	99.985186
1834.000000	99.989533
1833.000000	99.995729
1832.000000	100.005619
1831.000000	100.016723
1830.000000	100.020553
1829.000000	100.010992
1828.000000	99.993701
1827.000000	99.979426
1826.000000	99.972577
1825.000000	99.971231
1824.000000	99.972441
1823.000000	99.974994
1822.000000	99.977756
1821.000000	99.977715
1820.000000	99.973340
1819.000000	99.967754
1818.000000	99.966698
1817.000000	99.973476
1816.000000	99.985865
1815.000000	99.999274
1814.000000	100.010496
1813.000000	100.017594
1812.000000	100.018733
1811.000000	100.011694
1810.000000	99.996819
1809.000000	99.979279
1808.000000	99.965583
1807.000000	99.958503
1806.000000	99.954719
1805.000000	99.947595
1804.000000	99.933844
1803.000000	99.916939
1802.000000	99.902254
1801.000000	99.891017
1800.000000	99.880673
1799.000000	99.869986
1798.000000	99.861260
1797.000000	99.855296
1796.000000	99.848493
1795.000000	99.837332
1794.000000	99.822059
1793.000000	99.808684
1792.000000	99.807694
1791.000000	99.823151
1790.000000	99.848025
1789.000000	99.872695
1788.000000	99.891712
1787.000000	99.905398
1786.000000	99.917088
1785.000000	99.927583
1784.000000	99.934696
1783.000000	99.938502
1782.000000	99.940627
1781.000000	99.940584
1780.000000	99.938060
1779.000000	99.935606
1778.000000	99.937108
1777.000000	99.943089
1776.000000	99.950964
1775.000000	99.959234
1774.000000	99.966865
1773.000000	99.970708
1772.000000	99.968882
1771.000000	99.963949
1770.000000	99.958660
1769.000000	99.952640
1768.000000	99.945307
1767.000000	99.939639
1766.000000	99.939389
1765.000000	99.943889
1764.000000	99.948398
1763.000000	99.947937
1762.000000	99.940110
1761.000000	99.927734
1760.000000	99.916887
1759.000000	99.909989
1758.000000	99.904016
1757.000000	99.894318
1756.000000	99.881607
1755.000000	99.870418
1754.000000	99.860444
1753.000000	99.846320
1752.000000	99.825576
1751.000000	99.803740
1750.000000	99.786483
1749.000000	99.769609
1748.000000	99.747071
1747.000000	99.721593
1746.000000	99.697968
1745.000000	99.675874
1744.000000	99.653015
1743.000000	99.629075
1742.000000	99.604777
1741.000000	99.580277
1740.000000	99.557831
1739.000000	99.543032
1738.000000	99.536200
1737.000000	99.532250
1736.000000	99.528695
1735.000000	99.533288
1734.000000	99.556332
1733.000000	99.588911
1732.000000	99.618966
1731.000000	99.648633
1730.000000	99.678745
1729.000000	99.704428
1728.000000	99.724321
1727.000000	99.743125
1726.000000	99.764205
1725.000000	99.784732
1724.000000	99.801283
1723.000000	99.814897
1722.000000	99.829502
1721.000000	99.844770
1720.000000	99.856521
1719.000000	99.859911
1718.000000	99.854587
1717.000000	99.850303
1716.000000	99.852153
1715.000000	99.854571
1714.000000	99.852903
1713.000000	99.845252
1712.000000	99.833819
1711.000000	99.825730
1710.000000	99.827630
1709.000000	99.839407
1708.000000	99.854861
1707.000000	99.867762
1706.000000	99.876067
1705.000000	99.880311
1704.000000	99.878174
1703.000000	99.867618
1702.000000	99.848483
1701.000000	99.823939
1700.000000	99.802712
1699.000000	99.792887
1698.000000	99.793760
1697.000000	99.797157
1696.000000	99.795756
1695.000000	99.787019
1694.000000	99.777575
1693.000000	99.772753
1692.000000	99.768690
1691.000000	99.762551
1690.000000	99.753965
1689.000000	99.740623
1688.000000	99.720279
1687.000000	99.695183
1686.000000	99.669698
1685.000000	99.648215
1684.000000	99.634447
1683.000000	99.624330
1682.000000	99.612412
1681.000000	99.598447
1680.000000	99.583415
1679.000000	99.569273
1678.000000	99.557111
1677.000000	99.545108
1676.000000	99.534699
1675.000000	99.529786
1674.000000	99.528928
1673.000000	99.526570
1672.000000	99.520792
1671.000000	99.513981
1670.000000	99.511825
1669.000000	99.514272
1668.000000	99.515585
1667.000000	99.514957
1666.000000	99.512936
1665.000000	99.508494
1664.000000	99.502092
1663.000000	99.495827
1662.000000	99.489568
1661.000000	99.479733
1660.000000	99.467597
1659.000000	99.457270
1658.000000	99.451729
1657.000000	99.447241
1656.000000	99.442780
1655.000000	99.439765
1654.000000	99.448550
1653.000000	99.466486
1652.000000	99.468285
1651.000000	99.464319
1650.000000	99.466414
1649.000000	99.463830
1648.000000	99.454154
1647.000000	99.451727
1646.000000	99.463033
1645.000000	99.473633
1644.000000	99.477112
1643.000000	99.477855
1642.000000	99.478110
1641.000000	99.480515
1640.000000	99.486289
1639.000000	99.495557
1638.000000	99.509054
1637.000000	99.529597
1636.000000	99.556684
1635.000000	99.574757
1634.000000	99.572317
1633.000000	99.561562
1632.000000	99.553239
1631.000000	99.549769
1630.000000	99.552628
1629.000000	99.560393
1628.000000	99.571419
1627.000000	99.585025
1626.000000	99.600033
1625.000000	99.614543
1624.000000	99.628665
1623.000000	99.642574
1622.000000	99.651909
1621.000000	99.652571
1620.000000	99.648408
1619.000000	99.646631
1618.000000	99.653148
1617.000000	99.669040
1616.000000	99.688074
1615.000000	99.705201
1614.000000	99.719215
1613.000000	99.727666
1612.000000	99.730781
1611.000000	99.734454
1610.000000	99.742493
1609.000000	99.751805
1608.000000	99.759510
1607.000000	99.768310
1606.000000	99.779050
1605.000000	99.786836
1604.000000	99.788680
1603.000000	99.787195
1602.000000	99.785165
1601.000000	99.781425
1600.000000	99.774823
1599.000000	99.767798
1598.000000	99.762666
1597.000000	99.759122
1596.000000	99.756657
1595.000000	99.755767
1594.000000	99.755235
1593.000000	99.751744
1592.000000	99.744538
1591.000000	99.736263
1590.000000	99.727688
1589.000000	99.716286
1588.000000	99.701671
1587.000000	99.686642
1586.000000	99.670595
1585.000000	99.647981
1584.000000	99.617629
1583.000000	99.586859
1582.000000	99.562237
1581.000000	99.542925
1580.000000	99.525336
1579.000000	99.509372
1578.000000	99.497146
1577.000000	99.491268
1576.000000	99.494086
1575.000000	99.503983
1574.000000	99.514686
1573.000000	99.521598
1572.000000	99.526703
1571.000000	99.537500
1570.000000	99.557734
1569.000000	99.575821
1568.000000	99.582478
1567.000000	99.585019
1566.000000	99.590125
1565.000000	99.594489
1564.000000	99.594745
1563.000000	99.592552
1562.000000	99.590008
1561.000000	99.589308
1560.000000	99.586753
1559.000000	99.580916
1558.000000	99.571746
1557.000000	99.549475
1556.000000	99.524546
1555.000000	99.506483
1554.000000	99.489171
1553.000000	99.470059
1552.000000	99.445138
1551.000000	99.415602
1550.000000	99.382023
1549.000000	99.345795
1548.000000	99.305869
1547.000000	99.260283
1546.000000	99.205186
1545.000000	99.140139
1544.000000	99.073672
1543.000000	99.015567
1542.000000	98.965682
1541.000000	98.923484
1540.000000	98.903037
1539.000000	98.902969
1538.000000	98.901495
1537.000000	98.893954
1536.000000	98.882972
1535.000000	98.870767
1534.000000	98.862362
1533.000000	98.855156
1532.000000	98.842092
1531.000000	98.822252
1530.000000	98.800561
1529.000000	98.777099
1528.000000	98.748080
1527.000000	98.710979
1526.000000	98.667238
1525.000000	98.621634
1524.000000	98.578599
1523.000000	98.537888
1522.000000	98.497675
1521.000000	98.459201
1520.000000	98.423458
1519.000000	98.389262
1518.000000	98.351053
1517.000000	98.304443
1516.000000	98.252624
1515.000000	98.197736
1514.000000	98.137402
1513.000000	98.072507
1512.000000	98.012097
1511.000000	97.963701
1510.000000	97.921812
1509.000000	97.874878
1508.000000	97.821866
1507.000000	97.781960
1506.000000	97.747787
1505.000000	97.692788
1504.000000	97.631731
1503.000000	97.576347
1502.000000	97.520183
1501.000000	97.462069
1500.000000	97.404121
1499.000000	97.349746
1498.000000	97.294521
1497.000000	97.236536
1496.000000	97.182268
1495.000000	97.135625
1494.000000	97.090255
1493.000000	97.038073
1492.000000	96.978700
1491.000000	96.919993
1490.000000	96.869982
1489.000000	96.828044
1488.000000	96.786121
1487.000000	96.739242
1486.000000	96.687554
1485.000000	96.630077
1484.000000	96.567909
1483.000000	96.505635
1482.000000	96.446114
1481.000000	96.389078
1480.000000	96.332651
1479.000000	96.275235
1478.000000	96.214777
1477.000000	96.149261
1476.000000	96.078274
1475.000000	96.003663
1474.000000	95.928250
1473.000000	95.858936
1472.000000	95.801727
1471.000000	95.747971
1470.000000	95.687956
1469.000000	95.623604
1468.000000	95.562380
1467.000000	95.511865
1466.000000	95.475500
1465.000000	95.449493
1464.000000	95.422882
1463.000000	95.384969
1462.000000	95.334901
1461.000000	95.277019
1460.000000	95.216684
1459.000000	95.160687
1458.000000	95.122502
1457.000000	95.114496
1456.000000	95.114832
1455.000000	95.094606
1454.000000	95.054860
1453.000000	95.007780
1452.000000	94.964310
1451.000000	94.927029
1450.000000	94.889618
1449.000000	94.852169
1448.000000	94.823042
1447.000000	94.801892
1446.000000	94.774304
1445.000000	94.733791
1444.000000	94.689877
1443.000000	94.652433
1442.000000	94.620066
1441.000000	94.584039
1440.000000	94.539539
1439.000000	94.490162
1438.000000	94.447247
1437.000000	94.426560
1436.000000	94.425369
1435.000000	94.414815
1434.000000	94.377565
1433.000000	94.322499
1432.000000	94.267025
1431.000000	94.222588
1430.000000	94.186104
1429.000000	94.148776
1428.000000	94.107156
1427.000000	94.061267
1426.000000	94.011479
1425.000000	93.962021
1424.000000	93.919606
1423.000000	93.877242
1422.000000	93.818500
1421.000000	93.743320
1420.000000	93.677620
1419.000000	93.646289
1418.000000	93.629571
1417.000000	93.592268
1416.000000	93.533406
1415.000000	93.466140
1414.000000	93.394705
1413.000000	93.321844
1412.000000	93.257345
1411.000000	93.208106
1410.000000	93.164667
1409.000000	93.114575
1408.000000	93.060460
1407.000000	93.014278
1406.000000	92.982059
1405.000000	92.962278
1404.000000	92.950900
1403.000000	92.937969
1402.000000	92.912848
1401.000000	92.878403
1400.000000	92.851823
1399.000000	92.841196
1398.000000	92.828030
1397.000000	92.797093
1396.000000	92.764896
1395.000000	92.755603
1394.000000	92.761772
1393.000000	92.759302
1392.000000	92.747213
1391.000000	92.738157
1390.000000	92.737128
1389.000000	92.748794
1388.000000	92.788415
1387.000000	92.861833
1386.000000	92.942409
1385.000000	93.003289
1384.000000	93.051926
1383.000000	93.109071
1382.000000	93.179987
1381.000000	93.258140
1380.000000	93.343241
1379.000000	93.437984
1378.000000	93.533623
1377.000000	93.620887
1376.000000	93.710665
1375.000000	93.825256
1374.000000	93.963872
1373.000000	94.096652
1372.000000	94.204107
1371.000000	94.295633
1370.000000	94.388313
1369.000000	94.490589
1368.000000	94.600258
1367.000000	94.706353
1366.000000	94.799681
1365.000000	94.885980
1364.000000	94.984331
1363.000000	95.106940
1362.000000	95.240467
1361.000000	95.362047
1360.000000	95.467726
1359.000000	95.566290
1358.000000	95.661697
1357.000000	95.754191
1356.000000	95.846071
1355.000000	95.937399
1354.000000	96.022573
1353.000000	96.099081
1352.000000	96.172655
1351.000000	96.248527
1350.000000	96.323898
1349.000000	96.392713
1348.000000	96.453796
1347.000000	96.509334
1346.000000	96.560464
1345.000000	96.608393
1344.000000	96.654911
1343.000000	96.698925
1342.000000	96.738120
1341.000000	96.775784
1340.000000	96.819979
1339.000000	96.871267
1338.000000	96.919149
1337.000000	96.957776
1336.000000	96.992678
1335.000000	97.028572
1334.000000	97.063104
1333.000000	97.094470
1332.000000	97.126356
1331.000000	97.161684
1330.000000	97.198022
1329.000000	97.232952
1328.000000	97.267966
1327.000000	97.303712
1326.000000	97.337167
1325.000000	97.366872
1324.000000	97.396126
1323.000000	97.426844
1322.000000	97.455711
1321.000000	97.479849
1320.000000	97.501302
1319.000000	97.522773
1318.000000	97.543740
1317.000000	97.564395
1316.000000	97.587862
1315.000000	97.614923
1314.000000	97.641635
1313.000000	97.665564
1312.000000	97.689596
1311.000000	97.716373
1310.000000	97.743678
1309.000000	97.768601
1308.000000	97.791818
1307.000000	97.815112
1306.000000	97.838253
1305.000000	97.860464
1304.000000	97.882228
1303.000000	97.903280
1302.000000	97.922152
1301.000000	97.939332
1300.000000	97.957671
1299.000000	97.978432
1298.000000	98.000087
1297.000000	98.021498
1296.000000	98.042609
1295.000000	98.061834
1294.000000	98.077077
1293.000000	98.089636
1292.000000	98.102512
1291.000000	98.114517
1290.000000	98.121161
1289.000000	98.122595
1288.000000	98.125375
1287.000000	98.134434
1286.000000	98.147696
1285.000000	98.160765
1284.000000	98.172504
1283.000000	98.183380
1282.000000	98.192289
1281.000000	98.197608
1280.000000	98.199469
1279.000000	98.199875
1278.000000	98.202107
1277.000000	98.209720
1276.000000	98.223399
1275.000000	98.239164
1274.000000	98.252391
1273.000000	98.262874
1272.000000	98.272939
1271.000000	98.281963
1270.000000	98.287285
1269.000000	98.289523
1268.000000	98.291837
1267.000000	98.294439
1266.000000	98.295224
1265.000000	98.295824
1264.000000	98.301175
1263.000000	98.311989
1262.000000	98.322855
1261.000000	98.329163
1260.000000	98.331206
1259.000000	98.330728
1258.000000	98.328555
1257.000000	98.326684
1256.000000	98.327414
1255.000000	98.328989
1254.000000	98.326873
1253.000000	98.320709
1252.000000	98.315427
1251.000000	98.314127
1250.000000	98.314372
1249.000000	98.312952
1248.000000	98.309918
1247.000000	98.306130
1246.000000	98.301199
1245.000000	98.296190
1244.000000	98.294228
1243.000000	98.295940
1242.000000	98.297816
1241.000000	98.297115
1240.000000	98.294694
1239.000000	98.291245
1238.000000	98.284896
1237.000000	98.275110
1236.000000	98.265343
1235.000000	98.259102
1234.000000	98.256323
1233.000000	98.255880
1232.000000	98.258561
1231.000000	98.264772
1230.000000	98.272289
1229.000000	98.279391
1228.000000	98.287796
1227.000000	98.299973
1226.000000	98.315590
1225.000000	98.332763
1224.000000	98.350465
1223.000000	98.367240
1222.000000	98.380123
1221.000000	98.387849
1220.000000	98.393845
1219.000000	98.403479
1218.000000	98.418662
1217.000000	98.436527
1216.000000	98.452522
1215.000000	98.463910
1214.000000	98.471421
1213.000000	98.478418
1212.000000	98.487435
1211.000000	98.497251
1210.000000	98.504678
1209.000000	98.508760
1208.000000	98.511083
1207.000000	98.512295
1206.000000	98.511276
1205.000000	98.508109
1204.000000	98.504736
1203.000000	98.501861
1202.000000	98.497873
1201.000000	98.492010
1200.000000	98.486343
1199.000000	98.483232
1198.000000	98.482590
1197.000000	98.482956
1196.000000	98.483835
1195.000000	98.485967
1194.000000	98.490504
1193.000000	98.498138
1192.000000	98.507724
1191.000000	98.515879
1190.000000	98.519876
1189.000000	98.520704
1188.000000	98.521017
1187.000000	98.520368
1186.000000	98.515355
1185.000000	98.504920
1184.000000	98.492503
1183.000000	98.482345
1182.000000	98.476340
1181.000000	98.474973
1180.000000	98.478108
1179.000000	98.483126
1178.000000	98.485150
1177.000000	98.481578
1176.000000	98.474848
1175.000000	98.469128
1174.000000	98.465789
1173.000000	98.463552
1172.000000	98.461827
1171.000000	98.461893
1170.000000	98.464922
1169.000000	98.470267
1168.000000	98.476096
1167.000000	98.481304
1166.000000	98.486604
1165.000000	98.493333
1164.000000	98.501139
1163.000000	98.507759
1162.000000	98.511809
1161.000000	98.514840
1160.000000	98.519601
1159.000000	98.527270
1158.000000	98.537371
1157.000000	98.549009
1156.000000	98.560862
1155.000000	98.571442
1154.000000	98.581194
1153.000000	98.592908
1152.000000	98.607976
1151.000000	98.623893
1150.000000	98.638018
1149.000000	98.652246
1148.000000	98.670691
1147.000000	98.693602
1146.000000	98.716849
1145.000000	98.736941
1144.000000	98.753577
1143.000000	98.767676
1142.000000	98.779869
1141.000000	98.790926
1140.000000	98.801398
1139.000000	98.811063
1138.000000	98.820415
1137.000000	98.831658
1136.000000	98.846138
1135.000000	98.862166
1134.000000	98.877716
1133.000000	98.893441
1132.000000	98.909954
1131.000000	98.923910
1130.000000	98.930877
1129.000000	98.931388
1128.000000	98.930302
1127.000000	98.930729
1126.000000	98.932079
1125.000000	98.933636
1124.000000	98.936432
1123.000000	98.941342
1122.000000	98.948243
1121.000000	98.957052
1120.000000	98.966778
1119.000000	98.973868
1118.000000	98.974434
1117.000000	98.968312
1116.000000	98.958786
1115.000000	98.949100
1114.000000	98.941620
1113.000000	98.938947
1112.000000	98.942218
1111.000000	98.948634
1110.000000	98.953627
1109.000000	98.955240
1108.000000	98.953965
1107.000000	98.949695
1106.000000	98.942991
1105.000000	98.938484
1104.000000	98.941998
1103.000000	98.953292
1102.000000	98.964846
1101.000000	98.969343
1100.000000	98.965669
1099.000000	98.956977
1098.000000	98.946508
1097.000000	98.935430
1096.000000	98.923625
1095.000000	98.911679
1094.000000	98.902815
1093.000000	98.901009
1092.000000	98.905233
1091.000000	98.907577
1090.000000	98.900250
1089.000000	98.883561
1088.000000	98.863907
1087.000000	98.845468
1086.000000	98.827982
1085.000000	98.811878
1084.000000	98.800916
1083.000000	98.798109
1082.000000	98.801407
1081.000000	98.804504
1080.000000	98.801022
1079.000000	98.789130
1078.000000	98.774387
1077.000000	98.766790
1076.000000	98.771955
1075.000000	98.785883
1074.000000	98.800632
1073.000000	98.813269
1072.000000	98.825604
1071.000000	98.837090
1070.000000	98.843593
1069.000000	98.843412
1068.000000	98.839793
1067.000000	98.836739
1066.000000	98.836096
1065.000000	98.839280
1064.000000	98.847757
1063.000000	98.860079
1062.000000	98.871372
1061.000000	98.877581
1060.000000	98.878697
1059.000000	98.877355
1058.000000	98.876294
1057.000000	98.877288
1056.000000	98.880255
1055.000000	98.882899
1054.000000	98.882897
1053.000000	98.880657
1052.000000	98.878743
1051.000000	98.879169
1050.000000	98.882683
1049.000000	98.889478
1048.000000	98.898443
1047.000000	98.906949
1046.000000	98.913480
1045.000000	98.918824
1044.000000	98.922583
1043.000000	98.921080
1042.000000	98.912165
1041.000000	98.900663
1040.000000	98.895249
1039.000000	98.900353
1038.000000	98.913359
1037.000000	98.928168
1036.000000	98.938651
1035.000000	98.940467
1034.000000	98.933999
1033.000000	98.925209
1032.000000	98.920139
1031.000000	98.918966
1030.000000	98.918193
1029.000000	98.917145
1028.000000	98.918594
1027.000000	98.923711
1026.000000	98.930540
1025.000000	98.937397
1024.000000	98.944206
1023.000000	98.950413
1022.000000	98.954846
1021.000000	98.957781
1020.000000	98.960370
1019.000000	98.962190
1018.000000	98.961744
1017.000000	98.958637
1016.000000	98.953087
1015.000000	98.945094
1014.000000	98.937224
1013.000000	98.936188
1012.000000	98.947144
1011.000000	98.967276
1010.000000	98.988785
1009.000000	99.007561
1008.000000	99.024647
1007.000000	99.039897
1006.000000	99.050032
1005.000000	99.054112
1004.000000	99.056561
1003.000000	99.062464
1002.000000	99.072458
1001.000000	99.083728
1000.000000	99.093915
999.000000	99.103033
998.000000	99.113176
997.000000	99.126762
996.000000	99.143635
995.000000	99.159895
994.000000	99.171304
993.000000	99.177926
992.000000	99.184002
991.000000	99.193709
990.000000	99.207898
989.000000	99.223760
988.000000	99.236708
987.000000	99.244376
986.000000	99.250057
985.000000	99.259763
984.000000	99.274185
983.000000	99.286937
982.000000	99.293316
981.000000	99.296946
980.000000	99.303793
979.000000	99.312901
978.000000	99.318299
977.000000	99.317641
976.000000	99.313676
975.000000	99.309039
974.000000	99.305106
973.000000	99.304705
972.000000	99.309879
971.000000	99.317072
970.000000	99.320241
969.000000	99.319487
968.000000	99.321735
967.000000	99.332158
966.000000	99.349130
965.000000	99.368028
964.000000	99.385363
963.000000	99.398415
962.000000	99.405704
961.000000	99.409791
960.000000	99.416158
959.000000	99.427879
958.000000	99.443871
957.000000	99.462133
956.000000	99.481277
955.000000	99.498888
954.000000	99.512378
953.000000	99.521976
952.000000	99.529703
951.000000	99.535849
950.000000	99.540368
949.000000	99.546847
948.000000	99.559751
947.000000	99.576989
946.000000	99.590301
945.000000	99.594773
944.000000	99.593805
943.000000	99.593721
942.000000	99.597538
941.000000	99.605391
940.000000	99.616658
939.000000	99.629320
938.000000	99.640528
937.000000	99.649879
936.000000	99.659541
935.000000	99.670001
934.000000	99.678650
933.000000	99.683606
932.000000	99.685992
931.000000	99.687475
930.000000	99.688806
929.000000	99.691673
928.000000	99.698580
927.000000	99.709321
926.000000	99.720388
925.000000	99.728938
924.000000	99.734830
923.000000	99.738326
922.000000	99.739008
921.000000	99.738009
920.000000	99.738440
919.000000	99.742626
918.000000	99.751152
917.000000	99.764371
916.000000	99.781438
915.000000	99.798095
914.000000	99.809587
913.000000	99.816377
912.000000	99.822462
911.000000	99.827662
910.000000	99.826822
909.000000	99.818630
908.000000	99.810326
907.000000	99.810365
906.000000	99.819961
905.000000	99.834293
904.000000	99.848669
903.000000	99.860581
902.000000	99.868759
901.000000	99.874008
900.000000	99.880150
899.000000	99.891849
898.000000	99.911569
897.000000	99.937930
896.000000	99.965102
895.000000	99.984907
894.000000	99.993892
893.000000	99.998336
892.000000	100.007805
891.000000	100.023583
890.000000	100.037721
889.000000	100.043500
888.000000	100.040281
887.000000	100.025113
886.000000	99.986027
885.000000	99.906300
884.000000	99.770268
883.000000	99.562823
882.000000	99.266347
881.000000	98.864557
880.000000	98.347207
879.000000	97.712862
878.000000	96.974325
877.000000	96.159204
876.000000	95.299017
875.000000	94.420290
874.000000	93.576692
873.000000	92.907722
872.000000	92.642831
871.000000	92.973829
870.000000	93.878307
869.000000	95.089576
868.000000	96.261583
867.000000	97.172920
866.000000	97.794181
865.000000	98.206178
864.000000	98.492884
863.000000	98.703125
862.000000	98.864395
861.000000	98.995820
860.000000	99.106406
859.000000	99.195053
858.000000	99.260690
857.000000	99.308315
856.000000	99.346709
855.000000	99.384454
854.000000	99.426708
853.000000	99.470787
852.000000	99.503294
851.000000	99.507771
850.000000	99.481184
849.000000	99.443201
848.000000	99.425359
847.000000	99.446663
846.000000	99.498353
845.000000	99.553816
844.000000	99.593136
843.000000	99.616877
842.000000	99.636878
841.000000	99.658714
840.000000	99.677827
839.000000	99.689811
838.000000	99.697763
837.000000	99.707730
836.000000	99.722019
835.000000	99.740150
834.000000	99.762226
833.000000	99.787314
832.000000	99.810966
831.000000	99.828654
830.000000	99.840658
829.000000	99.849895
828.000000	99.856031
827.000000	99.856540
826.000000	99.853339
825.000000	99.853003
824.000000	99.858752
823.000000	99.866352
822.000000	99.870092
821.000000	99.869638
820.000000	99.869037
819.000000	99.871852
818.000000	99.879201
817.000000	99.890081
816.000000	99.901613
815.000000	99.910613
814.000000	99.916465
813.000000	99.921108
812.000000	99.924957
811.000000	99.924737
810.000000	99.917708
809.000000	99.907394
808.000000	99.902915
807.000000	99.911763
806.000000	99.933268
805.000000	99.958715
804.000000	99.977677
803.000000	99.984819
802.000000	99.981417
801.000000	99.971775
800.000000	99.959924
799.000000	99.949508
798.000000	99.943438
797.000000	99.940964
796.000000	99.937097
795.000000	99.928611
794.000000	99.919516
793.000000	99.916942
792.000000	99.922270
791.000000	99.930384
790.000000	99.937848
789.000000	99.947140
788.000000	99.960816
787.000000	99.975326
786.000000	99.983883
785.000000	99.983530
784.000000	99.976280
783.000000	99.964370
782.000000	99.948071
781.000000	99.929339
780.000000	99.915217
779.000000	99.914116
778.000000	99.926702
777.000000	99.941862
776.000000	99.945517
775.000000	99.935119
774.000000	99.922597
773.000000	99.920778
772.000000	99.929659
771.000000	99.939203
770.000000	99.942534
769.000000	99.940890
768.000000	99.936698
767.000000	99.928862
766.000000	99.917380
765.000000	99.907688
764.000000	99.906496
763.000000	99.914976
762.000000	99.928155
761.000000	99.939826
760.000000	99.946927
759.000000	99.950615
758.000000	99.954349
757.000000	99.960299
756.000000	99.967875
755.000000	99.976619
754.000000	99.988279
753.000000	100.003021
752.000000	100.015626
751.000000	100.019854
750.000000	100.015890
749.000000	100.009150
748.000000	100.002065
747.000000	99.992032
746.000000	99.978466
745.000000	99.966966
744.000000	99.964346
743.000000	99.972955
742.000000	99.990379
741.000000	100.010373
740.000000	100.023604
739.000000	100.023173
738.000000	100.011569
737.000000	99.997875
736.000000	99.986612
735.000000	99.973917
734.000000	99.956500
733.000000	99.938190
732.000000	99.924146
731.000000	99.913640
730.000000	99.903095
729.000000	99.892538
728.000000	99.886979
727.000000	99.891283
726.000000	99.902096
725.000000	99.906960
724.000000	99.894015
723.000000	99.862667
722.000000	99.821280
721.000000	99.773626
720.000000	99.711766
719.000000	99.623224
718.000000	99.498101
717.000000	99.324255
716.000000	99.087907
715.000000	98.800651
714.000000	98.527486
713.000000	98.365121
712.000000	98.374206
711.000000	98.532671
710.000000	98.759870
709.000000	98.978316
708.000000	99.150352
707.000000	99.273403
706.000000	99.356994
705.000000	99.411276
704.000000	99.448209
703.000000	99.480033
702.000000	99.514950
701.000000	99.554164
700.000000	99.590675
699.000000	99.616168
698.000000	99.628973
697.000000	99.636666
696.000000	99.651000
695.000000	99.676160
694.000000	99.706297
693.000000	99.731723
692.000000	99.746329
691.000000	99.755621
690.000000	99.771359
689.000000	99.796880
688.000000	99.820905
687.000000	99.829588
686.000000	99.825222
685.000000	99.820447
684.000000	99.816760
683.000000	99.805417
682.000000	99.786264
681.000000	99.769610
680.000000	99.758422
679.000000	99.747192
678.000000	99.738132
677.000000	99.734585
676.000000	99.730875
675.000000	99.722376
674.000000	99.720375
673.000000	99.742681
672.000000	99.793714
671.000000	99.873779
670.000000	99.991677
669.000000	100.145797
668.000000	100.244559
667.000000	100.175634
666.000000	100.019707
665.000000	99.871699
664.000000	99.766217
663.000000	99.717650
662.000000	99.713543
661.000000	99.728542
660.000000	99.744955
659.000000	99.761840
658.000000	99.781085
657.000000	99.794013
656.000000	99.796368
655.000000	99.796569
654.000000	99.797476
653.000000	99.789686
652.000000	99.773359
651.000000	99.764478
650.000000	99.772880
649.000000	99.787988
648.000000	99.796213
647.000000	99.795794
646.000000	99.787575
645.000000	99.771869
644.000000	99.755445
643.000000	99.746499
642.000000	99.743925
641.000000	99.740401
640.000000	99.738378
639.000000	99.750482
638.000000	99.778253
637.000000	99.805617
636.000000	99.819235
635.000000	99.819427
634.000000	99.810223
633.000000	99.792983
632.000000	99.772646
631.000000	99.759924
630.000000	99.761565
629.000000	99.774861
628.000000	99.795751
627.000000	99.822541
626.000000	99.847148
625.000000	99.857449
624.000000	99.849002
623.000000	99.826725
622.000000	99.797399
621.000000	99.768097
620.000000	99.748729
619.000000	99.744042
618.000000	99.744051
617.000000	99.734125
616.000000	99.714920
615.000000	99.700850
614.000000	99.698740
613.000000	99.700645
612.000000	99.699864
611.000000	99.700763
610.000000	99.708780
609.000000	99.722264
608.000000	99.739295
607.000000	99.761725
606.000000	99.784353
605.000000	99.794309
604.000000	99.786465
603.000000	99.771945
602.000000	99.767736
601.000000	99.781286
600.000000	99.806808
599.000000	99.831127
598.000000	99.841059
597.000000	99.831426
596.000000	99.809481
595.000000	99.789335
594.000000	99.779367
593.000000	99.776944
592.000000	99.776193
591.000000	99.775587
590.000000	99.776952
589.000000	99.781346
588.000000	99.786738
587.000000	99.786186
586.000000	99.770550
585.000000	99.740376
584.000000	99.713277
583.000000	99.709449
582.000000	99.728684
581.000000	99.751017
580.000000	99.760893
579.000000	99.761817
578.000000	99.763741
577.000000	99.768130
576.000000	99.770757
575.000000	99.769031
574.000000	99.761767
573.000000	99.749475
572.000000	99.739269
571.000000	99.741127
570.000000	99.753727
569.000000	99.761120
568.000000	99.750708
567.000000	99.725473
566.000000	99.694243
565.000000	99.659720
564.000000	99.623053
563.000000	99.593021
562.000000	99.580609
561.000000	99.589429
560.000000	99.616507
559.000000	99.654101
558.000000	99.686760
557.000000	99.696938
556.000000	99.680216
555.000000	99.650698
554.000000	99.625717
553.000000	99.609455
552.000000	99.596196
551.000000	99.582448
550.000000	99.571524
549.000000	99.571907
548.000000	99.594199
547.000000	99.640722
546.000000	99.691757
545.000000	99.714667
544.000000	99.697702
543.000000	99.663504
542.000000	99.643437
541.000000	99.645907
540.000000	99.654390
539.000000	99.649417
538.000000	99.623968
537.000000	99.584131
536.000000	99.544945
535.000000	99.524310
534.000000	99.532635
533.000000	99.565675
532.000000	99.606315
531.000000	99.632508
530.000000	99.628788
529.000000	99.597922
528.000000	99.559941
527.000000	99.536747
526.000000	99.534869
525.000000	99.544668
524.000000	99.555461
523.000000	99.559914
522.000000	99.548682
521.000000	99.521544
520.000000	99.503101
519.000000	99.525963
518.000000	99.588313
517.000000	99.648154
516.000000	99.675393
515.000000	99.682182
514.000000	99.692107
513.000000	99.708089
512.000000	99.721556
511.000000	99.732140
510.000000	99.742080
509.000000	99.746084
508.000000	99.741943
507.000000	99.743587
506.000000	99.763544
505.000000	99.788735
504.000000	99.794543
503.000000	99.774785
502.000000	99.745248
501.000000	99.717460
500.000000	99.684512
499.000000	99.644001
498.000000	99.616850
497.000000	99.630666
496.000000	99.685185
495.000000	99.742355
494.000000	99.758610
493.000000	99.725438
492.000000	99.674573
491.000000	99.643313
490.000000	99.644416
489.000000	99.676264
488.000000	99.736774
487.000000	99.806323
486.000000	99.835756
485.000000	99.789992
484.000000	99.709162
483.000000	99.680235
482.000000	99.730142
481.000000	99.791276
480.000000	99.786488
479.000000	99.711901
478.000000	99.624531
477.000000	99.578565
476.000000	99.591422
475.000000	99.652308
474.000000	99.730740
473.000000	99.780711
472.000000	99.772063
471.000000	99.723447
470.000000	99.675491
469.000000	99.650075
468.000000	99.653035
467.000000	99.681053
466.000000	99.708964
465.000000	99.702659
464.000000	99.656869
463.000000	99.598112
462.000000	99.545811
461.000000	99.494170
460.000000	99.454722
459.000000	99.483358
458.000000	99.615283
457.000000	99.783521
456.000000	99.889103
455.000000	99.936519
454.000000	99.972180
453.000000	99.988096
452.000000	100.012492
451.000000	100.003565
450.000000	99.987328
