PE IR       SUBTECH     SPECTRUM    ASCII       PEDS        4.00        
   -1
AG10-F002_1.ASC
23/09/08
10:35:38.00
23/09/08
11:14:38.00
uco
Sample 002 By uco Date Friday, September 08 2023
450.000000
#HDR
-1
-1
#GR
cm-1
%T
1.0
0.0
4000.000000
-1.000000
3551
8
99.605840
86.732284
#DATA
4000.000000	99.515205
3999.000000	99.514893
3998.000000	99.513532
3997.000000	99.515498
3996.000000	99.514782
3995.000000	99.514860
3994.000000	99.515162
3993.000000	99.514301
3992.000000	99.511577
3991.000000	99.507992
3990.000000	99.505469
3989.000000	99.505095
3988.000000	99.506439
3987.000000	99.508525
3986.000000	99.510933
3985.000000	99.513668
3984.000000	99.516295
3983.000000	99.517753
3982.000000	99.517295
3981.000000	99.515364
3980.000000	99.513254
3979.000000	99.511884
3978.000000	99.511084
3977.000000	99.510006
3976.000000	99.508031
3975.000000	99.505151
3974.000000	99.501746
3973.000000	99.498393
3972.000000	99.495816
3971.000000	99.494604
3970.000000	99.494554
3969.000000	99.494635
3968.000000	99.494030
3967.000000	99.493138
3966.000000	99.493110
3965.000000	99.494190
3964.000000	99.494982
3963.000000	99.493880
3962.000000	99.491129
3961.000000	99.488921
3960.000000	99.489210
3959.000000	99.492031
3958.000000	99.495740
3957.000000	99.498250
3956.000000	99.497793
3955.000000	99.493349
3954.000000	99.485495
3953.000000	99.476692
3952.000000	99.470081
3951.000000	99.467533
3950.000000	99.468556
3949.000000	99.471121
3948.000000	99.473582
3947.000000	99.475891
3946.000000	99.479323
3945.000000	99.484705
3944.000000	99.491001
3943.000000	99.495792
3942.000000	99.496868
3941.000000	99.493680
3940.000000	99.487777
3939.000000	99.482053
3938.000000	99.479018
3937.000000	99.479509
3936.000000	99.482018
3935.000000	99.483357
3934.000000	99.480997
3933.000000	99.475429
3932.000000	99.470094
3931.000000	99.468016
3930.000000	99.468955
3929.000000	99.470787
3928.000000	99.472268
3927.000000	99.473284
3926.000000	99.473784
3925.000000	99.474052
3924.000000	99.475094
3923.000000	99.477113
3922.000000	99.478502
3921.000000	99.477211
3920.000000	99.473251
3919.000000	99.469695
3918.000000	99.470511
3917.000000	99.476683
3916.000000	99.484507
3915.000000	99.488693
3914.000000	99.486419
3913.000000	99.479206
3912.000000	99.471332
3911.000000	99.467048
3910.000000	99.467835
3909.000000	99.472494
3908.000000	99.478704
3907.000000	99.483940
3906.000000	99.485578
3905.000000	99.482255
3904.000000	99.476390
3903.000000	99.472576
3902.000000	99.472695
3901.000000	99.474896
3900.000000	99.476859
3899.000000	99.478173
3898.000000	99.479420
3897.000000	99.480646
3896.000000	99.481461
3895.000000	99.482038
3894.000000	99.482184
3893.000000	99.480976
3892.000000	99.478024
3891.000000	99.475401
3890.000000	99.475120
3889.000000	99.477483
3888.000000	99.480899
3887.000000	99.482076
3886.000000	99.480463
3885.000000	99.480503
3884.000000	99.484853
3883.000000	99.490425
3882.000000	99.491540
3881.000000	99.485732
3880.000000	99.477034
3879.000000	99.471187
3878.000000	99.470737
3877.000000	99.475843
3876.000000	99.484595
3875.000000	99.493740
3874.000000	99.501317
3873.000000	99.507132
3872.000000	99.509899
3871.000000	99.506727
3870.000000	99.498968
3869.000000	99.493902
3868.000000	99.495881
3867.000000	99.501909
3866.000000	99.504510
3865.000000	99.498337
3864.000000	99.485573
3863.000000	99.473356
3862.000000	99.466779
3861.000000	99.467036
3860.000000	99.471703
3859.000000	99.476687
3858.000000	99.479681
3857.000000	99.482790
3856.000000	99.489755
3855.000000	99.497224
3854.000000	99.496569
3853.000000	99.492109
3852.000000	99.490454
3851.000000	99.489071
3850.000000	99.485660
3849.000000	99.481262
3848.000000	99.478622
3847.000000	99.480224
3846.000000	99.486244
3845.000000	99.494910
3844.000000	99.503503
3843.000000	99.510157
3842.000000	99.514900
3841.000000	99.518861
3840.000000	99.521505
3839.000000	99.521348
3838.000000	99.518365
3837.000000	99.514232
3836.000000	99.510891
3835.000000	99.509408
3834.000000	99.509787
3833.000000	99.511124
3832.000000	99.512189
3831.000000	99.511981
3830.000000	99.510064
3829.000000	99.506688
3828.000000	99.502157
3827.000000	99.497123
3826.000000	99.493422
3825.000000	99.494078
3824.000000	99.500723
3823.000000	99.510036
3822.000000	99.514259
3821.000000	99.511749
3820.000000	99.507801
3819.000000	99.504331
3818.000000	99.499219
3817.000000	99.488870
3816.000000	99.475810
3815.000000	99.468615
3814.000000	99.469991
3813.000000	99.474635
3812.000000	99.477295
3811.000000	99.478049
3810.000000	99.480524
3809.000000	99.486307
3808.000000	99.492197
3807.000000	99.495560
3806.000000	99.498155
3805.000000	99.502882
3804.000000	99.509827
3803.000000	99.514974
3802.000000	99.514661
3801.000000	99.512944
3800.000000	99.513844
3799.000000	99.515660
3798.000000	99.514888
3797.000000	99.509624
3796.000000	99.501695
3795.000000	99.494442
3794.000000	99.489513
3793.000000	99.486509
3792.000000	99.485033
3791.000000	99.485269
3790.000000	99.487196
3789.000000	99.490097
3788.000000	99.492980
3787.000000	99.494818
3786.000000	99.494870
3785.000000	99.493618
3784.000000	99.492844
3783.000000	99.493849
3782.000000	99.495306
3781.000000	99.493741
3780.000000	99.487371
3779.000000	99.479833
3778.000000	99.476136
3777.000000	99.477143
3776.000000	99.479989
3775.000000	99.482050
3774.000000	99.483072
3773.000000	99.484041
3772.000000	99.484547
3771.000000	99.483339
3770.000000	99.481779
3769.000000	99.482931
3768.000000	99.487006
3767.000000	99.491303
3766.000000	99.493707
3765.000000	99.494613
3764.000000	99.495606
3763.000000	99.497364
3762.000000	99.499034
3761.000000	99.499983
3760.000000	99.501598
3759.000000	99.505638
3758.000000	99.509777
3757.000000	99.510469
3756.000000	99.508442
3755.000000	99.507437
3754.000000	99.508434
3753.000000	99.506967
3752.000000	99.497809
3751.000000	99.484070
3750.000000	99.475545
3749.000000	99.475995
3748.000000	99.482900
3747.000000	99.492939
3746.000000	99.500213
3745.000000	99.500013
3744.000000	99.500044
3743.000000	99.507750
3742.000000	99.518295
3741.000000	99.524723
3740.000000	99.525373
3739.000000	99.522980
3738.000000	99.518966
3737.000000	99.511340
3736.000000	99.502533
3735.000000	99.500961
3734.000000	99.507785
3733.000000	99.513777
3732.000000	99.512668
3731.000000	99.506819
3730.000000	99.501397
3729.000000	99.498619
3728.000000	99.497306
3727.000000	99.495812
3726.000000	99.494659
3725.000000	99.494754
3724.000000	99.495331
3723.000000	99.495565
3722.000000	99.496281
3721.000000	99.498893
3720.000000	99.502809
3719.000000	99.505231
3718.000000	99.503361
3717.000000	99.497813
3716.000000	99.493324
3715.000000	99.494655
3714.000000	99.501611
3713.000000	99.508458
3712.000000	99.510386
3711.000000	99.510110
3710.000000	99.512378
3709.000000	99.516722
3708.000000	99.519342
3707.000000	99.517787
3706.000000	99.513049
3705.000000	99.508392
3704.000000	99.506271
3703.000000	99.506608
3702.000000	99.508204
3701.000000	99.510404
3700.000000	99.512821
3699.000000	99.514990
3698.000000	99.516327
3697.000000	99.516480
3696.000000	99.516024
3695.000000	99.515318
3694.000000	99.513678
3693.000000	99.511105
3692.000000	99.509250
3691.000000	99.509603
3690.000000	99.510876
3689.000000	99.510879
3688.000000	99.509580
3687.000000	99.509010
3686.000000	99.510753
3685.000000	99.513172
3684.000000	99.513430
3683.000000	99.511322
3682.000000	99.509319
3681.000000	99.508903
3680.000000	99.509631
3679.000000	99.511422
3678.000000	99.514794
3677.000000	99.517365
3676.000000	99.517364
3675.000000	99.519040
3674.000000	99.521413
3673.000000	99.520372
3672.000000	99.514501
3671.000000	99.503420
3670.000000	99.492726
3669.000000	99.491157
3668.000000	99.497284
3667.000000	99.503724
3666.000000	99.506282
3665.000000	99.504744
3664.000000	99.501311
3663.000000	99.498496
3662.000000	99.497153
3661.000000	99.496750
3660.000000	99.497493
3659.000000	99.500025
3658.000000	99.503140
3657.000000	99.503203
3656.000000	99.498466
3655.000000	99.490729
3654.000000	99.483337
3653.000000	99.479221
3652.000000	99.479293
3651.000000	99.482485
3650.000000	99.488164
3649.000000	99.495370
3648.000000	99.498765
3647.000000	99.494771
3646.000000	99.486198
3645.000000	99.477527
3644.000000	99.470813
3643.000000	99.465969
3642.000000	99.462140
3641.000000	99.458591
3640.000000	99.454813
3639.000000	99.450668
3638.000000	99.447117
3637.000000	99.445524
3636.000000	99.445525
3635.000000	99.444232
3634.000000	99.439282
3633.000000	99.432476
3632.000000	99.428631
3631.000000	99.429819
3630.000000	99.431605
3629.000000	99.431238
3628.000000	99.431789
3627.000000	99.433045
3626.000000	99.433570
3625.000000	99.433566
3624.000000	99.434194
3623.000000	99.436945
3622.000000	99.442119
3621.000000	99.447538
3620.000000	99.450362
3619.000000	99.450147
3618.000000	99.447651
3617.000000	99.442981
3616.000000	99.437051
3615.000000	99.430942
3614.000000	99.424791
3613.000000	99.418294
3612.000000	99.411487
3611.000000	99.405128
3610.000000	99.400365
3609.000000	99.398587
3608.000000	99.400994
3607.000000	99.406232
3606.000000	99.410126
3605.000000	99.409249
3604.000000	99.403436
3603.000000	99.394787
3602.000000	99.386034
3601.000000	99.379307
3600.000000	99.375731
3599.000000	99.374766
3598.000000	99.374327
3597.000000	99.371685
3596.000000	99.365429
3595.000000	99.357174
3594.000000	99.351480
3593.000000	99.351887
3592.000000	99.357512
3591.000000	99.364386
3590.000000	99.368013
3589.000000	99.365617
3588.000000	99.359273
3587.000000	99.354791
3586.000000	99.353480
3585.000000	99.352069
3584.000000	99.349243
3583.000000	99.346078
3582.000000	99.343096
3581.000000	99.338950
3580.000000	99.332237
3579.000000	99.323810
3578.000000	99.316462
3577.000000	99.312209
3576.000000	99.310422
3575.000000	99.308980
3574.000000	99.306599
3573.000000	99.303900
3572.000000	99.302177
3571.000000	99.301840
3570.000000	99.301670
3569.000000	99.299297
3568.000000	99.294269
3567.000000	99.289942
3566.000000	99.287926
3565.000000	99.284592
3564.000000	99.277596
3563.000000	99.269227
3562.000000	99.263641
3561.000000	99.263379
3560.000000	99.267640
3559.000000	99.273151
3558.000000	99.276736
3557.000000	99.277075
3556.000000	99.274488
3555.000000	99.269696
3554.000000	99.263133
3553.000000	99.255670
3552.000000	99.249042
3551.000000	99.244284
3550.000000	99.240249
3549.000000	99.234516
3548.000000	99.225799
3547.000000	99.216026
3546.000000	99.209745
3545.000000	99.210399
3544.000000	99.217053
3543.000000	99.225069
3542.000000	99.229209
3541.000000	99.227040
3540.000000	99.220513
3539.000000	99.214295
3538.000000	99.211652
3537.000000	99.211550
3536.000000	99.210358
3535.000000	99.206151
3534.000000	99.200755
3533.000000	99.197304
3532.000000	99.196886
3531.000000	99.197739
3530.000000	99.197305
3529.000000	99.194769
3528.000000	99.191417
3527.000000	99.188489
3526.000000	99.185471
3525.000000	99.181159
3524.000000	99.175544
3523.000000	99.169711
3522.000000	99.164218
3521.000000	99.158978
3520.000000	99.154729
3519.000000	99.152914
3518.000000	99.153602
3517.000000	99.154324
3516.000000	99.152254
3515.000000	99.147049
3514.000000	99.140827
3513.000000	99.135536
3512.000000	99.131496
3511.000000	99.128581
3510.000000	99.127654
3509.000000	99.129489
3508.000000	99.132729
3507.000000	99.134200
3506.000000	99.131587
3505.000000	99.125326
3504.000000	99.118658
3503.000000	99.115449
3502.000000	99.116949
3501.000000	99.120621
3500.000000	99.122257
3499.000000	99.119198
3498.000000	99.112388
3497.000000	99.106190
3496.000000	99.104958
3495.000000	99.108685
3494.000000	99.112389
3493.000000	99.110644
3492.000000	99.102459
3491.000000	99.091446
3490.000000	99.082165
3489.000000	99.077000
3488.000000	99.076023
3487.000000	99.078132
3486.000000	99.081412
3485.000000	99.083269
3484.000000	99.081630
3483.000000	99.076561
3482.000000	99.070523
3481.000000	99.066352
3480.000000	99.064911
3479.000000	99.064790
3478.000000	99.064041
3477.000000	99.061793
3476.000000	99.058337
3475.000000	99.054136
3474.000000	99.049162
3473.000000	99.043469
3472.000000	99.037989
3471.000000	99.034148
3470.000000	99.032540
3469.000000	99.032346
3468.000000	99.032148
3467.000000	99.031245
3466.000000	99.030160
3465.000000	99.030016
3464.000000	99.031517
3463.000000	99.034339
3462.000000	99.037470
3461.000000	99.039974
3460.000000	99.041178
3459.000000	99.040029
3458.000000	99.035044
3457.000000	99.025746
3456.000000	99.014306
3455.000000	99.004814
3454.000000	99.000407
3453.000000	99.001190
3452.000000	99.004894
3451.000000	99.008752
3450.000000	99.010583
3449.000000	99.009201
3448.000000	99.005108
3447.000000	99.000507
3446.000000	98.997276
3445.000000	98.995147
3444.000000	98.992678
3443.000000	98.989411
3442.000000	98.986239
3441.000000	98.983865
3440.000000	98.981771
3439.000000	98.978801
3438.000000	98.974189
3437.000000	98.967999
3436.000000	98.961352
3435.000000	98.956230
3434.000000	98.954302
3433.000000	98.955369
3432.000000	98.957455
3431.000000	98.958717
3430.000000	98.958954
3429.000000	98.959295
3428.000000	98.960864
3427.000000	98.963988
3426.000000	98.968029
3425.000000	98.971447
3424.000000	98.972288
3423.000000	98.969280
3422.000000	98.962899
3421.000000	98.955331
3420.000000	98.948933
3419.000000	98.944405
3418.000000	98.940563
3417.000000	98.935958
3416.000000	98.930568
3415.000000	98.925783
3414.000000	98.922719
3413.000000	98.920862
3412.000000	98.918637
3411.000000	98.915197
3410.000000	98.911462
3409.000000	98.909519
3408.000000	98.911018
3407.000000	98.915899
3406.000000	98.922345
3405.000000	98.927910
3404.000000	98.930818
3403.000000	98.930318
3402.000000	98.926286
3401.000000	98.919171
3400.000000	98.910484
3399.000000	98.902735
3398.000000	98.898188
3397.000000	98.897328
3396.000000	98.898632
3395.000000	98.899959
3394.000000	98.900178
3393.000000	98.899508
3392.000000	98.898375
3391.000000	98.896202
3390.000000	98.891819
3389.000000	98.885193
3388.000000	98.878161
3387.000000	98.872830
3386.000000	98.869348
3385.000000	98.865858
3384.000000	98.860851
3383.000000	98.854967
3382.000000	98.850224
3381.000000	98.847944
3380.000000	98.847760
3379.000000	98.848315
3378.000000	98.848402
3377.000000	98.847494
3376.000000	98.845573
3375.000000	98.842848
3374.000000	98.839757
3373.000000	98.837015
3372.000000	98.835121
3371.000000	98.833574
3370.000000	98.830940
3369.000000	98.826236
3368.000000	98.820226
3367.000000	98.814918
3366.000000	98.811638
3365.000000	98.809973
3364.000000	98.808717
3363.000000	98.807447
3362.000000	98.806838
3361.000000	98.807558
3360.000000	98.808993
3359.000000	98.809101
3358.000000	98.805786
3357.000000	98.798815
3356.000000	98.790393
3355.000000	98.783502
3354.000000	98.779603
3353.000000	98.778175
3352.000000	98.778184
3351.000000	98.779161
3350.000000	98.780613
3349.000000	98.781206
3348.000000	98.779273
3347.000000	98.774162
3346.000000	98.766945
3345.000000	98.759949
3344.000000	98.755450
3343.000000	98.754047
3342.000000	98.753751
3341.000000	98.751149
3340.000000	98.744379
3339.000000	98.735299
3338.000000	98.728476
3337.000000	98.727534
3336.000000	98.731976
3335.000000	98.737291
3334.000000	98.738427
3333.000000	98.733783
3332.000000	98.726157
3331.000000	98.719773
3330.000000	98.716379
3329.000000	98.714400
3328.000000	98.711695
3327.000000	98.708324
3326.000000	98.706264
3325.000000	98.706908
3324.000000	98.709527
3323.000000	98.712055
3322.000000	98.712932
3321.000000	98.712365
3320.000000	98.712052
3319.000000	98.713358
3318.000000	98.715389
3317.000000	98.715250
3316.000000	98.710833
3315.000000	98.703187
3314.000000	98.695471
3313.000000	98.689623
3312.000000	98.684933
3311.000000	98.680073
3310.000000	98.675636
3309.000000	98.673710
3308.000000	98.674960
3307.000000	98.677089
3306.000000	98.676731
3305.000000	98.672511
3304.000000	98.665774
3303.000000	98.658542
3302.000000	98.651474
3301.000000	98.644193
3300.000000	98.636996
3299.000000	98.631323
3298.000000	98.628528
3297.000000	98.628829
3296.000000	98.631468
3295.000000	98.635225
3294.000000	98.638596
3293.000000	98.640361
3292.000000	98.640591
3291.000000	98.640444
3290.000000	98.640264
3289.000000	98.638435
3288.000000	98.633231
3287.000000	98.625761
3286.000000	98.619927
3285.000000	98.618867
3284.000000	98.621905
3283.000000	98.625393
3282.000000	98.626324
3281.000000	98.624744
3280.000000	98.622842
3279.000000	98.622472
3278.000000	98.623844
3277.000000	98.625995
3276.000000	98.627697
3275.000000	98.627677
3274.000000	98.624774
3273.000000	98.618921
3272.000000	98.612154
3271.000000	98.607855
3270.000000	98.608160
3269.000000	98.612014
3268.000000	98.616072
3267.000000	98.617621
3266.000000	98.616809
3265.000000	98.616393
3264.000000	98.619415
3263.000000	98.626979
3262.000000	98.637709
3261.000000	98.648924
3260.000000	98.658076
3259.000000	98.663245
3258.000000	98.663084
3257.000000	98.657386
3256.000000	98.648141
3255.000000	98.639430
3254.000000	98.635374
3253.000000	98.637765
3252.000000	98.645550
3251.000000	98.656055
3250.000000	98.666385
3249.000000	98.674211
3248.000000	98.678320
3247.000000	98.679014
3246.000000	98.677776
3245.000000	98.676201
3244.000000	98.674955
3243.000000	98.673599
3242.000000	98.671352
3241.000000	98.668327
3240.000000	98.666278
3239.000000	98.667773
3238.000000	98.673888
3237.000000	98.682547
3236.000000	98.689672
3235.000000	98.692459
3234.000000	98.691339
3233.000000	98.688686
3232.000000	98.686284
3231.000000	98.684570
3230.000000	98.683806
3229.000000	98.684718
3228.000000	98.687509
3227.000000	98.690946
3226.000000	98.693235
3225.000000	98.693708
3224.000000	98.693288
3223.000000	98.693439
3222.000000	98.694979
3221.000000	98.697699
3220.000000	98.700364
3219.000000	98.701107
3218.000000	98.698750
3217.000000	98.694381
3216.000000	98.691230
3215.000000	98.692141
3214.000000	98.696753
3213.000000	98.701633
3212.000000	98.703429
3211.000000	98.701860
3210.000000	98.699597
3209.000000	98.699624
3208.000000	98.702956
3207.000000	98.708380
3206.000000	98.713775
3205.000000	98.717514
3204.000000	98.719216
3203.000000	98.719742
3202.000000	98.720458
3201.000000	98.722223
3200.000000	98.724849
3199.000000	98.727415
3198.000000	98.728919
3197.000000	98.728538
3196.000000	98.725757
3195.000000	98.720913
3194.000000	98.715747
3193.000000	98.712812
3192.000000	98.713644
3191.000000	98.717400
3190.000000	98.721565
3189.000000	98.724091
3188.000000	98.724853
3187.000000	98.725240
3186.000000	98.726689
3185.000000	98.729503
3184.000000	98.732786
3183.000000	98.735391
3182.000000	98.736994
3181.000000	98.738168
3180.000000	98.739398
3179.000000	98.740474
3178.000000	98.741125
3177.000000	98.741808
3176.000000	98.743117
3175.000000	98.744600
3174.000000	98.745161
3173.000000	98.744821
3172.000000	98.745142
3171.000000	98.747211
3170.000000	98.749964
3169.000000	98.751499
3168.000000	98.751785
3167.000000	98.753008
3166.000000	98.757003
3165.000000	98.763025
3164.000000	98.768493
3163.000000	98.771553
3162.000000	98.772593
3161.000000	98.773362
3160.000000	98.774914
3159.000000	98.776530
3158.000000	98.776766
3157.000000	98.775549
3156.000000	98.774811
3155.000000	98.776599
3154.000000	98.780886
3153.000000	98.785904
3152.000000	98.790549
3151.000000	98.795487
3150.000000	98.801392
3149.000000	98.806905
3148.000000	98.809372
3147.000000	98.807561
3146.000000	98.803012
3145.000000	98.798611
3144.000000	98.796343
3143.000000	98.796426
3142.000000	98.798047
3141.000000	98.800446
3140.000000	98.803540
3139.000000	98.807883
3138.000000	98.813966
3137.000000	98.821141
3136.000000	98.827172
3135.000000	98.829412
3134.000000	98.827106
3133.000000	98.822657
3132.000000	98.820177
3131.000000	98.822428
3130.000000	98.829033
3129.000000	98.837300
3128.000000	98.844358
3127.000000	98.848644
3126.000000	98.850035
3125.000000	98.849155
3124.000000	98.846756
3123.000000	98.843594
3122.000000	98.840598
3121.000000	98.838728
3120.000000	98.838338
3119.000000	98.838757
3118.000000	98.839021
3117.000000	98.839166
3116.000000	98.840312
3115.000000	98.843078
3114.000000	98.846355
3113.000000	98.848228
3112.000000	98.847970
3111.000000	98.846661
3110.000000	98.845965
3109.000000	98.846800
3108.000000	98.849148
3107.000000	98.852360
3106.000000	98.855132
3105.000000	98.855758
3104.000000	98.853219
3103.000000	98.848237
3102.000000	98.843000
3101.000000	98.839682
3100.000000	98.838982
3099.000000	98.839784
3098.000000	98.840146
3097.000000	98.838973
3096.000000	98.837033
3095.000000	98.836362
3094.000000	98.838524
3093.000000	98.843441
3092.000000	98.849588
3091.000000	98.854807
3090.000000	98.857037
3089.000000	98.855173
3088.000000	98.850014
3087.000000	98.844159
3086.000000	98.840397
3085.000000	98.839992
3084.000000	98.842489
3083.000000	98.846611
3082.000000	98.850788
3081.000000	98.853144
3080.000000	98.852187
3079.000000	98.848332
3078.000000	98.844399
3077.000000	98.843598
3076.000000	98.846428
3075.000000	98.849645
3074.000000	98.848820
3073.000000	98.842468
3072.000000	98.833860
3071.000000	98.828579
3070.000000	98.829927
3069.000000	98.836326
3068.000000	98.842946
3067.000000	98.845809
3066.000000	98.844732
3065.000000	98.842804
3064.000000	98.843157
3063.000000	98.846232
3062.000000	98.849919
3061.000000	98.851951
3060.000000	98.851706
3059.000000	98.849855
3058.000000	98.847205
3057.000000	98.844478
3056.000000	98.842653
3055.000000	98.842504
3054.000000	98.843763
3053.000000	98.845510
3052.000000	98.847366
3051.000000	98.849537
3050.000000	98.851638
3049.000000	98.852605
3048.000000	98.852341
3047.000000	98.852501
3046.000000	98.854577
3045.000000	98.857533
3044.000000	98.858434
3043.000000	98.855685
3042.000000	98.851045
3041.000000	98.848148
3040.000000	98.849427
3039.000000	98.854648
3038.000000	98.861763
3037.000000	98.868346
3036.000000	98.872288
3035.000000	98.872228
3034.000000	98.868383
3033.000000	98.862894
3032.000000	98.858441
3031.000000	98.856039
3030.000000	98.854705
3029.000000	98.853647
3028.000000	98.853830
3027.000000	98.856269
3026.000000	98.859249
3025.000000	98.858892
3024.000000	98.853266
3023.000000	98.845053
3022.000000	98.839239
3021.000000	98.838624
3020.000000	98.842172
3019.000000	98.846988
3018.000000	98.850571
3017.000000	98.851195
3016.000000	98.847712
3015.000000	98.840326
3014.000000	98.831443
3013.000000	98.824769
3012.000000	98.822738
3011.000000	98.824325
3010.000000	98.825326
3009.000000	98.821139
3008.000000	98.810020
3007.000000	98.794425
3006.000000	98.779360
3005.000000	98.768897
3004.000000	98.763518
3003.000000	98.760499
3002.000000	98.757054
3001.000000	98.753096
3000.000000	98.750694
2999.000000	98.750958
2998.000000	98.752017
2997.000000	98.750567
2996.000000	98.745005
2995.000000	98.736430
2994.000000	98.726588
2993.000000	98.715567
2992.000000	98.701800
2991.000000	98.683883
2990.000000	98.662174
2989.000000	98.639018
2988.000000	98.617703
2987.000000	98.600517
2986.000000	98.586930
2985.000000	98.573483
2984.000000	98.555841
2983.000000	98.531626
2982.000000	98.501788
2981.000000	98.469734
2980.000000	98.439097
2979.000000	98.411764
2978.000000	98.387223
2977.000000	98.363432
2976.000000	98.338146
2975.000000	98.309492
2974.000000	98.275763
2973.000000	98.235755
2972.000000	98.190109
2971.000000	98.141866
2970.000000	98.094630
2969.000000	98.049621
2968.000000	98.004970
2967.000000	97.958076
2966.000000	97.908199
2965.000000	97.856548
2964.000000	97.804670
2963.000000	97.753715
2962.000000	97.704766
2961.000000	97.658559
2960.000000	97.614669
2959.000000	97.572080
2958.000000	97.531241
2957.000000	97.494637
2956.000000	97.464665
2955.000000	97.441543
2954.000000	97.424041
2953.000000	97.411564
2952.000000	97.404225
2951.000000	97.401164
2950.000000	97.399702
2949.000000	97.396250
2948.000000	97.387301
2947.000000	97.369916
2946.000000	97.342498
2945.000000	97.305229
2944.000000	97.259049
2943.000000	97.203806
2942.000000	97.138258
2941.000000	97.061825
2940.000000	96.975467
2939.000000	96.880767
2938.000000	96.779047
2937.000000	96.671669
2936.000000	96.559629
2935.000000	96.442354
2934.000000	96.318304
2933.000000	96.187816
2932.000000	96.054441
2931.000000	95.922106
2930.000000	95.791879
2929.000000	95.662753
2928.000000	95.535356
2927.000000	95.413902
2926.000000	95.304697
2925.000000	95.213938
2924.000000	95.146149
2923.000000	95.103553
2922.000000	95.086377
2921.000000	95.094466
2920.000000	95.128807
2919.000000	95.190505
2918.000000	95.278561
2917.000000	95.389081
2916.000000	95.517078
2915.000000	95.658315
2914.000000	95.808962
2913.000000	95.964116
2912.000000	96.116969
2911.000000	96.260038
2910.000000	96.387472
2909.000000	96.497290
2908.000000	96.591903
2907.000000	96.675826
2906.000000	96.752364
2905.000000	96.822305
2904.000000	96.885798
2903.000000	96.944321
2902.000000	97.000072
2901.000000	97.053567
2900.000000	97.103507
2899.000000	97.149471
2898.000000	97.193708
2897.000000	97.239514
2896.000000	97.287867
2895.000000	97.336319
2894.000000	97.381274
2893.000000	97.420962
2892.000000	97.456302
2891.000000	97.489713
2890.000000	97.523538
2889.000000	97.558971
2888.000000	97.595402
2887.000000	97.630557
2886.000000	97.661972
2885.000000	97.688677
2884.000000	97.711272
2883.000000	97.730335
2882.000000	97.745341
2881.000000	97.755355
2880.000000	97.760123
2879.000000	97.759915
2878.000000	97.754738
2877.000000	97.744403
2876.000000	97.729253
2875.000000	97.710311
2874.000000	97.688759
2873.000000	97.665645
2872.000000	97.642262
2871.000000	97.620458
2870.000000	97.602219
2869.000000	97.588386
2868.000000	97.577241
2867.000000	97.564287
2866.000000	97.544139
2865.000000	97.513320
2864.000000	97.470857
2863.000000	97.416185
2862.000000	97.347257
2861.000000	97.261621
2860.000000	97.158970
2859.000000	97.041807
2858.000000	96.914136
2857.000000	96.780987
2856.000000	96.649516
2855.000000	96.529203
2854.000000	96.430433
2853.000000	96.362459
2852.000000	96.332426
2851.000000	96.345361
2850.000000	96.403450
2849.000000	96.504665
2848.000000	96.641801
2847.000000	96.803347
2846.000000	96.976441
2845.000000	97.150243
2844.000000	97.316938
2843.000000	97.471016
2842.000000	97.608862
2841.000000	97.729365
2840.000000	97.834106
2839.000000	97.925310
2838.000000	98.003980
2837.000000	98.070817
2836.000000	98.128246
2835.000000	98.179890
2834.000000	98.227775
2833.000000	98.271261
2832.000000	98.309116
2831.000000	98.341468
2830.000000	98.369163
2829.000000	98.392599
2828.000000	98.412183
2827.000000	98.429158
2826.000000	98.444977
2825.000000	98.460185
2824.000000	98.474826
2823.000000	98.489616
2822.000000	98.505822
2821.000000	98.523815
2820.000000	98.542146
2819.000000	98.558262
2818.000000	98.570281
2817.000000	98.578583
2816.000000	98.585904
2815.000000	98.595277
2814.000000	98.607191
2813.000000	98.618897
2812.000000	98.626920
2811.000000	98.630300
2810.000000	98.631264
2809.000000	98.633057
2808.000000	98.637428
2807.000000	98.644010
2806.000000	98.651533
2805.000000	98.659315
2804.000000	98.667545
2803.000000	98.676272
2802.000000	98.684587
2801.000000	98.691242
2800.000000	98.695853
2799.000000	98.699003
2798.000000	98.701443
2797.000000	98.703961
2796.000000	98.707864
2795.000000	98.714298
2794.000000	98.722640
2793.000000	98.730638
2792.000000	98.736891
2791.000000	98.742363
2790.000000	98.748581
2789.000000	98.755068
2788.000000	98.759843
2787.000000	98.762127
2786.000000	98.763222
2785.000000	98.764526
2784.000000	98.765824
2783.000000	98.766047
2782.000000	98.764911
2781.000000	98.763146
2780.000000	98.761638
2779.000000	98.761071
2778.000000	98.762166
2777.000000	98.765420
2776.000000	98.770370
2775.000000	98.775655
2774.000000	98.780264
2773.000000	98.784552
2772.000000	98.789631
2771.000000	98.795794
2770.000000	98.802041
2769.000000	98.807296
2768.000000	98.811524
2767.000000	98.815184
2766.000000	98.818031
2765.000000	98.819277
2764.000000	98.819011
2763.000000	98.818779
2762.000000	98.820268
2761.000000	98.823601
2760.000000	98.827283
2759.000000	98.829868
2758.000000	98.831546
2757.000000	98.833915
2756.000000	98.838018
2755.000000	98.842777
2754.000000	98.845848
2753.000000	98.846124
2752.000000	98.844765
2751.000000	98.843424
2750.000000	98.842201
2749.000000	98.840222
2748.000000	98.837742
2747.000000	98.836449
2746.000000	98.837486
2745.000000	98.840045
2744.000000	98.842272
2743.000000	98.843025
2742.000000	98.842529
2741.000000	98.841780
2740.000000	98.841547
2739.000000	98.841684
2738.000000	98.841411
2737.000000	98.840573
2736.000000	98.840295
2735.000000	98.841735
2734.000000	98.844473
2733.000000	98.847071
2732.000000	98.849118
2731.000000	98.851510
2730.000000	98.854422
2729.000000	98.856300
2728.000000	98.855762
2727.000000	98.853768
2726.000000	98.852970
2725.000000	98.855169
2724.000000	98.859948
2723.000000	98.865436
2722.000000	98.869776
2721.000000	98.871981
2720.000000	98.871952
2719.000000	98.869983
2718.000000	98.866612
2717.000000	98.863224
2716.000000	98.862082
2715.000000	98.864523
2714.000000	98.869102
2713.000000	98.872789
2712.000000	98.874385
2711.000000	98.875493
2710.000000	98.877557
2709.000000	98.879492
2708.000000	98.879564
2707.000000	98.878542
2706.000000	98.879212
2705.000000	98.882925
2704.000000	98.888043
2703.000000	98.891902
2702.000000	98.893301
2701.000000	98.893001
2700.000000	98.892724
2699.000000	98.893858
2698.000000	98.896350
2697.000000	98.898581
2696.000000	98.898846
2695.000000	98.897145
2694.000000	98.895063
2693.000000	98.893975
2692.000000	98.893906
2691.000000	98.894035
2690.000000	98.893637
2689.000000	98.892411
2688.000000	98.890567
2687.000000	98.888900
2686.000000	98.888360
2685.000000	98.889284
2684.000000	98.891174
2683.000000	98.893110
2682.000000	98.894096
2681.000000	98.893333
2680.000000	98.890934
2679.000000	98.888360
2678.000000	98.887338
2677.000000	98.888048
2676.000000	98.889042
2675.000000	98.889249
2674.000000	98.889452
2673.000000	98.891322
2672.000000	98.895411
2671.000000	98.900517
2670.000000	98.904640
2669.000000	98.906110
2668.000000	98.904261
2667.000000	98.899847
2666.000000	98.894737
2665.000000	98.890568
2664.000000	98.887515
2663.000000	98.884747
2662.000000	98.882031
2661.000000	98.880132
2660.000000	98.879347
2659.000000	98.878484
2658.000000	98.876304
2657.000000	98.873881
2656.000000	98.874554
2655.000000	98.880902
2654.000000	98.892063
2653.000000	98.904480
2652.000000	98.914863
2651.000000	98.921983
2650.000000	98.926131
2649.000000	98.928060
2648.000000	98.928879
2647.000000	98.929982
2646.000000	98.932016
2645.000000	98.934092
2644.000000	98.934833
2643.000000	98.934223
2642.000000	98.933759
2641.000000	98.934599
2640.000000	98.936266
2639.000000	98.937661
2638.000000	98.938768
2637.000000	98.940512
2636.000000	98.943113
2635.000000	98.945599
2634.000000	98.947347
2633.000000	98.949340
2632.000000	98.953109
2631.000000	98.958646
2630.000000	98.964119
2629.000000	98.967723
2628.000000	98.969288
2627.000000	98.969997
2626.000000	98.971000
2625.000000	98.972523
2624.000000	98.974017
2623.000000	98.975018
2622.000000	98.976068
2621.000000	98.978682
2620.000000	98.983816
2619.000000	98.990192
2618.000000	98.994569
2617.000000	98.994003
2616.000000	98.987927
2615.000000	98.978531
2614.000000	98.969928
2613.000000	98.966420
2612.000000	98.969728
2611.000000	98.976916
2610.000000	98.982122
2609.000000	98.981532
2608.000000	98.976522
2607.000000	98.971512
2606.000000	98.969573
2605.000000	98.970863
2604.000000	98.974128
2603.000000	98.978172
2602.000000	98.982174
2601.000000	98.985999
2600.000000	98.990460
2599.000000	98.996370
2598.000000	99.003177
2597.000000	99.009136
2596.000000	99.012903
2595.000000	99.014544
2594.000000	99.015191
2593.000000	99.016077
2592.000000	99.017614
2591.000000	99.019075
2590.000000	99.019517
2589.000000	99.019186
2588.000000	99.019267
2587.000000	99.020056
2586.000000	99.020652
2585.000000	99.021022
2584.000000	99.022930
2583.000000	99.027706
2582.000000	99.034303
2581.000000	99.040630
2580.000000	99.045433
2579.000000	99.047722
2578.000000	99.046231
2577.000000	99.041579
2576.000000	99.037485
2575.000000	99.037337
2574.000000	99.040434
2573.000000	99.043755
2572.000000	99.046029
2571.000000	99.047360
2570.000000	99.046431
2569.000000	99.042243
2568.000000	99.038382
2567.000000	99.041056
2566.000000	99.051565
2565.000000	99.064028
2564.000000	99.072058
2563.000000	99.074953
2562.000000	99.075904
2561.000000	99.077129
2560.000000	99.078686
2559.000000	99.079718
2558.000000	99.078624
2557.000000	99.073839
2556.000000	99.066585
2555.000000	99.061351
2554.000000	99.061599
2553.000000	99.066015
2552.000000	99.070530
2551.000000	99.072759
2550.000000	99.072905
2549.000000	99.071453
2548.000000	99.068041
2547.000000	99.062223
2546.000000	99.054189
2545.000000	99.045362
2544.000000	99.038991
2543.000000	99.038709
2542.000000	99.044957
2541.000000	99.053519
2540.000000	99.058884
2539.000000	99.058534
2538.000000	99.053310
2537.000000	99.045109
2536.000000	99.035802
2535.000000	99.027346
2534.000000	99.020921
2533.000000	99.016028
2532.000000	99.011581
2531.000000	99.007645
2530.000000	99.005088
2529.000000	99.003873
2528.000000	99.002753
2527.000000	99.000558
2526.000000	98.997199
2525.000000	98.993725
2524.000000	98.991940
2523.000000	98.993258
2522.000000	98.997106
2521.000000	99.000830
2520.000000	99.001748
2519.000000	98.998878
2518.000000	98.992583
2517.000000	98.983881
2516.000000	98.975034
2515.000000	98.969420
2514.000000	98.968820
2513.000000	98.970972
2512.000000	98.971198
2511.000000	98.966807
2510.000000	98.958946
2509.000000	98.950292
2508.000000	98.942287
2507.000000	98.935454
2506.000000	98.931545
2505.000000	98.933488
2504.000000	98.942374
2503.000000	98.955121
2502.000000	98.966615
2501.000000	98.974759
2500.000000	98.982243
2499.000000	98.992397
2498.000000	99.004017
2497.000000	99.011827
2496.000000	99.012073
2495.000000	99.006349
2494.000000	98.999815
2493.000000	98.996705
2492.000000	98.997830
2491.000000	99.001227
2490.000000	99.004574
2489.000000	99.007615
2488.000000	99.012373
2487.000000	99.020300
2486.000000	99.029478
2485.000000	99.035862
2484.000000	99.037773
2483.000000	99.038218
2482.000000	99.042308
2481.000000	99.053032
2480.000000	99.069009
2479.000000	99.085015
2478.000000	99.094853
2477.000000	99.095929
2476.000000	99.092176
2475.000000	99.090977
2474.000000	99.095936
2473.000000	99.103620
2472.000000	99.108427
2471.000000	99.109401
2470.000000	99.110498
2469.000000	99.114713
2468.000000	99.120124
2467.000000	99.122455
2466.000000	99.120152
2465.000000	99.115691
2464.000000	99.112481
2463.000000	99.112149
2462.000000	99.115222
2461.000000	99.122448
2460.000000	99.133181
2459.000000	99.142870
2458.000000	99.145173
2457.000000	99.138320
2456.000000	99.128078
2455.000000	99.122620
2454.000000	99.124803
2453.000000	99.130384
2452.000000	99.132613
2451.000000	99.127238
2450.000000	99.114771
2449.000000	99.100562
2448.000000	99.092191
2447.000000	99.094053
2446.000000	99.103640
2445.000000	99.114410
2444.000000	99.122074
2443.000000	99.126596
2442.000000	99.129048
2441.000000	99.129658
2440.000000	99.129481
2439.000000	99.130936
2438.000000	99.134930
2437.000000	99.139144
2436.000000	99.140786
2435.000000	99.139992
2434.000000	99.139133
2433.000000	99.139585
2432.000000	99.140501
2431.000000	99.140447
2430.000000	99.139163
2429.000000	99.137530
2428.000000	99.136321
2427.000000	99.135507
2426.000000	99.135165
2425.000000	99.136656
2424.000000	99.141447
2423.000000	99.148038
2422.000000	99.151526
2421.000000	99.148183
2420.000000	99.140199
2419.000000	99.134319
2418.000000	99.135559
2417.000000	99.143013
2416.000000	99.151581
2415.000000	99.156767
2414.000000	99.157958
2413.000000	99.157958
2412.000000	99.159409
2411.000000	99.161581
2410.000000	99.161404
2409.000000	99.157802
2408.000000	99.153532
2407.000000	99.151907
2406.000000	99.153338
2405.000000	99.156139
2404.000000	99.158686
2403.000000	99.159319
2402.000000	99.156489
2401.000000	99.151461
2400.000000	99.148929
2399.000000	99.151894
2398.000000	99.157290
2397.000000	99.159793
2396.000000	99.158799
2395.000000	99.158224
2394.000000	99.160132
2393.000000	99.162453
2392.000000	99.163025
2391.000000	99.162494
2390.000000	99.162324
2389.000000	99.162813
2388.000000	99.163928
2387.000000	99.165098
2386.000000	99.164207
2385.000000	99.159228
2384.000000	99.151964
2383.000000	99.147943
2382.000000	99.150529
2381.000000	99.157675
2380.000000	99.164640
2379.000000	99.168203
2378.000000	99.167848
2377.000000	99.164692
2376.000000	99.160767
2375.000000	99.157907
2374.000000	99.157171
2373.000000	99.159489
2372.000000	99.165769
2371.000000	99.173964
2370.000000	99.178316
2369.000000	99.175307
2368.000000	99.167671
2367.000000	99.160526
2366.000000	99.155026
2365.000000	99.148937
2364.000000	99.141584
2363.000000	99.133465
2362.000000	99.126051
2361.000000	99.124851
2360.000000	99.134927
2359.000000	99.155234
2358.000000	99.176851
2357.000000	99.189281
2356.000000	99.186194
2355.000000	99.165976
2354.000000	99.139727
2353.000000	99.125501
2352.000000	99.129629
2351.000000	99.140576
2350.000000	99.143950
2349.000000	99.137034
2348.000000	99.126719
2347.000000	99.123983
2346.000000	99.131560
2345.000000	99.136963
2344.000000	99.127237
2343.000000	99.105155
2342.000000	99.088059
2341.000000	99.087322
2340.000000	99.096688
2339.000000	99.103226
2338.000000	99.103707
2337.000000	99.103651
2336.000000	99.106962
2335.000000	99.113596
2334.000000	99.125504
2333.000000	99.144402
2332.000000	99.163724
2331.000000	99.171623
2330.000000	99.161017
2329.000000	99.137118
2328.000000	99.109081
2327.000000	99.084898
2326.000000	99.069920
2325.000000	99.066810
2324.000000	99.075882
2323.000000	99.091912
2322.000000	99.105907
2321.000000	99.108028
2320.000000	99.095989
2319.000000	99.077408
2318.000000	99.062207
2317.000000	99.054876
2316.000000	99.054204
2315.000000	99.059959
2314.000000	99.072776
2313.000000	99.089977
2312.000000	99.104071
2311.000000	99.109604
2310.000000	99.108669
2309.000000	99.109045
2308.000000	99.116906
2307.000000	99.131172
2306.000000	99.144471
2305.000000	99.149174
2304.000000	99.144537
2303.000000	99.136515
2302.000000	99.131837
2301.000000	99.132881
2300.000000	99.138486
2299.000000	99.146891
2298.000000	99.155230
2297.000000	99.159582
2296.000000	99.156714
2295.000000	99.146998
2294.000000	99.133715
2293.000000	99.121460
2292.000000	99.115012
2291.000000	99.117040
2290.000000	99.125271
2289.000000	99.133474
2288.000000	99.137576
2287.000000	99.138626
2286.000000	99.139064
2285.000000	99.138400
2284.000000	99.135546
2283.000000	99.132143
2282.000000	99.131154
2281.000000	99.133688
2280.000000	99.140067
2279.000000	99.151057
2278.000000	99.164730
2277.000000	99.174428
2276.000000	99.173903
2275.000000	99.164511
2274.000000	99.154775
2273.000000	99.153987
2272.000000	99.166465
2271.000000	99.188640
2270.000000	99.209092
2269.000000	99.215193
2268.000000	99.204192
2267.000000	99.185879
2266.000000	99.171318
2265.000000	99.162407
2264.000000	99.156239
2263.000000	99.155606
2262.000000	99.167825
2261.000000	99.193423
2260.000000	99.221768
2259.000000	99.239075
2258.000000	99.238597
2257.000000	99.223753
2256.000000	99.205098
2255.000000	99.193318
2254.000000	99.191768
2253.000000	99.195635
2252.000000	99.199261
2251.000000	99.202473
2250.000000	99.208031
2249.000000	99.216185
2248.000000	99.224853
2247.000000	99.232388
2246.000000	99.236747
2245.000000	99.234979
2244.000000	99.227832
2243.000000	99.222353
2242.000000	99.224871
2241.000000	99.232741
2240.000000	99.237563
2239.000000	99.235717
2238.000000	99.230990
2237.000000	99.227090
2236.000000	99.222687
2235.000000	99.215505
2234.000000	99.208189
2233.000000	99.207472
2232.000000	99.217490
2231.000000	99.234203
2230.000000	99.246997
2229.000000	99.247714
2228.000000	99.239512
2227.000000	99.235774
2226.000000	99.249088
2225.000000	99.280876
2224.000000	99.319623
2223.000000	99.347172
2222.000000	99.349084
2221.000000	99.324499
2220.000000	99.287038
2219.000000	99.252437
2218.000000	99.226395
2217.000000	99.208461
2216.000000	99.203463
2215.000000	99.218912
2214.000000	99.250462
2213.000000	99.280638
2212.000000	99.297495
2211.000000	99.306995
2210.000000	99.320123
2209.000000	99.333827
2208.000000	99.332577
2207.000000	99.306684
2206.000000	99.264472
2205.000000	99.227432
2204.000000	99.213950
2203.000000	99.223840
2202.000000	99.238224
2201.000000	99.239216
2200.000000	99.229892
2199.000000	99.228732
2198.000000	99.244625
2197.000000	99.266181
2196.000000	99.277980
2195.000000	99.278010
2194.000000	99.274347
2193.000000	99.273352
2192.000000	99.276578
2191.000000	99.281192
2190.000000	99.277291
2189.000000	99.252527
2188.000000	99.207377
2187.000000	99.160537
2186.000000	99.132788
2185.000000	99.129612
2184.000000	99.142917
2183.000000	99.164053
2182.000000	99.189781
2181.000000	99.219914
2180.000000	99.254483
2179.000000	99.289827
2178.000000	99.315377
2177.000000	99.321095
2176.000000	99.311243
2175.000000	99.302492
2174.000000	99.303889
2173.000000	99.306766
2172.000000	99.299035
2171.000000	99.281119
2170.000000	99.263591
2169.000000	99.256695
2168.000000	99.264233
2167.000000	99.279622
2166.000000	99.285447
2165.000000	99.266340
2164.000000	99.227689
2163.000000	99.192707
2162.000000	99.179321
2161.000000	99.191885
2160.000000	99.233122
2159.000000	99.302664
2158.000000	99.377495
2157.000000	99.422955
2156.000000	99.434318
2155.000000	99.439444
2154.000000	99.457246
2153.000000	99.477353
2152.000000	99.482092
2151.000000	99.468449
2150.000000	99.441850
2149.000000	99.405065
2148.000000	99.363900
2147.000000	99.332094
2146.000000	99.320674
2145.000000	99.328220
2144.000000	99.345760
2143.000000	99.364037
2142.000000	99.373805
2141.000000	99.370678
2140.000000	99.364634
2139.000000	99.372893
2138.000000	99.397116
2137.000000	99.417849
2136.000000	99.417555
2135.000000	99.400114
2134.000000	99.380864
2133.000000	99.367919
2132.000000	99.361165
2131.000000	99.359903
2130.000000	99.362384
2129.000000	99.363417
2128.000000	99.360069
2127.000000	99.355998
2126.000000	99.354955
2125.000000	99.354005
2124.000000	99.348122
2123.000000	99.337435
2122.000000	99.324856
2121.000000	99.309851
2120.000000	99.290018
2119.000000	99.267367
2118.000000	99.249306
2117.000000	99.244082
2116.000000	99.255228
2115.000000	99.276673
2114.000000	99.292719
2113.000000	99.289051
2112.000000	99.267903
2111.000000	99.246962
2110.000000	99.239401
2109.000000	99.240986
2108.000000	99.240663
2107.000000	99.237230
2106.000000	99.238495
2105.000000	99.249024
2104.000000	99.266322
2103.000000	99.285362
2102.000000	99.299751
2101.000000	99.301680
2100.000000	99.289185
2099.000000	99.271887
2098.000000	99.262443
2097.000000	99.262797
2096.000000	99.264706
2095.000000	99.262893
2094.000000	99.260880
2093.000000	99.263755
2092.000000	99.271566
2091.000000	99.281030
2090.000000	99.288250
2089.000000	99.287980
2088.000000	99.274904
2087.000000	99.249706
2086.000000	99.223032
2085.000000	99.210237
2084.000000	99.218937
2083.000000	99.240740
2082.000000	99.257693
2081.000000	99.258755
2080.000000	99.249167
2079.000000	99.242164
2078.000000	99.244251
2077.000000	99.252292
2076.000000	99.260685
2075.000000	99.264499
2074.000000	99.258029
2073.000000	99.240245
2072.000000	99.222443
2071.000000	99.220647
2070.000000	99.237816
2069.000000	99.260378
2068.000000	99.274046
2067.000000	99.275664
2066.000000	99.268496
2065.000000	99.256536
2064.000000	99.246930
2063.000000	99.247515
2062.000000	99.256994
2061.000000	99.265328
2060.000000	99.266778
2059.000000	99.264021
2058.000000	99.256912
2057.000000	99.239294
2056.000000	99.212378
2055.000000	99.189167
2054.000000	99.177628
2053.000000	99.170194
2052.000000	99.159312
2051.000000	99.153548
2050.000000	99.167957
2049.000000	99.204182
2048.000000	99.249267
2047.000000	99.290135
2046.000000	99.318684
2045.000000	99.328138
2044.000000	99.317563
2043.000000	99.295121
2042.000000	99.268224
2041.000000	99.238924
2040.000000	99.215800
2039.000000	99.215825
2038.000000	99.242747
2037.000000	99.276642
2036.000000	99.300642
2035.000000	99.327302
2034.000000	99.377001
2033.000000	99.438359
2032.000000	99.475534
2031.000000	99.472516
2030.000000	99.447165
2029.000000	99.424501
2028.000000	99.415616
2027.000000	99.419705
2026.000000	99.429338
2025.000000	99.432004
2024.000000	99.419737
2023.000000	99.399613
2022.000000	99.387439
2021.000000	99.391870
2020.000000	99.409104
2019.000000	99.429260
2018.000000	99.442088
2017.000000	99.440997
2016.000000	99.429384
2015.000000	99.418968
2014.000000	99.416232
2013.000000	99.414127
2012.000000	99.400055
2011.000000	99.370598
2010.000000	99.338436
2009.000000	99.326914
2008.000000	99.351687
2007.000000	99.400139
2006.000000	99.435504
2005.000000	99.432171
2004.000000	99.403066
2003.000000	99.380667
2002.000000	99.378540
2001.000000	99.383630
2000.000000	99.379292
1999.000000	99.361774
1998.000000	99.336917
1997.000000	99.316660
1996.000000	99.316594
1995.000000	99.340465
1994.000000	99.366079
1993.000000	99.362089
1992.000000	99.326203
1991.000000	99.289826
1990.000000	99.276799
1989.000000	99.281121
1988.000000	99.289716
1987.000000	99.300982
1986.000000	99.312475
1985.000000	99.311329
1984.000000	99.290394
1983.000000	99.258910
1982.000000	99.226257
1981.000000	99.190246
1980.000000	99.155345
1979.000000	99.147923
1978.000000	99.193121
1977.000000	99.279733
1976.000000	99.365140
1975.000000	99.414036
1974.000000	99.419400
1973.000000	99.400336
1972.000000	99.393668
1971.000000	99.429705
1970.000000	99.502677
1969.000000	99.572376
1968.000000	99.600896
1967.000000	99.582854
1966.000000	99.538268
1965.000000	99.490732
1964.000000	99.458098
1963.000000	99.446210
1962.000000	99.441183
1961.000000	99.420629
1960.000000	99.381106
1959.000000	99.342213
1958.000000	99.320719
1957.000000	99.317093
1956.000000	99.327943
1955.000000	99.352326
1954.000000	99.380012
1953.000000	99.391347
1952.000000	99.378333
1951.000000	99.354309
1950.000000	99.337065
1949.000000	99.333320
1948.000000	99.344272
1947.000000	99.371052
1946.000000	99.405110
1945.000000	99.426453
1944.000000	99.423051
1943.000000	99.405280
1942.000000	99.391392
1941.000000	99.385427
1940.000000	99.382497
1939.000000	99.385329
1938.000000	99.400540
1937.000000	99.425243
1936.000000	99.446800
1935.000000	99.454161
1934.000000	99.444365
1933.000000	99.422502
1932.000000	99.399363
1931.000000	99.384875
1930.000000	99.380855
1929.000000	99.381482
1928.000000	99.384540
1927.000000	99.396071
1926.000000	99.421111
1925.000000	99.453707
1924.000000	99.478068
1923.000000	99.480337
1922.000000	99.458982
1921.000000	99.425405
1920.000000	99.395275
1919.000000	99.378910
1918.000000	99.376429
1917.000000	99.379178
1916.000000	99.379271
1915.000000	99.376596
1914.000000	99.374105
1913.000000	99.373336
1912.000000	99.373805
1911.000000	99.371725
1910.000000	99.361372
1909.000000	99.343138
1908.000000	99.329230
1907.000000	99.331208
1906.000000	99.345471
1905.000000	99.358517
1904.000000	99.363527
1903.000000	99.366129
1902.000000	99.372283
1901.000000	99.379961
1900.000000	99.386927
1899.000000	99.395887
1898.000000	99.407377
1897.000000	99.415882
1896.000000	99.417488
1895.000000	99.416585
1894.000000	99.418665
1893.000000	99.421736
1892.000000	99.420190
1891.000000	99.411721
1890.000000	99.398737
1889.000000	99.387856
1888.000000	99.386059
1887.000000	99.393954
1886.000000	99.403574
1885.000000	99.405797
1884.000000	99.400923
1883.000000	99.397046
1882.000000	99.397225
1881.000000	99.396749
1880.000000	99.395052
1879.000000	99.398752
1878.000000	99.409698
1877.000000	99.420786
1876.000000	99.426718
1875.000000	99.429971
1874.000000	99.432571
1873.000000	99.430745
1872.000000	99.423028
1871.000000	99.415649
1870.000000	99.414803
1869.000000	99.419547
1868.000000	99.426638
1867.000000	99.436911
1866.000000	99.450570
1865.000000	99.462745
1864.000000	99.469589
1863.000000	99.472281
1862.000000	99.470858
1861.000000	99.460908
1860.000000	99.442528
1859.000000	99.425916
1858.000000	99.421055
1857.000000	99.427246
1856.000000	99.438637
1855.000000	99.453110
1854.000000	99.469102
1853.000000	99.478938
1852.000000	99.477331
1851.000000	99.470714
1850.000000	99.468637
1849.000000	99.472843
1848.000000	99.479141
1847.000000	99.486214
1846.000000	99.494255
1845.000000	99.498172
1844.000000	99.493498
1843.000000	99.486624
1842.000000	99.485700
1841.000000	99.488961
1840.000000	99.490814
1839.000000	99.489805
1838.000000	99.489265
1837.000000	99.492106
1836.000000	99.497468
1835.000000	99.503501
1834.000000	99.508856
1833.000000	99.512480
1832.000000	99.514620
1831.000000	99.514508
1830.000000	99.509895
1829.000000	99.502427
1828.000000	99.497206
1827.000000	99.496778
1826.000000	99.497286
1825.000000	99.494837
1824.000000	99.493733
1823.000000	99.499617
1822.000000	99.509602
1821.000000	99.516257
1820.000000	99.518118
1819.000000	99.519435
1818.000000	99.521282
1817.000000	99.520043
1816.000000	99.515619
1815.000000	99.514467
1814.000000	99.518950
1813.000000	99.522307
1812.000000	99.517042
1811.000000	99.503612
1810.000000	99.489050
1809.000000	99.477272
1808.000000	99.467227
1807.000000	99.457900
1806.000000	99.447951
1805.000000	99.434006
1804.000000	99.413742
1803.000000	99.389296
1802.000000	99.362497
1801.000000	99.332266
1800.000000	99.299923
1799.000000	99.271078
1798.000000	99.250315
1797.000000	99.235783
1796.000000	99.222987
1795.000000	99.211471
1794.000000	99.203663
1793.000000	99.202982
1792.000000	99.215660
1791.000000	99.244014
1790.000000	99.279433
1789.000000	99.309271
1788.000000	99.327498
1787.000000	99.337887
1786.000000	99.349720
1785.000000	99.367929
1784.000000	99.387977
1783.000000	99.403851
1782.000000	99.412532
1781.000000	99.414349
1780.000000	99.415122
1779.000000	99.420818
1778.000000	99.431109
1777.000000	99.439343
1776.000000	99.442063
1775.000000	99.443188
1774.000000	99.444959
1773.000000	99.441914
1772.000000	99.434622
1771.000000	99.432870
1770.000000	99.437513
1769.000000	99.439580
1768.000000	99.432913
1767.000000	99.421767
1766.000000	99.413483
1765.000000	99.408126
1764.000000	99.400964
1763.000000	99.388769
1762.000000	99.371816
1761.000000	99.352746
1760.000000	99.333153
1759.000000	99.312835
1758.000000	99.289047
1757.000000	99.256187
1756.000000	99.217002
1755.000000	99.180244
1754.000000	99.147043
1753.000000	99.109193
1752.000000	99.059261
1751.000000	99.000557
1750.000000	98.942116
1749.000000	98.884042
1748.000000	98.823555
1747.000000	98.766326
1746.000000	98.714564
1745.000000	98.662294
1744.000000	98.606459
1743.000000	98.552388
1742.000000	98.504644
1741.000000	98.458651
1740.000000	98.409100
1739.000000	98.363636
1738.000000	98.331356
1737.000000	98.313131
1736.000000	98.310778
1735.000000	98.333394
1734.000000	98.383184
1733.000000	98.435414
1732.000000	98.473464
1731.000000	98.511530
1730.000000	98.559775
1729.000000	98.610124
1728.000000	98.653221
1727.000000	98.689668
1726.000000	98.723035
1725.000000	98.751971
1724.000000	98.773927
1723.000000	98.788566
1722.000000	98.797544
1721.000000	98.800789
1720.000000	98.799460
1719.000000	98.795060
1718.000000	98.790330
1717.000000	98.789826
1716.000000	98.791262
1715.000000	98.791235
1714.000000	98.789358
1713.000000	98.783139
1712.000000	98.773331
1711.000000	98.767061
1710.000000	98.770640
1709.000000	98.781830
1708.000000	98.794499
1707.000000	98.805580
1706.000000	98.814900
1705.000000	98.821204
1704.000000	98.820568
1703.000000	98.816164
1702.000000	98.815472
1701.000000	98.816244
1700.000000	98.812515
1699.000000	98.806790
1698.000000	98.802799
1697.000000	98.797734
1696.000000	98.787058
1695.000000	98.774898
1694.000000	98.767182
1693.000000	98.760203
1692.000000	98.747877
1691.000000	98.726812
1690.000000	98.696258
1689.000000	98.656018
1688.000000	98.610736
1687.000000	98.568732
1686.000000	98.533667
1685.000000	98.497355
1684.000000	98.461877
1683.000000	98.441750
1682.000000	98.427080
1681.000000	98.402923
1680.000000	98.370185
1679.000000	98.336595
1678.000000	98.307890
1677.000000	98.279857
1676.000000	98.249688
1675.000000	98.225198
1674.000000	98.211856
1673.000000	98.200899
1672.000000	98.185340
1671.000000	98.166611
1670.000000	98.151265
1669.000000	98.142880
1668.000000	98.138215
1667.000000	98.132706
1666.000000	98.121973
1665.000000	98.103526
1664.000000	98.078841
1663.000000	98.055240
1662.000000	98.037801
1661.000000	98.019873
1660.000000	97.998172
1659.000000	97.975151
1658.000000	97.950768
1657.000000	97.917800
1656.000000	97.878275
1655.000000	97.841979
1654.000000	97.821200
1653.000000	97.826976
1652.000000	97.840021
1651.000000	97.841409
1650.000000	97.836850
1649.000000	97.830093
1648.000000	97.824589
1647.000000	97.837518
1646.000000	97.868295
1645.000000	97.891708
1644.000000	97.897602
1643.000000	97.898272
1642.000000	97.902139
1641.000000	97.909597
1640.000000	97.916907
1639.000000	97.922666
1638.000000	97.930809
1637.000000	97.946815
1636.000000	97.976881
1635.000000	98.015857
1634.000000	98.044308
1633.000000	98.058226
1632.000000	98.066514
1631.000000	98.076494
1630.000000	98.091403
1629.000000	98.108375
1628.000000	98.124283
1627.000000	98.139719
1626.000000	98.156185
1625.000000	98.175916
1624.000000	98.204253
1623.000000	98.242541
1622.000000	98.277204
1621.000000	98.293152
1620.000000	98.295076
1619.000000	98.298043
1618.000000	98.312326
1617.000000	98.338174
1616.000000	98.370036
1615.000000	98.402102
1614.000000	98.428231
1613.000000	98.444740
1612.000000	98.454237
1611.000000	98.465650
1610.000000	98.482933
1609.000000	98.499668
1608.000000	98.510511
1607.000000	98.518970
1606.000000	98.528000
1605.000000	98.534675
1604.000000	98.539023
1603.000000	98.544859
1602.000000	98.551494
1601.000000	98.553024
1600.000000	98.548239
1599.000000	98.542708
1598.000000	98.539129
1597.000000	98.534646
1596.000000	98.528112
1595.000000	98.522526
1594.000000	98.517841
1593.000000	98.509045
1592.000000	98.494984
1591.000000	98.480778
1590.000000	98.468857
1589.000000	98.455432
1588.000000	98.438652
1587.000000	98.421503
1586.000000	98.404315
1585.000000	98.381357
1584.000000	98.350886
1583.000000	98.319135
1582.000000	98.289173
1581.000000	98.257463
1580.000000	98.223463
1579.000000	98.194474
1578.000000	98.177538
1577.000000	98.174421
1576.000000	98.185074
1575.000000	98.205615
1574.000000	98.223554
1573.000000	98.231504
1572.000000	98.234951
1571.000000	98.243840
1570.000000	98.263720
1569.000000	98.285730
1568.000000	98.300115
1567.000000	98.308878
1566.000000	98.314791
1565.000000	98.313491
1564.000000	98.303662
1563.000000	98.290373
1562.000000	98.276366
1561.000000	98.263326
1560.000000	98.241988
1559.000000	98.220506
1558.000000	98.218274
1557.000000	98.208905
1556.000000	98.186155
1555.000000	98.166291
1554.000000	98.143888
1553.000000	98.115173
1552.000000	98.076127
1551.000000	98.027873
1550.000000	97.968331
1549.000000	97.900740
1548.000000	97.831132
1547.000000	97.760957
1546.000000	97.681555
1545.000000	97.584772
1544.000000	97.479940
1543.000000	97.384738
1542.000000	97.301963
1541.000000	97.223933
1540.000000	97.167159
1539.000000	97.148704
1538.000000	97.140846
1537.000000	97.121671
1536.000000	97.095995
1535.000000	97.072399
1534.000000	97.054955
1533.000000	97.037873
1532.000000	97.014651
1531.000000	96.982772
1530.000000	96.942626
1529.000000	96.892853
1528.000000	96.835300
1527.000000	96.775470
1526.000000	96.713259
1525.000000	96.645676
1524.000000	96.576864
1523.000000	96.510464
1522.000000	96.436641
1521.000000	96.349934
1520.000000	96.267318
1519.000000	96.199798
1518.000000	96.132853
1517.000000	96.050183
1516.000000	95.960360
1515.000000	95.881178
1514.000000	95.809790
1513.000000	95.734298
1512.000000	95.653242
1511.000000	95.573200
1510.000000	95.493501
1509.000000	95.405083
1508.000000	95.301968
1507.000000	95.203349
1506.000000	95.128508
1505.000000	95.057848
1504.000000	94.983004
1503.000000	94.908336
1502.000000	94.826439
1501.000000	94.733467
1500.000000	94.634984
1499.000000	94.542585
1498.000000	94.453875
1497.000000	94.359744
1496.000000	94.266226
1495.000000	94.185221
1494.000000	94.110548
1493.000000	94.027824
1492.000000	93.933672
1491.000000	93.836257
1490.000000	93.746163
1489.000000	93.667063
1488.000000	93.595811
1487.000000	93.527620
1486.000000	93.456416
1485.000000	93.375406
1484.000000	93.286955
1483.000000	93.198328
1482.000000	93.108933
1481.000000	93.014393
1480.000000	92.917113
1479.000000	92.823452
1478.000000	92.730793
1477.000000	92.630596
1476.000000	92.521031
1475.000000	92.408601
1474.000000	92.292271
1473.000000	92.165371
1472.000000	92.039127
1471.000000	91.925870
1470.000000	91.816706
1469.000000	91.702003
1468.000000	91.586443
1467.000000	91.481143
1466.000000	91.391250
1465.000000	91.313147
1464.000000	91.244724
1463.000000	91.181806
1462.000000	91.114629
1461.000000	91.034876
1460.000000	90.942469
1459.000000	90.845544
1458.000000	90.755707
1457.000000	90.689827
1456.000000	90.649039
1455.000000	90.610091
1454.000000	90.557215
1453.000000	90.493033
1452.000000	90.428355
1451.000000	90.369747
1450.000000	90.311276
1449.000000	90.249294
1448.000000	90.192802
1447.000000	90.149294
1446.000000	90.106986
1445.000000	90.051811
1444.000000	89.988077
1443.000000	89.926693
1442.000000	89.868487
1441.000000	89.805188
1440.000000	89.733763
1439.000000	89.660097
1438.000000	89.593110
1437.000000	89.543459
1436.000000	89.513215
1435.000000	89.481896
1434.000000	89.427659
1433.000000	89.351124
1432.000000	89.267843
1431.000000	89.192676
1430.000000	89.125327
1429.000000	89.056834
1428.000000	88.984683
1427.000000	88.910989
1426.000000	88.833144
1425.000000	88.748089
1424.000000	88.662887
1423.000000	88.581706
1422.000000	88.494181
1421.000000	88.391660
1420.000000	88.284966
1419.000000	88.195998
1418.000000	88.123656
1417.000000	88.046924
1416.000000	87.961145
1415.000000	87.872253
1414.000000	87.777606
1413.000000	87.675001
1412.000000	87.574720
1411.000000	87.487630
1410.000000	87.406316
1409.000000	87.318546
1408.000000	87.229037
1407.000000	87.152368
1406.000000	87.093113
1405.000000	87.047126
1404.000000	87.014944
1403.000000	86.992438
1402.000000	86.965152
1401.000000	86.926296
1400.000000	86.887951
1399.000000	86.861434
1398.000000	86.833512
1397.000000	86.789786
1396.000000	86.746892
1395.000000	86.732284
1394.000000	86.741064
1393.000000	86.748078
1392.000000	86.750729
1391.000000	86.760797
1390.000000	86.780860
1389.000000	86.813373
1388.000000	86.875471
1387.000000	86.975693
1386.000000	87.085535
1385.000000	87.176475
1384.000000	87.260665
1383.000000	87.363248
1382.000000	87.486077
1381.000000	87.616145
1380.000000	87.752403
1379.000000	87.900757
1378.000000	88.052422
1377.000000	88.196419
1376.000000	88.345305
1375.000000	88.524189
1374.000000	88.731479
1373.000000	88.935689
1372.000000	89.117853
1371.000000	89.286009
1370.000000	89.452232
1369.000000	89.621604
1368.000000	89.793901
1367.000000	89.960633
1366.000000	90.112967
1365.000000	90.260416
1364.000000	90.431278
1363.000000	90.642094
1362.000000	90.869608
1361.000000	91.078337
1360.000000	91.263068
1359.000000	91.436192
1358.000000	91.601871
1357.000000	91.760982
1356.000000	91.920216
1355.000000	92.081827
1354.000000	92.235940
1353.000000	92.375715
1352.000000	92.507984
1351.000000	92.640018
1350.000000	92.767740
1349.000000	92.884747
1348.000000	92.993910
1347.000000	93.100050
1346.000000	93.201346
1345.000000	93.295126
1344.000000	93.383179
1343.000000	93.465868
1342.000000	93.541552
1341.000000	93.615967
1340.000000	93.701219
1339.000000	93.796269
1338.000000	93.882363
1337.000000	93.950013
1336.000000	94.010602
1335.000000	94.075630
1334.000000	94.143152
1333.000000	94.208093
1332.000000	94.272981
1331.000000	94.341613
1330.000000	94.411290
1329.000000	94.478210
1328.000000	94.542895
1327.000000	94.605100
1326.000000	94.660909
1325.000000	94.709562
1324.000000	94.756436
1323.000000	94.804244
1322.000000	94.849016
1321.000000	94.888181
1320.000000	94.925496
1319.000000	94.964785
1318.000000	95.005733
1317.000000	95.048797
1316.000000	95.096105
1315.000000	95.144987
1314.000000	95.189186
1313.000000	95.229170
1312.000000	95.272533
1311.000000	95.321597
1310.000000	95.369670
1309.000000	95.412196
1308.000000	95.452233
1307.000000	95.492407
1306.000000	95.529998
1305.000000	95.563333
1304.000000	95.595887
1303.000000	95.629835
1302.000000	95.662827
1301.000000	95.694315
1300.000000	95.728570
1299.000000	95.767924
1298.000000	95.808737
1297.000000	95.846547
1296.000000	95.879989
1295.000000	95.908240
1294.000000	95.930469
1293.000000	95.949055
1292.000000	95.967490
1291.000000	95.984392
1290.000000	95.995542
1289.000000	96.002509
1288.000000	96.012220
1287.000000	96.026938
1286.000000	96.041608
1285.000000	96.052731
1284.000000	96.063017
1283.000000	96.075392
1282.000000	96.088825
1281.000000	96.101797
1280.000000	96.114711
1279.000000	96.127532
1278.000000	96.139901
1277.000000	96.154163
1276.000000	96.172922
1275.000000	96.193500
1274.000000	96.210325
1273.000000	96.222807
1272.000000	96.235036
1271.000000	96.247722
1270.000000	96.256938
1269.000000	96.261363
1268.000000	96.264123
1267.000000	96.266951
1266.000000	96.269081
1265.000000	96.272338
1264.000000	96.280238
1263.000000	96.290923
1262.000000	96.297835
1261.000000	96.299073
1260.000000	96.299620
1259.000000	96.302927
1258.000000	96.306743
1257.000000	96.308655
1256.000000	96.309118
1255.000000	96.307711
1254.000000	96.302694
1253.000000	96.295680
1252.000000	96.291025
1251.000000	96.289457
1250.000000	96.287527
1249.000000	96.284023
1248.000000	96.281205
1247.000000	96.278822
1246.000000	96.273403
1245.000000	96.265194
1244.000000	96.259384
1243.000000	96.258038
1242.000000	96.256676
1241.000000	96.251618
1240.000000	96.245220
1239.000000	96.241027
1238.000000	96.238590
1237.000000	96.236105
1236.000000	96.233921
1235.000000	96.232759
1234.000000	96.232556
1233.000000	96.235321
1232.000000	96.245078
1231.000000	96.262114
1230.000000	96.281103
1229.000000	96.298068
1228.000000	96.315738
1227.000000	96.339400
1226.000000	96.370200
1225.000000	96.404819
1224.000000	96.439289
1223.000000	96.470866
1222.000000	96.498436
1221.000000	96.523040
1220.000000	96.546815
1219.000000	96.570931
1218.000000	96.595833
1217.000000	96.622481
1216.000000	96.650563
1215.000000	96.676470
1214.000000	96.696614
1213.000000	96.712424
1212.000000	96.728193
1211.000000	96.744121
1210.000000	96.755464
1209.000000	96.758553
1208.000000	96.754341
1207.000000	96.746105
1206.000000	96.737286
1205.000000	96.731478
1204.000000	96.730669
1203.000000	96.733025
1202.000000	96.735142
1201.000000	96.736476
1200.000000	96.738834
1199.000000	96.742256
1198.000000	96.744965
1197.000000	96.747196
1196.000000	96.751382
1195.000000	96.758215
1194.000000	96.765606
1193.000000	96.771627
1192.000000	96.775768
1191.000000	96.777583
1190.000000	96.776975
1189.000000	96.775390
1188.000000	96.773890
1187.000000	96.770393
1186.000000	96.761349
1185.000000	96.745855
1184.000000	96.725935
1183.000000	96.704414
1182.000000	96.685103
1181.000000	96.672762
1180.000000	96.668816
1179.000000	96.668197
1178.000000	96.664328
1177.000000	96.656233
1176.000000	96.647390
1175.000000	96.639360
1174.000000	96.630664
1173.000000	96.620886
1172.000000	96.611992
1171.000000	96.606076
1170.000000	96.604788
1169.000000	96.609898
1168.000000	96.620854
1167.000000	96.632664
1166.000000	96.640224
1165.000000	96.644251
1164.000000	96.649856
1163.000000	96.660245
1162.000000	96.674808
1161.000000	96.692066
1160.000000	96.710778
1159.000000	96.729390
1158.000000	96.747918
1157.000000	96.768825
1156.000000	96.792983
1155.000000	96.816933
1154.000000	96.837763
1153.000000	96.858026
1152.000000	96.881687
1151.000000	96.908463
1150.000000	96.937073
1149.000000	96.970523
1148.000000	97.011674
1147.000000	97.056013
1146.000000	97.095832
1145.000000	97.130137
1144.000000	97.163953
1143.000000	97.199487
1142.000000	97.234524
1141.000000	97.268115
1140.000000	97.300817
1139.000000	97.330114
1138.000000	97.352321
1137.000000	97.369168
1136.000000	97.386636
1135.000000	97.407498
1134.000000	97.430042
1133.000000	97.452452
1132.000000	97.472669
1131.000000	97.485368
1130.000000	97.486260
1129.000000	97.479454
1128.000000	97.474327
1127.000000	97.475201
1126.000000	97.479279
1125.000000	97.483639
1124.000000	97.488228
1123.000000	97.492513
1122.000000	97.495483
1121.000000	97.498726
1120.000000	97.503448
1119.000000	97.505184
1118.000000	97.498092
1117.000000	97.484588
1116.000000	97.474148
1115.000000	97.472100
1114.000000	97.475491
1113.000000	97.480215
1112.000000	97.485844
1111.000000	97.492668
1110.000000	97.500519
1109.000000	97.511590
1108.000000	97.528603
1107.000000	97.548679
1106.000000	97.564874
1105.000000	97.574966
1104.000000	97.583099
1103.000000	97.591538
1102.000000	97.596562
1101.000000	97.594556
1100.000000	97.586885
1099.000000	97.576815
1098.000000	97.566060
1097.000000	97.555514
1096.000000	97.546160
1095.000000	97.537986
1094.000000	97.530987
1093.000000	97.526612
1092.000000	97.524532
1091.000000	97.519289
1090.000000	97.505174
1089.000000	97.483976
1088.000000	97.462497
1087.000000	97.442916
1086.000000	97.421692
1085.000000	97.398296
1084.000000	97.378630
1083.000000	97.367437
1082.000000	97.362343
1081.000000	97.357981
1080.000000	97.352812
1079.000000	97.349993
1078.000000	97.354270
1077.000000	97.369051
1076.000000	97.393210
1075.000000	97.420293
1074.000000	97.443576
1073.000000	97.461666
1072.000000	97.476571
1071.000000	97.488486
1070.000000	97.497278
1069.000000	97.507016
1068.000000	97.522475
1067.000000	97.541173
1066.000000	97.554896
1065.000000	97.559780
1064.000000	97.559483
1063.000000	97.558132
1062.000000	97.556073
1061.000000	97.553854
1060.000000	97.554799
1059.000000	97.560877
1058.000000	97.569845
1057.000000	97.578570
1056.000000	97.586320
1055.000000	97.593769
1054.000000	97.601751
1053.000000	97.611670
1052.000000	97.624184
1051.000000	97.636939
1050.000000	97.646342
1049.000000	97.651435
1048.000000	97.653447
1047.000000	97.653041
1046.000000	97.651580
1045.000000	97.653144
1044.000000	97.660514
1043.000000	97.670128
1042.000000	97.675281
1041.000000	97.674290
1040.000000	97.671635
1039.000000	97.671631
1038.000000	97.674718
1037.000000	97.678996
1036.000000	97.681540
1035.000000	97.679295
1034.000000	97.673269
1033.000000	97.670830
1032.000000	97.678728
1031.000000	97.694032
1030.000000	97.706949
1029.000000	97.712483
1028.000000	97.714534
1027.000000	97.718367
1026.000000	97.724325
1025.000000	97.730190
1024.000000	97.735375
1023.000000	97.741293
1022.000000	97.750505
1021.000000	97.765703
1020.000000	97.786288
1019.000000	97.805900
1018.000000	97.816714
1017.000000	97.816490
1016.000000	97.809094
1015.000000	97.800196
1014.000000	97.796419
1013.000000	97.805663
1012.000000	97.830968
1011.000000	97.863369
1010.000000	97.887287
1009.000000	97.895976
1008.000000	97.897972
1007.000000	97.906345
1006.000000	97.925476
1005.000000	97.950151
1004.000000	97.974129
1003.000000	97.996121
1002.000000	98.018195
1001.000000	98.041116
1000.000000	98.062605
999.000000	98.080620
998.000000	98.097162
997.000000	98.116031
996.000000	98.136525
995.000000	98.153084
994.000000	98.163398
993.000000	98.173320
992.000000	98.190273
991.000000	98.214563
990.000000	98.240480
989.000000	98.263638
988.000000	98.283532
987.000000	98.301223
986.000000	98.318629
985.000000	98.338196
984.000000	98.359486
983.000000	98.377875
982.000000	98.390225
981.000000	98.399744
980.000000	98.411603
979.000000	98.425696
978.000000	98.437351
977.000000	98.443017
976.000000	98.442094
975.000000	98.436578
974.000000	98.432538
973.000000	98.437545
972.000000	98.451434
971.000000	98.463159
970.000000	98.463488
969.000000	98.458098
968.000000	98.461454
967.000000	98.480016
966.000000	98.508092
965.000000	98.538312
964.000000	98.567725
963.000000	98.593546
962.000000	98.611552
961.000000	98.621849
960.000000	98.631130
959.000000	98.646821
958.000000	98.671750
957.000000	98.703891
956.000000	98.737205
955.000000	98.763633
954.000000	98.779400
953.000000	98.789478
952.000000	98.801670
951.000000	98.816913
950.000000	98.829997
949.000000	98.838644
948.000000	98.846567
947.000000	98.857935
946.000000	98.873313
945.000000	98.890507
944.000000	98.905212
943.000000	98.912460
942.000000	98.912670
941.000000	98.914332
940.000000	98.924667
939.000000	98.939531
938.000000	98.949170
937.000000	98.953076
936.000000	98.961074
935.000000	98.979134
934.000000	99.001661
933.000000	99.019753
932.000000	99.031184
931.000000	99.039671
930.000000	99.049298
929.000000	99.061819
928.000000	99.075712
927.000000	99.086871
926.000000	99.093398
925.000000	99.099203
924.000000	99.109252
923.000000	99.122489
922.000000	99.134167
921.000000	99.143496
920.000000	99.153465
919.000000	99.164769
918.000000	99.176348
917.000000	99.190635
916.000000	99.210737
915.000000	99.232875
914.000000	99.249069
913.000000	99.257916
912.000000	99.265287
911.000000	99.274203
910.000000	99.281924
909.000000	99.287898
908.000000	99.296324
907.000000	99.308650
906.000000	99.321316
905.000000	99.333109
904.000000	99.347273
903.000000	99.363930
902.000000	99.378311
901.000000	99.389522
900.000000	99.403762
899.000000	99.425100
898.000000	99.449464
897.000000	99.470751
896.000000	99.486479
895.000000	99.495322
894.000000	99.497024
893.000000	99.498256
892.000000	99.510672
891.000000	99.538362
890.000000	99.572115
889.000000	99.598246
888.000000	99.605840
887.000000	99.581628
886.000000	99.507380
885.000000	99.365507
884.000000	99.138834
883.000000	98.803996
882.000000	98.331338
881.000000	97.698033
880.000000	96.891267
879.000000	95.899936
878.000000	94.721205
877.000000	93.374479
876.000000	91.896729
875.000000	90.330100
874.000000	88.777122
873.000000	87.506591
872.000000	86.957774
871.000000	87.496819
870.000000	89.084446
869.000000	91.226377
868.000000	93.290378
867.000000	94.883240
866.000000	95.960579
865.000000	96.666253
864.000000	97.143939
863.000000	97.479750
862.000000	97.726964
861.000000	97.921364
860.000000	98.079485
859.000000	98.207367
858.000000	98.315499
857.000000	98.413481
856.000000	98.499460
855.000000	98.568138
854.000000	98.623738
853.000000	98.673061
852.000000	98.706495
851.000000	98.701253
850.000000	98.651294
849.000000	98.587742
848.000000	98.561915
847.000000	98.605089
846.000000	98.704876
845.000000	98.819911
844.000000	98.914210
843.000000	98.977486
842.000000	99.018522
841.000000	99.047931
840.000000	99.070960
839.000000	99.090586
838.000000	99.109589
837.000000	99.129398
836.000000	99.151515
835.000000	99.179515
834.000000	99.214645
833.000000	99.250035
832.000000	99.275354
831.000000	99.288474
830.000000	99.297305
829.000000	99.308523
828.000000	99.320200
827.000000	99.328556
826.000000	99.335553
825.000000	99.344529
824.000000	99.353144
823.000000	99.357195
822.000000	99.358542
821.000000	99.363459
820.000000	99.375102
819.000000	99.392012
818.000000	99.411717
817.000000	99.431007
816.000000	99.444007
815.000000	99.445173
814.000000	99.435371
813.000000	99.422518
812.000000	99.415310
811.000000	99.417058
810.000000	99.424357
809.000000	99.430673
808.000000	99.433093
807.000000	99.436350
806.000000	99.447769
805.000000	99.466947
804.000000	99.483979
803.000000	99.490301
802.000000	99.487269
801.000000	99.480751
800.000000	99.471696
799.000000	99.457448
798.000000	99.439644
797.000000	99.424587
796.000000	99.416159
795.000000	99.413297
794.000000	99.414076
793.000000	99.417542
792.000000	99.421576
791.000000	99.423733
790.000000	99.425195
789.000000	99.430046
788.000000	99.438851
787.000000	99.445649
786.000000	99.443493
785.000000	99.432265
784.000000	99.419598
783.000000	99.413724
782.000000	99.415330
781.000000	99.417027
780.000000	99.411999
779.000000	99.402023
778.000000	99.394055
777.000000	99.389899
776.000000	99.384699
775.000000	99.377049
774.000000	99.374178
773.000000	99.382721
772.000000	99.398944
771.000000	99.413402
770.000000	99.421925
769.000000	99.426387
768.000000	99.427813
767.000000	99.425765
766.000000	99.423151
765.000000	99.424651
764.000000	99.430116
763.000000	99.435340
762.000000	99.439702
761.000000	99.446809
760.000000	99.456200
759.000000	99.460504
758.000000	99.454738
757.000000	99.444776
756.000000	99.442753
755.000000	99.455423
754.000000	99.478913
753.000000	99.503834
752.000000	99.523728
751.000000	99.538130
750.000000	99.548051
749.000000	99.550401
748.000000	99.539853
747.000000	99.516460
746.000000	99.488417
745.000000	99.465665
744.000000	99.453156
743.000000	99.451497
742.000000	99.459642
741.000000	99.473511
740.000000	99.485918
739.000000	99.492343
738.000000	99.493432
737.000000	99.488295
736.000000	99.470575
735.000000	99.437557
734.000000	99.399558
733.000000	99.372021
732.000000	99.359291
731.000000	99.352308
730.000000	99.340994
729.000000	99.322084
728.000000	99.297586
727.000000	99.271466
726.000000	99.245237
725.000000	99.213859
724.000000	99.168661
723.000000	99.107295
722.000000	99.036211
721.000000	98.959079
720.000000	98.866329
719.000000	98.738024
718.000000	98.548634
717.000000	98.264702
716.000000	97.858606
715.000000	97.356584
714.000000	96.875991
713.000000	96.582914
712.000000	96.583026
711.000000	96.846308
710.000000	97.239667
709.000000	97.624552
708.000000	97.926485
707.000000	98.138877
706.000000	98.286578
705.000000	98.395461
704.000000	98.483648
703.000000	98.561487
702.000000	98.631874
701.000000	98.691160
700.000000	98.733584
699.000000	98.761076
698.000000	98.784752
697.000000	98.814327
696.000000	98.849294
695.000000	98.881880
694.000000	98.908934
693.000000	98.933962
692.000000	98.958276
691.000000	98.981338
690.000000	99.006047
689.000000	99.036507
688.000000	99.069573
687.000000	99.094643
686.000000	99.106405
685.000000	99.107622
684.000000	99.099410
683.000000	99.081883
682.000000	99.062760
681.000000	99.052284
680.000000	99.047566
679.000000	99.036083
678.000000	99.016236
677.000000	98.996818
676.000000	98.983975
675.000000	98.979413
674.000000	98.986184
673.000000	99.006784
672.000000	99.039631
671.000000	99.089706
670.000000	99.169954
669.000000	99.279139
668.000000	99.348027
667.000000	99.296020
666.000000	99.184332
665.000000	99.082843
664.000000	99.012533
663.000000	98.976849
662.000000	98.966330
661.000000	98.968731
660.000000	98.973065
659.000000	98.971868
658.000000	98.962390
657.000000	98.946026
656.000000	98.932153
655.000000	98.931782
654.000000	98.940618
653.000000	98.942723
652.000000	98.936393
651.000000	98.938386
650.000000	98.959717
649.000000	98.989954
648.000000	99.012702
647.000000	99.021731
646.000000	99.016345
645.000000	98.998832
644.000000	98.979354
643.000000	98.970230
642.000000	98.972563
641.000000	98.975864
640.000000	98.975606
639.000000	98.980632
638.000000	98.995412
637.000000	99.007804
636.000000	99.004506
635.000000	98.988251
634.000000	98.972267
633.000000	98.963717
632.000000	98.959687
631.000000	98.955636
630.000000	98.950395
629.000000	98.944940
628.000000	98.942347
627.000000	98.945938
626.000000	98.951829
625.000000	98.949987
624.000000	98.934593
623.000000	98.909349
622.000000	98.882722
621.000000	98.862403
620.000000	98.854775
619.000000	98.862549
618.000000	98.879020
617.000000	98.890176
616.000000	98.887570
615.000000	98.876538
614.000000	98.868828
613.000000	98.871223
612.000000	98.883213
611.000000	98.899094
610.000000	98.909409
609.000000	98.906741
608.000000	98.895090
607.000000	98.888391
606.000000	98.893404
605.000000	98.902251
604.000000	98.905096
603.000000	98.903362
602.000000	98.906086
601.000000	98.918361
600.000000	98.939276
599.000000	98.965449
598.000000	98.988718
597.000000	98.995692
596.000000	98.979600
595.000000	98.951092
594.000000	98.928433
593.000000	98.916541
592.000000	98.904846
591.000000	98.887180
590.000000	98.872223
589.000000	98.869181
588.000000	98.873565
587.000000	98.872665
586.000000	98.859087
585.000000	98.836681
584.000000	98.817952
583.000000	98.817244
582.000000	98.840872
581.000000	98.880469
580.000000	98.919325
579.000000	98.947560
578.000000	98.965579
577.000000	98.972600
576.000000	98.961409
575.000000	98.929902
574.000000	98.890452
573.000000	98.858967
572.000000	98.840132
571.000000	98.827021
570.000000	98.810691
569.000000	98.788567
568.000000	98.765929
567.000000	98.749565
566.000000	98.738490
565.000000	98.723255
564.000000	98.698897
563.000000	98.675361
562.000000	98.667935
561.000000	98.679617
560.000000	98.701048
559.000000	98.726112
558.000000	98.756316
557.000000	98.789706
556.000000	98.816927
555.000000	98.833225
554.000000	98.845626
553.000000	98.860543
552.000000	98.871538
551.000000	98.867351
550.000000	98.849120
549.000000	98.832732
548.000000	98.834328
547.000000	98.856480
546.000000	98.884261
545.000000	98.893229
544.000000	98.869753
543.000000	98.827914
542.000000	98.801609
541.000000	98.812644
540.000000	98.847490
539.000000	98.869374
538.000000	98.850013
537.000000	98.789883
536.000000	98.715687
535.000000	98.664856
534.000000	98.662617
533.000000	98.700522
532.000000	98.739374
531.000000	98.743246
530.000000	98.714291
529.000000	98.686314
528.000000	98.683491
527.000000	98.696415
526.000000	98.700832
525.000000	98.693177
524.000000	98.692532
523.000000	98.708885
522.000000	98.729393
521.000000	98.739127
520.000000	98.743064
519.000000	98.760441
518.000000	98.799575
517.000000	98.848079
516.000000	98.890912
515.000000	98.922060
514.000000	98.936481
513.000000	98.929240
512.000000	98.911176
511.000000	98.911243
510.000000	98.947229
509.000000	99.000062
508.000000	99.032720
507.000000	99.035063
506.000000	99.033505
505.000000	99.049410
504.000000	99.068178
503.000000	99.060204
502.000000	99.020189
501.000000	98.972134
500.000000	98.936972
499.000000	98.919632
498.000000	98.925112
497.000000	98.957731
496.000000	98.999739
495.000000	99.014415
494.000000	98.985366
493.000000	98.941711
492.000000	98.928256
491.000000	98.955015
490.000000	98.996267
489.000000	99.037659
488.000000	99.092044
487.000000	99.161195
486.000000	99.209711
485.000000	99.200565
484.000000	99.151143
483.000000	99.123433
482.000000	99.150267
481.000000	99.200045
480.000000	99.220936
479.000000	99.194541
478.000000	99.140459
477.000000	99.089394
476.000000	99.062038
475.000000	99.066695
474.000000	99.103256
473.000000	99.163160
472.000000	99.226640
471.000000	99.269423
470.000000	99.277194
469.000000	99.253515
468.000000	99.217028
467.000000	99.187615
466.000000	99.166215
465.000000	99.139029
464.000000	99.107165
463.000000	99.092386
462.000000	99.104281
461.000000	99.120588
460.000000	99.120343
459.000000	99.119429
458.000000	99.153912
457.000000	99.224842
456.000000	99.292410
455.000000	99.337051
454.000000	99.376237
453.000000	99.429526
452.000000	99.492450
451.000000	99.534072
450.000000	99.532284
