PE IR       SUBTECH     SPECTRUM    ASCII       PEDS        4.00        
   -1
AG10-C001_1.ASC
23/09/08
10:23:14.00
23/09/08
11:14:38.00
uco
Sample 021 By uco Date Friday, September 08 2023
450.000000
#HDR
-1
-1
#GR
cm-1
%T
1.0
0.0
4000.000000
-1.000000
3551
8
99.899617
95.523067
#DATA
4000.000000	99.821647
3999.000000	99.821551
3998.000000	99.821461
3997.000000	99.821376
3996.000000	99.821314
3995.000000	99.820903
3994.000000	99.821616
3993.000000	99.824082
3992.000000	99.826731
3991.000000	99.827682
3990.000000	99.826231
3989.000000	99.823458
3988.000000	99.821361
3987.000000	99.821089
3986.000000	99.821867
3985.000000	99.821617
3984.000000	99.818620
3983.000000	99.812825
3982.000000	99.805782
3981.000000	99.799662
3980.000000	99.796331
3979.000000	99.796645
3978.000000	99.799986
3977.000000	99.804378
3976.000000	99.807582
3975.000000	99.808568
3974.000000	99.807938
3973.000000	99.806822
3972.000000	99.805480
3971.000000	99.803246
3970.000000	99.799760
3969.000000	99.795957
3968.000000	99.793685
3967.000000	99.794364
3966.000000	99.797929
3965.000000	99.802896
3964.000000	99.807362
3963.000000	99.809981
3962.000000	99.810412
3961.000000	99.809211
3960.000000	99.807423
3959.000000	99.806112
3958.000000	99.805806
3957.000000	99.806113
3956.000000	99.805886
3955.000000	99.804023
3954.000000	99.800241
3953.000000	99.795055
3952.000000	99.789357
3951.000000	99.784316
3950.000000	99.781442
3949.000000	99.782059
3948.000000	99.786233
3947.000000	99.792576
3946.000000	99.799486
3945.000000	99.806093
3944.000000	99.811668
3943.000000	99.814485
3942.000000	99.812638
3941.000000	99.806750
3940.000000	99.800687
3939.000000	99.798517
3938.000000	99.800936
3937.000000	99.805027
3936.000000	99.807130
3935.000000	99.805591
3934.000000	99.801143
3933.000000	99.795632
3932.000000	99.790932
3931.000000	99.788430
3930.000000	99.788397
3929.000000	99.789708
3928.000000	99.790745
3927.000000	99.790984
3926.000000	99.791409
3925.000000	99.792886
3924.000000	99.794519
3923.000000	99.794404
3922.000000	99.791923
3921.000000	99.788394
3920.000000	99.786160
3919.000000	99.787467
3918.000000	99.792919
3917.000000	99.799996
3916.000000	99.804145
3915.000000	99.802592
3914.000000	99.796778
3913.000000	99.790984
3912.000000	99.789050
3911.000000	99.791852
3910.000000	99.796985
3909.000000	99.800602
3908.000000	99.799470
3907.000000	99.792146
3906.000000	99.779571
3905.000000	99.764866
3904.000000	99.751831
3903.000000	99.742930
3902.000000	99.739175
3901.000000	99.740942
3900.000000	99.746772
3899.000000	99.752822
3898.000000	99.755914
3897.000000	99.756286
3896.000000	99.756081
3895.000000	99.756002
3894.000000	99.754994
3893.000000	99.753340
3892.000000	99.753272
3891.000000	99.754794
3890.000000	99.754616
3889.000000	99.751732
3888.000000	99.749567
3887.000000	99.751464
3886.000000	99.756750
3885.000000	99.760020
3884.000000	99.756611
3883.000000	99.750066
3882.000000	99.748631
3881.000000	99.755489
3880.000000	99.765064
3879.000000	99.768708
3878.000000	99.764743
3877.000000	99.759586
3876.000000	99.759138
3875.000000	99.762810
3874.000000	99.764785
3873.000000	99.760822
3872.000000	99.754660
3871.000000	99.755042
3870.000000	99.764343
3869.000000	99.773486
3868.000000	99.773864
3867.000000	99.768810
3866.000000	99.766747
3865.000000	99.769600
3864.000000	99.772313
3863.000000	99.770071
3862.000000	99.764222
3861.000000	99.759587
3860.000000	99.757529
3859.000000	99.755053
3858.000000	99.748478
3857.000000	99.735426
3856.000000	99.717050
3855.000000	99.701524
3854.000000	99.701984
3853.000000	99.717511
3852.000000	99.728722
3851.000000	99.733000
3850.000000	99.745162
3849.000000	99.765522
3848.000000	99.781396
3847.000000	99.786725
3846.000000	99.784644
3845.000000	99.779927
3844.000000	99.773858
3843.000000	99.764606
3842.000000	99.751360
3841.000000	99.737490
3840.000000	99.728912
3839.000000	99.729444
3838.000000	99.736954
3837.000000	99.745497
3836.000000	99.752411
3835.000000	99.759918
3834.000000	99.770423
3833.000000	99.782550
3832.000000	99.791779
3831.000000	99.794141
3830.000000	99.789947
3829.000000	99.784374
3828.000000	99.783317
3827.000000	99.787479
3826.000000	99.790840
3825.000000	99.787053
3824.000000	99.776619
3823.000000	99.766871
3822.000000	99.765081
3821.000000	99.768164
3820.000000	99.763404
3819.000000	99.748223
3818.000000	99.735778
3817.000000	99.736025
3816.000000	99.746276
3815.000000	99.757441
3814.000000	99.764104
3813.000000	99.769358
3812.000000	99.776700
3811.000000	99.782807
3810.000000	99.783198
3809.000000	99.779510
3808.000000	99.776670
3807.000000	99.774894
3806.000000	99.768591
3805.000000	99.756269
3804.000000	99.745569
3803.000000	99.745066
3802.000000	99.755141
3801.000000	99.765999
3800.000000	99.766948
3799.000000	99.761187
3798.000000	99.760640
3797.000000	99.768734
3796.000000	99.778530
3795.000000	99.783541
3794.000000	99.784305
3793.000000	99.785755
3792.000000	99.790777
3791.000000	99.797553
3790.000000	99.802354
3789.000000	99.803061
3788.000000	99.800453
3787.000000	99.797808
3786.000000	99.799211
3785.000000	99.806111
3784.000000	99.815025
3783.000000	99.820190
3782.000000	99.818434
3781.000000	99.810957
3780.000000	99.801525
3779.000000	99.793335
3778.000000	99.787424
3777.000000	99.784832
3776.000000	99.787247
3775.000000	99.793784
3774.000000	99.799935
3773.000000	99.801232
3772.000000	99.797238
3771.000000	99.791206
3770.000000	99.785819
3769.000000	99.780666
3768.000000	99.776364
3767.000000	99.777637
3766.000000	99.787249
3765.000000	99.799348
3764.000000	99.804164
3763.000000	99.798379
3762.000000	99.787321
3761.000000	99.778456
3760.000000	99.775007
3759.000000	99.774835
3758.000000	99.774102
3757.000000	99.771959
3756.000000	99.769460
3755.000000	99.765956
3754.000000	99.760126
3753.000000	99.753088
3752.000000	99.749291
3751.000000	99.752172
3750.000000	99.757921
3749.000000	99.759812
3748.000000	99.757204
3747.000000	99.754309
3746.000000	99.755889
3745.000000	99.765872
3744.000000	99.779463
3743.000000	99.783391
3742.000000	99.778412
3741.000000	99.778820
3740.000000	99.786441
3739.000000	99.790360
3738.000000	99.786481
3737.000000	99.780611
3736.000000	99.778572
3735.000000	99.779199
3734.000000	99.778959
3733.000000	99.778911
3732.000000	99.781327
3731.000000	99.785321
3730.000000	99.790021
3729.000000	99.797099
3728.000000	99.807418
3727.000000	99.818264
3726.000000	99.824818
3725.000000	99.823785
3724.000000	99.816604
3723.000000	99.808411
3722.000000	99.803467
3721.000000	99.803143
3720.000000	99.807084
3719.000000	99.813788
3718.000000	99.819736
3717.000000	99.820689
3716.000000	99.815167
3715.000000	99.805737
3714.000000	99.797345
3713.000000	99.794050
3712.000000	99.795568
3711.000000	99.796634
3710.000000	99.793379
3709.000000	99.789309
3708.000000	99.790159
3707.000000	99.797147
3706.000000	99.807491
3705.000000	99.817080
3704.000000	99.822563
3703.000000	99.823353
3702.000000	99.822011
3701.000000	99.821556
3700.000000	99.823075
3699.000000	99.826494
3698.000000	99.830799
3697.000000	99.832887
3696.000000	99.828644
3695.000000	99.815693
3694.000000	99.795413
3693.000000	99.772584
3692.000000	99.753560
3691.000000	99.744704
3690.000000	99.749092
3689.000000	99.761685
3688.000000	99.772733
3687.000000	99.779488
3686.000000	99.787927
3685.000000	99.802522
3684.000000	99.820090
3683.000000	99.833837
3682.000000	99.839347
3681.000000	99.835034
3680.000000	99.819800
3679.000000	99.793728
3678.000000	99.762445
3677.000000	99.739936
3676.000000	99.740151
3675.000000	99.755127
3674.000000	99.760321
3673.000000	99.751036
3672.000000	99.741485
3671.000000	99.741401
3670.000000	99.751986
3669.000000	99.766888
3668.000000	99.777938
3667.000000	99.785398
3666.000000	99.792628
3665.000000	99.798172
3664.000000	99.799541
3663.000000	99.797148
3662.000000	99.792895
3661.000000	99.788038
3660.000000	99.783014
3659.000000	99.778409
3658.000000	99.775464
3657.000000	99.774420
3656.000000	99.771924
3655.000000	99.763298
3654.000000	99.749237
3653.000000	99.735833
3652.000000	99.728473
3651.000000	99.730303
3650.000000	99.740073
3649.000000	99.746822
3648.000000	99.740612
3647.000000	99.727022
3646.000000	99.716209
3645.000000	99.710773
3644.000000	99.709624
3643.000000	99.711992
3642.000000	99.716594
3641.000000	99.721072
3640.000000	99.723632
3639.000000	99.724246
3638.000000	99.723814
3637.000000	99.722981
3636.000000	99.722186
3635.000000	99.720958
3634.000000	99.716403
3633.000000	99.704418
3632.000000	99.684097
3631.000000	99.660710
3630.000000	99.644694
3629.000000	99.643364
3628.000000	99.648957
3627.000000	99.650818
3626.000000	99.653244
3625.000000	99.661623
3624.000000	99.670176
3623.000000	99.670819
3622.000000	99.662222
3621.000000	99.649882
3620.000000	99.641651
3619.000000	99.641075
3618.000000	99.643973
3617.000000	99.645219
3616.000000	99.645117
3615.000000	99.646113
3614.000000	99.648119
3613.000000	99.647392
3612.000000	99.639596
3611.000000	99.625556
3610.000000	99.612230
3609.000000	99.607001
3608.000000	99.610679
3607.000000	99.616655
3606.000000	99.618382
3605.000000	99.614877
3604.000000	99.608736
3603.000000	99.602945
3602.000000	99.599251
3601.000000	99.596902
3600.000000	99.593092
3599.000000	99.585856
3598.000000	99.576524
3597.000000	99.568939
3596.000000	99.566298
3595.000000	99.568584
3594.000000	99.572707
3593.000000	99.575082
3592.000000	99.573780
3591.000000	99.568608
3590.000000	99.560369
3589.000000	99.551171
3588.000000	99.543747
3587.000000	99.538590
3586.000000	99.534164
3585.000000	99.530397
3584.000000	99.527930
3583.000000	99.525649
3582.000000	99.521364
3581.000000	99.513905
3580.000000	99.504649
3579.000000	99.496668
3578.000000	99.491967
3577.000000	99.489826
3576.000000	99.487876
3575.000000	99.484535
3574.000000	99.480088
3573.000000	99.475678
3572.000000	99.471645
3571.000000	99.467361
3570.000000	99.462492
3569.000000	99.457979
3568.000000	99.455119
3567.000000	99.452672
3566.000000	99.447258
3565.000000	99.438207
3564.000000	99.428089
3563.000000	99.419248
3562.000000	99.413289
3561.000000	99.411729
3560.000000	99.415260
3559.000000	99.422389
3558.000000	99.429044
3557.000000	99.430372
3556.000000	99.423702
3555.000000	99.410245
3554.000000	99.394310
3553.000000	99.380603
3552.000000	99.371223
3551.000000	99.364686
3550.000000	99.358020
3549.000000	99.349615
3548.000000	99.340506
3547.000000	99.333840
3546.000000	99.332653
3545.000000	99.337074
3544.000000	99.343693
3543.000000	99.347997
3542.000000	99.347388
3541.000000	99.342169
3540.000000	99.334212
3539.000000	99.325188
3538.000000	99.316066
3537.000000	99.307544
3536.000000	99.300067
3535.000000	99.293302
3534.000000	99.286438
3533.000000	99.279287
3532.000000	99.272701
3531.000000	99.267658
3530.000000	99.264100
3529.000000	99.260786
3528.000000	99.256183
3527.000000	99.249727
3526.000000	99.242631
3525.000000	99.237276
3524.000000	99.234890
3523.000000	99.233641
3522.000000	99.230197
3521.000000	99.223739
3520.000000	99.217105
3519.000000	99.213179
3518.000000	99.211147
3517.000000	99.207446
3516.000000	99.200128
3515.000000	99.190709
3514.000000	99.181779
3513.000000	99.174577
3512.000000	99.169550
3511.000000	99.167667
3510.000000	99.169355
3509.000000	99.172439
3508.000000	99.172894
3507.000000	99.168239
3506.000000	99.159468
3505.000000	99.149865
3504.000000	99.142609
3503.000000	99.138935
3502.000000	99.137693
3501.000000	99.136372
3500.000000	99.132855
3499.000000	99.126988
3498.000000	99.120947
3497.000000	99.117572
3496.000000	99.117506
3495.000000	99.118086
3494.000000	99.115542
3493.000000	99.108331
3492.000000	99.098116
3491.000000	99.087891
3490.000000	99.079743
3489.000000	99.074119
3488.000000	99.070390
3487.000000	99.067447
3486.000000	99.064065
3485.000000	99.059415
3484.000000	99.053580
3483.000000	99.047725
3482.000000	99.043666
3481.000000	99.042806
3480.000000	99.044952
3479.000000	99.048081
3478.000000	99.049606
3477.000000	99.048079
3476.000000	99.043580
3475.000000	99.036678
3474.000000	99.027763
3473.000000	99.017856
3472.000000	99.009284
3471.000000	99.004411
3470.000000	99.003475
3469.000000	99.004211
3468.000000	99.003753
3467.000000	99.000816
3466.000000	98.996315
3465.000000	98.992427
3464.000000	98.991076
3463.000000	98.992540
3462.000000	98.995138
3461.000000	98.996512
3460.000000	98.995443
3459.000000	98.992283
3458.000000	98.987745
3457.000000	98.981901
3456.000000	98.974511
3455.000000	98.965931
3454.000000	98.957349
3453.000000	98.950157
3452.000000	98.945029
3451.000000	98.941375
3450.000000	98.937825
3449.000000	98.933624
3448.000000	98.929589
3447.000000	98.927259
3446.000000	98.926888
3445.000000	98.926975
3444.000000	98.925915
3443.000000	98.923353
3442.000000	98.919718
3441.000000	98.915198
3440.000000	98.909867
3439.000000	98.904487
3438.000000	98.900260
3437.000000	98.897659
3436.000000	98.896067
3435.000000	98.894756
3434.000000	98.893689
3433.000000	98.892935
3432.000000	98.891724
3431.000000	98.888769
3430.000000	98.883704
3429.000000	98.877926
3428.000000	98.873608
3427.000000	98.871730
3426.000000	98.871032
3425.000000	98.868951
3424.000000	98.863902
3423.000000	98.856839
3422.000000	98.850528
3421.000000	98.847119
3420.000000	98.846388
3419.000000	98.846319
3418.000000	98.844954
3417.000000	98.841363
3416.000000	98.835503
3415.000000	98.828104
3414.000000	98.820723
3413.000000	98.815128
3412.000000	98.812196
3411.000000	98.811728
3410.000000	98.813432
3409.000000	98.817518
3408.000000	98.823808
3407.000000	98.830688
3406.000000	98.835615
3405.000000	98.836769
3404.000000	98.833980
3403.000000	98.828208
3402.000000	98.820558
3401.000000	98.811951
3400.000000	98.803347
3399.000000	98.795891
3398.000000	98.790613
3397.000000	98.787810
3396.000000	98.786804
3395.000000	98.786732
3394.000000	98.787615
3393.000000	98.790123
3392.000000	98.793896
3391.000000	98.796725
3390.000000	98.796269
3389.000000	98.792418
3388.000000	98.787195
3387.000000	98.782393
3386.000000	98.778027
3385.000000	98.773239
3384.000000	98.767853
3383.000000	98.762533
3382.000000	98.758111
3381.000000	98.755356
3380.000000	98.754786
3379.000000	98.755850
3378.000000	98.756574
3377.000000	98.754922
3376.000000	98.750629
3375.000000	98.745266
3374.000000	98.740599
3373.000000	98.737371
3372.000000	98.735450
3371.000000	98.734233
3370.000000	98.732547
3369.000000	98.728991
3368.000000	98.723241
3367.000000	98.716864
3366.000000	98.712054
3365.000000	98.709278
3364.000000	98.706634
3363.000000	98.701875
3362.000000	98.694803
3361.000000	98.687377
3360.000000	98.681611
3359.000000	98.677753
3358.000000	98.674484
3357.000000	98.670278
3356.000000	98.664289
3355.000000	98.656628
3354.000000	98.648577
3353.000000	98.642260
3352.000000	98.639033
3351.000000	98.637758
3350.000000	98.635305
3349.000000	98.629378
3348.000000	98.620658
3347.000000	98.611883
3346.000000	98.605067
3345.000000	98.599991
3344.000000	98.595094
3343.000000	98.589180
3342.000000	98.582068
3341.000000	98.574069
3340.000000	98.565488
3339.000000	98.556916
3338.000000	98.549644
3337.000000	98.545060
3336.000000	98.543129
3335.000000	98.541820
3334.000000	98.538770
3333.000000	98.533657
3332.000000	98.528427
3331.000000	98.525168
3330.000000	98.524149
3329.000000	98.523860
3328.000000	98.522299
3327.000000	98.518113
3326.000000	98.511292
3325.000000	98.503369
3324.000000	98.496497
3323.000000	98.491707
3322.000000	98.488337
3321.000000	98.485606
3320.000000	98.484173
3319.000000	98.485324
3318.000000	98.488591
3317.000000	98.490946
3316.000000	98.488889
3315.000000	98.481333
3314.000000	98.470494
3313.000000	98.460172
3312.000000	98.453093
3311.000000	98.449635
3310.000000	98.448835
3309.000000	98.450203
3308.000000	98.454066
3307.000000	98.460142
3306.000000	98.466508
3305.000000	98.470410
3304.000000	98.469881
3303.000000	98.464637
3302.000000	98.456186
3301.000000	98.447509
3300.000000	98.441879
3299.000000	98.440819
3298.000000	98.443089
3297.000000	98.446101
3296.000000	98.448239
3295.000000	98.449524
3294.000000	98.450590
3293.000000	98.452032
3292.000000	98.454426
3291.000000	98.457698
3290.000000	98.460184
3289.000000	98.459382
3288.000000	98.454449
3287.000000	98.447613
3286.000000	98.442597
3285.000000	98.441775
3284.000000	98.444788
3283.000000	98.449258
3282.000000	98.452512
3281.000000	98.453270
3280.000000	98.452434
3279.000000	98.452228
3278.000000	98.454164
3277.000000	98.457689
3276.000000	98.460857
3275.000000	98.462127
3274.000000	98.461363
3273.000000	98.459519
3272.000000	98.457913
3271.000000	98.457686
3270.000000	98.459358
3269.000000	98.462473
3268.000000	98.465727
3267.000000	98.467701
3266.000000	98.467836
3265.000000	98.467090
3264.000000	98.467659
3263.000000	98.471651
3262.000000	98.479455
3261.000000	98.489134
3260.000000	98.497542
3259.000000	98.502376
3258.000000	98.503547
3257.000000	98.502917
3256.000000	98.502848
3255.000000	98.504740
3254.000000	98.508677
3253.000000	98.514163
3252.000000	98.520814
3251.000000	98.528222
3250.000000	98.535443
3249.000000	98.541096
3248.000000	98.544121
3247.000000	98.544379
3246.000000	98.542796
3245.000000	98.541137
3244.000000	98.541145
3243.000000	98.543096
3242.000000	98.545265
3241.000000	98.545687
3240.000000	98.544838
3239.000000	98.545699
3238.000000	98.550453
3237.000000	98.557634
3236.000000	98.563432
3235.000000	98.565779
3234.000000	98.566183
3233.000000	98.567484
3232.000000	98.570815
3231.000000	98.575283
3230.000000	98.579929
3229.000000	98.584828
3228.000000	98.590206
3227.000000	98.595281
3226.000000	98.598645
3225.000000	98.599692
3224.000000	98.599345
3223.000000	98.599303
3222.000000	98.600695
3221.000000	98.603524
3220.000000	98.607121
3219.000000	98.610832
3218.000000	98.614290
3217.000000	98.617472
3216.000000	98.620834
3215.000000	98.625099
3214.000000	98.630265
3213.000000	98.634778
3212.000000	98.636283
3211.000000	98.633888
3210.000000	98.629693
3209.000000	98.627526
3208.000000	98.629786
3207.000000	98.635400
3206.000000	98.641047
3205.000000	98.644344
3204.000000	98.645783
3203.000000	98.647670
3202.000000	98.651435
3201.000000	98.656338
3200.000000	98.660810
3199.000000	98.664507
3198.000000	98.668361
3197.000000	98.672708
3196.000000	98.676304
3195.000000	98.677870
3194.000000	98.678138
3193.000000	98.679412
3192.000000	98.682946
3191.000000	98.687408
3190.000000	98.690441
3189.000000	98.691397
3188.000000	98.692091
3187.000000	98.694971
3186.000000	98.700956
3185.000000	98.708946
3184.000000	98.716979
3183.000000	98.723607
3182.000000	98.728427
3181.000000	98.731789
3180.000000	98.734187
3179.000000	98.735983
3178.000000	98.737594
3177.000000	98.739809
3176.000000	98.743716
3175.000000	98.750035
3174.000000	98.758332
3173.000000	98.766873
3172.000000	98.773475
3171.000000	98.776916
3170.000000	98.777777
3169.000000	98.778171
3168.000000	98.780673
3167.000000	98.787089
3166.000000	98.797492
3165.000000	98.809819
3164.000000	98.820645
3163.000000	98.827168
3162.000000	98.829117
3161.000000	98.828772
3160.000000	98.829004
3159.000000	98.831110
3158.000000	98.834277
3157.000000	98.836897
3156.000000	98.838370
3155.000000	98.839835
3154.000000	98.843138
3153.000000	98.848943
3152.000000	98.856014
3151.000000	98.862569
3150.000000	98.867962
3149.000000	98.872419
3148.000000	98.875319
3147.000000	98.875005
3146.000000	98.871016
3145.000000	98.865973
3144.000000	98.864322
3143.000000	98.868856
3142.000000	98.878457
3141.000000	98.889016
3140.000000	98.896582
3139.000000	98.900173
3138.000000	98.902104
3137.000000	98.905481
3136.000000	98.911241
3135.000000	98.917701
3134.000000	98.922823
3133.000000	98.926229
3132.000000	98.928831
3131.000000	98.931486
3130.000000	98.934794
3129.000000	98.939318
3128.000000	98.944699
3127.000000	98.948957
3126.000000	98.950120
3125.000000	98.948754
3124.000000	98.947741
3123.000000	98.949209
3122.000000	98.952600
3121.000000	98.956032
3120.000000	98.958472
3119.000000	98.959815
3118.000000	98.959791
3117.000000	98.958149
3116.000000	98.955820
3115.000000	98.954820
3114.000000	98.956435
3113.000000	98.959760
3112.000000	98.962395
3111.000000	98.962717
3110.000000	98.961639
3109.000000	98.961982
3108.000000	98.965691
3107.000000	98.971436
3106.000000	98.975216
3105.000000	98.973569
3104.000000	98.966264
3103.000000	98.956209
3102.000000	98.947293
3101.000000	98.942233
3100.000000	98.941459
3099.000000	98.943188
3098.000000	98.944591
3097.000000	98.943637
3096.000000	98.940469
3095.000000	98.937275
3094.000000	98.936684
3093.000000	98.939852
3092.000000	98.945483
3091.000000	98.950412
3090.000000	98.951496
3089.000000	98.947585
3088.000000	98.940163
3087.000000	98.932278
3086.000000	98.926830
3085.000000	98.925355
3084.000000	98.927687
3083.000000	98.932313
3082.000000	98.937203
3081.000000	98.940663
3080.000000	98.941797
3079.000000	98.940644
3078.000000	98.938270
3077.000000	98.936461
3076.000000	98.936520
3075.000000	98.937918
3074.000000	98.938443
3073.000000	98.936269
3072.000000	98.932094
3071.000000	98.928994
3070.000000	98.929830
3069.000000	98.934482
3068.000000	98.939602
3067.000000	98.941404
3066.000000	98.939028
3065.000000	98.935150
3064.000000	98.933178
3063.000000	98.934272
3062.000000	98.937229
3061.000000	98.940494
3060.000000	98.943541
3059.000000	98.946835
3058.000000	98.951537
3057.000000	98.959122
3056.000000	98.970043
3055.000000	98.982424
3054.000000	98.992924
3053.000000	98.999315
3052.000000	99.001631
3051.000000	99.000955
3050.000000	98.998403
3049.000000	98.995856
3048.000000	98.996181
3047.000000	99.001010
3046.000000	99.008636
3045.000000	99.015418
3044.000000	99.019414
3043.000000	99.021858
3042.000000	99.025169
3041.000000	99.030359
3040.000000	99.036610
3039.000000	99.042519
3038.000000	99.047199
3037.000000	99.050482
3036.000000	99.052591
3035.000000	99.053865
3034.000000	99.054923
3033.000000	99.056959
3032.000000	99.061205
3031.000000	99.067553
3030.000000	99.074178
3029.000000	99.079371
3028.000000	99.083498
3027.000000	99.088330
3026.000000	99.094463
3025.000000	99.100307
3024.000000	99.103940
3023.000000	99.105370
3022.000000	99.106558
3021.000000	99.109719
3020.000000	99.115840
3019.000000	99.124114
3018.000000	99.132070
3017.000000	99.136619
3016.000000	99.136003
3015.000000	99.131323
3014.000000	99.126087
3013.000000	99.123932
3012.000000	99.126295
3011.000000	99.131534
3010.000000	99.136098
3009.000000	99.137071
3008.000000	99.134247
3007.000000	99.129941
3006.000000	99.126640
3005.000000	99.124951
3004.000000	99.123915
3003.000000	99.122904
3002.000000	99.122561
3001.000000	99.123846
3000.000000	99.126768
2999.000000	99.130423
2998.000000	99.133937
2997.000000	99.136981
2996.000000	99.139507
2995.000000	99.141309
2994.000000	99.141792
2993.000000	99.139971
2992.000000	99.134949
2991.000000	99.126896
2990.000000	99.117649
2989.000000	99.109881
2988.000000	99.105404
2987.000000	99.104300
2986.000000	99.105483
2985.000000	99.107447
2984.000000	99.108349
2983.000000	99.106394
2982.000000	99.101189
2981.000000	99.094566
2980.000000	99.089271
2979.000000	99.086748
2978.000000	99.086600
2977.000000	99.087911
2976.000000	99.090038
2975.000000	99.091965
2974.000000	99.091975
2973.000000	99.088914
2972.000000	99.083515
2971.000000	99.077820
2970.000000	99.073297
2969.000000	99.069904
2968.000000	99.066927
2967.000000	99.064222
2966.000000	99.062273
2965.000000	99.061017
2964.000000	99.059019
2963.000000	99.054518
2962.000000	99.047554
2961.000000	99.040461
2960.000000	99.035471
2959.000000	99.032114
2958.000000	99.027994
2957.000000	99.021965
2956.000000	99.015525
2955.000000	99.010949
2954.000000	99.009288
2953.000000	99.010596
2952.000000	99.014525
2951.000000	99.019501
2950.000000	99.022393
2949.000000	99.020790
2948.000000	99.015560
2947.000000	99.009970
2946.000000	99.006164
2945.000000	99.003387
2944.000000	98.999613
2943.000000	98.993921
2942.000000	98.987132
2941.000000	98.980965
2940.000000	98.976947
2939.000000	98.975439
2938.000000	98.975362
2937.000000	98.975193
2936.000000	98.974209
2935.000000	98.972380
2934.000000	98.969433
2933.000000	98.964916
2932.000000	98.959060
2931.000000	98.952452
2930.000000	98.944661
2929.000000	98.934400
2928.000000	98.921570
2927.000000	98.908210
2926.000000	98.896740
2925.000000	98.888102
2924.000000	98.882075
2923.000000	98.878169
2922.000000	98.875053
2921.000000	98.870302
2920.000000	98.862774
2919.000000	98.855101
2918.000000	98.852156
2917.000000	98.856542
2916.000000	98.866618
2915.000000	98.879427
2914.000000	98.894225
2913.000000	98.912196
2912.000000	98.933315
2911.000000	98.954898
2910.000000	98.973346
2909.000000	98.986796
2908.000000	98.996020
2907.000000	99.003418
2906.000000	99.011336
2905.000000	99.020778
2904.000000	99.031057
2903.000000	99.040452
2902.000000	99.047379
2901.000000	99.051335
2900.000000	99.053249
2899.000000	99.055196
2898.000000	99.059352
2897.000000	99.066538
2896.000000	99.075551
2895.000000	99.084093
2894.000000	99.090532
2893.000000	99.094555
2892.000000	99.096407
2891.000000	99.096360
2890.000000	99.095273
2889.000000	99.094859
2888.000000	99.096330
2887.000000	99.098901
2886.000000	99.100570
2885.000000	99.100538
2884.000000	99.100094
2883.000000	99.100733
2882.000000	99.102210
2881.000000	99.103159
2880.000000	99.103235
2879.000000	99.103696
2878.000000	99.105718
2877.000000	99.108710
2876.000000	99.110719
2875.000000	99.110391
2874.000000	99.108266
2873.000000	99.106071
2872.000000	99.104987
2871.000000	99.104937
2870.000000	99.105539
2869.000000	99.107082
2868.000000	99.109876
2867.000000	99.113052
2866.000000	99.115098
2865.000000	99.115942
2864.000000	99.117468
2863.000000	99.121260
2862.000000	99.126466
2861.000000	99.130695
2860.000000	99.132423
2859.000000	99.131401
2858.000000	99.127217
2857.000000	99.119045
2856.000000	99.107274
2855.000000	99.094164
2854.000000	99.082131
2853.000000	99.071955
2852.000000	99.063303
2851.000000	99.056554
2850.000000	99.053240
2849.000000	99.054746
2848.000000	99.060940
2847.000000	99.070285
2846.000000	99.081205
2845.000000	99.093380
2844.000000	99.107492
2843.000000	99.123473
2842.000000	99.139306
2841.000000	99.152323
2840.000000	99.162030
2839.000000	99.170938
2838.000000	99.182041
2837.000000	99.195754
2836.000000	99.209625
2835.000000	99.220707
2834.000000	99.227621
2833.000000	99.230760
2832.000000	99.231494
2831.000000	99.231421
2830.000000	99.231755
2829.000000	99.232890
2828.000000	99.234431
2827.000000	99.235580
2826.000000	99.235447
2825.000000	99.233424
2824.000000	99.230094
2823.000000	99.227829
2822.000000	99.229556
2821.000000	99.236005
2820.000000	99.244342
2819.000000	99.250341
2818.000000	99.252304
2817.000000	99.252543
2816.000000	99.254693
2815.000000	99.259771
2814.000000	99.265157
2813.000000	99.267401
2812.000000	99.265572
2811.000000	99.261749
2810.000000	99.258670
2809.000000	99.257377
2808.000000	99.257109
2807.000000	99.256835
2806.000000	99.256471
2805.000000	99.256781
2804.000000	99.258522
2803.000000	99.261751
2802.000000	99.265715
2801.000000	99.269295
2800.000000	99.271797
2799.000000	99.273537
2798.000000	99.275646
2797.000000	99.279081
2796.000000	99.283541
2795.000000	99.287266
2794.000000	99.288164
2793.000000	99.285642
2792.000000	99.281561
2791.000000	99.279059
2790.000000	99.279943
2789.000000	99.283298
2788.000000	99.286980
2787.000000	99.290145
2786.000000	99.293503
2785.000000	99.297094
2784.000000	99.299004
2783.000000	99.297306
2782.000000	99.292783
2781.000000	99.288660
2780.000000	99.287468
2779.000000	99.288988
2778.000000	99.291302
2777.000000	99.292998
2776.000000	99.293929
2775.000000	99.294654
2774.000000	99.295935
2773.000000	99.298425
2772.000000	99.302047
2771.000000	99.305645
2770.000000	99.307852
2769.000000	99.308408
2768.000000	99.308280
2767.000000	99.308407
2766.000000	99.308691
2765.000000	99.308413
2764.000000	99.307538
2763.000000	99.307412
2762.000000	99.309876
2761.000000	99.315285
2760.000000	99.321450
2759.000000	99.325186
2758.000000	99.325327
2757.000000	99.323742
2756.000000	99.323061
2755.000000	99.324096
2754.000000	99.326175
2753.000000	99.328975
2752.000000	99.332414
2751.000000	99.335006
2750.000000	99.334358
2749.000000	99.330165
2748.000000	99.325488
2747.000000	99.323852
2746.000000	99.325752
2745.000000	99.328852
2744.000000	99.330951
2743.000000	99.331604
2742.000000	99.331256
2741.000000	99.330124
2740.000000	99.328260
2739.000000	99.326015
2738.000000	99.324165
2737.000000	99.323945
2736.000000	99.326736
2735.000000	99.332968
2734.000000	99.341146
2733.000000	99.348471
2732.000000	99.352706
2731.000000	99.353234
2730.000000	99.350639
2729.000000	99.346095
2728.000000	99.341365
2727.000000	99.338581
2726.000000	99.339204
2725.000000	99.343096
2724.000000	99.348675
2723.000000	99.353803
2722.000000	99.356682
2721.000000	99.356612
2720.000000	99.354441
2719.000000	99.352003
2718.000000	99.350717
2717.000000	99.350769
2716.000000	99.351727
2715.000000	99.353534
2714.000000	99.356488
2713.000000	99.360438
2712.000000	99.364430
2711.000000	99.367215
2710.000000	99.367994
2709.000000	99.366983
2708.000000	99.365563
2707.000000	99.365601
2706.000000	99.367903
2705.000000	99.371161
2704.000000	99.372895
2703.000000	99.371805
2702.000000	99.369073
2701.000000	99.367266
2700.000000	99.368233
2699.000000	99.372051
2698.000000	99.377243
2697.000000	99.381391
2696.000000	99.382171
2695.000000	99.379148
2694.000000	99.374903
2693.000000	99.373425
2692.000000	99.376531
2691.000000	99.382065
2690.000000	99.386111
2689.000000	99.386655
2688.000000	99.384709
2687.000000	99.382494
2686.000000	99.381459
2685.000000	99.381885
2684.000000	99.383194
2683.000000	99.384190
2682.000000	99.383707
2681.000000	99.381654
2680.000000	99.379116
2679.000000	99.377079
2678.000000	99.375442
2677.000000	99.373658
2676.000000	99.371897
2675.000000	99.371020
2674.000000	99.371615
2673.000000	99.373599
2672.000000	99.376657
2671.000000	99.380517
2670.000000	99.384630
2669.000000	99.387880
2668.000000	99.388942
2667.000000	99.387108
2666.000000	99.382948
2665.000000	99.378139
2664.000000	99.374293
2663.000000	99.371693
2662.000000	99.369439
2661.000000	99.366915
2660.000000	99.364660
2659.000000	99.363509
2658.000000	99.363391
2657.000000	99.363672
2656.000000	99.364377
2655.000000	99.366209
2654.000000	99.369270
2653.000000	99.372676
2652.000000	99.375724
2651.000000	99.378687
2650.000000	99.381899
2649.000000	99.384713
2648.000000	99.386234
2647.000000	99.386760
2646.000000	99.387461
2645.000000	99.388526
2644.000000	99.388634
2643.000000	99.386788
2642.000000	99.383933
2641.000000	99.382057
2640.000000	99.382217
2639.000000	99.384425
2638.000000	99.388992
2637.000000	99.396317
2636.000000	99.404748
2635.000000	99.410163
2634.000000	99.409341
2633.000000	99.403560
2632.000000	99.397745
2631.000000	99.396014
2630.000000	99.398905
2629.000000	99.404685
2628.000000	99.411655
2627.000000	99.418394
2626.000000	99.423023
2625.000000	99.424008
2624.000000	99.422011
2623.000000	99.420080
2622.000000	99.421309
2621.000000	99.426191
2620.000000	99.432280
2619.000000	99.436431
2618.000000	99.437309
2617.000000	99.435833
2616.000000	99.433651
2615.000000	99.431962
2614.000000	99.431881
2613.000000	99.434577
2612.000000	99.439678
2611.000000	99.444101
2610.000000	99.444334
2609.000000	99.440353
2608.000000	99.436047
2607.000000	99.435107
2606.000000	99.437572
2605.000000	99.441270
2604.000000	99.445404
2603.000000	99.451176
2602.000000	99.458913
2601.000000	99.466021
2600.000000	99.468814
2599.000000	99.466397
2598.000000	99.462228
2597.000000	99.461216
2596.000000	99.465083
2595.000000	99.471130
2594.000000	99.475621
2593.000000	99.477199
2592.000000	99.476262
2591.000000	99.472919
2590.000000	99.468047
2589.000000	99.465294
2588.000000	99.468608
2587.000000	99.476847
2586.000000	99.483740
2585.000000	99.484520
2584.000000	99.480735
2583.000000	99.477363
2582.000000	99.477520
2581.000000	99.481486
2580.000000	99.488018
2579.000000	99.493992
2578.000000	99.494847
2577.000000	99.488927
2576.000000	99.480691
2575.000000	99.476817
2574.000000	99.479392
2573.000000	99.485268
2572.000000	99.491138
2571.000000	99.496171
2570.000000	99.499866
2569.000000	99.500952
2568.000000	99.499852
2567.000000	99.499984
2566.000000	99.504853
2565.000000	99.514672
2564.000000	99.526065
2563.000000	99.534081
2562.000000	99.534761
2561.000000	99.527989
2560.000000	99.518512
2559.000000	99.512418
2558.000000	99.511907
2557.000000	99.514548
2556.000000	99.517505
2555.000000	99.520335
2554.000000	99.523290
2553.000000	99.525500
2552.000000	99.526426
2551.000000	99.527175
2550.000000	99.528497
2549.000000	99.528517
2548.000000	99.524357
2547.000000	99.515440
2546.000000	99.504106
2545.000000	99.493642
2544.000000	99.487038
2543.000000	99.486797
2542.000000	99.493752
2541.000000	99.505208
2540.000000	99.515215
2539.000000	99.518042
2538.000000	99.512172
2537.000000	99.501594
2536.000000	99.493114
2535.000000	99.491389
2534.000000	99.495586
2533.000000	99.500811
2532.000000	99.502976
2531.000000	99.502330
2530.000000	99.502035
2529.000000	99.503918
2528.000000	99.506177
2527.000000	99.505459
2526.000000	99.500859
2525.000000	99.495454
2524.000000	99.493708
2523.000000	99.497573
2522.000000	99.505251
2521.000000	99.513134
2520.000000	99.517817
2519.000000	99.516549
2518.000000	99.508035
2517.000000	99.494471
2516.000000	99.481705
2515.000000	99.475305
2514.000000	99.476152
2513.000000	99.480674
2512.000000	99.484880
2511.000000	99.487018
2510.000000	99.486897
2509.000000	99.484728
2508.000000	99.481315
2507.000000	99.478333
2506.000000	99.477806
2505.000000	99.481385
2504.000000	99.489387
2503.000000	99.499485
2502.000000	99.507266
2501.000000	99.510263
2500.000000	99.511265
2499.000000	99.515399
2498.000000	99.523077
2497.000000	99.528154
2496.000000	99.524833
2495.000000	99.515077
2494.000000	99.507475
2493.000000	99.508775
2492.000000	99.517493
2491.000000	99.525694
2490.000000	99.526421
2489.000000	99.520020
2488.000000	99.513537
2487.000000	99.513535
2486.000000	99.519425
2485.000000	99.524446
2484.000000	99.523274
2483.000000	99.517328
2482.000000	99.512219
2481.000000	99.512016
2480.000000	99.517080
2479.000000	99.525791
2478.000000	99.535818
2477.000000	99.544173
2476.000000	99.548580
2475.000000	99.549648
2474.000000	99.550288
2473.000000	99.552272
2472.000000	99.554566
2471.000000	99.555613
2470.000000	99.555974
2469.000000	99.557463
2468.000000	99.560358
2467.000000	99.562906
2466.000000	99.563373
2465.000000	99.561376
2464.000000	99.557233
2463.000000	99.551589
2462.000000	99.546440
2461.000000	99.545021
2460.000000	99.548710
2459.000000	99.554179
2458.000000	99.555381
2457.000000	99.549161
2456.000000	99.538265
2455.000000	99.528427
2454.000000	99.523215
2453.000000	99.522199
2452.000000	99.522809
2451.000000	99.522697
2450.000000	99.520987
2449.000000	99.518839
2448.000000	99.519074
2447.000000	99.523943
2446.000000	99.532489
2445.000000	99.540669
2444.000000	99.544838
2443.000000	99.545100
2442.000000	99.545014
2441.000000	99.548130
2440.000000	99.554854
2439.000000	99.562463
2438.000000	99.567721
2437.000000	99.569353
2436.000000	99.568185
2435.000000	99.565436
2434.000000	99.561518
2433.000000	99.556609
2432.000000	99.551962
2431.000000	99.550167
2430.000000	99.553699
2429.000000	99.562617
2428.000000	99.573138
2427.000000	99.579173
2426.000000	99.576833
2425.000000	99.568119
2424.000000	99.559316
2423.000000	99.554947
2422.000000	99.553626
2421.000000	99.550821
2420.000000	99.545282
2419.000000	99.541333
2418.000000	99.544074
2417.000000	99.552810
2416.000000	99.560556
2415.000000	99.560744
2414.000000	99.553865
2413.000000	99.546465
2412.000000	99.543684
2411.000000	99.544366
2410.000000	99.544314
2409.000000	99.542610
2408.000000	99.542654
2407.000000	99.547320
2406.000000	99.555157
2405.000000	99.561815
2404.000000	99.563891
2403.000000	99.561375
2402.000000	99.557783
2401.000000	99.557855
2400.000000	99.563233
2399.000000	99.569832
2398.000000	99.571398
2397.000000	99.566507
2396.000000	99.560349
2395.000000	99.558647
2394.000000	99.561506
2393.000000	99.564708
2392.000000	99.565407
2391.000000	99.564574
2390.000000	99.564709
2389.000000	99.567079
2388.000000	99.571113
2387.000000	99.574921
2386.000000	99.576408
2385.000000	99.574699
2384.000000	99.570653
2383.000000	99.565780
2382.000000	99.561162
2381.000000	99.557984
2380.000000	99.557712
2379.000000	99.560454
2378.000000	99.564041
2377.000000	99.566372
2376.000000	99.568394
2375.000000	99.573127
2374.000000	99.581682
2373.000000	99.591432
2372.000000	99.598239
2371.000000	99.599524
2370.000000	99.595462
2369.000000	99.588165
2368.000000	99.579384
2367.000000	99.569087
2366.000000	99.557212
2365.000000	99.546333
2364.000000	99.539939
2363.000000	99.537722
2362.000000	99.537038
2361.000000	99.539731
2360.000000	99.550520
2359.000000	99.568014
2358.000000	99.582655
2357.000000	99.585534
2356.000000	99.577239
2355.000000	99.563777
2354.000000	99.551265
2353.000000	99.544733
2352.000000	99.545992
2351.000000	99.550862
2350.000000	99.551694
2349.000000	99.545202
2348.000000	99.534876
2347.000000	99.528074
2346.000000	99.529645
2345.000000	99.535711
2344.000000	99.538386
2343.000000	99.534690
2342.000000	99.528992
2341.000000	99.525732
2340.000000	99.524043
2339.000000	99.521173
2338.000000	99.516791
2337.000000	99.513714
2336.000000	99.514694
2335.000000	99.520546
2334.000000	99.529777
2333.000000	99.539956
2332.000000	99.547687
2331.000000	99.550759
2330.000000	99.548731
2329.000000	99.543903
2328.000000	99.536928
2327.000000	99.525130
2326.000000	99.506889
2325.000000	99.486926
2324.000000	99.476007
2323.000000	99.480192
2322.000000	99.493782
2321.000000	99.504691
2320.000000	99.506726
2319.000000	99.503115
2318.000000	99.497966
2317.000000	99.492302
2316.000000	99.487323
2315.000000	99.487712
2314.000000	99.496402
2313.000000	99.509732
2312.000000	99.519865
2311.000000	99.521926
2310.000000	99.516920
2309.000000	99.509367
2308.000000	99.503756
2307.000000	99.501871
2306.000000	99.502362
2305.000000	99.502815
2304.000000	99.503185
2303.000000	99.505778
2302.000000	99.511957
2301.000000	99.520748
2300.000000	99.530788
2299.000000	99.541707
2298.000000	99.551487
2297.000000	99.555276
2296.000000	99.548706
2295.000000	99.532464
2294.000000	99.512286
2293.000000	99.495262
2292.000000	99.486703
2291.000000	99.487893
2290.000000	99.494999
2289.000000	99.500582
2288.000000	99.499194
2287.000000	99.491606
2286.000000	99.483134
2285.000000	99.477759
2284.000000	99.475166
2283.000000	99.473036
2282.000000	99.471156
2281.000000	99.472576
2280.000000	99.480742
2279.000000	99.495443
2278.000000	99.511776
2277.000000	99.523807
2276.000000	99.529090
2275.000000	99.529531
2274.000000	99.528583
2273.000000	99.529037
2272.000000	99.532398
2271.000000	99.537799
2270.000000	99.541138
2269.000000	99.537581
2268.000000	99.526402
2267.000000	99.512589
2266.000000	99.503052
2265.000000	99.501916
2264.000000	99.509210
2263.000000	99.522616
2262.000000	99.539302
2261.000000	99.555811
2260.000000	99.567119
2259.000000	99.567992
2258.000000	99.558411
2257.000000	99.547223
2256.000000	99.545736
2255.000000	99.554998
2254.000000	99.563337
2253.000000	99.560288
2252.000000	99.549176
2251.000000	99.541480
2250.000000	99.542643
2249.000000	99.549310
2248.000000	99.557396
2247.000000	99.565156
2246.000000	99.569247
2245.000000	99.565826
2244.000000	99.557592
2243.000000	99.553614
2242.000000	99.559373
2241.000000	99.570874
2240.000000	99.579742
2239.000000	99.580364
2238.000000	99.571523
2237.000000	99.556064
2236.000000	99.540410
2235.000000	99.530368
2234.000000	99.526524
2233.000000	99.527094
2232.000000	99.533944
2231.000000	99.549764
2230.000000	99.569298
2229.000000	99.580795
2228.000000	99.579150
2227.000000	99.572293
2226.000000	99.572169
2225.000000	99.583828
2224.000000	99.604206
2223.000000	99.625890
2222.000000	99.639840
2221.000000	99.639641
2220.000000	99.626040
2219.000000	99.604236
2218.000000	99.577411
2217.000000	99.548814
2216.000000	99.528917
2215.000000	99.531156
2214.000000	99.557475
2213.000000	99.594355
2212.000000	99.625673
2211.000000	99.643834
2210.000000	99.646216
2209.000000	99.629363
2208.000000	99.592881
2207.000000	99.544674
2206.000000	99.498581
2205.000000	99.468699
2204.000000	99.463531
2203.000000	99.478904
2202.000000	99.497577
2201.000000	99.504266
2200.000000	99.501755
2199.000000	99.503327
2198.000000	99.510139
2197.000000	99.509425
2196.000000	99.498455
2195.000000	99.495373
2194.000000	99.517928
2193.000000	99.562006
2192.000000	99.608523
2191.000000	99.640843
2190.000000	99.646576
2189.000000	99.616798
2188.000000	99.560026
2187.000000	99.508035
2186.000000	99.490081
2185.000000	99.502591
2184.000000	99.515860
2183.000000	99.510271
2182.000000	99.495162
2181.000000	99.492680
2180.000000	99.514207
2179.000000	99.552958
2178.000000	99.590227
2177.000000	99.608011
2176.000000	99.604468
2175.000000	99.596529
2174.000000	99.598770
2173.000000	99.602327
2172.000000	99.585737
2171.000000	99.545253
2170.000000	99.502884
2169.000000	99.483087
2168.000000	99.488934
2167.000000	99.505256
2166.000000	99.518673
2165.000000	99.527258
2164.000000	99.533921
2163.000000	99.538448
2162.000000	99.541001
2161.000000	99.552188
2160.000000	99.593046
2159.000000	99.675009
2158.000000	99.777150
2157.000000	99.855762
2156.000000	99.882190
2155.000000	99.861898
2154.000000	99.820620
2153.000000	99.784836
2152.000000	99.769056
2151.000000	99.768355
2150.000000	99.763163
2149.000000	99.739209
2148.000000	99.704375
2147.000000	99.680348
2146.000000	99.679423
2145.000000	99.696356
2144.000000	99.720181
2143.000000	99.742795
2142.000000	99.754773
2141.000000	99.745669
2140.000000	99.716211
2139.000000	99.682727
2138.000000	99.662324
2137.000000	99.657988
2136.000000	99.661850
2135.000000	99.667964
2134.000000	99.675648
2133.000000	99.683333
2132.000000	99.686652
2131.000000	99.683192
2130.000000	99.675741
2129.000000	99.670493
2128.000000	99.672468
2127.000000	99.681254
2126.000000	99.690642
2125.000000	99.693949
2124.000000	99.689646
2123.000000	99.679746
2122.000000	99.664017
2121.000000	99.640459
2120.000000	99.612067
2119.000000	99.587765
2118.000000	99.574165
2117.000000	99.570214
2116.000000	99.572175
2115.000000	99.579816
2114.000000	99.593476
2113.000000	99.608095
2112.000000	99.615801
2111.000000	99.614411
2110.000000	99.609541
2109.000000	99.607760
2108.000000	99.609721
2107.000000	99.610025
2106.000000	99.602945
2105.000000	99.589041
2104.000000	99.576747
2103.000000	99.575585
2102.000000	99.586403
2101.000000	99.600142
2100.000000	99.607438
2099.000000	99.607391
2098.000000	99.605907
2097.000000	99.609149
2096.000000	99.620779
2095.000000	99.640941
2094.000000	99.662842
2093.000000	99.672885
2092.000000	99.661168
2091.000000	99.632696
2090.000000	99.604060
2089.000000	99.587468
2088.000000	99.580180
2087.000000	99.571910
2086.000000	99.560220
2085.000000	99.554243
2084.000000	99.562735
2083.000000	99.581967
2082.000000	99.598660
2081.000000	99.603151
2080.000000	99.595862
2079.000000	99.581435
2078.000000	99.562357
2077.000000	99.541974
2076.000000	99.528264
2075.000000	99.527819
2074.000000	99.537696
2073.000000	99.548543
2072.000000	99.555200
2071.000000	99.559173
2070.000000	99.562115
2069.000000	99.563448
2068.000000	99.564455
2067.000000	99.568051
2066.000000	99.572933
2065.000000	99.573849
2064.000000	99.569867
2063.000000	99.566994
2062.000000	99.570824
2061.000000	99.581850
2060.000000	99.598140
2059.000000	99.616258
2058.000000	99.629151
2057.000000	99.631128
2056.000000	99.627118
2055.000000	99.627931
2054.000000	99.631751
2053.000000	99.620136
2052.000000	99.580826
2051.000000	99.527709
2050.000000	99.491191
2049.000000	99.491460
2048.000000	99.523985
2047.000000	99.569308
2046.000000	99.609737
2045.000000	99.634469
2044.000000	99.639584
2043.000000	99.630012
2042.000000	99.617213
2041.000000	99.611199
2040.000000	99.614044
2039.000000	99.620891
2038.000000	99.627447
2037.000000	99.637429
2036.000000	99.661099
2035.000000	99.702266
2034.000000	99.748364
2033.000000	99.780535
2032.000000	99.793340
2031.000000	99.794335
2030.000000	99.784751
2029.000000	99.757175
2028.000000	99.716316
2027.000000	99.685392
2026.000000	99.683278
2025.000000	99.704591
2024.000000	99.728793
2023.000000	99.741311
2022.000000	99.739791
2021.000000	99.729909
2020.000000	99.724095
2019.000000	99.736252
2018.000000	99.767220
2017.000000	99.797229
2016.000000	99.802073
2015.000000	99.776501
2014.000000	99.735340
2013.000000	99.697907
2012.000000	99.675204
2011.000000	99.665399
2010.000000	99.659410
2009.000000	99.654072
2008.000000	99.659230
2007.000000	99.685175
2006.000000	99.723822
2005.000000	99.752792
2004.000000	99.761016
2003.000000	99.759710
2002.000000	99.763870
2001.000000	99.771483
2000.000000	99.765052
1999.000000	99.731589
1998.000000	99.679433
1997.000000	99.637241
1996.000000	99.632336
1995.000000	99.664018
1994.000000	99.700797
1993.000000	99.708917
1992.000000	99.686343
1991.000000	99.659546
1990.000000	99.645319
1989.000000	99.634792
1988.000000	99.616469
1987.000000	99.594414
1986.000000	99.577235
1985.000000	99.563780
1984.000000	99.549096
1983.000000	99.534010
1982.000000	99.519606
1981.000000	99.502370
1980.000000	99.486460
1979.000000	99.493209
1978.000000	99.540968
1977.000000	99.614559
1976.000000	99.673772
1975.000000	99.696497
1974.000000	99.695681
1973.000000	99.695276
1972.000000	99.706753
1971.000000	99.728992
1970.000000	99.758817
1969.000000	99.794342
1968.000000	99.830596
1967.000000	99.857313
1966.000000	99.865549
1965.000000	99.857268
1964.000000	99.843145
1963.000000	99.828103
1962.000000	99.804176
1961.000000	99.762373
1960.000000	99.707775
1959.000000	99.655805
1958.000000	99.617668
1957.000000	99.597916
1956.000000	99.600674
1955.000000	99.626933
1954.000000	99.665837
1953.000000	99.697644
1952.000000	99.708457
1951.000000	99.697127
1950.000000	99.670690
1949.000000	99.641692
1948.000000	99.627606
1947.000000	99.640974
1946.000000	99.675533
1945.000000	99.709928
1944.000000	99.728391
1943.000000	99.731546
1942.000000	99.725524
1941.000000	99.711527
1940.000000	99.692793
1939.000000	99.680698
1938.000000	99.685345
1937.000000	99.703505
1936.000000	99.721205
1935.000000	99.728450
1934.000000	99.726472
1933.000000	99.721897
1932.000000	99.718997
1931.000000	99.716839
1930.000000	99.712450
1929.000000	99.705818
1928.000000	99.701826
1927.000000	99.707175
1926.000000	99.723366
1925.000000	99.744765
1924.000000	99.761755
1923.000000	99.765942
1922.000000	99.755765
1921.000000	99.738079
1920.000000	99.723247
1919.000000	99.717956
1918.000000	99.720412
1917.000000	99.721427
1916.000000	99.714889
1915.000000	99.703799
1914.000000	99.694628
1913.000000	99.691906
1912.000000	99.696174
1911.000000	99.703064
1910.000000	99.706341
1909.000000	99.704126
1908.000000	99.701359
1907.000000	99.702869
1906.000000	99.705339
1905.000000	99.702557
1904.000000	99.695130
1903.000000	99.689887
1902.000000	99.690588
1901.000000	99.693415
1900.000000	99.694488
1899.000000	99.695982
1898.000000	99.700297
1897.000000	99.704072
1896.000000	99.702354
1895.000000	99.696592
1894.000000	99.693851
1893.000000	99.697262
1892.000000	99.701901
1891.000000	99.700407
1890.000000	99.691052
1889.000000	99.680856
1888.000000	99.679219
1887.000000	99.688094
1886.000000	99.700721
1885.000000	99.708878
1884.000000	99.710087
1883.000000	99.707691
1882.000000	99.705240
1881.000000	99.703031
1880.000000	99.700418
1879.000000	99.698760
1878.000000	99.700513
1877.000000	99.707914
1876.000000	99.721034
1875.000000	99.733793
1874.000000	99.735543
1873.000000	99.721564
1872.000000	99.700844
1871.000000	99.689408
1870.000000	99.696276
1869.000000	99.715132
1868.000000	99.731688
1867.000000	99.741499
1866.000000	99.749465
1865.000000	99.756818
1864.000000	99.761568
1863.000000	99.764072
1862.000000	99.765501
1861.000000	99.764230
1860.000000	99.758140
1859.000000	99.749434
1858.000000	99.743464
1857.000000	99.743205
1856.000000	99.746845
1855.000000	99.750342
1854.000000	99.750730
1853.000000	99.747693
1852.000000	99.742992
1851.000000	99.739250
1850.000000	99.736281
1849.000000	99.732370
1848.000000	99.729252
1847.000000	99.731465
1846.000000	99.741350
1845.000000	99.756352
1844.000000	99.769835
1843.000000	99.775717
1842.000000	99.775555
1841.000000	99.773672
1840.000000	99.770257
1839.000000	99.763861
1838.000000	99.754261
1837.000000	99.745207
1836.000000	99.742619
1835.000000	99.748161
1834.000000	99.756856
1833.000000	99.763250
1832.000000	99.768044
1831.000000	99.775750
1830.000000	99.784153
1829.000000	99.785240
1828.000000	99.780824
1827.000000	99.779480
1826.000000	99.781979
1825.000000	99.783169
1824.000000	99.781497
1823.000000	99.780412
1822.000000	99.780900
1821.000000	99.779560
1820.000000	99.776074
1819.000000	99.774750
1818.000000	99.777361
1817.000000	99.781152
1816.000000	99.784180
1815.000000	99.788322
1814.000000	99.794559
1813.000000	99.798642
1812.000000	99.796359
1811.000000	99.788713
1810.000000	99.780350
1809.000000	99.774557
1808.000000	99.771104
1807.000000	99.768570
1806.000000	99.765102
1805.000000	99.758846
1804.000000	99.750913
1803.000000	99.745800
1802.000000	99.746411
1801.000000	99.748499
1800.000000	99.745885
1799.000000	99.737499
1798.000000	99.726278
1797.000000	99.714471
1796.000000	99.703328
1795.000000	99.695200
1794.000000	99.692485
1793.000000	99.696662
1792.000000	99.708507
1791.000000	99.726171
1790.000000	99.745389
1789.000000	99.759840
1788.000000	99.764987
1787.000000	99.763410
1786.000000	99.761373
1785.000000	99.761370
1784.000000	99.761441
1783.000000	99.761491
1782.000000	99.764358
1781.000000	99.769021
1780.000000	99.772405
1779.000000	99.772887
1778.000000	99.771082
1777.000000	99.768324
1776.000000	99.766036
1775.000000	99.766746
1774.000000	99.770775
1773.000000	99.776842
1772.000000	99.783432
1771.000000	99.790439
1770.000000	99.799830
1769.000000	99.808261
1768.000000	99.809769
1767.000000	99.804889
1766.000000	99.798805
1765.000000	99.795025
1764.000000	99.793973
1763.000000	99.795457
1762.000000	99.798726
1761.000000	99.800368
1760.000000	99.800887
1759.000000	99.803601
1758.000000	99.808168
1757.000000	99.810230
1756.000000	99.807717
1755.000000	99.804792
1754.000000	99.803565
1753.000000	99.799730
1752.000000	99.790787
1751.000000	99.782878
1750.000000	99.783334
1749.000000	99.792788
1748.000000	99.805448
1747.000000	99.815626
1746.000000	99.820646
1745.000000	99.819974
1744.000000	99.816782
1743.000000	99.813870
1742.000000	99.810357
1741.000000	99.803907
1740.000000	99.795449
1739.000000	99.788975
1738.000000	99.787084
1737.000000	99.788422
1736.000000	99.787808
1735.000000	99.788099
1734.000000	99.793805
1733.000000	99.792763
1732.000000	99.788111
1731.000000	99.794609
1730.000000	99.808861
1729.000000	99.820380
1728.000000	99.825466
1727.000000	99.828484
1726.000000	99.831791
1725.000000	99.832204
1724.000000	99.828814
1723.000000	99.824218
1722.000000	99.821558
1721.000000	99.820594
1720.000000	99.818244
1719.000000	99.814202
1718.000000	99.811086
1717.000000	99.804696
1716.000000	99.793199
1715.000000	99.786025
1714.000000	99.783322
1713.000000	99.775317
1712.000000	99.758333
1711.000000	99.737894
1710.000000	99.719275
1709.000000	99.699593
1708.000000	99.674660
1707.000000	99.645737
1706.000000	99.616388
1705.000000	99.587265
1704.000000	99.562900
1703.000000	99.538518
1702.000000	99.507948
1701.000000	99.474756
1700.000000	99.438181
1699.000000	99.398550
1698.000000	99.358028
1697.000000	99.316458
1696.000000	99.275221
1695.000000	99.239461
1694.000000	99.204050
1693.000000	99.168355
1692.000000	99.117198
1691.000000	99.081172
1690.000000	99.046484
1689.000000	99.003391
1688.000000	98.961895
1687.000000	98.916587
1686.000000	98.860369
1685.000000	98.786649
1684.000000	98.708438
1683.000000	98.655314
1682.000000	98.637691
1681.000000	98.624722
1680.000000	98.589729
1679.000000	98.536929
1678.000000	98.479545
1677.000000	98.417057
1676.000000	98.340036
1675.000000	98.252579
1674.000000	98.172864
1673.000000	98.107599
1672.000000	98.046746
1671.000000	97.976677
1670.000000	97.894080
1669.000000	97.807028
1668.000000	97.729352
1667.000000	97.668738
1666.000000	97.617567
1665.000000	97.561396
1664.000000	97.491656
1663.000000	97.413767
1662.000000	97.342778
1661.000000	97.285066
1660.000000	97.237075
1659.000000	97.193925
1658.000000	97.152891
1657.000000	97.111881
1656.000000	97.070042
1655.000000	97.024698
1654.000000	96.981837
1653.000000	96.941890
1652.000000	96.892035
1651.000000	96.863042
1650.000000	96.867064
1649.000000	96.875149
1648.000000	96.867952
1647.000000	96.855737
1646.000000	96.853248
1645.000000	96.855412
1644.000000	96.854556
1643.000000	96.849969
1642.000000	96.842877
1641.000000	96.831402
1640.000000	96.816381
1639.000000	96.803420
1638.000000	96.795543
1637.000000	96.792564
1636.000000	96.792862
1635.000000	96.791468
1634.000000	96.788560
1633.000000	96.790676
1632.000000	96.795668
1631.000000	96.800045
1630.000000	96.806460
1629.000000	96.819637
1628.000000	96.841669
1627.000000	96.871444
1626.000000	96.908663
1625.000000	96.955350
1624.000000	97.016412
1623.000000	97.089445
1622.000000	97.158672
1621.000000	97.213890
1620.000000	97.259887
1619.000000	97.304413
1618.000000	97.356162
1617.000000	97.423704
1616.000000	97.500422
1615.000000	97.575175
1614.000000	97.647281
1613.000000	97.714710
1612.000000	97.775347
1611.000000	97.833101
1610.000000	97.891650
1609.000000	97.949199
1608.000000	98.002880
1607.000000	98.052334
1606.000000	98.097939
1605.000000	98.138889
1604.000000	98.176163
1603.000000	98.211156
1602.000000	98.243291
1601.000000	98.272395
1600.000000	98.299023
1599.000000	98.322393
1598.000000	98.341120
1597.000000	98.356962
1596.000000	98.373825
1595.000000	98.391467
1594.000000	98.405274
1593.000000	98.413438
1592.000000	98.419810
1591.000000	98.427589
1590.000000	98.434642
1589.000000	98.436669
1588.000000	98.431599
1587.000000	98.418719
1586.000000	98.398019
1585.000000	98.372616
1584.000000	98.348061
1583.000000	98.327364
1582.000000	98.305411
1581.000000	98.276900
1580.000000	98.243922
1579.000000	98.210002
1578.000000	98.171863
1577.000000	98.126999
1576.000000	98.081039
1575.000000	98.043188
1574.000000	98.020733
1573.000000	98.007920
1572.000000	97.990324
1571.000000	97.959635
1570.000000	97.917779
1569.000000	97.872203
1568.000000	97.832221
1567.000000	97.800015
1566.000000	97.765710
1565.000000	97.721745
1564.000000	97.671307
1563.000000	97.622950
1562.000000	97.575374
1561.000000	97.517615
1560.000000	97.443270
1559.000000	97.364105
1558.000000	97.299974
1557.000000	97.272800
1556.000000	97.270404
1555.000000	97.267960
1554.000000	97.255401
1553.000000	97.232174
1552.000000	97.206340
1551.000000	97.182602
1550.000000	97.159309
1549.000000	97.135389
1548.000000	97.110725
1547.000000	97.086002
1546.000000	97.060863
1545.000000	97.036575
1544.000000	97.015536
1543.000000	96.997222
1542.000000	96.977492
1541.000000	96.960083
1540.000000	96.958581
1539.000000	96.973086
1538.000000	96.994954
1537.000000	97.021782
1536.000000	97.050307
1535.000000	97.080926
1534.000000	97.122336
1533.000000	97.171149
1532.000000	97.210293
1531.000000	97.236677
1530.000000	97.257357
1529.000000	97.278781
1528.000000	97.303859
1527.000000	97.330234
1526.000000	97.350807
1525.000000	97.358969
1524.000000	97.357736
1523.000000	97.358320
1522.000000	97.373648
1521.000000	97.401549
1520.000000	97.425750
1519.000000	97.445916
1518.000000	97.468575
1517.000000	97.495686
1516.000000	97.523063
1515.000000	97.542742
1514.000000	97.551326
1513.000000	97.550127
1512.000000	97.546770
1511.000000	97.548209
1510.000000	97.552852
1509.000000	97.552031
1508.000000	97.547628
1507.000000	97.558181
1506.000000	97.574689
1505.000000	97.576117
1504.000000	97.572495
1503.000000	97.574092
1502.000000	97.576718
1501.000000	97.572793
1500.000000	97.563228
1499.000000	97.554199
1498.000000	97.546080
1497.000000	97.534344
1496.000000	97.519656
1495.000000	97.509096
1494.000000	97.505251
1493.000000	97.500598
1492.000000	97.487771
1491.000000	97.468505
1490.000000	97.449389
1489.000000	97.431499
1488.000000	97.413837
1487.000000	97.396389
1486.000000	97.377626
1485.000000	97.353922
1484.000000	97.323738
1483.000000	97.290284
1482.000000	97.254887
1481.000000	97.218419
1480.000000	97.183678
1479.000000	97.152505
1478.000000	97.120468
1477.000000	97.081205
1476.000000	97.034774
1475.000000	96.986128
1474.000000	96.935026
1473.000000	96.876434
1472.000000	96.817936
1471.000000	96.773447
1470.000000	96.740652
1469.000000	96.707346
1468.000000	96.668989
1467.000000	96.628915
1466.000000	96.589858
1465.000000	96.548991
1464.000000	96.506472
1463.000000	96.467332
1462.000000	96.430754
1461.000000	96.390884
1460.000000	96.343310
1459.000000	96.287288
1458.000000	96.224314
1457.000000	96.162094
1456.000000	96.113238
1455.000000	96.082491
1454.000000	96.060689
1453.000000	96.036857
1452.000000	96.009083
1451.000000	95.982039
1450.000000	95.957595
1449.000000	95.934213
1448.000000	95.913538
1447.000000	95.897631
1446.000000	95.882974
1445.000000	95.865287
1444.000000	95.849546
1443.000000	95.841762
1442.000000	95.839815
1441.000000	95.837553
1440.000000	95.833391
1439.000000	95.829130
1438.000000	95.824696
1437.000000	95.820801
1436.000000	95.817941
1435.000000	95.813890
1434.000000	95.805456
1433.000000	95.791414
1432.000000	95.774720
1431.000000	95.761133
1430.000000	95.750768
1429.000000	95.738626
1428.000000	95.723299
1427.000000	95.707068
1426.000000	95.689615
1425.000000	95.668355
1424.000000	95.647549
1423.000000	95.633316
1422.000000	95.622372
1421.000000	95.606118
1420.000000	95.584498
1419.000000	95.568679
1418.000000	95.563852
1417.000000	95.564760
1416.000000	95.564786
1415.000000	95.558988
1414.000000	95.546152
1413.000000	95.531139
1412.000000	95.523067
1411.000000	95.526264
1410.000000	95.535023
1409.000000	95.542665
1408.000000	95.550222
1407.000000	95.561971
1406.000000	95.578542
1405.000000	95.597159
1404.000000	95.618023
1403.000000	95.640966
1402.000000	95.661946
1401.000000	95.679049
1400.000000	95.696900
1399.000000	95.720853
1398.000000	95.747896
1397.000000	95.773430
1396.000000	95.800416
1395.000000	95.834258
1394.000000	95.872273
1393.000000	95.908566
1392.000000	95.944847
1391.000000	95.984000
1390.000000	96.023738
1389.000000	96.062093
1388.000000	96.103680
1387.000000	96.152638
1386.000000	96.202996
1385.000000	96.246751
1384.000000	96.284676
1383.000000	96.321330
1382.000000	96.357962
1381.000000	96.394060
1380.000000	96.431188
1379.000000	96.471408
1378.000000	96.513057
1377.000000	96.553429
1376.000000	96.594258
1375.000000	96.640343
1374.000000	96.691847
1373.000000	96.742427
1372.000000	96.787654
1371.000000	96.829150
1370.000000	96.871967
1369.000000	96.919919
1368.000000	96.972284
1367.000000	97.023053
1366.000000	97.067077
1365.000000	97.106552
1364.000000	97.149700
1363.000000	97.202270
1362.000000	97.259623
1361.000000	97.311086
1360.000000	97.350831
1359.000000	97.379688
1358.000000	97.401885
1357.000000	97.422807
1356.000000	97.445821
1355.000000	97.469011
1354.000000	97.487712
1353.000000	97.500812
1352.000000	97.511382
1351.000000	97.521071
1350.000000	97.528467
1349.000000	97.531684
1348.000000	97.531004
1347.000000	97.526948
1346.000000	97.519828
1345.000000	97.511529
1344.000000	97.504864
1343.000000	97.500223
1342.000000	97.495893
1341.000000	97.492041
1340.000000	97.491583
1339.000000	97.495613
1338.000000	97.501196
1337.000000	97.506388
1336.000000	97.513132
1335.000000	97.523524
1334.000000	97.537174
1333.000000	97.553544
1332.000000	97.573712
1331.000000	97.598126
1330.000000	97.624951
1329.000000	97.651964
1328.000000	97.678172
1327.000000	97.702420
1326.000000	97.723307
1325.000000	97.741357
1324.000000	97.759067
1323.000000	97.776922
1322.000000	97.792197
1321.000000	97.803041
1320.000000	97.811544
1319.000000	97.821439
1318.000000	97.834321
1317.000000	97.849637
1316.000000	97.866438
1315.000000	97.883561
1314.000000	97.899783
1313.000000	97.915450
1312.000000	97.932436
1311.000000	97.951280
1310.000000	97.970069
1309.000000	97.987178
1308.000000	98.003479
1307.000000	98.020681
1306.000000	98.038901
1305.000000	98.056671
1304.000000	98.072783
1303.000000	98.086882
1302.000000	98.099409
1301.000000	98.111618
1300.000000	98.124915
1299.000000	98.139661
1298.000000	98.154971
1297.000000	98.169368
1296.000000	98.180852
1295.000000	98.187055
1294.000000	98.187075
1293.000000	98.182762
1292.000000	98.176540
1291.000000	98.168209
1290.000000	98.155537
1289.000000	98.138477
1288.000000	98.120817
1287.000000	98.106780
1286.000000	98.097162
1285.000000	98.089873
1284.000000	98.083331
1283.000000	98.077876
1282.000000	98.074400
1281.000000	98.072757
1280.000000	98.072347
1279.000000	98.073988
1278.000000	98.080209
1277.000000	98.092690
1276.000000	98.109167
1275.000000	98.124578
1274.000000	98.135965
1273.000000	98.144953
1272.000000	98.154298
1271.000000	98.163595
1270.000000	98.170384
1269.000000	98.173935
1268.000000	98.175107
1267.000000	98.173491
1266.000000	98.168068
1265.000000	98.160451
1264.000000	98.154291
1263.000000	98.150873
1262.000000	98.147635
1261.000000	98.141903
1260.000000	98.133574
1259.000000	98.123408
1258.000000	98.111085
1257.000000	98.096203
1256.000000	98.079270
1255.000000	98.060342
1254.000000	98.038286
1253.000000	98.012781
1252.000000	97.985777
1251.000000	97.959899
1250.000000	97.935846
1249.000000	97.911886
1248.000000	97.885243
1247.000000	97.853701
1246.000000	97.817404
1245.000000	97.779861
1244.000000	97.745826
1243.000000	97.717274
1242.000000	97.692722
1241.000000	97.670984
1240.000000	97.653269
1239.000000	97.640198
1238.000000	97.629043
1237.000000	97.616967
1236.000000	97.605331
1235.000000	97.598193
1234.000000	97.597956
1233.000000	97.604852
1232.000000	97.619888
1231.000000	97.644372
1230.000000	97.676644
1229.000000	97.712979
1228.000000	97.751885
1227.000000	97.795258
1226.000000	97.844433
1225.000000	97.897159
1224.000000	97.949139
1223.000000	97.996722
1222.000000	98.037846
1221.000000	98.072223
1220.000000	98.101883
1219.000000	98.130428
1218.000000	98.160363
1217.000000	98.190589
1216.000000	98.216859
1215.000000	98.235219
1214.000000	98.244992
1213.000000	98.248798
1212.000000	98.249618
1211.000000	98.248171
1210.000000	98.243369
1209.000000	98.234263
1208.000000	98.221162
1207.000000	98.205202
1206.000000	98.188056
1205.000000	98.172226
1204.000000	98.160438
1203.000000	98.153947
1202.000000	98.151969
1201.000000	98.153781
1200.000000	98.160706
1199.000000	98.175073
1198.000000	98.196961
1197.000000	98.223180
1196.000000	98.249968
1195.000000	98.275831
1194.000000	98.301740
1193.000000	98.328976
1192.000000	98.357522
1191.000000	98.386573
1190.000000	98.415875
1189.000000	98.445669
1188.000000	98.475058
1187.000000	98.501313
1186.000000	98.521514
1185.000000	98.534881
1184.000000	98.543044
1183.000000	98.548790
1182.000000	98.555107
1181.000000	98.564257
1180.000000	98.576526
1179.000000	98.589658
1178.000000	98.600534
1177.000000	98.607822
1176.000000	98.612615
1175.000000	98.616737
1174.000000	98.620780
1173.000000	98.623724
1172.000000	98.624353
1171.000000	98.622639
1170.000000	98.619511
1169.000000	98.615411
1168.000000	98.610023
1167.000000	98.603957
1166.000000	98.599483
1165.000000	98.598337
1164.000000	98.599542
1163.000000	98.600952
1162.000000	98.602349
1161.000000	98.605313
1160.000000	98.610439
1159.000000	98.616969
1158.000000	98.625210
1157.000000	98.636671
1156.000000	98.651281
1155.000000	98.666672
1154.000000	98.681105
1153.000000	98.694898
1152.000000	98.708119
1151.000000	98.719751
1150.000000	98.730573
1149.000000	98.743805
1148.000000	98.760444
1147.000000	98.776639
1146.000000	98.788527
1145.000000	98.797530
1144.000000	98.807614
1143.000000	98.818980
1142.000000	98.828096
1141.000000	98.833045
1140.000000	98.835431
1139.000000	98.837362
1138.000000	98.839645
1137.000000	98.843057
1136.000000	98.848548
1135.000000	98.855526
1134.000000	98.861997
1133.000000	98.866808
1132.000000	98.870239
1131.000000	98.872389
1130.000000	98.872827
1129.000000	98.872052
1128.000000	98.871669
1127.000000	98.872679
1126.000000	98.874532
1125.000000	98.876012
1124.000000	98.876545
1123.000000	98.876978
1122.000000	98.879354
1121.000000	98.884898
1120.000000	98.891670
1119.000000	98.895792
1118.000000	98.895753
1117.000000	98.893460
1116.000000	98.889841
1115.000000	98.882323
1114.000000	98.869229
1113.000000	98.854056
1112.000000	98.841970
1111.000000	98.833872
1110.000000	98.827591
1109.000000	98.823232
1108.000000	98.822812
1107.000000	98.825130
1106.000000	98.826108
1105.000000	98.825055
1104.000000	98.825936
1103.000000	98.830665
1102.000000	98.834892
1101.000000	98.832838
1100.000000	98.823527
1099.000000	98.810336
1098.000000	98.796589
1097.000000	98.783628
1096.000000	98.771534
1095.000000	98.759781
1094.000000	98.748279
1093.000000	98.738478
1092.000000	98.731653
1091.000000	98.725344
1090.000000	98.713767
1089.000000	98.693485
1088.000000	98.666637
1087.000000	98.637026
1086.000000	98.605739
1085.000000	98.573283
1084.000000	98.544087
1083.000000	98.524299
1082.000000	98.514253
1081.000000	98.506572
1080.000000	98.494455
1079.000000	98.480738
1078.000000	98.476370
1077.000000	98.489622
1076.000000	98.517377
1075.000000	98.547730
1074.000000	98.570620
1073.000000	98.584673
1072.000000	98.593572
1071.000000	98.598670
1070.000000	98.598485
1069.000000	98.594242
1068.000000	98.591399
1067.000000	98.593833
1066.000000	98.599352
1065.000000	98.603034
1064.000000	98.603272
1063.000000	98.602240
1062.000000	98.601692
1061.000000	98.600822
1060.000000	98.598612
1059.000000	98.596794
1058.000000	98.599596
1057.000000	98.610305
1056.000000	98.627282
1055.000000	98.643481
1054.000000	98.651584
1053.000000	98.650613
1052.000000	98.646707
1051.000000	98.646730
1050.000000	98.652222
1049.000000	98.660094
1048.000000	98.667362
1047.000000	98.673618
1046.000000	98.680074
1045.000000	98.687554
1044.000000	98.694746
1043.000000	98.697953
1042.000000	98.693862
1041.000000	98.683661
1040.000000	98.672908
1039.000000	98.665992
1038.000000	98.661715
1037.000000	98.655323
1036.000000	98.644063
1035.000000	98.629385
1034.000000	98.614876
1033.000000	98.603863
1032.000000	98.598542
1031.000000	98.599495
1030.000000	98.605511
1029.000000	98.615033
1028.000000	98.627675
1027.000000	98.643566
1026.000000	98.661516
1025.000000	98.679127
1024.000000	98.694975
1023.000000	98.709863
1022.000000	98.725779
1021.000000	98.743731
1020.000000	98.762245
1019.000000	98.777391
1018.000000	98.784918
1017.000000	98.783498
1016.000000	98.776391
1015.000000	98.770007
1014.000000	98.770730
1013.000000	98.782176
1012.000000	98.803981
1011.000000	98.832253
1010.000000	98.861639
1009.000000	98.888160
1008.000000	98.910520
1007.000000	98.929140
1006.000000	98.945034
1005.000000	98.959841
1004.000000	98.975871
1003.000000	98.994831
1002.000000	99.016384
1001.000000	99.038478
1000.000000	99.059296
999.000000	99.078926
998.000000	99.099043
997.000000	99.120664
996.000000	99.142254
995.000000	99.160735
994.000000	99.175000
993.000000	99.187791
992.000000	99.203030
991.000000	99.221412
990.000000	99.239492
989.000000	99.253220
988.000000	99.261777
987.000000	99.267999
986.000000	99.275741
985.000000	99.286825
984.000000	99.299944
983.000000	99.312095
982.000000	99.321053
981.000000	99.326583
980.000000	99.329841
979.000000	99.332221
978.000000	99.334418
977.000000	99.335618
976.000000	99.333693
975.000000	99.327670
974.000000	99.320093
973.000000	99.315166
972.000000	99.314181
971.000000	99.314653
970.000000	99.314948
969.000000	99.317580
968.000000	99.326114
967.000000	99.340409
966.000000	99.357262
965.000000	99.374596
964.000000	99.392068
963.000000	99.407937
962.000000	99.418516
961.000000	99.422176
960.000000	99.422522
959.000000	99.426315
958.000000	99.438211
957.000000	99.456938
956.000000	99.475968
955.000000	99.488744
954.000000	99.494315
953.000000	99.497477
952.000000	99.502799
951.000000	99.509852
950.000000	99.515569
949.000000	99.519342
948.000000	99.523306
947.000000	99.528568
946.000000	99.533697
945.000000	99.536670
944.000000	99.536234
943.000000	99.531964
942.000000	99.525514
941.000000	99.521336
940.000000	99.523400
939.000000	99.530991
938.000000	99.539910
937.000000	99.548073
936.000000	99.557429
935.000000	99.569861
934.000000	99.583635
933.000000	99.594795
932.000000	99.600296
931.000000	99.599478
930.000000	99.594752
929.000000	99.591305
928.000000	99.593679
927.000000	99.601400
926.000000	99.609825
925.000000	99.615911
924.000000	99.621146
923.000000	99.628131
922.000000	99.636500
921.000000	99.643584
920.000000	99.647367
919.000000	99.647922
918.000000	99.647821
917.000000	99.651697
916.000000	99.662912
915.000000	99.679396
914.000000	99.694934
913.000000	99.706154
912.000000	99.715555
911.000000	99.725821
910.000000	99.734265
909.000000	99.736212
908.000000	99.732172
907.000000	99.727693
906.000000	99.726767
905.000000	99.728760
904.000000	99.731996
903.000000	99.737145
902.000000	99.745796
901.000000	99.757987
900.000000	99.772364
899.000000	99.787305
898.000000	99.801011
897.000000	99.811554
896.000000	99.817793
895.000000	99.819809
894.000000	99.818566
893.000000	99.816433
892.000000	99.817776
891.000000	99.826587
890.000000	99.841686
889.000000	99.855629
888.000000	99.860445
887.000000	99.853281
886.000000	99.834858
885.000000	99.802965
884.000000	99.750718
883.000000	99.672210
882.000000	99.564915
881.000000	99.424504
880.000000	99.240608
879.000000	99.004132
878.000000	98.718234
877.000000	98.396614
876.000000	98.053827
875.000000	97.708259
874.000000	97.401932
873.000000	97.207581
872.000000	97.199558
871.000000	97.400155
870.000000	97.751745
869.000000	98.149379
868.000000	98.502492
867.000000	98.772071
866.000000	98.963394
865.000000	99.098397
864.000000	99.196972
863.000000	99.273109
862.000000	99.335843
861.000000	99.389381
860.000000	99.434251
859.000000	99.470334
858.000000	99.499735
857.000000	99.525777
856.000000	99.549775
855.000000	99.570350
854.000000	99.586175
853.000000	99.597934
852.000000	99.605927
851.000000	99.607438
850.000000	99.599956
849.000000	99.587454
848.000000	99.580401
847.000000	99.587175
846.000000	99.606771
845.000000	99.631768
844.000000	99.656731
843.000000	99.681076
842.000000	99.704840
841.000000	99.725351
840.000000	99.739384
839.000000	99.746799
838.000000	99.750855
837.000000	99.755646
836.000000	99.764017
835.000000	99.776961
834.000000	99.793102
833.000000	99.808294
832.000000	99.817252
831.000000	99.817687
830.000000	99.813474
829.000000	99.812088
828.000000	99.817256
827.000000	99.825287
826.000000	99.830403
825.000000	99.831919
824.000000	99.832845
823.000000	99.832248
822.000000	99.824651
821.000000	99.809225
820.000000	99.794879
819.000000	99.792357
818.000000	99.802730
817.000000	99.816205
816.000000	99.821395
815.000000	99.814922
814.000000	99.804210
813.000000	99.801768
812.000000	99.813791
811.000000	99.832184
810.000000	99.840871
809.000000	99.833441
808.000000	99.821253
807.000000	99.819639
806.000000	99.829197
805.000000	99.836730
804.000000	99.833374
803.000000	99.823693
802.000000	99.815221
801.000000	99.807316
800.000000	99.795482
799.000000	99.781173
798.000000	99.770322
797.000000	99.764224
796.000000	99.758293
795.000000	99.750344
794.000000	99.744980
793.000000	99.747190
792.000000	99.754655
791.000000	99.759868
790.000000	99.759613
789.000000	99.759197
788.000000	99.765081
787.000000	99.775102
786.000000	99.780032
785.000000	99.775939
784.000000	99.770310
783.000000	99.771719
782.000000	99.776739
781.000000	99.773774
780.000000	99.759876
779.000000	99.746659
778.000000	99.746203
777.000000	99.756072
776.000000	99.763148
775.000000	99.759785
774.000000	99.751033
773.000000	99.746505
772.000000	99.749510
771.000000	99.755020
770.000000	99.755289
769.000000	99.745941
768.000000	99.728618
767.000000	99.710318
766.000000	99.699761
765.000000	99.701387
764.000000	99.710748
763.000000	99.716985
762.000000	99.713037
761.000000	99.703991
760.000000	99.702177
759.000000	99.712527
758.000000	99.726659
757.000000	99.734258
756.000000	99.735688
755.000000	99.737937
754.000000	99.741636
753.000000	99.740608
752.000000	99.733994
751.000000	99.729678
750.000000	99.732563
749.000000	99.736959
748.000000	99.735474
747.000000	99.729411
746.000000	99.724803
745.000000	99.722711
744.000000	99.719706
743.000000	99.715142
742.000000	99.711529
741.000000	99.708935
740.000000	99.704548
739.000000	99.697486
738.000000	99.689075
737.000000	99.678489
736.000000	99.662989
735.000000	99.643724
734.000000	99.627520
733.000000	99.620260
732.000000	99.619455
731.000000	99.614946
730.000000	99.598121
729.000000	99.571575
728.000000	99.549440
727.000000	99.545054
726.000000	99.556127
725.000000	99.565399
724.000000	99.558495
723.000000	99.537287
722.000000	99.512591
721.000000	99.488407
720.000000	99.459563
719.000000	99.421843
718.000000	99.375205
717.000000	99.315707
716.000000	99.233584
715.000000	99.127786
714.000000	99.021005
713.000000	98.952275
712.000000	98.948191
711.000000	98.999843
710.000000	99.070426
709.000000	99.126046
708.000000	99.158005
707.000000	99.176738
706.000000	99.190403
705.000000	99.197648
704.000000	99.198723
703.000000	99.201392
702.000000	99.211309
701.000000	99.223988
700.000000	99.231886
699.000000	99.234239
698.000000	99.234183
697.000000	99.231749
696.000000	99.227381
695.000000	99.227249
694.000000	99.236948
693.000000	99.251465
692.000000	99.259204
691.000000	99.256783
690.000000	99.251642
689.000000	99.250077
688.000000	99.250038
687.000000	99.246810
686.000000	99.239388
685.000000	99.227854
684.000000	99.210902
683.000000	99.189813
682.000000	99.169137
681.000000	99.150516
680.000000	99.130925
679.000000	99.111111
678.000000	99.099974
677.000000	99.103083
676.000000	99.112543
675.000000	99.115156
674.000000	99.107715
673.000000	99.099227
672.000000	99.098719
671.000000	99.108378
670.000000	99.124592
669.000000	99.142427
668.000000	99.147572
667.000000	99.125690
666.000000	99.088953
665.000000	99.051345
664.000000	99.017678
663.000000	98.994539
662.000000	98.984478
661.000000	98.985273
660.000000	98.992296
659.000000	99.002063
658.000000	99.008386
657.000000	99.002735
656.000000	98.983126
655.000000	98.958327
654.000000	98.939741
653.000000	98.933722
652.000000	98.943242
651.000000	98.967818
650.000000	98.997597
649.000000	99.016337
648.000000	99.015769
647.000000	99.001536
646.000000	98.983119
645.000000	98.965676
644.000000	98.953291
643.000000	98.950102
642.000000	98.953496
641.000000	98.954229
640.000000	98.949268
639.000000	98.947316
638.000000	98.955300
637.000000	98.967642
636.000000	98.975837
635.000000	98.980910
634.000000	98.987760
633.000000	98.992937
632.000000	98.987905
631.000000	98.972253
630.000000	98.955902
629.000000	98.948371
628.000000	98.951522
627.000000	98.961217
626.000000	98.970502
625.000000	98.972935
624.000000	98.965849
623.000000	98.949613
622.000000	98.925047
621.000000	98.896293
620.000000	98.875691
619.000000	98.876845
618.000000	98.898015
617.000000	98.919385
616.000000	98.923209
615.000000	98.910478
614.000000	98.893247
613.000000	98.879923
612.000000	98.874575
611.000000	98.880555
610.000000	98.894678
609.000000	98.905159
608.000000	98.905558
607.000000	98.905479
606.000000	98.917114
605.000000	98.936938
604.000000	98.952071
603.000000	98.960056
602.000000	98.969987
601.000000	98.985323
600.000000	98.996894
599.000000	98.993271
598.000000	98.970537
597.000000	98.932821
596.000000	98.891994
595.000000	98.866460
594.000000	98.868907
593.000000	98.893053
592.000000	98.920692
591.000000	98.942281
590.000000	98.962172
589.000000	98.982904
588.000000	98.994411
587.000000	98.983032
586.000000	98.946271
585.000000	98.897262
584.000000	98.857868
583.000000	98.846108
582.000000	98.863916
581.000000	98.895685
580.000000	98.923581
579.000000	98.943933
578.000000	98.962728
577.000000	98.978920
576.000000	98.981754
575.000000	98.964577
574.000000	98.932175
573.000000	98.892142
572.000000	98.849848
571.000000	98.813670
570.000000	98.792659
569.000000	98.783801
568.000000	98.771759
567.000000	98.747200
566.000000	98.716973
565.000000	98.692057
564.000000	98.674333
563.000000	98.660873
562.000000	98.654347
561.000000	98.662867
560.000000	98.690787
559.000000	98.732282
558.000000	98.773907
557.000000	98.803153
556.000000	98.816010
555.000000	98.818061
554.000000	98.818251
553.000000	98.821534
552.000000	98.826994
551.000000	98.830100
550.000000	98.826292
549.000000	98.815814
548.000000	98.806521
547.000000	98.809141
546.000000	98.826240
545.000000	98.846452
544.000000	98.853106
543.000000	98.838245
542.000000	98.808371
541.000000	98.779112
540.000000	98.762603
539.000000	98.756487
538.000000	98.746809
537.000000	98.726156
536.000000	98.707199
535.000000	98.710626
534.000000	98.739246
533.000000	98.773632
532.000000	98.794347
531.000000	98.798343
530.000000	98.793943
529.000000	98.789897
528.000000	98.791450
527.000000	98.798774
526.000000	98.804723
525.000000	98.802995
524.000000	98.800022
523.000000	98.807015
522.000000	98.822636
521.000000	98.836493
520.000000	98.848303
519.000000	98.870652
518.000000	98.907778
517.000000	98.945808
516.000000	98.972726
515.000000	98.990419
514.000000	99.001690
513.000000	99.004877
512.000000	99.005779
511.000000	99.014848
510.000000	99.025482
509.000000	99.016235
508.000000	98.985651
507.000000	98.965412
506.000000	98.978896
505.000000	99.006605
504.000000	99.016352
503.000000	99.007503
502.000000	99.006016
501.000000	99.025841
500.000000	99.057629
499.000000	99.092200
498.000000	99.127978
497.000000	99.159300
496.000000	99.179456
495.000000	99.192956
494.000000	99.208983
493.000000	99.223052
492.000000	99.219425
491.000000	99.192595
490.000000	99.157902
489.000000	99.141580
488.000000	99.162229
487.000000	99.214457
486.000000	99.264889
485.000000	99.278097
484.000000	99.259359
483.000000	99.252367
482.000000	99.279539
481.000000	99.309570
480.000000	99.297952
479.000000	99.238751
478.000000	99.166708
477.000000	99.126111
476.000000	99.148846
475.000000	99.241348
474.000000	99.367915
473.000000	99.453594
472.000000	99.446912
471.000000	99.382526
470.000000	99.327991
469.000000	99.298684
468.000000	99.269352
467.000000	99.231525
466.000000	99.206522
465.000000	99.212808
464.000000	99.250246
463.000000	99.306007
462.000000	99.348315
461.000000	99.345539
460.000000	99.302320
459.000000	99.287110
458.000000	99.342673
457.000000	99.461522
456.000000	99.571577
455.000000	99.653228
454.000000	99.750121
453.000000	99.852577
452.000000	99.899617
451.000000	99.864619
450.000000	99.799613
