PE IR       SUBTECH     SPECTRUM    ASCII       PEDS        4.00        
   -1
AG10-C009_1.ASC
23/09/08
10:29:47.00
23/09/08
11:14:38.00
uco
Sample 009 By uco Date Friday, September 08 2023
450.000000
#HDR
-1
-1
#GR
cm-1
%T
1.0
0.0
4000.000000
-1.000000
3551
8
99.836237
95.454065
#DATA
4000.000000	99.754545
3999.000000	99.754627
3998.000000	99.756193
3997.000000	99.757089
3996.000000	99.757316
3995.000000	99.758704
3994.000000	99.762318
3993.000000	99.766614
3992.000000	99.768451
3991.000000	99.765927
3990.000000	99.760084
3989.000000	99.753809
3988.000000	99.749380
3987.000000	99.746975
3986.000000	99.745247
3985.000000	99.743052
3984.000000	99.740498
3983.000000	99.738625
3982.000000	99.738344
3981.000000	99.739780
3980.000000	99.742410
3979.000000	99.745529
3978.000000	99.748461
3977.000000	99.750538
3976.000000	99.751144
3975.000000	99.749947
3974.000000	99.747133
3973.000000	99.743322
3972.000000	99.739258
3971.000000	99.735296
3970.000000	99.731067
3969.000000	99.725791
3968.000000	99.719429
3967.000000	99.713582
3966.000000	99.710689
3965.000000	99.712000
3964.000000	99.716239
3963.000000	99.720558
3962.000000	99.722885
3961.000000	99.723146
3960.000000	99.722861
3959.000000	99.723836
3958.000000	99.727063
3957.000000	99.731880
3956.000000	99.735805
3955.000000	99.735832
3954.000000	99.730493
3953.000000	99.721114
3952.000000	99.711027
3951.000000	99.703801
3950.000000	99.701670
3949.000000	99.704953
3948.000000	99.712250
3947.000000	99.720896
3946.000000	99.727805
3945.000000	99.730558
3944.000000	99.729048
3943.000000	99.725728
3942.000000	99.722745
3941.000000	99.719762
3940.000000	99.715930
3939.000000	99.712414
3938.000000	99.712103
3937.000000	99.716712
3936.000000	99.724313
3935.000000	99.730429
3934.000000	99.731418
3933.000000	99.727328
3932.000000	99.721399
3931.000000	99.717013
3930.000000	99.715581
3929.000000	99.716285
3928.000000	99.716560
3927.000000	99.713629
3926.000000	99.708218
3925.000000	99.705505
3924.000000	99.709075
3923.000000	99.715563
3922.000000	99.718202
3921.000000	99.713584
3920.000000	99.704247
3919.000000	99.696185
3918.000000	99.694866
3917.000000	99.701319
3916.000000	99.710583
3915.000000	99.715310
3914.000000	99.712113
3913.000000	99.703653
3912.000000	99.696182
3911.000000	99.694432
3910.000000	99.699196
3909.000000	99.708493
3908.000000	99.719087
3907.000000	99.726345
3906.000000	99.725787
3905.000000	99.718610
3904.000000	99.712636
3903.000000	99.713557
3902.000000	99.718250
3901.000000	99.719976
3900.000000	99.717024
3899.000000	99.712684
3898.000000	99.709501
3897.000000	99.707409
3896.000000	99.706624
3895.000000	99.707207
3894.000000	99.706646
3893.000000	99.701819
3892.000000	99.696288
3891.000000	99.696863
3890.000000	99.704292
3889.000000	99.713293
3888.000000	99.715233
3887.000000	99.705842
3886.000000	99.695456
3885.000000	99.697566
3884.000000	99.710979
3883.000000	99.722807
3882.000000	99.722671
3881.000000	99.714291
3880.000000	99.710193
3879.000000	99.715084
3878.000000	99.723876
3877.000000	99.728384
3876.000000	99.723679
3875.000000	99.715772
3874.000000	99.716407
3873.000000	99.726596
3872.000000	99.733052
3871.000000	99.727020
3870.000000	99.719247
3869.000000	99.722265
3868.000000	99.733075
3867.000000	99.740642
3866.000000	99.739051
3865.000000	99.732300
3864.000000	99.727400
3863.000000	99.724222
3862.000000	99.719053
3861.000000	99.709921
3860.000000	99.697261
3859.000000	99.684196
3858.000000	99.679128
3857.000000	99.690589
3856.000000	99.710537
3855.000000	99.716953
3854.000000	99.716957
3853.000000	99.732031
3852.000000	99.748196
3851.000000	99.747502
3850.000000	99.734371
3849.000000	99.721059
3848.000000	99.715306
3847.000000	99.717511
3846.000000	99.723791
3845.000000	99.730339
3844.000000	99.736830
3843.000000	99.744598
3842.000000	99.753066
3841.000000	99.758933
3840.000000	99.759973
3839.000000	99.758482
3838.000000	99.758886
3837.000000	99.761870
3836.000000	99.764413
3835.000000	99.763494
3834.000000	99.757837
3833.000000	99.749347
3832.000000	99.743420
3831.000000	99.743678
3830.000000	99.747548
3829.000000	99.747454
3828.000000	99.738858
3827.000000	99.727726
3826.000000	99.726742
3825.000000	99.742388
3824.000000	99.765086
3823.000000	99.773175
3822.000000	99.761667
3821.000000	99.751038
3820.000000	99.751864
3819.000000	99.754468
3818.000000	99.745249
3817.000000	99.722597
3816.000000	99.703517
3815.000000	99.700285
3814.000000	99.704968
3813.000000	99.706656
3812.000000	99.705233
3811.000000	99.707672
3810.000000	99.715577
3809.000000	99.719836
3808.000000	99.714968
3807.000000	99.710767
3806.000000	99.717987
3805.000000	99.735027
3804.000000	99.749410
3803.000000	99.749038
3802.000000	99.742810
3801.000000	99.747211
3800.000000	99.756860
3799.000000	99.757210
3798.000000	99.743105
3797.000000	99.722021
3796.000000	99.706069
3795.000000	99.699615
3794.000000	99.698590
3793.000000	99.698762
3792.000000	99.699469
3791.000000	99.701555
3790.000000	99.704979
3789.000000	99.708431
3788.000000	99.709948
3787.000000	99.708115
3786.000000	99.704455
3785.000000	99.703744
3784.000000	99.709334
3783.000000	99.718243
3782.000000	99.722385
3781.000000	99.715654
3780.000000	99.702240
3779.000000	99.692878
3778.000000	99.691960
3777.000000	99.695371
3776.000000	99.699003
3775.000000	99.703504
3774.000000	99.710626
3773.000000	99.716941
3772.000000	99.715729
3771.000000	99.707589
3770.000000	99.703357
3769.000000	99.709620
3768.000000	99.720233
3767.000000	99.725722
3766.000000	99.724518
3765.000000	99.722280
3764.000000	99.723199
3763.000000	99.725647
3762.000000	99.725898
3761.000000	99.723571
3760.000000	99.722146
3759.000000	99.722614
3758.000000	99.721531
3757.000000	99.717788
3756.000000	99.715359
3755.000000	99.717988
3754.000000	99.724127
3753.000000	99.728196
3752.000000	99.728648
3751.000000	99.732000
3750.000000	99.741083
3749.000000	99.751473
3748.000000	99.761467
3747.000000	99.766531
3746.000000	99.754657
3745.000000	99.735758
3744.000000	99.734206
3743.000000	99.743988
3742.000000	99.746758
3741.000000	99.741635
3740.000000	99.739803
3739.000000	99.747290
3738.000000	99.756149
3737.000000	99.756207
3736.000000	99.751189
3735.000000	99.750487
3734.000000	99.751526
3733.000000	99.746109
3732.000000	99.734748
3731.000000	99.724230
3730.000000	99.718315
3729.000000	99.715371
3728.000000	99.712832
3727.000000	99.712498
3726.000000	99.716799
3725.000000	99.722619
3724.000000	99.724917
3723.000000	99.723280
3722.000000	99.721411
3721.000000	99.721097
3720.000000	99.719919
3719.000000	99.714652
3718.000000	99.705918
3717.000000	99.698694
3716.000000	99.698494
3715.000000	99.706690
3714.000000	99.718538
3713.000000	99.728141
3712.000000	99.735808
3711.000000	99.743302
3710.000000	99.747224
3709.000000	99.745034
3708.000000	99.739582
3707.000000	99.735487
3706.000000	99.734936
3705.000000	99.736005
3704.000000	99.734157
3703.000000	99.727616
3702.000000	99.721250
3701.000000	99.720748
3700.000000	99.724993
3699.000000	99.727954
3698.000000	99.725567
3697.000000	99.719840
3696.000000	99.715975
3695.000000	99.716221
3694.000000	99.718961
3693.000000	99.722071
3692.000000	99.724628
3691.000000	99.726171
3690.000000	99.728186
3689.000000	99.732916
3688.000000	99.737610
3687.000000	99.737976
3686.000000	99.734263
3685.000000	99.729925
3684.000000	99.728475
3683.000000	99.730395
3682.000000	99.731808
3681.000000	99.730970
3680.000000	99.734054
3679.000000	99.747806
3678.000000	99.763608
3677.000000	99.763450
3676.000000	99.754897
3675.000000	99.758645
3674.000000	99.770771
3673.000000	99.777590
3672.000000	99.769327
3671.000000	99.745897
3670.000000	99.725046
3669.000000	99.718975
3668.000000	99.720290
3667.000000	99.720343
3666.000000	99.717699
3665.000000	99.713520
3664.000000	99.708761
3663.000000	99.704581
3662.000000	99.703144
3661.000000	99.707268
3660.000000	99.717256
3659.000000	99.728013
3658.000000	99.731257
3657.000000	99.726483
3656.000000	99.722772
3655.000000	99.726574
3654.000000	99.737586
3653.000000	99.751600
3652.000000	99.761469
3651.000000	99.763638
3650.000000	99.764147
3649.000000	99.765842
3648.000000	99.760414
3647.000000	99.743918
3646.000000	99.722709
3645.000000	99.703401
3644.000000	99.688495
3643.000000	99.678869
3642.000000	99.675108
3641.000000	99.675489
3640.000000	99.675976
3639.000000	99.675080
3638.000000	99.675811
3637.000000	99.680738
3636.000000	99.687335
3635.000000	99.691210
3634.000000	99.692159
3633.000000	99.693975
3632.000000	99.697121
3631.000000	99.691697
3630.000000	99.674235
3629.000000	99.666718
3628.000000	99.680633
3627.000000	99.697965
3626.000000	99.705411
3625.000000	99.705793
3624.000000	99.707245
3623.000000	99.714093
3622.000000	99.722815
3621.000000	99.725942
3620.000000	99.721526
3619.000000	99.715273
3618.000000	99.711736
3617.000000	99.710883
3616.000000	99.710536
3615.000000	99.707637
3614.000000	99.700650
3613.000000	99.690739
3612.000000	99.679954
3611.000000	99.669697
3610.000000	99.660804
3609.000000	99.655490
3608.000000	99.656104
3607.000000	99.660262
3606.000000	99.662703
3605.000000	99.661207
3604.000000	99.657134
3603.000000	99.652782
3602.000000	99.650017
3601.000000	99.650555
3600.000000	99.654500
3599.000000	99.659957
3598.000000	99.664302
3597.000000	99.665545
3596.000000	99.662915
3595.000000	99.658511
3594.000000	99.656749
3593.000000	99.660835
3592.000000	99.670110
3591.000000	99.679740
3590.000000	99.681945
3589.000000	99.672458
3588.000000	99.658454
3587.000000	99.651293
3586.000000	99.651767
3585.000000	99.652678
3584.000000	99.648964
3583.000000	99.640225
3582.000000	99.629192
3581.000000	99.620337
3580.000000	99.617373
3579.000000	99.620276
3578.000000	99.624991
3577.000000	99.626653
3576.000000	99.623230
3575.000000	99.616245
3574.000000	99.608897
3573.000000	99.604000
3572.000000	99.603380
3571.000000	99.607110
3570.000000	99.612116
3569.000000	99.614047
3568.000000	99.613632
3567.000000	99.616146
3566.000000	99.621549
3565.000000	99.623970
3564.000000	99.620332
3563.000000	99.612689
3562.000000	99.605589
3561.000000	99.602979
3560.000000	99.605601
3559.000000	99.610253
3558.000000	99.612513
3557.000000	99.610289
3556.000000	99.604336
3555.000000	99.595934
3554.000000	99.585951
3553.000000	99.576359
3552.000000	99.570020
3551.000000	99.567390
3550.000000	99.565334
3549.000000	99.560347
3548.000000	99.552488
3547.000000	99.545855
3546.000000	99.544632
3545.000000	99.548607
3544.000000	99.553707
3543.000000	99.556051
3542.000000	99.554483
3541.000000	99.550335
3540.000000	99.545741
3539.000000	99.542035
3538.000000	99.539249
3537.000000	99.537175
3536.000000	99.535922
3535.000000	99.535227
3534.000000	99.534128
3533.000000	99.532351
3532.000000	99.531240
3531.000000	99.532229
3530.000000	99.534603
3529.000000	99.535911
3528.000000	99.534777
3527.000000	99.532037
3526.000000	99.529104
3525.000000	99.526561
3524.000000	99.524646
3523.000000	99.523504
3522.000000	99.522314
3521.000000	99.519645
3520.000000	99.515224
3519.000000	99.510534
3518.000000	99.506903
3517.000000	99.503835
3516.000000	99.500170
3515.000000	99.496409
3514.000000	99.494263
3513.000000	99.494079
3512.000000	99.494231
3511.000000	99.493658
3510.000000	99.493660
3509.000000	99.495764
3508.000000	99.498484
3507.000000	99.497988
3506.000000	99.492199
3505.000000	99.483682
3504.000000	99.478304
3503.000000	99.479719
3502.000000	99.485161
3501.000000	99.488008
3500.000000	99.484086
3499.000000	99.474982
3498.000000	99.466599
3497.000000	99.464888
3496.000000	99.471062
3495.000000	99.480220
3494.000000	99.485254
3493.000000	99.482756
3492.000000	99.474974
3491.000000	99.466455
3490.000000	99.459843
3489.000000	99.455275
3488.000000	99.452766
3487.000000	99.453260
3486.000000	99.456864
3485.000000	99.461283
3484.000000	99.463029
3483.000000	99.460275
3482.000000	99.454433
3481.000000	99.448876
3480.000000	99.446226
3479.000000	99.446623
3478.000000	99.448217
3477.000000	99.448934
3476.000000	99.447692
3475.000000	99.444262
3474.000000	99.438855
3473.000000	99.432624
3472.000000	99.428159
3471.000000	99.428050
3470.000000	99.432109
3469.000000	99.436554
3468.000000	99.436851
3467.000000	99.431737
3466.000000	99.424301
3465.000000	99.419163
3464.000000	99.418703
3463.000000	99.421553
3462.000000	99.424281
3461.000000	99.424643
3460.000000	99.423459
3459.000000	99.423291
3458.000000	99.425223
3457.000000	99.427495
3456.000000	99.427359
3455.000000	99.423978
3454.000000	99.419251
3453.000000	99.416022
3452.000000	99.415494
3451.000000	99.415825
3450.000000	99.413327
3449.000000	99.405975
3448.000000	99.396364
3447.000000	99.389998
3446.000000	99.389518
3445.000000	99.391977
3444.000000	99.392609
3443.000000	99.389919
3442.000000	99.386257
3441.000000	99.384220
3440.000000	99.383766
3439.000000	99.382890
3438.000000	99.379964
3437.000000	99.375194
3436.000000	99.370379
3435.000000	99.367513
3434.000000	99.367121
3433.000000	99.367576
3432.000000	99.366232
3431.000000	99.361475
3430.000000	99.354080
3429.000000	99.346908
3428.000000	99.343219
3427.000000	99.344667
3426.000000	99.350239
3425.000000	99.356852
3424.000000	99.361099
3423.000000	99.360903
3422.000000	99.356293
3421.000000	99.349243
3420.000000	99.342511
3419.000000	99.337920
3418.000000	99.335503
3417.000000	99.334354
3416.000000	99.333942
3415.000000	99.334013
3414.000000	99.333406
3413.000000	99.330126
3412.000000	99.323405
3411.000000	99.315241
3410.000000	99.309201
3409.000000	99.307655
3408.000000	99.310397
3407.000000	99.315547
3406.000000	99.321057
3405.000000	99.325401
3404.000000	99.327618
3403.000000	99.327317
3402.000000	99.324585
3401.000000	99.319790
3400.000000	99.313712
3399.000000	99.307844
3398.000000	99.303806
3397.000000	99.301672
3396.000000	99.299386
3395.000000	99.294906
3394.000000	99.288981
3393.000000	99.284893
3392.000000	99.284954
3391.000000	99.287971
3390.000000	99.290772
3389.000000	99.291322
3388.000000	99.289349
3387.000000	99.284948
3386.000000	99.278261
3385.000000	99.270571
3384.000000	99.264015
3383.000000	99.259446
3382.000000	99.255625
3381.000000	99.251256
3380.000000	99.246884
3379.000000	99.243922
3378.000000	99.242593
3377.000000	99.241895
3376.000000	99.241074
3375.000000	99.239936
3374.000000	99.237880
3373.000000	99.233807
3372.000000	99.227172
3371.000000	99.218346
3370.000000	99.207923
3369.000000	99.196654
3368.000000	99.186256
3367.000000	99.179060
3366.000000	99.175921
3365.000000	99.175087
3364.000000	99.173902
3363.000000	99.171235
3362.000000	99.167733
3361.000000	99.164111
3360.000000	99.159812
3359.000000	99.153224
3358.000000	99.143089
3357.000000	99.130089
3356.000000	99.117283
3355.000000	99.108283
3354.000000	99.104233
3353.000000	99.102846
3352.000000	99.100852
3351.000000	99.096958
3350.000000	99.091858
3349.000000	99.086087
3348.000000	99.079157
3347.000000	99.070960
3346.000000	99.062852
3345.000000	99.056513
3344.000000	99.051961
3343.000000	99.047142
3342.000000	99.039389
3341.000000	99.027150
3340.000000	99.010925
3339.000000	98.993347
3338.000000	98.978270
3337.000000	98.968787
3336.000000	98.965171
3335.000000	98.964609
3334.000000	98.963401
3333.000000	98.959793
3332.000000	98.954792
3331.000000	98.950431
3330.000000	98.947425
3329.000000	98.944436
3328.000000	98.939349
3327.000000	98.931234
3326.000000	98.921390
3325.000000	98.912642
3324.000000	98.907254
3323.000000	98.905106
3322.000000	98.903998
3321.000000	98.901986
3320.000000	98.899187
3319.000000	98.896909
3318.000000	98.895230
3317.000000	98.892275
3316.000000	98.886398
3315.000000	98.878569
3314.000000	98.871731
3313.000000	98.867529
3312.000000	98.864226
3311.000000	98.858512
3310.000000	98.849590
3309.000000	98.841058
3308.000000	98.837934
3307.000000	98.841553
3306.000000	98.847771
3305.000000	98.850322
3304.000000	98.845672
3303.000000	98.835027
3302.000000	98.822784
3301.000000	98.813734
3300.000000	98.810758
3299.000000	98.813430
3298.000000	98.818378
3297.000000	98.821913
3296.000000	98.822915
3295.000000	98.822893
3294.000000	98.823318
3293.000000	98.823932
3292.000000	98.823880
3291.000000	98.823259
3290.000000	98.822615
3289.000000	98.821523
3288.000000	98.818694
3287.000000	98.813530
3286.000000	98.807056
3285.000000	98.801422
3284.000000	98.798752
3283.000000	98.799948
3282.000000	98.803823
3281.000000	98.807627
3280.000000	98.809338
3279.000000	98.809610
3278.000000	98.810856
3277.000000	98.814046
3276.000000	98.816843
3275.000000	98.815621
3274.000000	98.809421
3273.000000	98.801541
3272.000000	98.797033
3271.000000	98.798434
3270.000000	98.803874
3269.000000	98.809263
3268.000000	98.812020
3267.000000	98.812635
3266.000000	98.813221
3265.000000	98.815320
3264.000000	98.819238
3263.000000	98.824497
3262.000000	98.830061
3261.000000	98.834523
3260.000000	98.836960
3259.000000	98.837621
3258.000000	98.837119
3257.000000	98.835204
3256.000000	98.831233
3255.000000	98.825974
3254.000000	98.821988
3253.000000	98.821596
3252.000000	98.824940
3251.000000	98.830355
3250.000000	98.836127
3249.000000	98.841427
3248.000000	98.846041
3247.000000	98.849903
3246.000000	98.852812
3245.000000	98.854137
3244.000000	98.852897
3243.000000	98.848652
3242.000000	98.842497
3241.000000	98.837065
3240.000000	98.835436
3239.000000	98.839549
3238.000000	98.848722
3237.000000	98.859251
3236.000000	98.866152
3235.000000	98.866519
3234.000000	98.861590
3233.000000	98.855402
3232.000000	98.851531
3231.000000	98.851289
3230.000000	98.854383
3229.000000	98.859841
3228.000000	98.865773
3227.000000	98.869350
3226.000000	98.868588
3225.000000	98.864460
3224.000000	98.860620
3223.000000	98.860471
3222.000000	98.864418
3221.000000	98.869866
3220.000000	98.873459
3219.000000	98.873421
3218.000000	98.870446
3217.000000	98.867103
3216.000000	98.866435
3215.000000	98.870127
3214.000000	98.877076
3213.000000	98.883926
3212.000000	98.887630
3211.000000	98.887754
3210.000000	98.886242
3209.000000	98.885295
3208.000000	98.885924
3207.000000	98.888046
3206.000000	98.890981
3205.000000	98.893559
3204.000000	98.894629
3203.000000	98.894126
3202.000000	98.893194
3201.000000	98.892812
3200.000000	98.892789
3199.000000	98.892583
3198.000000	98.892487
3197.000000	98.893075
3196.000000	98.893778
3195.000000	98.893163
3194.000000	98.890861
3193.000000	98.888455
3192.000000	98.888005
3191.000000	98.890020
3190.000000	98.893275
3189.000000	98.896404
3188.000000	98.899375
3187.000000	98.903317
3186.000000	98.908834
3185.000000	98.914556
3184.000000	98.917923
3183.000000	98.917848
3182.000000	98.916243
3181.000000	98.916215
3180.000000	98.918845
3179.000000	98.922417
3178.000000	98.924825
3177.000000	98.925997
3176.000000	98.927523
3175.000000	98.930627
3174.000000	98.935270
3173.000000	98.940861
3172.000000	98.946824
3171.000000	98.952217
3170.000000	98.955548
3169.000000	98.956003
3168.000000	98.955170
3167.000000	98.956745
3166.000000	98.963349
3165.000000	98.973221
3164.000000	98.980980
3163.000000	98.982597
3162.000000	98.979471
3161.000000	98.976753
3160.000000	98.977753
3159.000000	98.980812
3158.000000	98.981883
3157.000000	98.979356
3156.000000	98.975686
3155.000000	98.974812
3154.000000	98.978777
3153.000000	98.986734
3152.000000	98.996458
3151.000000	99.006236
3150.000000	99.015171
3149.000000	99.022137
3148.000000	99.025390
3147.000000	99.024038
3146.000000	99.019608
3145.000000	99.015234
3144.000000	99.013080
3143.000000	99.013199
3142.000000	99.014996
3141.000000	99.018632
3140.000000	99.024308
3139.000000	99.031154
3138.000000	99.037899
3137.000000	99.044114
3136.000000	99.049723
3135.000000	99.053685
3134.000000	99.054526
3133.000000	99.052541
3132.000000	99.050537
3131.000000	99.051660
3130.000000	99.056668
3129.000000	99.063344
3128.000000	99.068185
3127.000000	99.068746
3126.000000	99.065157
3125.000000	99.059891
3124.000000	99.055882
3123.000000	99.054507
3122.000000	99.055230
3121.000000	99.056795
3120.000000	99.058283
3119.000000	99.059163
3118.000000	99.059163
3117.000000	99.058541
3116.000000	99.058015
3115.000000	99.057950
3114.000000	99.057764
3113.000000	99.056489
3112.000000	99.053834
3111.000000	99.050487
3110.000000	99.047513
3109.000000	99.045691
3108.000000	99.045327
3107.000000	99.046213
3106.000000	99.047518
3105.000000	99.047903
3104.000000	99.046136
3103.000000	99.042002
3102.000000	99.036846
3101.000000	99.032882
3100.000000	99.031235
3099.000000	99.030527
3098.000000	99.027847
3097.000000	99.021575
3096.000000	99.013268
3095.000000	99.006742
3094.000000	99.005199
3093.000000	99.008950
3092.000000	99.015309
3091.000000	99.020335
3090.000000	99.021140
3089.000000	99.017308
3088.000000	99.010739
3087.000000	99.004383
3086.000000	99.000853
3085.000000	99.001256
3084.000000	99.004360
3083.000000	99.006937
3082.000000	99.005951
3081.000000	99.001124
3080.000000	98.995269
3079.000000	98.992013
3078.000000	98.993197
3077.000000	98.998088
3076.000000	99.004018
3075.000000	99.007441
3074.000000	99.005515
3073.000000	98.998130
3072.000000	98.988703
3071.000000	98.982205
3070.000000	98.981622
3069.000000	98.985856
3068.000000	98.990794
3067.000000	98.992527
3066.000000	98.990178
3065.000000	98.986172
3064.000000	98.983779
3063.000000	98.984477
3062.000000	98.987591
3061.000000	98.991843
3060.000000	98.996441
3059.000000	99.000939
3058.000000	99.005206
3057.000000	99.009884
3056.000000	99.015918
3055.000000	99.022930
3054.000000	99.028735
3053.000000	99.031284
3052.000000	99.030783
3051.000000	99.029454
3050.000000	99.029630
3049.000000	99.032444
3048.000000	99.037671
3047.000000	99.043793
3046.000000	99.048361
3045.000000	99.049358
3044.000000	99.046888
3043.000000	99.043452
3042.000000	99.042328
3041.000000	99.045415
3040.000000	99.052293
3039.000000	99.060960
3038.000000	99.069442
3037.000000	99.076805
3036.000000	99.082757
3035.000000	99.086895
3034.000000	99.088955
3033.000000	99.089534
3032.000000	99.089576
3031.000000	99.089095
3030.000000	99.087658
3029.000000	99.086578
3028.000000	99.089084
3027.000000	99.096749
3026.000000	99.106402
3025.000000	99.112209
3024.000000	99.111102
3023.000000	99.105340
3022.000000	99.099909
3021.000000	99.098656
3020.000000	99.102743
3019.000000	99.110893
3018.000000	99.119996
3017.000000	99.126461
3016.000000	99.128454
3015.000000	99.127172
3014.000000	99.125747
3013.000000	99.126912
3012.000000	99.131515
3011.000000	99.138304
3010.000000	99.144621
3009.000000	99.147883
3008.000000	99.147197
3007.000000	99.143760
3006.000000	99.139583
3005.000000	99.136045
3004.000000	99.133715
3003.000000	99.132999
3002.000000	99.134351
3001.000000	99.137890
3000.000000	99.143099
2999.000000	99.148880
2998.000000	99.153767
2997.000000	99.156418
2996.000000	99.156444
2995.000000	99.154800
2994.000000	99.152929
2993.000000	99.151215
2992.000000	99.148434
2991.000000	99.143080
2990.000000	99.135286
2989.000000	99.127242
2988.000000	99.121572
2987.000000	99.119277
2986.000000	99.119268
2985.000000	99.119585
2984.000000	99.118694
2983.000000	99.115849
2982.000000	99.111048
2981.000000	99.105253
2980.000000	99.100275
2979.000000	99.097739
2978.000000	99.097903
2977.000000	99.099611
2976.000000	99.101175
2975.000000	99.101051
2974.000000	99.098015
2973.000000	99.091578
2972.000000	99.082615
2971.000000	99.073171
2970.000000	99.065163
2969.000000	99.059221
2968.000000	99.054924
2967.000000	99.051819
2966.000000	99.049676
2965.000000	99.047624
2964.000000	99.043679
2963.000000	99.036034
2962.000000	99.025008
2961.000000	99.013119
2960.000000	99.002708
2959.000000	98.993827
2958.000000	98.985110
2957.000000	98.976335
2956.000000	98.969113
2955.000000	98.964863
2954.000000	98.963099
2953.000000	98.962288
2952.000000	98.961524
2951.000000	98.960622
2950.000000	98.959154
2949.000000	98.956554
2948.000000	98.953069
2947.000000	98.949616
2946.000000	98.946423
2945.000000	98.942374
2944.000000	98.936054
2943.000000	98.927169
2942.000000	98.916853
2941.000000	98.906802
2940.000000	98.898023
2939.000000	98.890129
2938.000000	98.881861
2937.000000	98.872468
2936.000000	98.862184
2935.000000	98.850974
2934.000000	98.837542
2933.000000	98.820598
2932.000000	98.800998
2931.000000	98.781415
2930.000000	98.763394
2929.000000	98.745388
2928.000000	98.724090
2927.000000	98.697388
2926.000000	98.665917
2925.000000	98.632579
2924.000000	98.600917
2923.000000	98.573220
2922.000000	98.549442
2921.000000	98.528122
2920.000000	98.508936
2919.000000	98.494140
2918.000000	98.487417
2917.000000	98.491585
2916.000000	98.507382
2915.000000	98.533680
2914.000000	98.567971
2913.000000	98.606942
2912.000000	98.647306
2911.000000	98.686418
2910.000000	98.722102
2909.000000	98.752571
2908.000000	98.777452
2907.000000	98.798664
2906.000000	98.819155
2905.000000	98.840087
2904.000000	98.859687
2903.000000	98.875334
2902.000000	98.886315
2901.000000	98.894294
2900.000000	98.901704
2899.000000	98.910219
2898.000000	98.920463
2897.000000	98.932186
2896.000000	98.944318
2895.000000	98.955261
2894.000000	98.963586
2893.000000	98.968605
2892.000000	98.970610
2891.000000	98.971044
2890.000000	98.972215
2889.000000	98.975952
2888.000000	98.981970
2887.000000	98.988047
2886.000000	98.992418
2885.000000	98.995694
2884.000000	98.999876
2883.000000	99.005755
2882.000000	99.012092
2881.000000	99.017258
2880.000000	99.020832
2879.000000	99.023253
2878.000000	99.024765
2877.000000	99.025360
2876.000000	99.025384
2875.000000	99.025484
2874.000000	99.025801
2873.000000	99.025478
2872.000000	99.023126
2871.000000	99.018062
2870.000000	99.011551
2869.000000	99.006646
2868.000000	99.005942
2867.000000	99.008906
2866.000000	99.011831
2865.000000	99.011125
2864.000000	99.006402
2863.000000	99.000044
2862.000000	98.994215
2861.000000	98.988781
2860.000000	98.981678
2859.000000	98.970206
2858.000000	98.952180
2857.000000	98.927153
2856.000000	98.897196
2855.000000	98.865937
2854.000000	98.836308
2853.000000	98.809316
2852.000000	98.785219
2851.000000	98.765564
2850.000000	98.753643
2849.000000	98.753102
2848.000000	98.766007
2847.000000	98.791815
2846.000000	98.827613
2845.000000	98.869060
2844.000000	98.911318
2843.000000	98.949968
2842.000000	98.982050
2841.000000	99.006828
2840.000000	99.025543
2839.000000	99.040097
2838.000000	99.052112
2837.000000	99.063123
2836.000000	99.074687
2835.000000	99.087355
2834.000000	99.099728
2833.000000	99.109505
2832.000000	99.115819
2831.000000	99.120056
2830.000000	99.124175
2829.000000	99.128742
2828.000000	99.132744
2827.000000	99.134795
2826.000000	99.134233
2825.000000	99.131586
2824.000000	99.128651
2823.000000	99.127988
2822.000000	99.131620
2821.000000	99.139607
2820.000000	99.149666
2819.000000	99.158457
2818.000000	99.163828
2817.000000	99.166241
2816.000000	99.167904
2815.000000	99.170301
2814.000000	99.172771
2813.000000	99.173741
2812.000000	99.172844
2811.000000	99.171175
2810.000000	99.169779
2809.000000	99.168750
2808.000000	99.167849
2807.000000	99.167083
2806.000000	99.166384
2805.000000	99.165488
2804.000000	99.164643
2803.000000	99.164906
2802.000000	99.167160
2801.000000	99.171073
2800.000000	99.175380
2799.000000	99.178921
2798.000000	99.181268
2797.000000	99.182859
2796.000000	99.184816
2795.000000	99.187938
2794.000000	99.191318
2793.000000	99.192630
2792.000000	99.190707
2791.000000	99.187523
2790.000000	99.186605
2789.000000	99.189432
2788.000000	99.194311
2787.000000	99.198788
2786.000000	99.202046
2785.000000	99.204418
2784.000000	99.205658
2783.000000	99.205037
2782.000000	99.202985
2781.000000	99.201545
2780.000000	99.202613
2779.000000	99.206066
2778.000000	99.209901
2777.000000	99.211998
2776.000000	99.211651
2775.000000	99.209797
2774.000000	99.208240
2773.000000	99.208622
2772.000000	99.211627
2771.000000	99.216639
2770.000000	99.222063
2769.000000	99.226186
2768.000000	99.228073
2767.000000	99.227935
2766.000000	99.226796
2765.000000	99.225792
2764.000000	99.225713
2763.000000	99.226936
2762.000000	99.229363
2761.000000	99.232122
2760.000000	99.233652
2759.000000	99.232830
2758.000000	99.230337
2757.000000	99.228414
2756.000000	99.228783
2755.000000	99.231122
2754.000000	99.234000
2753.000000	99.236794
2752.000000	99.239798
2751.000000	99.242692
2750.000000	99.244138
2749.000000	99.243332
2748.000000	99.241087
2747.000000	99.238821
2746.000000	99.237226
2745.000000	99.236542
2744.000000	99.237331
2743.000000	99.239872
2742.000000	99.243086
2741.000000	99.245048
2740.000000	99.244680
2739.000000	99.242370
2738.000000	99.239284
2737.000000	99.236983
2736.000000	99.237438
2735.000000	99.241970
2734.000000	99.249522
2733.000000	99.256880
2732.000000	99.261463
2731.000000	99.263449
2730.000000	99.264579
2729.000000	99.265382
2728.000000	99.264568
2727.000000	99.261248
2726.000000	99.256956
2725.000000	99.254980
2724.000000	99.257625
2723.000000	99.264139
2722.000000	99.271121
2721.000000	99.274897
2720.000000	99.273892
2719.000000	99.269255
2718.000000	99.263680
2717.000000	99.259723
2716.000000	99.258687
2715.000000	99.260325
2714.000000	99.263268
2713.000000	99.265894
2712.000000	99.267126
2711.000000	99.266743
2710.000000	99.265430
2709.000000	99.264744
2708.000000	99.266470
2707.000000	99.271139
2706.000000	99.277069
2705.000000	99.281448
2704.000000	99.282686
2703.000000	99.281475
2702.000000	99.279741
2701.000000	99.279222
2700.000000	99.281063
2699.000000	99.285505
2698.000000	99.291009
2697.000000	99.294300
2696.000000	99.292720
2695.000000	99.286991
2694.000000	99.280980
2693.000000	99.278420
2692.000000	99.280105
2691.000000	99.284075
2690.000000	99.287651
2689.000000	99.288934
2688.000000	99.287370
2687.000000	99.284175
2686.000000	99.282132
2685.000000	99.283729
2684.000000	99.288658
2683.000000	99.293480
2682.000000	99.294413
2681.000000	99.290622
2680.000000	99.284851
2679.000000	99.281092
2678.000000	99.281714
2677.000000	99.286144
2676.000000	99.291526
2675.000000	99.294810
2674.000000	99.295072
2673.000000	99.294169
2672.000000	99.294734
2671.000000	99.297270
2670.000000	99.299661
2669.000000	99.299701
2668.000000	99.297516
2667.000000	99.294987
2666.000000	99.293194
2665.000000	99.291169
2664.000000	99.287215
2663.000000	99.280948
2662.000000	99.273938
2661.000000	99.268544
2660.000000	99.266088
2659.000000	99.265929
2658.000000	99.266445
2657.000000	99.267090
2656.000000	99.269224
2655.000000	99.274460
2654.000000	99.282387
2653.000000	99.290559
2652.000000	99.296631
2651.000000	99.299817
2650.000000	99.300228
2649.000000	99.297916
2648.000000	99.293490
2647.000000	99.289141
2646.000000	99.287690
2645.000000	99.290037
2644.000000	99.294077
2643.000000	99.296686
2642.000000	99.296666
2641.000000	99.295506
2640.000000	99.295601
2639.000000	99.298292
2638.000000	99.303488
2637.000000	99.310221
2636.000000	99.317011
2635.000000	99.322246
2634.000000	99.325105
2633.000000	99.326227
2632.000000	99.327086
2631.000000	99.328805
2630.000000	99.331853
2629.000000	99.336358
2628.000000	99.341788
2627.000000	99.346511
2626.000000	99.348840
2625.000000	99.348929
2624.000000	99.348852
2623.000000	99.350464
2622.000000	99.353881
2621.000000	99.358215
2620.000000	99.362563
2619.000000	99.365632
2618.000000	99.365463
2617.000000	99.360850
2616.000000	99.352921
2615.000000	99.344785
2614.000000	99.340009
2613.000000	99.341260
2612.000000	99.348631
2611.000000	99.358004
2610.000000	99.362707
2609.000000	99.359239
2608.000000	99.351457
2607.000000	99.347394
2606.000000	99.351643
2605.000000	99.362203
2604.000000	99.374364
2603.000000	99.385500
2602.000000	99.395182
2601.000000	99.402498
2600.000000	99.405587
2599.000000	99.403896
2598.000000	99.399611
2597.000000	99.396136
2596.000000	99.395366
2595.000000	99.396930
2594.000000	99.399974
2593.000000	99.404562
2592.000000	99.410218
2591.000000	99.413905
2590.000000	99.411861
2589.000000	99.404357
2588.000000	99.396926
2587.000000	99.395201
2586.000000	99.399655
2585.000000	99.406792
2584.000000	99.414089
2583.000000	99.421621
2582.000000	99.429602
2581.000000	99.436866
2580.000000	99.441846
2579.000000	99.443335
2578.000000	99.440592
2577.000000	99.434624
2576.000000	99.429052
2575.000000	99.427341
2574.000000	99.428975
2573.000000	99.430403
2572.000000	99.429572
2571.000000	99.427145
2570.000000	99.423434
2569.000000	99.417626
2568.000000	99.411377
2567.000000	99.410063
2566.000000	99.417890
2565.000000	99.433134
2564.000000	99.449576
2563.000000	99.461200
2562.000000	99.464494
2561.000000	99.458927
2560.000000	99.447812
2559.000000	99.437142
2558.000000	99.430914
2557.000000	99.428253
2556.000000	99.426877
2555.000000	99.427849
2554.000000	99.433896
2553.000000	99.443701
2552.000000	99.451438
2551.000000	99.452961
2550.000000	99.450215
2549.000000	99.448010
2548.000000	99.447816
2547.000000	99.446179
2546.000000	99.439052
2545.000000	99.427213
2544.000000	99.417390
2543.000000	99.417472
2542.000000	99.429471
2541.000000	99.446808
2540.000000	99.459307
2539.000000	99.461287
2538.000000	99.454655
2537.000000	99.444989
2536.000000	99.436149
2535.000000	99.428928
2534.000000	99.423213
2533.000000	99.419886
2532.000000	99.420583
2531.000000	99.426158
2530.000000	99.435353
2529.000000	99.444792
2528.000000	99.450603
2527.000000	99.450612
2526.000000	99.445318
2525.000000	99.437258
2524.000000	99.429902
2523.000000	99.426575
2522.000000	99.428832
2521.000000	99.434758
2520.000000	99.439410
2519.000000	99.438304
2518.000000	99.431088
2517.000000	99.421677
2516.000000	99.414797
2515.000000	99.412779
2514.000000	99.415321
2513.000000	99.420970
2512.000000	99.427876
2511.000000	99.433761
2510.000000	99.436430
2509.000000	99.434716
2508.000000	99.428829
2507.000000	99.420375
2506.000000	99.412784
2505.000000	99.410734
2504.000000	99.416839
2503.000000	99.428110
2502.000000	99.437549
2501.000000	99.440854
2500.000000	99.440508
2499.000000	99.441768
2498.000000	99.445361
2497.000000	99.446441
2496.000000	99.441072
2495.000000	99.431553
2494.000000	99.424216
2493.000000	99.423013
2492.000000	99.426750
2491.000000	99.432223
2490.000000	99.438255
2489.000000	99.445809
2488.000000	99.454540
2487.000000	99.460618
2486.000000	99.459140
2485.000000	99.448973
2484.000000	99.434844
2483.000000	99.424238
2482.000000	99.422359
2481.000000	99.429973
2480.000000	99.444549
2479.000000	99.462025
2478.000000	99.477719
2477.000000	99.487470
2476.000000	99.489593
2475.000000	99.485894
2474.000000	99.480260
2473.000000	99.475935
2472.000000	99.473996
2471.000000	99.473753
2470.000000	99.473925
2469.000000	99.473249
2468.000000	99.470878
2467.000000	99.467499
2466.000000	99.466026
2465.000000	99.469438
2464.000000	99.476599
2463.000000	99.481575
2462.000000	99.479370
2461.000000	99.472039
2460.000000	99.466827
2459.000000	99.467801
2458.000000	99.471747
2457.000000	99.473281
2456.000000	99.471715
2455.000000	99.470876
2454.000000	99.473663
2453.000000	99.478997
2452.000000	99.483181
2451.000000	99.482318
2450.000000	99.474491
2449.000000	99.462021
2448.000000	99.451353
2447.000000	99.448446
2446.000000	99.453672
2445.000000	99.462351
2444.000000	99.469863
2443.000000	99.474652
2442.000000	99.477028
2441.000000	99.477684
2440.000000	99.477860
2439.000000	99.478779
2438.000000	99.479944
2437.000000	99.479498
2436.000000	99.477108
2435.000000	99.475212
2434.000000	99.476581
2433.000000	99.481623
2432.000000	99.488589
2431.000000	99.495413
2430.000000	99.500649
2429.000000	99.503633
2428.000000	99.504800
2427.000000	99.505567
2426.000000	99.507445
2425.000000	99.511305
2424.000000	99.517077
2423.000000	99.523102
2422.000000	99.525903
2421.000000	99.522282
2420.000000	99.512686
2419.000000	99.501768
2418.000000	99.494431
2417.000000	99.491370
2416.000000	99.489272
2415.000000	99.485287
2414.000000	99.480364
2413.000000	99.477477
2412.000000	99.477172
2411.000000	99.476544
2410.000000	99.473654
2409.000000	99.471613
2408.000000	99.476073
2407.000000	99.488320
2406.000000	99.502701
2405.000000	99.511754
2404.000000	99.512758
2403.000000	99.508835
2402.000000	99.505261
2401.000000	99.505594
2400.000000	99.509452
2399.000000	99.512369
2398.000000	99.509197
2397.000000	99.499241
2396.000000	99.487254
2395.000000	99.478300
2394.000000	99.473189
2393.000000	99.470472
2392.000000	99.470637
2391.000000	99.475177
2390.000000	99.482437
2389.000000	99.487805
2388.000000	99.488757
2387.000000	99.487092
2386.000000	99.485964
2385.000000	99.486613
2384.000000	99.488706
2383.000000	99.492250
2382.000000	99.497298
2381.000000	99.503239
2380.000000	99.508573
2379.000000	99.510955
2378.000000	99.507805
2377.000000	99.497958
2376.000000	99.483372
2375.000000	99.468624
2374.000000	99.459365
2373.000000	99.460679
2372.000000	99.474295
2371.000000	99.494735
2370.000000	99.510663
2369.000000	99.513539
2368.000000	99.503279
2367.000000	99.485753
2366.000000	99.467670
2365.000000	99.455292
2364.000000	99.452762
2363.000000	99.456683
2362.000000	99.457693
2361.000000	99.452322
2360.000000	99.448808
2359.000000	99.457577
2358.000000	99.477579
2357.000000	99.495239
2356.000000	99.495503
2355.000000	99.474755
2354.000000	99.448219
2353.000000	99.435550
2352.000000	99.439574
2351.000000	99.445623
2350.000000	99.441661
2349.000000	99.429040
2348.000000	99.417702
2347.000000	99.417254
2346.000000	99.427294
2345.000000	99.435488
2344.000000	99.432830
2343.000000	99.424999
2342.000000	99.422881
2341.000000	99.427716
2340.000000	99.430631
2339.000000	99.425290
2338.000000	99.416193
2337.000000	99.412394
2336.000000	99.416443
2335.000000	99.424890
2334.000000	99.435506
2333.000000	99.449166
2332.000000	99.462575
2331.000000	99.468563
2330.000000	99.461619
2329.000000	99.443923
2328.000000	99.421201
2327.000000	99.399257
2326.000000	99.381784
2325.000000	99.372005
2324.000000	99.372905
2323.000000	99.385087
2322.000000	99.402310
2321.000000	99.413098
2320.000000	99.409315
2319.000000	99.393651
2318.000000	99.374821
2317.000000	99.360819
2316.000000	99.356133
2315.000000	99.364041
2314.000000	99.382639
2313.000000	99.403088
2312.000000	99.414431
2311.000000	99.414676
2310.000000	99.411271
2309.000000	99.412723
2308.000000	99.420751
2307.000000	99.432000
2306.000000	99.441882
2305.000000	99.447120
2304.000000	99.446739
2303.000000	99.443479
2302.000000	99.441538
2301.000000	99.443269
2300.000000	99.448019
2299.000000	99.454813
2298.000000	99.462023
2297.000000	99.466243
2296.000000	99.463097
2295.000000	99.452598
2294.000000	99.440246
2293.000000	99.432390
2292.000000	99.430606
2291.000000	99.432064
2290.000000	99.433139
2289.000000	99.431545
2288.000000	99.426548
2287.000000	99.419176
2286.000000	99.412038
2285.000000	99.407370
2284.000000	99.405724
2283.000000	99.406827
2282.000000	99.411564
2281.000000	99.421832
2280.000000	99.438567
2279.000000	99.459707
2278.000000	99.479658
2277.000000	99.491193
2276.000000	99.489631
2275.000000	99.476805
2274.000000	99.460619
2273.000000	99.449843
2272.000000	99.448268
2271.000000	99.453144
2270.000000	99.458389
2269.000000	99.459514
2268.000000	99.456539
2267.000000	99.453064
2266.000000	99.452198
2265.000000	99.453369
2264.000000	99.453834
2263.000000	99.453598
2262.000000	99.457400
2261.000000	99.470057
2260.000000	99.489730
2259.000000	99.507347
2258.000000	99.514225
2257.000000	99.510134
2256.000000	99.503105
2255.000000	99.501046
2254.000000	99.504436
2253.000000	99.507614
2252.000000	99.505681
2251.000000	99.499032
2250.000000	99.492129
2249.000000	99.489449
2248.000000	99.492151
2247.000000	99.497732
2246.000000	99.503481
2245.000000	99.510828
2244.000000	99.524400
2243.000000	99.544853
2242.000000	99.563913
2241.000000	99.569340
2240.000000	99.554936
2239.000000	99.524575
2238.000000	99.488115
2237.000000	99.456263
2236.000000	99.437146
2235.000000	99.433125
2234.000000	99.440555
2233.000000	99.455126
2232.000000	99.476390
2231.000000	99.503329
2230.000000	99.526906
2229.000000	99.533730
2228.000000	99.519824
2227.000000	99.496384
2226.000000	99.479574
2225.000000	99.477959
2224.000000	99.490621
2223.000000	99.512125
2222.000000	99.535041
2221.000000	99.550447
2220.000000	99.550895
2219.000000	99.534486
2218.000000	99.506466
2217.000000	99.479102
2216.000000	99.468227
2215.000000	99.483585
2214.000000	99.519426
2213.000000	99.557281
2212.000000	99.580329
2211.000000	99.583923
2210.000000	99.572575
2209.000000	99.552645
2208.000000	99.530139
2207.000000	99.509906
2206.000000	99.493402
2205.000000	99.479993
2204.000000	99.471765
2203.000000	99.472520
2202.000000	99.480286
2201.000000	99.486138
2200.000000	99.484256
2199.000000	99.478365
2198.000000	99.474258
2197.000000	99.470783
2196.000000	99.463633
2195.000000	99.454620
2194.000000	99.451763
2193.000000	99.462042
2192.000000	99.486858
2191.000000	99.520405
2190.000000	99.547634
2189.000000	99.549539
2188.000000	99.520818
2187.000000	99.481482
2186.000000	99.461095
2185.000000	99.468528
2184.000000	99.482285
2183.000000	99.475262
2182.000000	99.446062
2181.000000	99.421327
2180.000000	99.428233
2179.000000	99.468517
2178.000000	99.519682
2177.000000	99.556556
2176.000000	99.570336
2175.000000	99.570417
2174.000000	99.571424
2173.000000	99.579479
2172.000000	99.587827
2171.000000	99.581958
2170.000000	99.551034
2169.000000	99.499607
2168.000000	99.448234
2167.000000	99.418032
2166.000000	99.414668
2165.000000	99.428589
2164.000000	99.447211
2163.000000	99.464233
2162.000000	99.482511
2161.000000	99.516712
2160.000000	99.587312
2159.000000	99.693679
2158.000000	99.793546
2157.000000	99.836237
2156.000000	99.817927
2155.000000	99.778475
2154.000000	99.751747
2153.000000	99.741332
2152.000000	99.737957
2151.000000	99.738231
2150.000000	99.740009
2149.000000	99.733334
2148.000000	99.710121
2147.000000	99.678093
2146.000000	99.656087
2145.000000	99.656464
2144.000000	99.676223
2143.000000	99.702990
2142.000000	99.725473
2141.000000	99.740372
2140.000000	99.752798
2139.000000	99.767584
2138.000000	99.778604
2137.000000	99.771922
2136.000000	99.742845
2135.000000	99.705712
2134.000000	99.681978
2133.000000	99.680975
2132.000000	99.694316
2131.000000	99.705459
2130.000000	99.701962
2129.000000	99.682468
2128.000000	99.656941
2127.000000	99.638071
2126.000000	99.629447
2125.000000	99.623431
2124.000000	99.612529
2123.000000	99.599512
2122.000000	99.592611
2121.000000	99.592383
2120.000000	99.588470
2119.000000	99.570903
2118.000000	99.542044
2117.000000	99.516076
2116.000000	99.507435
2115.000000	99.519031
2114.000000	99.540306
2113.000000	99.556298
2112.000000	99.560489
2111.000000	99.559415
2110.000000	99.563719
2109.000000	99.575305
2108.000000	99.584839
2107.000000	99.582443
2106.000000	99.569026
2105.000000	99.555572
2104.000000	99.551689
2103.000000	99.556710
2102.000000	99.562682
2101.000000	99.564270
2100.000000	99.562980
2099.000000	99.562190
2098.000000	99.562636
2097.000000	99.565173
2096.000000	99.573739
2095.000000	99.589113
2094.000000	99.600770
2093.000000	99.592710
2092.000000	99.561882
2091.000000	99.526720
2090.000000	99.512350
2089.000000	99.526253
2088.000000	99.549961
2087.000000	99.557534
2086.000000	99.541533
2085.000000	99.519484
2084.000000	99.514582
2083.000000	99.531376
2082.000000	99.552897
2081.000000	99.560394
2080.000000	99.551520
2079.000000	99.538135
2078.000000	99.531654
2077.000000	99.535350
2076.000000	99.546858
2075.000000	99.560896
2074.000000	99.569380
2073.000000	99.565095
2072.000000	99.547730
2071.000000	99.523737
2070.000000	99.501545
2069.000000	99.489711
2068.000000	99.496065
2067.000000	99.521078
2066.000000	99.551771
2065.000000	99.569240
2064.000000	99.566527
2063.000000	99.554516
2062.000000	99.547606
2061.000000	99.549202
2060.000000	99.551664
2059.000000	99.545545
2058.000000	99.528242
2057.000000	99.508617
2056.000000	99.503031
2055.000000	99.519081
2054.000000	99.541268
2053.000000	99.541853
2052.000000	99.511472
2051.000000	99.471941
2050.000000	99.454139
2049.000000	99.466803
2048.000000	99.491747
2047.000000	99.510095
2046.000000	99.523880
2045.000000	99.546171
2044.000000	99.578100
2043.000000	99.603412
2042.000000	99.604059
2041.000000	99.578062
2040.000000	99.541239
2039.000000	99.510533
2038.000000	99.490049
2037.000000	99.476202
2036.000000	99.470279
2035.000000	99.478847
2034.000000	99.503146
2033.000000	99.535182
2032.000000	99.564723
2031.000000	99.585216
2030.000000	99.594487
2029.000000	99.598821
2028.000000	99.614405
2027.000000	99.651726
2026.000000	99.697328
2025.000000	99.723499
2024.000000	99.720442
2023.000000	99.706594
2022.000000	99.701391
2021.000000	99.700808
2020.000000	99.688404
2019.000000	99.661691
2018.000000	99.637504
2017.000000	99.633752
2016.000000	99.650408
2015.000000	99.670281
2014.000000	99.675650
2013.000000	99.662498
2012.000000	99.642473
2011.000000	99.632838
2010.000000	99.645224
2009.000000	99.681315
2008.000000	99.730860
2007.000000	99.771720
2006.000000	99.781315
2005.000000	99.757684
2004.000000	99.724311
2003.000000	99.704253
2002.000000	99.696615
2001.000000	99.685114
2000.000000	99.662922
1999.000000	99.639185
1998.000000	99.625184
1997.000000	99.625379
1996.000000	99.638728
1995.000000	99.657969
1994.000000	99.668630
1993.000000	99.660953
1992.000000	99.645073
1991.000000	99.640203
1990.000000	99.647115
1989.000000	99.648705
1988.000000	99.637521
1987.000000	99.625010
1986.000000	99.619211
1985.000000	99.608763
1984.000000	99.577880
1983.000000	99.526547
1982.000000	99.468195
1981.000000	99.417789
1980.000000	99.392087
1979.000000	99.410419
1978.000000	99.478274
1977.000000	99.569260
1976.000000	99.639354
1975.000000	99.664825
1974.000000	99.656157
1973.000000	99.641593
1972.000000	99.646462
1971.000000	99.680443
1970.000000	99.734407
1969.000000	99.787043
1968.000000	99.816898
1967.000000	99.813295
1966.000000	99.781940
1965.000000	99.743387
1964.000000	99.720484
1963.000000	99.719598
1962.000000	99.724268
1961.000000	99.712316
1960.000000	99.679465
1959.000000	99.639891
1958.000000	99.607629
1957.000000	99.588837
1956.000000	99.588310
1955.000000	99.610180
1954.000000	99.648841
1953.000000	99.686931
1952.000000	99.705421
1951.000000	99.694868
1950.000000	99.660627
1949.000000	99.622383
1948.000000	99.604427
1947.000000	99.616369
1946.000000	99.643816
1945.000000	99.665616
1944.000000	99.677475
1943.000000	99.689210
1942.000000	99.700702
1941.000000	99.697794
1940.000000	99.676731
1939.000000	99.652636
1938.000000	99.640732
1937.000000	99.642256
1936.000000	99.650234
1935.000000	99.660204
1934.000000	99.668936
1933.000000	99.670748
1932.000000	99.663454
1931.000000	99.654644
1930.000000	99.655046
1929.000000	99.666713
1928.000000	99.684278
1927.000000	99.702675
1926.000000	99.718817
1925.000000	99.726924
1924.000000	99.719929
1923.000000	99.699779
1922.000000	99.678954
1921.000000	99.667058
1920.000000	99.661632
1919.000000	99.654430
1918.000000	99.643711
1917.000000	99.635646
1916.000000	99.633318
1915.000000	99.632391
1914.000000	99.627920
1913.000000	99.620880
1912.000000	99.615471
1911.000000	99.612040
1910.000000	99.607727
1909.000000	99.604037
1908.000000	99.607835
1907.000000	99.619393
1906.000000	99.628377
1905.000000	99.625683
1904.000000	99.614937
1903.000000	99.608057
1902.000000	99.609900
1901.000000	99.614204
1900.000000	99.615455
1899.000000	99.615901
1898.000000	99.619653
1897.000000	99.626137
1896.000000	99.631817
1895.000000	99.635732
1894.000000	99.639605
1893.000000	99.644634
1892.000000	99.650010
1891.000000	99.652137
1890.000000	99.646144
1889.000000	99.632723
1888.000000	99.621263
1887.000000	99.620461
1886.000000	99.628113
1885.000000	99.634294
1884.000000	99.633056
1883.000000	99.627718
1882.000000	99.623503
1881.000000	99.620844
1880.000000	99.619638
1879.000000	99.623471
1878.000000	99.635856
1877.000000	99.655288
1876.000000	99.674763
1875.000000	99.685586
1874.000000	99.682402
1873.000000	99.667566
1872.000000	99.651093
1871.000000	99.642955
1870.000000	99.644728
1869.000000	99.650157
1868.000000	99.653883
1867.000000	99.657393
1866.000000	99.663522
1865.000000	99.670519
1864.000000	99.675075
1863.000000	99.675865
1862.000000	99.672039
1861.000000	99.662357
1860.000000	99.648543
1859.000000	99.635670
1858.000000	99.627235
1857.000000	99.623146
1856.000000	99.623665
1855.000000	99.630445
1854.000000	99.642427
1853.000000	99.653413
1852.000000	99.659558
1851.000000	99.662702
1850.000000	99.663974
1849.000000	99.662031
1848.000000	99.658958
1847.000000	99.662330
1846.000000	99.676170
1845.000000	99.693606
1844.000000	99.702630
1843.000000	99.699369
1842.000000	99.691472
1841.000000	99.687011
1840.000000	99.687789
1839.000000	99.690472
1838.000000	99.690641
1837.000000	99.686176
1836.000000	99.679443
1835.000000	99.675880
1834.000000	99.678474
1833.000000	99.685604
1832.000000	99.694202
1831.000000	99.699415
1830.000000	99.696099
1829.000000	99.685483
1828.000000	99.675860
1827.000000	99.674144
1826.000000	99.678745
1825.000000	99.684246
1824.000000	99.688250
1823.000000	99.690802
1822.000000	99.690668
1821.000000	99.686587
1820.000000	99.682225
1819.000000	99.683495
1818.000000	99.691273
1817.000000	99.699984
1816.000000	99.704515
1815.000000	99.706223
1814.000000	99.707592
1813.000000	99.707564
1812.000000	99.703407
1811.000000	99.694640
1810.000000	99.684503
1809.000000	99.676344
1808.000000	99.672216
1807.000000	99.673330
1806.000000	99.677575
1805.000000	99.679098
1804.000000	99.673261
1803.000000	99.662267
1802.000000	99.651136
1801.000000	99.642783
1800.000000	99.636688
1799.000000	99.631418
1798.000000	99.627217
1797.000000	99.624404
1796.000000	99.622573
1795.000000	99.620689
1794.000000	99.615004
1793.000000	99.604144
1792.000000	99.597524
1791.000000	99.606220
1790.000000	99.627293
1789.000000	99.649066
1788.000000	99.663461
1787.000000	99.669896
1786.000000	99.672139
1785.000000	99.673114
1784.000000	99.672613
1783.000000	99.670788
1782.000000	99.666108
1781.000000	99.658283
1780.000000	99.652789
1779.000000	99.654856
1778.000000	99.662655
1777.000000	99.669755
1776.000000	99.675397
1775.000000	99.684611
1774.000000	99.697020
1773.000000	99.705116
1772.000000	99.708317
1771.000000	99.712789
1770.000000	99.719498
1769.000000	99.722870
1768.000000	99.717622
1767.000000	99.707957
1766.000000	99.702858
1765.000000	99.705740
1764.000000	99.712316
1763.000000	99.716265
1762.000000	99.714665
1761.000000	99.710957
1760.000000	99.710255
1759.000000	99.715098
1758.000000	99.721577
1757.000000	99.720955
1756.000000	99.712423
1755.000000	99.703942
1754.000000	99.700932
1753.000000	99.699728
1752.000000	99.694207
1751.000000	99.684671
1750.000000	99.677634
1749.000000	99.676537
1748.000000	99.680237
1747.000000	99.686146
1746.000000	99.688770
1745.000000	99.685135
1744.000000	99.678939
1743.000000	99.676872
1742.000000	99.680730
1741.000000	99.685565
1740.000000	99.686222
1739.000000	99.684891
1738.000000	99.686412
1737.000000	99.693244
1736.000000	99.703473
1735.000000	99.712618
1734.000000	99.722269
1733.000000	99.727093
1732.000000	99.722218
1731.000000	99.718693
1730.000000	99.723721
1729.000000	99.733268
1728.000000	99.741876
1727.000000	99.749154
1726.000000	99.755216
1725.000000	99.759147
1724.000000	99.759788
1723.000000	99.758006
1722.000000	99.757514
1721.000000	99.761048
1720.000000	99.767843
1719.000000	99.772021
1718.000000	99.769664
1717.000000	99.763380
1716.000000	99.752144
1715.000000	99.735574
1714.000000	99.715152
1713.000000	99.691552
1712.000000	99.668802
1711.000000	99.653900
1710.000000	99.648444
1709.000000	99.645029
1708.000000	99.635827
1707.000000	99.617438
1706.000000	99.590071
1705.000000	99.558864
1704.000000	99.532985
1703.000000	99.519178
1702.000000	99.507344
1701.000000	99.468012
1700.000000	99.399172
1699.000000	99.340704
1698.000000	99.311042
1697.000000	99.289146
1696.000000	99.250885
1695.000000	99.203517
1694.000000	99.166596
1693.000000	99.142815
1692.000000	99.122625
1691.000000	99.096122
1690.000000	99.059971
1689.000000	99.018111
1688.000000	98.982010
1687.000000	98.959201
1686.000000	98.939323
1685.000000	98.892952
1684.000000	98.816489
1683.000000	98.749448
1682.000000	98.704434
1681.000000	98.663355
1680.000000	98.614873
1679.000000	98.564652
1678.000000	98.519934
1677.000000	98.471659
1676.000000	98.402540
1675.000000	98.318722
1674.000000	98.245741
1673.000000	98.190769
1672.000000	98.138797
1671.000000	98.071493
1670.000000	97.983257
1669.000000	97.888631
1668.000000	97.807361
1667.000000	97.745771
1666.000000	97.696009
1665.000000	97.643752
1664.000000	97.574945
1663.000000	97.491543
1662.000000	97.412680
1661.000000	97.348959
1660.000000	97.296840
1659.000000	97.252058
1658.000000	97.214131
1657.000000	97.186919
1656.000000	97.176066
1655.000000	97.175380
1654.000000	97.150027
1653.000000	97.082794
1652.000000	97.013330
1651.000000	96.974719
1650.000000	96.965653
1649.000000	96.968159
1648.000000	96.959282
1647.000000	96.935454
1646.000000	96.915972
1645.000000	96.905835
1644.000000	96.897510
1643.000000	96.890125
1642.000000	96.883958
1641.000000	96.876289
1640.000000	96.868380
1639.000000	96.865546
1638.000000	96.869172
1637.000000	96.866803
1636.000000	96.845751
1635.000000	96.816475
1634.000000	96.795559
1633.000000	96.786890
1632.000000	96.786682
1631.000000	96.792096
1630.000000	96.802088
1629.000000	96.816209
1628.000000	96.835671
1627.000000	96.863991
1626.000000	96.901623
1625.000000	96.946041
1624.000000	96.996328
1623.000000	97.054467
1622.000000	97.116953
1621.000000	97.177272
1620.000000	97.238333
1619.000000	97.304977
1618.000000	97.375213
1617.000000	97.443777
1616.000000	97.510024
1615.000000	97.575137
1614.000000	97.640075
1613.000000	97.703961
1612.000000	97.764691
1611.000000	97.823837
1610.000000	97.884324
1609.000000	97.945557
1608.000000	98.004356
1607.000000	98.059084
1606.000000	98.109104
1605.000000	98.154612
1604.000000	98.197251
1603.000000	98.236636
1602.000000	98.270882
1601.000000	98.301059
1600.000000	98.330752
1599.000000	98.360607
1598.000000	98.387064
1597.000000	98.408242
1596.000000	98.426264
1595.000000	98.442840
1594.000000	98.456680
1593.000000	98.466762
1592.000000	98.474011
1591.000000	98.477604
1590.000000	98.473455
1589.000000	98.459405
1588.000000	98.438390
1587.000000	98.413432
1586.000000	98.384257
1585.000000	98.349013
1584.000000	98.309665
1583.000000	98.268831
1582.000000	98.224799
1581.000000	98.176894
1580.000000	98.131463
1579.000000	98.094132
1578.000000	98.058192
1577.000000	98.008638
1576.000000	97.946601
1575.000000	97.894049
1574.000000	97.861600
1573.000000	97.844703
1572.000000	97.834251
1571.000000	97.816845
1570.000000	97.783441
1569.000000	97.740944
1568.000000	97.705026
1567.000000	97.678971
1566.000000	97.652352
1565.000000	97.615489
1564.000000	97.574230
1563.000000	97.545166
1562.000000	97.536371
1561.000000	97.533887
1560.000000	97.492468
1559.000000	97.378160
1558.000000	97.267245
1557.000000	97.210765
1556.000000	97.183323
1555.000000	97.161468
1554.000000	97.134263
1553.000000	97.102828
1552.000000	97.070774
1551.000000	97.033990
1550.000000	96.991303
1549.000000	96.951624
1548.000000	96.922420
1547.000000	96.898189
1546.000000	96.865295
1545.000000	96.816641
1544.000000	96.763089
1543.000000	96.720251
1542.000000	96.689893
1541.000000	96.664230
1540.000000	96.649197
1539.000000	96.654832
1538.000000	96.669380
1537.000000	96.688904
1536.000000	96.719082
1535.000000	96.762607
1534.000000	96.818601
1533.000000	96.880766
1532.000000	96.936490
1531.000000	96.982267
1530.000000	97.024312
1529.000000	97.065591
1528.000000	97.104954
1527.000000	97.140779
1526.000000	97.170509
1525.000000	97.193538
1524.000000	97.215168
1523.000000	97.240347
1522.000000	97.267489
1521.000000	97.291313
1520.000000	97.308468
1519.000000	97.324339
1518.000000	97.342532
1517.000000	97.360065
1516.000000	97.376179
1515.000000	97.392071
1514.000000	97.405223
1513.000000	97.411607
1512.000000	97.412297
1511.000000	97.415453
1510.000000	97.428160
1509.000000	97.448216
1508.000000	97.468191
1507.000000	97.487603
1506.000000	97.502734
1505.000000	97.497502
1504.000000	97.482940
1503.000000	97.474107
1502.000000	97.470154
1501.000000	97.464850
1500.000000	97.457443
1499.000000	97.452971
1498.000000	97.449830
1497.000000	97.439901
1496.000000	97.421633
1495.000000	97.404384
1494.000000	97.393290
1493.000000	97.383406
1492.000000	97.367581
1491.000000	97.344342
1490.000000	97.319426
1489.000000	97.297429
1488.000000	97.276238
1487.000000	97.254268
1486.000000	97.232237
1485.000000	97.207395
1484.000000	97.178784
1483.000000	97.146837
1482.000000	97.108932
1481.000000	97.064160
1480.000000	97.017845
1479.000000	96.974929
1478.000000	96.930760
1477.000000	96.877494
1476.000000	96.816466
1475.000000	96.757111
1474.000000	96.698172
1473.000000	96.629572
1472.000000	96.558247
1471.000000	96.499866
1470.000000	96.454250
1469.000000	96.413689
1468.000000	96.375889
1467.000000	96.342844
1466.000000	96.312854
1465.000000	96.279131
1464.000000	96.241740
1463.000000	96.206260
1462.000000	96.174276
1461.000000	96.142673
1460.000000	96.108504
1459.000000	96.067652
1458.000000	96.012290
1457.000000	95.948483
1456.000000	95.897042
1455.000000	95.861345
1454.000000	95.831184
1453.000000	95.801246
1452.000000	95.773879
1451.000000	95.753151
1450.000000	95.736599
1449.000000	95.719299
1448.000000	95.701390
1447.000000	95.686886
1446.000000	95.673464
1445.000000	95.657960
1444.000000	95.645329
1443.000000	95.640657
1442.000000	95.641355
1441.000000	95.640907
1440.000000	95.638113
1439.000000	95.634471
1438.000000	95.628613
1437.000000	95.620579
1436.000000	95.616130
1435.000000	95.615155
1434.000000	95.611538
1433.000000	95.603446
1432.000000	95.593785
1431.000000	95.585431
1430.000000	95.576019
1429.000000	95.562190
1428.000000	95.545916
1427.000000	95.532167
1426.000000	95.520406
1425.000000	95.507049
1424.000000	95.495300
1423.000000	95.489413
1422.000000	95.485972
1421.000000	95.478381
1420.000000	95.466652
1419.000000	95.458450
1418.000000	95.456074
1417.000000	95.454666
1416.000000	95.454210
1415.000000	95.455573
1414.000000	95.455587
1413.000000	95.454065
1412.000000	95.457921
1411.000000	95.472457
1410.000000	95.492805
1409.000000	95.511669
1408.000000	95.528353
1407.000000	95.546892
1406.000000	95.568865
1405.000000	95.593565
1404.000000	95.622079
1403.000000	95.652688
1402.000000	95.680272
1401.000000	95.702642
1400.000000	95.723881
1399.000000	95.749135
1398.000000	95.776717
1397.000000	95.803570
1396.000000	95.833407
1395.000000	95.871119
1394.000000	95.912143
1393.000000	95.949409
1392.000000	95.984936
1391.000000	96.023024
1390.000000	96.062708
1389.000000	96.102505
1388.000000	96.146115
1387.000000	96.197100
1386.000000	96.249899
1385.000000	96.296775
1384.000000	96.337944
1383.000000	96.376042
1382.000000	96.410891
1381.000000	96.442644
1380.000000	96.474953
1379.000000	96.511327
1378.000000	96.549884
1377.000000	96.586815
1376.000000	96.623544
1375.000000	96.666652
1374.000000	96.718152
1373.000000	96.770264
1372.000000	96.814717
1371.000000	96.852634
1370.000000	96.891079
1369.000000	96.935900
1368.000000	96.987136
1367.000000	97.038169
1366.000000	97.083232
1365.000000	97.124157
1364.000000	97.167802
1363.000000	97.218048
1362.000000	97.270476
1361.000000	97.317642
1360.000000	97.357589
1359.000000	97.392583
1358.000000	97.424273
1357.000000	97.453024
1356.000000	97.478163
1355.000000	97.498062
1354.000000	97.512210
1353.000000	97.523600
1352.000000	97.535220
1351.000000	97.546239
1350.000000	97.553031
1349.000000	97.553536
1348.000000	97.548961
1347.000000	97.540828
1346.000000	97.530026
1345.000000	97.518661
1344.000000	97.509313
1343.000000	97.501795
1342.000000	97.493675
1341.000000	97.484606
1340.000000	97.477768
1339.000000	97.475588
1338.000000	97.477181
1337.000000	97.482810
1336.000000	97.495481
1335.000000	97.515492
1334.000000	97.537999
1333.000000	97.558357
1332.000000	97.577251
1331.000000	97.598586
1330.000000	97.623953
1329.000000	97.651202
1328.000000	97.676908
1327.000000	97.698571
1326.000000	97.715430
1325.000000	97.729240
1324.000000	97.743353
1323.000000	97.758977
1322.000000	97.773735
1321.000000	97.785001
1320.000000	97.793275
1319.000000	97.801070
1318.000000	97.809757
1317.000000	97.819227
1316.000000	97.829568
1315.000000	97.841248
1314.000000	97.854454
1313.000000	97.869693
1312.000000	97.888094
1311.000000	97.910023
1310.000000	97.934007
1309.000000	97.957909
1308.000000	97.980129
1307.000000	97.999521
1306.000000	98.015158
1305.000000	98.027201
1304.000000	98.037390
1303.000000	98.047522
1302.000000	98.058152
1301.000000	98.069319
1300.000000	98.081783
1299.000000	98.096510
1298.000000	98.113160
1297.000000	98.129621
1296.000000	98.142924
1295.000000	98.150596
1294.000000	98.151863
1293.000000	98.147845
1292.000000	98.140233
1291.000000	98.129797
1290.000000	98.116603
1289.000000	98.101834
1288.000000	98.088334
1287.000000	98.078427
1286.000000	98.071614
1285.000000	98.065583
1284.000000	98.059467
1283.000000	98.054834
1282.000000	98.053120
1281.000000	98.052936
1280.000000	98.051598
1279.000000	98.049323
1278.000000	98.050394
1277.000000	98.058949
1276.000000	98.073940
1275.000000	98.089719
1274.000000	98.101574
1273.000000	98.109592
1272.000000	98.116817
1271.000000	98.124954
1270.000000	98.132954
1269.000000	98.138724
1268.000000	98.140661
1267.000000	98.137959
1266.000000	98.131390
1265.000000	98.123917
1264.000000	98.119084
1263.000000	98.118020
1262.000000	98.118313
1261.000000	98.116077
1260.000000	98.108794
1259.000000	98.096387
1258.000000	98.080249
1257.000000	98.061443
1256.000000	98.040018
1255.000000	98.016150
1254.000000	97.991694
1253.000000	97.969595
1252.000000	97.950992
1251.000000	97.933693
1250.000000	97.914285
1249.000000	97.891242
1248.000000	97.865035
1247.000000	97.835749
1246.000000	97.802823
1245.000000	97.767638
1244.000000	97.734381
1243.000000	97.706769
1242.000000	97.684810
1241.000000	97.666035
1240.000000	97.648842
1239.000000	97.633135
1238.000000	97.618692
1237.000000	97.605507
1236.000000	97.595523
1235.000000	97.592136
1234.000000	97.597770
1233.000000	97.612657
1232.000000	97.635855
1231.000000	97.665409
1230.000000	97.698072
1229.000000	97.731527
1228.000000	97.766758
1227.000000	97.806695
1226.000000	97.852132
1225.000000	97.900448
1224.000000	97.948371
1223.000000	97.993983
1222.000000	98.035801
1221.000000	98.072159
1220.000000	98.103040
1219.000000	98.131246
1218.000000	98.159956
1217.000000	98.188894
1216.000000	98.213981
1215.000000	98.231083
1214.000000	98.239373
1213.000000	98.241513
1212.000000	98.241241
1211.000000	98.240644
1210.000000	98.238588
1209.000000	98.231192
1208.000000	98.215539
1207.000000	98.193788
1206.000000	98.172838
1205.000000	98.158945
1204.000000	98.153424
1203.000000	98.154106
1202.000000	98.159421
1201.000000	98.169623
1200.000000	98.184711
1199.000000	98.203401
1198.000000	98.224257
1197.000000	98.246751
1196.000000	98.270972
1195.000000	98.296921
1194.000000	98.324312
1193.000000	98.352001
1192.000000	98.377868
1191.000000	98.400855
1190.000000	98.423146
1189.000000	98.448223
1188.000000	98.475843
1187.000000	98.500684
1186.000000	98.517284
1185.000000	98.525460
1184.000000	98.529776
1183.000000	98.535272
1182.000000	98.544747
1181.000000	98.558050
1180.000000	98.572086
1179.000000	98.582262
1178.000000	98.586032
1177.000000	98.585173
1176.000000	98.583748
1175.000000	98.584473
1174.000000	98.587455
1173.000000	98.591416
1172.000000	98.595085
1171.000000	98.597707
1170.000000	98.599200
1169.000000	98.599776
1168.000000	98.599165
1167.000000	98.596912
1166.000000	98.593920
1165.000000	98.592715
1164.000000	98.595135
1163.000000	98.600144
1162.000000	98.604805
1161.000000	98.607426
1160.000000	98.609270
1159.000000	98.613394
1158.000000	98.622036
1157.000000	98.634750
1156.000000	98.649012
1155.000000	98.662772
1154.000000	98.676153
1153.000000	98.690227
1152.000000	98.704806
1151.000000	98.718941
1150.000000	98.733236
1149.000000	98.749622
1148.000000	98.768484
1147.000000	98.787877
1146.000000	98.806092
1145.000000	98.823026
1144.000000	98.838299
1143.000000	98.850224
1142.000000	98.858135
1141.000000	98.863951
1140.000000	98.869930
1139.000000	98.876229
1138.000000	98.881739
1137.000000	98.886022
1136.000000	98.889396
1135.000000	98.892723
1134.000000	98.898137
1133.000000	98.907898
1132.000000	98.920930
1131.000000	98.932118
1130.000000	98.937066
1129.000000	98.936662
1128.000000	98.935526
1127.000000	98.937270
1126.000000	98.942680
1125.000000	98.950690
1124.000000	98.959041
1123.000000	98.964976
1122.000000	98.967449
1121.000000	98.968009
1120.000000	98.967932
1119.000000	98.965771
1118.000000	98.959540
1117.000000	98.950344
1116.000000	98.941616
1115.000000	98.935162
1114.000000	98.929763
1113.000000	98.923101
1112.000000	98.913528
1111.000000	98.900615
1110.000000	98.885845
1109.000000	98.872558
1108.000000	98.863498
1107.000000	98.858356
1106.000000	98.854978
1105.000000	98.852433
1104.000000	98.851187
1103.000000	98.850659
1102.000000	98.848522
1101.000000	98.843155
1100.000000	98.835340
1099.000000	98.827165
1098.000000	98.819955
1097.000000	98.813047
1096.000000	98.804236
1095.000000	98.791838
1094.000000	98.777305
1093.000000	98.764726
1092.000000	98.756027
1091.000000	98.747292
1090.000000	98.731688
1089.000000	98.706362
1088.000000	98.674648
1087.000000	98.641489
1086.000000	98.609261
1085.000000	98.579289
1084.000000	98.555163
1083.000000	98.541095
1082.000000	98.536466
1081.000000	98.534429
1080.000000	98.528446
1079.000000	98.519953
1078.000000	98.517949
1077.000000	98.530372
1076.000000	98.556010
1075.000000	98.585402
1074.000000	98.609226
1073.000000	98.624725
1072.000000	98.634013
1071.000000	98.638592
1070.000000	98.638121
1069.000000	98.633706
1068.000000	98.629254
1067.000000	98.628155
1066.000000	98.630259
1065.000000	98.633364
1064.000000	98.636481
1063.000000	98.639822
1062.000000	98.642214
1061.000000	98.641019
1060.000000	98.635686
1059.000000	98.629961
1058.000000	98.628897
1057.000000	98.633824
1056.000000	98.641152
1055.000000	98.646100
1054.000000	98.646952
1053.000000	98.645878
1052.000000	98.646787
1051.000000	98.652376
1050.000000	98.661855
1049.000000	98.670930
1048.000000	98.675087
1047.000000	98.673769
1046.000000	98.670589
1045.000000	98.668723
1044.000000	98.667061
1043.000000	98.661800
1042.000000	98.650682
1041.000000	98.634875
1040.000000	98.617936
1039.000000	98.604261
1038.000000	98.596843
1037.000000	98.593841
1036.000000	98.588175
1035.000000	98.573551
1034.000000	98.551588
1033.000000	98.531034
1032.000000	98.519627
1031.000000	98.518604
1030.000000	98.524931
1029.000000	98.536009
1028.000000	98.550630
1027.000000	98.567381
1026.000000	98.584063
1025.000000	98.598216
1024.000000	98.608263
1023.000000	98.615889
1022.000000	98.627390
1021.000000	98.649181
1020.000000	98.680162
1019.000000	98.710762
1018.000000	98.731494
1017.000000	98.740704
1016.000000	98.742540
1015.000000	98.741297
1014.000000	98.741080
1013.000000	98.747433
1012.000000	98.763455
1011.000000	98.784635
1010.000000	98.802256
1009.000000	98.812946
1008.000000	98.821683
1007.000000	98.834699
1006.000000	98.852870
1005.000000	98.873082
1004.000000	98.892877
1003.000000	98.911739
1002.000000	98.929989
1001.000000	98.948659
1000.000000	98.969065
999.000000	98.990763
998.000000	99.010825
997.000000	99.026789
996.000000	99.039651
995.000000	99.052793
994.000000	99.068565
993.000000	99.087312
992.000000	99.109201
991.000000	99.134591
990.000000	99.161515
989.000000	99.184312
988.000000	99.197485
987.000000	99.201842
986.000000	99.205243
985.000000	99.215202
984.000000	99.230749
983.000000	99.243498
982.000000	99.247025
981.000000	99.243468
980.000000	99.240261
979.000000	99.241826
978.000000	99.245964
977.000000	99.247464
976.000000	99.243786
975.000000	99.237596
974.000000	99.234386
973.000000	99.237413
972.000000	99.244563
971.000000	99.250725
970.000000	99.253724
969.000000	99.257032
968.000000	99.266201
967.000000	99.283418
966.000000	99.305965
965.000000	99.328939
964.000000	99.348327
963.000000	99.362141
962.000000	99.370182
961.000000	99.373096
960.000000	99.371878
959.000000	99.369066
958.000000	99.369898
957.000000	99.379940
956.000000	99.399922
955.000000	99.423867
954.000000	99.443664
953.000000	99.455030
952.000000	99.458790
951.000000	99.458079
950.000000	99.455887
949.000000	99.454282
948.000000	99.453955
947.000000	99.454251
946.000000	99.454245
945.000000	99.453538
944.000000	99.451988
943.000000	99.449911
942.000000	99.449094
941.000000	99.451986
940.000000	99.458715
939.000000	99.466141
938.000000	99.471393
937.000000	99.475654
936.000000	99.483006
935.000000	99.495872
934.000000	99.512309
933.000000	99.527184
932.000000	99.535857
931.000000	99.538173
930.000000	99.539692
929.000000	99.547325
928.000000	99.562205
927.000000	99.578226
926.000000	99.589009
925.000000	99.594350
924.000000	99.598289
923.000000	99.602883
922.000000	99.606853
921.000000	99.609326
920.000000	99.611752
919.000000	99.616301
918.000000	99.624405
917.000000	99.636208
916.000000	99.649111
915.000000	99.657611
914.000000	99.658155
913.000000	99.654762
912.000000	99.656305
911.000000	99.666710
910.000000	99.680100
909.000000	99.687459
908.000000	99.686481
907.000000	99.682524
906.000000	99.681273
905.000000	99.683048
904.000000	99.684432
903.000000	99.683526
902.000000	99.682199
901.000000	99.684100
900.000000	99.691726
899.000000	99.705274
898.000000	99.723066
897.000000	99.742021
896.000000	99.758122
895.000000	99.767781
894.000000	99.769808
893.000000	99.766357
892.000000	99.761986
891.000000	99.761497
890.000000	99.767145
889.000000	99.776331
888.000000	99.782408
887.000000	99.778516
886.000000	99.760812
885.000000	99.727067
884.000000	99.673326
883.000000	99.594562
882.000000	99.486692
881.000000	99.345509
880.000000	99.163577
879.000000	98.933174
878.000000	98.654231
877.000000	98.336766
876.000000	97.997825
875.000000	97.664199
874.000000	97.383181
873.000000	97.221870
872.000000	97.241006
871.000000	97.452413
870.000000	97.798548
869.000000	98.181737
868.000000	98.517828
867.000000	98.770105
866.000000	98.944735
865.000000	99.065765
864.000000	99.155635
863.000000	99.229347
862.000000	99.294365
861.000000	99.350830
860.000000	99.394812
859.000000	99.425083
858.000000	99.447298
857.000000	99.468870
856.000000	99.490835
855.000000	99.508674
854.000000	99.520804
853.000000	99.531498
852.000000	99.542905
851.000000	99.549057
850.000000	99.543177
849.000000	99.528721
848.000000	99.518246
847.000000	99.521520
846.000000	99.538886
845.000000	99.565745
844.000000	99.597542
843.000000	99.628509
842.000000	99.651292
841.000000	99.662850
840.000000	99.668217
839.000000	99.674413
838.000000	99.681894
837.000000	99.685719
836.000000	99.684539
835.000000	99.684245
834.000000	99.691663
833.000000	99.707419
832.000000	99.726458
831.000000	99.743470
830.000000	99.755913
829.000000	99.763321
828.000000	99.766523
827.000000	99.767979
826.000000	99.770790
825.000000	99.775465
824.000000	99.777718
823.000000	99.771343
822.000000	99.754821
821.000000	99.735072
820.000000	99.723214
819.000000	99.725113
818.000000	99.735891
817.000000	99.744422
816.000000	99.743456
815.000000	99.735268
814.000000	99.728256
813.000000	99.729326
812.000000	99.739206
811.000000	99.752541
810.000000	99.761209
809.000000	99.759908
808.000000	99.751378
807.000000	99.745270
806.000000	99.749148
805.000000	99.760445
804.000000	99.769606
803.000000	99.771135
802.000000	99.768332
801.000000	99.766448
800.000000	99.764960
799.000000	99.759564
798.000000	99.749414
797.000000	99.738237
796.000000	99.728909
795.000000	99.721146
794.000000	99.715299
793.000000	99.714681
792.000000	99.721670
791.000000	99.733446
790.000000	99.744343
789.000000	99.751706
788.000000	99.756740
787.000000	99.759778
786.000000	99.758194
785.000000	99.750804
784.000000	99.741748
783.000000	99.736697
782.000000	99.736050
781.000000	99.735517
780.000000	99.733944
779.000000	99.736201
778.000000	99.745092
777.000000	99.753563
776.000000	99.750613
775.000000	99.735251
774.000000	99.719697
773.000000	99.716563
772.000000	99.725991
771.000000	99.737643
770.000000	99.742074
769.000000	99.736705
768.000000	99.723550
767.000000	99.707119
766.000000	99.694844
765.000000	99.693766
764.000000	99.703309
763.000000	99.713962
762.000000	99.716393
761.000000	99.710800
760.000000	99.704969
759.000000	99.704447
758.000000	99.707910
757.000000	99.711756
756.000000	99.715288
755.000000	99.719718
754.000000	99.724737
753.000000	99.729036
752.000000	99.733471
751.000000	99.740768
750.000000	99.751163
749.000000	99.760050
748.000000	99.761282
747.000000	99.752286
746.000000	99.735830
745.000000	99.717731
744.000000	99.703375
743.000000	99.695310
742.000000	99.692731
741.000000	99.693099
740.000000	99.694754
739.000000	99.697462
738.000000	99.699428
737.000000	99.695249
736.000000	99.680070
735.000000	99.656871
734.000000	99.636664
733.000000	99.628040
732.000000	99.626684
731.000000	99.618200
730.000000	99.593077
729.000000	99.557497
728.000000	99.529178
727.000000	99.521790
726.000000	99.531321
725.000000	99.538952
724.000000	99.528728
723.000000	99.501463
722.000000	99.470632
721.000000	99.446934
720.000000	99.429836
719.000000	99.412031
718.000000	99.385593
717.000000	99.340442
716.000000	99.263361
715.000000	99.150819
714.000000	99.026526
713.000000	98.937157
712.000000	98.919882
711.000000	98.971056
710.000000	99.050671
709.000000	99.117493
708.000000	99.157218
707.000000	99.179320
706.000000	99.193749
705.000000	99.200343
704.000000	99.199089
703.000000	99.197397
702.000000	99.202831
701.000000	99.214055
700.000000	99.223438
699.000000	99.227572
698.000000	99.229187
697.000000	99.230958
696.000000	99.233166
695.000000	99.234983
694.000000	99.236110
693.000000	99.235908
692.000000	99.233639
691.000000	99.232686
690.000000	99.238210
689.000000	99.249511
688.000000	99.258661
687.000000	99.258553
686.000000	99.251208
685.000000	99.242930
684.000000	99.234215
683.000000	99.221430
682.000000	99.204006
681.000000	99.183186
680.000000	99.156118
679.000000	99.121644
678.000000	99.090215
677.000000	99.074828
676.000000	99.076245
675.000000	99.084332
674.000000	99.091560
673.000000	99.099965
672.000000	99.115262
671.000000	99.145622
670.000000	99.195680
669.000000	99.259587
668.000000	99.288041
667.000000	99.238379
666.000000	99.153997
665.000000	99.074406
664.000000	99.014145
663.000000	98.987140
662.000000	98.987828
661.000000	98.997726
660.000000	99.001390
659.000000	98.998559
658.000000	98.991244
657.000000	98.974898
656.000000	98.952226
655.000000	98.939205
654.000000	98.942453
653.000000	98.947752
652.000000	98.944205
651.000000	98.941871
650.000000	98.953677
649.000000	98.973010
648.000000	98.984189
647.000000	98.983426
646.000000	98.976343
645.000000	98.967491
644.000000	98.961282
643.000000	98.963987
642.000000	98.976194
641.000000	98.987784
640.000000	98.988879
639.000000	98.981653
638.000000	98.973905
637.000000	98.968238
636.000000	98.964768
635.000000	98.966031
634.000000	98.972013
633.000000	98.976192
632.000000	98.973110
631.000000	98.965942
630.000000	98.961144
629.000000	98.959206
628.000000	98.956691
627.000000	98.953455
626.000000	98.952091
625.000000	98.954441
624.000000	98.960146
623.000000	98.965535
622.000000	98.964203
621.000000	98.953042
620.000000	98.937836
619.000000	98.927806
618.000000	98.925111
617.000000	98.924872
616.000000	98.924331
615.000000	98.924263
614.000000	98.921994
613.000000	98.912735
612.000000	98.899276
611.000000	98.890617
610.000000	98.889274
609.000000	98.889719
608.000000	98.891766
607.000000	98.903722
606.000000	98.925990
605.000000	98.944583
604.000000	98.947461
603.000000	98.938547
602.000000	98.931313
601.000000	98.935654
600.000000	98.954614
599.000000	98.983820
598.000000	99.008267
597.000000	99.009806
596.000000	98.985794
595.000000	98.954872
594.000000	98.937781
593.000000	98.936650
592.000000	98.940049
591.000000	98.942491
590.000000	98.948646
589.000000	98.960428
588.000000	98.969534
587.000000	98.964521
586.000000	98.942378
585.000000	98.914174
584.000000	98.898549
583.000000	98.905234
582.000000	98.925379
581.000000	98.943151
580.000000	98.955016
579.000000	98.969009
578.000000	98.984916
577.000000	98.988812
576.000000	98.971571
575.000000	98.942023
574.000000	98.914593
573.000000	98.892813
572.000000	98.874295
571.000000	98.861606
570.000000	98.858566
569.000000	98.861821
568.000000	98.863366
567.000000	98.856309
566.000000	98.835006
565.000000	98.797799
564.000000	98.752730
563.000000	98.713017
562.000000	98.683902
561.000000	98.662723
560.000000	98.654082
559.000000	98.669194
558.000000	98.703773
557.000000	98.734076
556.000000	98.743783
555.000000	98.741670
554.000000	98.744394
553.000000	98.754815
552.000000	98.766974
551.000000	98.778736
550.000000	98.788801
549.000000	98.793626
548.000000	98.797115
547.000000	98.810203
546.000000	98.830066
545.000000	98.835212
544.000000	98.815382
543.000000	98.789521
542.000000	98.781364
541.000000	98.790330
540.000000	98.797885
539.000000	98.790058
538.000000	98.760640
537.000000	98.707298
536.000000	98.643462
535.000000	98.602976
534.000000	98.610079
533.000000	98.650033
532.000000	98.686553
531.000000	98.701703
530.000000	98.704741
529.000000	98.708862
528.000000	98.714747
527.000000	98.715598
526.000000	98.706188
525.000000	98.687155
524.000000	98.666409
523.000000	98.653324
522.000000	98.649843
521.000000	98.654328
520.000000	98.674159
519.000000	98.722347
518.000000	98.794679
517.000000	98.865371
516.000000	98.917341
515.000000	98.955104
514.000000	98.981791
513.000000	98.988559
512.000000	98.975285
511.000000	98.961271
510.000000	98.960846
509.000000	98.965926
508.000000	98.968854
507.000000	98.983857
506.000000	99.021023
505.000000	99.057843
504.000000	99.064667
503.000000	99.044664
502.000000	99.030683
501.000000	99.043480
500.000000	99.071608
499.000000	99.096923
498.000000	99.114735
497.000000	99.130718
496.000000	99.154051
495.000000	99.187280
494.000000	99.215190
493.000000	99.212090
492.000000	99.171478
491.000000	99.120243
490.000000	99.092059
489.000000	99.099408
488.000000	99.138766
487.000000	99.199385
486.000000	99.254184
485.000000	99.270466
484.000000	99.253962
483.000000	99.255171
482.000000	99.300770
481.000000	99.348974
480.000000	99.342496
479.000000	99.280955
478.000000	99.217165
477.000000	99.196107
476.000000	99.222437
475.000000	99.278891
474.000000	99.341314
473.000000	99.376452
472.000000	99.362789
471.000000	99.319407
470.000000	99.281156
469.000000	99.258044
468.000000	99.245803
467.000000	99.248210
466.000000	99.263648
465.000000	99.273723
464.000000	99.269367
463.000000	99.269622
462.000000	99.291739
461.000000	99.322514
460.000000	99.353066
459.000000	99.417885
458.000000	99.549788
457.000000	99.697128
456.000000	99.772605
455.000000	99.770365
454.000000	99.745802
453.000000	99.735578
452.000000	99.739664
451.000000	99.744249
450.000000	99.742624
