PE IR       SUBTECH     SPECTRUM    ASCII       PEDS        4.00        
   -1
AG10-C015_1.ASC
23/09/08
10:33:59.00
23/09/08
11:14:38.00
uco
Sample 015 By uco Date Friday, September 08 2023
450.000000
#HDR
-1
-1
#GR
cm-1
%T
1.0
0.0
4000.000000
-1.000000
3551
8
100.013957
96.742625
#DATA
4000.000000	99.965278
3999.000000	99.963612
3998.000000	99.962531
3997.000000	99.963019
3996.000000	99.965559
3995.000000	99.969345
3994.000000	99.972704
3993.000000	99.974090
3992.000000	99.972840
3991.000000	99.969254
3990.000000	99.964388
3989.000000	99.959665
3988.000000	99.956452
3987.000000	99.955573
3986.000000	99.956862
3985.000000	99.959005
3984.000000	99.960099
3983.000000	99.958963
3982.000000	99.956253
3981.000000	99.954145
3980.000000	99.954640
3979.000000	99.957891
3978.000000	99.962131
3977.000000	99.965065
3976.000000	99.965358
3975.000000	99.963081
3974.000000	99.959142
3973.000000	99.954556
3972.000000	99.949995
3971.000000	99.945776
3970.000000	99.942084
3969.000000	99.939269
3968.000000	99.937782
3967.000000	99.937787
3966.000000	99.939032
3965.000000	99.941062
3964.000000	99.943608
3963.000000	99.946701
3962.000000	99.950351
3961.000000	99.954113
3960.000000	99.956805
3959.000000	99.956906
3958.000000	99.953467
3957.000000	99.947019
3956.000000	99.939496
3955.000000	99.933288
3954.000000	99.930256
3953.000000	99.930957
3952.000000	99.934451
3951.000000	99.938708
3950.000000	99.941698
3949.000000	99.942569
3948.000000	99.942089
3947.000000	99.942105
3946.000000	99.944244
3945.000000	99.948297
3944.000000	99.952024
3943.000000	99.953150
3942.000000	99.951049
3941.000000	99.946491
3940.000000	99.940445
3939.000000	99.933956
3938.000000	99.928714
3937.000000	99.927119
3936.000000	99.930199
3935.000000	99.935345
3934.000000	99.937594
3933.000000	99.934123
3932.000000	99.927598
3931.000000	99.923655
3930.000000	99.925155
3929.000000	99.930550
3928.000000	99.936542
3927.000000	99.940171
3926.000000	99.939701
3925.000000	99.936188
3924.000000	99.933492
3923.000000	99.934297
3922.000000	99.936972
3921.000000	99.937425
3920.000000	99.933498
3919.000000	99.927076
3918.000000	99.921958
3917.000000	99.920420
3916.000000	99.921687
3915.000000	99.923331
3914.000000	99.922969
3913.000000	99.920272
3912.000000	99.917347
3911.000000	99.917548
3910.000000	99.922500
3909.000000	99.931525
3908.000000	99.943029
3907.000000	99.954758
3906.000000	99.962582
3905.000000	99.961331
3904.000000	99.950595
3903.000000	99.937748
3902.000000	99.931537
3901.000000	99.933520
3900.000000	99.937859
3899.000000	99.938746
3898.000000	99.935706
3897.000000	99.931538
3896.000000	99.927882
3895.000000	99.925054
3894.000000	99.922770
3893.000000	99.920887
3892.000000	99.918957
3891.000000	99.917269
3890.000000	99.917231
3889.000000	99.921146
3888.000000	99.928672
3887.000000	99.933938
3886.000000	99.932220
3885.000000	99.927876
3884.000000	99.928705
3883.000000	99.936197
3882.000000	99.943937
3881.000000	99.944636
3880.000000	99.938045
3879.000000	99.930274
3878.000000	99.927278
3877.000000	99.930070
3876.000000	99.933570
3875.000000	99.931871
3874.000000	99.926297
3873.000000	99.924651
3872.000000	99.930476
3871.000000	99.937021
3870.000000	99.936429
3869.000000	99.931734
3868.000000	99.931501
3867.000000	99.937507
3866.000000	99.942378
3865.000000	99.939519
3864.000000	99.931020
3863.000000	99.922980
3862.000000	99.917871
3861.000000	99.915740
3860.000000	99.915415
3859.000000	99.914515
3858.000000	99.911532
3857.000000	99.909047
3856.000000	99.911551
3855.000000	99.915783
3854.000000	99.913649
3853.000000	99.910541
3852.000000	99.913276
3851.000000	99.919213
3850.000000	99.924260
3849.000000	99.927241
3848.000000	99.930095
3847.000000	99.935187
3846.000000	99.942023
3845.000000	99.948258
3844.000000	99.951134
3843.000000	99.949151
3842.000000	99.942984
3841.000000	99.934833
3840.000000	99.925810
3839.000000	99.916994
3838.000000	99.910720
3837.000000	99.909055
3836.000000	99.912423
3835.000000	99.919821
3834.000000	99.929597
3833.000000	99.939321
3832.000000	99.946490
3831.000000	99.950458
3830.000000	99.952819
3829.000000	99.955292
3828.000000	99.956616
3827.000000	99.953509
3826.000000	99.945990
3825.000000	99.940597
3824.000000	99.944328
3823.000000	99.955262
3822.000000	99.961533
3821.000000	99.955949
3820.000000	99.944433
3819.000000	99.935838
3818.000000	99.931966
3817.000000	99.925378
3816.000000	99.912311
3815.000000	99.901838
3814.000000	99.902825
3813.000000	99.912088
3812.000000	99.920856
3811.000000	99.925886
3810.000000	99.930835
3809.000000	99.938519
3808.000000	99.944610
3807.000000	99.943766
3806.000000	99.938179
3805.000000	99.934848
3804.000000	99.936903
3803.000000	99.940310
3802.000000	99.939626
3801.000000	99.938054
3800.000000	99.940860
3799.000000	99.946430
3798.000000	99.948541
3797.000000	99.943176
3796.000000	99.933887
3795.000000	99.927603
3794.000000	99.926823
3793.000000	99.928573
3792.000000	99.929872
3791.000000	99.930674
3790.000000	99.931964
3789.000000	99.933508
3788.000000	99.934710
3787.000000	99.935860
3786.000000	99.937568
3785.000000	99.939762
3784.000000	99.942032
3783.000000	99.944373
3782.000000	99.945814
3781.000000	99.943771
3780.000000	99.937085
3779.000000	99.929986
3778.000000	99.928187
3777.000000	99.932769
3776.000000	99.939481
3775.000000	99.943430
3774.000000	99.943490
3773.000000	99.941872
3772.000000	99.939669
3771.000000	99.936139
3770.000000	99.933098
3769.000000	99.934655
3768.000000	99.941298
3767.000000	99.948249
3766.000000	99.949886
3765.000000	99.945419
3764.000000	99.939838
3763.000000	99.938331
3762.000000	99.940247
3761.000000	99.940749
3760.000000	99.937263
3759.000000	99.931727
3758.000000	99.925298
3757.000000	99.917919
3756.000000	99.912063
3755.000000	99.911755
3754.000000	99.918116
3753.000000	99.927579
3752.000000	99.935048
3751.000000	99.936736
3750.000000	99.929991
3749.000000	99.916721
3748.000000	99.905913
3747.000000	99.905531
3746.000000	99.911736
3745.000000	99.911691
3744.000000	99.906110
3743.000000	99.907742
3742.000000	99.919464
3741.000000	99.933713
3740.000000	99.944928
3739.000000	99.954314
3738.000000	99.962524
3737.000000	99.963781
3736.000000	99.956302
3735.000000	99.949288
3734.000000	99.949441
3733.000000	99.951226
3732.000000	99.947656
3731.000000	99.940070
3730.000000	99.934436
3729.000000	99.933429
3728.000000	99.934265
3727.000000	99.933154
3726.000000	99.930835
3725.000000	99.930246
3724.000000	99.931258
3723.000000	99.931806
3722.000000	99.931881
3721.000000	99.933818
3720.000000	99.938370
3719.000000	99.942833
3718.000000	99.943009
3717.000000	99.938098
3716.000000	99.932388
3715.000000	99.930321
3714.000000	99.931461
3713.000000	99.931469
3712.000000	99.928908
3711.000000	99.928445
3710.000000	99.933830
3709.000000	99.943409
3708.000000	99.952966
3707.000000	99.959304
3706.000000	99.962064
3705.000000	99.963349
3704.000000	99.965202
3703.000000	99.967974
3702.000000	99.970688
3701.000000	99.972109
3700.000000	99.971801
3699.000000	99.970359
3698.000000	99.967383
3697.000000	99.961219
3696.000000	99.951863
3695.000000	99.940864
3694.000000	99.928983
3693.000000	99.916951
3692.000000	99.907943
3691.000000	99.906692
3690.000000	99.913759
3689.000000	99.922897
3688.000000	99.928040
3687.000000	99.930934
3686.000000	99.936528
3685.000000	99.944614
3684.000000	99.951372
3683.000000	99.954967
3682.000000	99.955980
3681.000000	99.953532
3680.000000	99.946410
3679.000000	99.937875
3678.000000	99.933841
3677.000000	99.933804
3676.000000	99.932578
3675.000000	99.931328
3674.000000	99.932506
3673.000000	99.937659
3672.000000	99.946084
3671.000000	99.952760
3670.000000	99.956379
3669.000000	99.960940
3668.000000	99.966348
3667.000000	99.969963
3666.000000	99.970631
3665.000000	99.968380
3664.000000	99.964143
3663.000000	99.959288
3662.000000	99.954818
3661.000000	99.951286
3660.000000	99.949825
3659.000000	99.951131
3658.000000	99.953636
3657.000000	99.953579
3656.000000	99.950007
3655.000000	99.946347
3654.000000	99.946780
3653.000000	99.952517
3652.000000	99.960437
3651.000000	99.966449
3650.000000	99.970907
3649.000000	99.974931
3648.000000	99.973072
3647.000000	99.961897
3646.000000	99.946352
3645.000000	99.933315
3644.000000	99.925355
3643.000000	99.921173
3642.000000	99.919060
3641.000000	99.918704
3640.000000	99.919532
3639.000000	99.919510
3638.000000	99.918373
3637.000000	99.919583
3636.000000	99.926071
3635.000000	99.934691
3634.000000	99.938910
3633.000000	99.937472
3632.000000	99.936166
3631.000000	99.939275
3630.000000	99.942661
3629.000000	99.943207
3628.000000	99.944248
3627.000000	99.946786
3626.000000	99.949753
3625.000000	99.951818
3624.000000	99.953258
3623.000000	99.956725
3622.000000	99.963776
3621.000000	99.971472
3620.000000	99.975107
3619.000000	99.973708
3618.000000	99.969780
3617.000000	99.965869
3616.000000	99.963347
3615.000000	99.960979
3614.000000	99.956049
3613.000000	99.947971
3612.000000	99.939400
3611.000000	99.933678
3610.000000	99.932002
3609.000000	99.933946
3608.000000	99.939178
3607.000000	99.946130
3606.000000	99.951460
3605.000000	99.952691
3604.000000	99.949907
3603.000000	99.944438
3602.000000	99.937372
3601.000000	99.929317
3600.000000	99.921981
3599.000000	99.917951
3598.000000	99.918873
3597.000000	99.923672
3596.000000	99.929031
3595.000000	99.931357
3594.000000	99.930172
3593.000000	99.928371
3592.000000	99.928923
3591.000000	99.931978
3590.000000	99.934032
3589.000000	99.930678
3588.000000	99.922975
3587.000000	99.918084
3586.000000	99.919801
3585.000000	99.925798
3584.000000	99.932493
3583.000000	99.936746
3582.000000	99.936183
3581.000000	99.930430
3580.000000	99.921945
3579.000000	99.914378
3578.000000	99.909768
3577.000000	99.907774
3576.000000	99.907213
3575.000000	99.907727
3574.000000	99.909716
3573.000000	99.913500
3572.000000	99.918917
3571.000000	99.925382
3570.000000	99.931241
3569.000000	99.933373
3568.000000	99.930670
3567.000000	99.926895
3566.000000	99.925423
3565.000000	99.924955
3564.000000	99.923798
3563.000000	99.921920
3562.000000	99.919801
3561.000000	99.918075
3560.000000	99.917545
3559.000000	99.918582
3558.000000	99.920373
3557.000000	99.921282
3556.000000	99.920175
3555.000000	99.917303
3554.000000	99.913938
3553.000000	99.911555
3552.000000	99.910862
3551.000000	99.910787
3550.000000	99.908801
3549.000000	99.902716
3548.000000	99.892999
3547.000000	99.884055
3546.000000	99.881591
3545.000000	99.887157
3544.000000	99.896544
3543.000000	99.904001
3542.000000	99.906340
3541.000000	99.903953
3540.000000	99.899586
3539.000000	99.896014
3538.000000	99.893938
3537.000000	99.891736
3536.000000	99.887881
3535.000000	99.883100
3534.000000	99.880035
3533.000000	99.880658
3532.000000	99.884547
3531.000000	99.889255
3530.000000	99.892106
3529.000000	99.892058
3528.000000	99.890281
3527.000000	99.888796
3526.000000	99.888373
3525.000000	99.888068
3524.000000	99.886501
3523.000000	99.883187
3522.000000	99.878847
3521.000000	99.875183
3520.000000	99.874240
3519.000000	99.876793
3518.000000	99.881156
3517.000000	99.883973
3516.000000	99.882962
3515.000000	99.878594
3514.000000	99.873186
3513.000000	99.868775
3512.000000	99.866327
3511.000000	99.866490
3510.000000	99.870029
3509.000000	99.876686
3508.000000	99.884294
3507.000000	99.889693
3506.000000	99.890523
3505.000000	99.886308
3504.000000	99.879058
3503.000000	99.872295
3502.000000	99.868285
3501.000000	99.866400
3500.000000	99.864568
3499.000000	99.861821
3498.000000	99.859346
3497.000000	99.859563
3496.000000	99.863597
3495.000000	99.869401
3494.000000	99.872860
3493.000000	99.871405
3492.000000	99.866266
3491.000000	99.860929
3490.000000	99.857849
3489.000000	99.857039
3488.000000	99.857460
3487.000000	99.858427
3486.000000	99.859116
3485.000000	99.857922
3484.000000	99.853818
3483.000000	99.848307
3482.000000	99.844941
3481.000000	99.845988
3480.000000	99.850198
3479.000000	99.854313
3478.000000	99.856088
3477.000000	99.855264
3476.000000	99.852533
3475.000000	99.848641
3474.000000	99.844580
3473.000000	99.841898
3472.000000	99.841867
3471.000000	99.844142
3470.000000	99.846714
3469.000000	99.847566
3468.000000	99.846187
3467.000000	99.843422
3466.000000	99.840272
3465.000000	99.837489
3464.000000	99.836136
3463.000000	99.837433
3462.000000	99.841231
3461.000000	99.845024
3460.000000	99.845564
3459.000000	99.841845
3458.000000	99.836130
3457.000000	99.831739
3456.000000	99.830157
3455.000000	99.830298
3454.000000	99.830356
3453.000000	99.829807
3452.000000	99.829639
3451.000000	99.830877
3450.000000	99.833094
3449.000000	99.834621
3448.000000	99.834315
3447.000000	99.832865
3446.000000	99.831709
3445.000000	99.831032
3444.000000	99.829522
3443.000000	99.825933
3442.000000	99.820492
3441.000000	99.814737
3440.000000	99.810216
3439.000000	99.807376
3438.000000	99.805470
3437.000000	99.803340
3436.000000	99.800651
3435.000000	99.798373
3434.000000	99.797772
3433.000000	99.798706
3432.000000	99.799410
3431.000000	99.798265
3430.000000	99.795636
3429.000000	99.793935
3428.000000	99.795765
3427.000000	99.801833
3426.000000	99.810243
3425.000000	99.817590
3424.000000	99.820927
3423.000000	99.819138
3422.000000	99.813217
3421.000000	99.805735
3420.000000	99.799463
3419.000000	99.795537
3418.000000	99.792761
3417.000000	99.789145
3416.000000	99.784224
3415.000000	99.779525
3414.000000	99.776691
3413.000000	99.775734
3412.000000	99.775525
3411.000000	99.775292
3410.000000	99.775039
3409.000000	99.774969
3408.000000	99.775238
3407.000000	99.775998
3406.000000	99.777030
3405.000000	99.777529
3404.000000	99.776920
3403.000000	99.775800
3402.000000	99.775510
3401.000000	99.776610
3400.000000	99.778142
3399.000000	99.778465
3398.000000	99.776633
3397.000000	99.772934
3396.000000	99.768393
3395.000000	99.764109
3394.000000	99.761052
3393.000000	99.760113
3392.000000	99.761770
3391.000000	99.765352
3390.000000	99.768812
3389.000000	99.769588
3388.000000	99.766019
3387.000000	99.758250
3386.000000	99.748144
3385.000000	99.738352
3384.000000	99.730978
3383.000000	99.726520
3382.000000	99.724043
3381.000000	99.722549
3380.000000	99.721996
3379.000000	99.722751
3378.000000	99.724379
3377.000000	99.725639
3376.000000	99.725603
3375.000000	99.724241
3374.000000	99.721897
3373.000000	99.718784
3372.000000	99.715047
3371.000000	99.710772
3370.000000	99.705717
3369.000000	99.699608
3368.000000	99.693002
3367.000000	99.687344
3366.000000	99.683605
3365.000000	99.681137
3364.000000	99.678259
3363.000000	99.673760
3362.000000	99.667598
3361.000000	99.660599
3360.000000	99.653928
3359.000000	99.648492
3358.000000	99.644271
3357.000000	99.640174
3356.000000	99.634799
3355.000000	99.627442
3354.000000	99.618549
3353.000000	99.609752
3352.000000	99.603543
3351.000000	99.601887
3350.000000	99.604095
3349.000000	99.606398
3348.000000	99.604697
3347.000000	99.598137
3346.000000	99.589610
3345.000000	99.582672
3344.000000	99.578348
3343.000000	99.574802
3342.000000	99.569456
3341.000000	99.561156
3340.000000	99.550994
3339.000000	99.541672
3338.000000	99.535850
3337.000000	99.534298
3336.000000	99.535174
3335.000000	99.535270
3334.000000	99.532467
3333.000000	99.527369
3332.000000	99.522583
3331.000000	99.520223
3330.000000	99.519958
3329.000000	99.519529
3328.000000	99.517085
3327.000000	99.512613
3326.000000	99.507065
3325.000000	99.500810
3324.000000	99.493648
3323.000000	99.486077
3322.000000	99.479754
3321.000000	99.476468
3320.000000	99.476765
3319.000000	99.479291
3318.000000	99.481152
3317.000000	99.479420
3316.000000	99.473335
3315.000000	99.465357
3314.000000	99.459388
3313.000000	99.457352
3312.000000	99.457668
3311.000000	99.457132
3310.000000	99.453921
3309.000000	99.448589
3308.000000	99.442723
3307.000000	99.437469
3306.000000	99.433276
3305.000000	99.430305
3304.000000	99.428493
3303.000000	99.427241
3302.000000	99.425302
3301.000000	99.421228
3300.000000	99.414330
3299.000000	99.405685
3298.000000	99.398326
3297.000000	99.395870
3296.000000	99.400076
3295.000000	99.409243
3294.000000	99.419061
3293.000000	99.425496
3292.000000	99.427267
3291.000000	99.425816
3290.000000	99.423094
3289.000000	99.419560
3288.000000	99.414361
3287.000000	99.407096
3286.000000	99.398979
3285.000000	99.392223
3284.000000	99.388450
3283.000000	99.387737
3282.000000	99.388973
3281.000000	99.390901
3280.000000	99.392765
3279.000000	99.394324
3278.000000	99.395878
3277.000000	99.398319
3276.000000	99.402554
3275.000000	99.408217
3274.000000	99.413060
3273.000000	99.414293
3272.000000	99.410954
3271.000000	99.404849
3270.000000	99.398934
3269.000000	99.394900
3268.000000	99.392421
3267.000000	99.390426
3266.000000	99.388834
3265.000000	99.389074
3264.000000	99.392876
3263.000000	99.400499
3262.000000	99.409977
3261.000000	99.418121
3260.000000	99.422449
3259.000000	99.422584
3258.000000	99.420238
3257.000000	99.417953
3256.000000	99.417453
3255.000000	99.418550
3254.000000	99.419546
3253.000000	99.419042
3252.000000	99.417563
3251.000000	99.417258
3250.000000	99.419844
3249.000000	99.424796
3248.000000	99.429551
3247.000000	99.431446
3246.000000	99.429748
3245.000000	99.426235
3244.000000	99.423733
3243.000000	99.423765
3242.000000	99.425462
3241.000000	99.426782
3240.000000	99.426699
3239.000000	99.426012
3238.000000	99.426079
3237.000000	99.427265
3236.000000	99.428967
3235.000000	99.430939
3234.000000	99.433852
3233.000000	99.438118
3232.000000	99.442502
3231.000000	99.444614
3230.000000	99.443310
3229.000000	99.440371
3228.000000	99.439253
3227.000000	99.441884
3226.000000	99.446933
3225.000000	99.451307
3224.000000	99.452847
3223.000000	99.451440
3222.000000	99.448261
3221.000000	99.444954
3220.000000	99.443173
3219.000000	99.443607
3218.000000	99.445044
3217.000000	99.445369
3216.000000	99.444058
3215.000000	99.443080
3214.000000	99.444389
3213.000000	99.446920
3212.000000	99.447196
3211.000000	99.443103
3210.000000	99.436320
3209.000000	99.430704
3208.000000	99.428906
3207.000000	99.430755
3206.000000	99.434314
3205.000000	99.437735
3204.000000	99.440281
3203.000000	99.442312
3202.000000	99.444602
3201.000000	99.447572
3200.000000	99.450990
3199.000000	99.454239
3198.000000	99.456588
3197.000000	99.457174
3196.000000	99.455448
3195.000000	99.452287
3194.000000	99.450279
3193.000000	99.451799
3192.000000	99.456236
3191.000000	99.459755
3190.000000	99.458656
3189.000000	99.452981
3188.000000	99.446415
3187.000000	99.442797
3186.000000	99.443215
3185.000000	99.446206
3184.000000	99.449918
3183.000000	99.453637
3182.000000	99.457820
3181.000000	99.463199
3180.000000	99.469621
3179.000000	99.475438
3178.000000	99.478332
3177.000000	99.477456
3176.000000	99.474774
3175.000000	99.473817
3174.000000	99.476823
3173.000000	99.483154
3172.000000	99.490010
3171.000000	99.494318
3170.000000	99.494357
3169.000000	99.490744
3168.000000	99.486446
3167.000000	99.485052
3166.000000	99.488122
3165.000000	99.493997
3164.000000	99.499637
3163.000000	99.503564
3162.000000	99.506681
3161.000000	99.510265
3160.000000	99.513796
3159.000000	99.515116
3158.000000	99.512603
3157.000000	99.507065
3156.000000	99.501668
3155.000000	99.499917
3154.000000	99.503236
3153.000000	99.509915
3152.000000	99.516309
3151.000000	99.519359
3150.000000	99.518449
3149.000000	99.515257
3148.000000	99.512038
3147.000000	99.509973
3146.000000	99.508810
3145.000000	99.507824
3144.000000	99.506933
3143.000000	99.506825
3142.000000	99.508128
3141.000000	99.510746
3140.000000	99.514161
3139.000000	99.518112
3138.000000	99.522655
3137.000000	99.527508
3136.000000	99.531649
3135.000000	99.533826
3134.000000	99.533539
3133.000000	99.531530
3132.000000	99.529419
3131.000000	99.528842
3130.000000	99.530627
3129.000000	99.534324
3128.000000	99.538506
3127.000000	99.541862
3126.000000	99.544142
3125.000000	99.545801
3124.000000	99.546840
3123.000000	99.546493
3122.000000	99.544322
3121.000000	99.541176
3120.000000	99.538476
3119.000000	99.536771
3118.000000	99.535727
3117.000000	99.535509
3116.000000	99.537166
3115.000000	99.540950
3114.000000	99.544906
3113.000000	99.546098
3112.000000	99.543256
3111.000000	99.537616
3110.000000	99.531319
3109.000000	99.525818
3108.000000	99.521997
3107.000000	99.520632
3106.000000	99.521590
3105.000000	99.522976
3104.000000	99.522343
3103.000000	99.519170
3102.000000	99.515580
3101.000000	99.514231
3100.000000	99.515623
3099.000000	99.517618
3098.000000	99.517423
3097.000000	99.513997
3096.000000	99.508756
3095.000000	99.504232
3094.000000	99.502086
3093.000000	99.502300
3092.000000	99.503771
3091.000000	99.504983
3090.000000	99.504187
3089.000000	99.500039
3088.000000	99.493075
3087.000000	99.486271
3086.000000	99.483125
3085.000000	99.484726
3084.000000	99.488952
3083.000000	99.492549
3082.000000	99.493717
3081.000000	99.492884
3080.000000	99.491765
3079.000000	99.491979
3078.000000	99.494067
3077.000000	99.497156
3076.000000	99.499507
3075.000000	99.499584
3074.000000	99.496876
3073.000000	99.492053
3072.000000	99.486823
3071.000000	99.483441
3070.000000	99.483477
3069.000000	99.486359
3068.000000	99.489319
3067.000000	99.489337
3066.000000	99.485427
3065.000000	99.479190
3064.000000	99.473380
3063.000000	99.470063
3062.000000	99.469649
3061.000000	99.471086
3060.000000	99.472957
3059.000000	99.474804
3058.000000	99.477573
3057.000000	99.482584
3056.000000	99.489990
3055.000000	99.498515
3054.000000	99.506452
3053.000000	99.512341
3052.000000	99.514620
3051.000000	99.511830
3050.000000	99.504307
3049.000000	99.495604
3048.000000	99.490991
3047.000000	99.493616
3046.000000	99.502070
3045.000000	99.511636
3044.000000	99.517784
3043.000000	99.518899
3042.000000	99.516667
3041.000000	99.514391
3040.000000	99.514499
3039.000000	99.517061
3038.000000	99.520426
3037.000000	99.523013
3036.000000	99.524276
3035.000000	99.524275
3034.000000	99.523309
3033.000000	99.522208
3032.000000	99.522038
3031.000000	99.522904
3030.000000	99.523799
3029.000000	99.524415
3028.000000	99.526251
3027.000000	99.530804
3026.000000	99.536982
3025.000000	99.541599
3024.000000	99.542571
3023.000000	99.540724
3022.000000	99.538417
3021.000000	99.537542
3020.000000	99.539085
3019.000000	99.543175
3018.000000	99.548577
3017.000000	99.552957
3016.000000	99.554731
3015.000000	99.554409
3014.000000	99.553558
3013.000000	99.552927
3012.000000	99.552211
3011.000000	99.551130
3010.000000	99.549921
3009.000000	99.549029
3008.000000	99.549044
3007.000000	99.550643
3006.000000	99.553751
3005.000000	99.556793
3004.000000	99.557609
3003.000000	99.555444
3002.000000	99.551647
3001.000000	99.548455
3000.000000	99.547452
2999.000000	99.548961
2998.000000	99.552101
2997.000000	99.555160
2996.000000	99.556417
2995.000000	99.555103
2994.000000	99.551587
2993.000000	99.546677
2992.000000	99.541008
2991.000000	99.535063
2990.000000	99.529408
2989.000000	99.524685
2988.000000	99.521465
2987.000000	99.519979
2986.000000	99.519694
2985.000000	99.519084
2984.000000	99.516160
2983.000000	99.509657
2982.000000	99.499950
2981.000000	99.489021
2980.000000	99.479457
2979.000000	99.473063
2978.000000	99.469952
2977.000000	99.468952
2976.000000	99.468939
2975.000000	99.469442
2974.000000	99.469675
2973.000000	99.467593
2972.000000	99.461046
2971.000000	99.450174
2970.000000	99.437906
2969.000000	99.427620
2968.000000	99.420720
2967.000000	99.416739
2966.000000	99.414920
2965.000000	99.414505
2964.000000	99.413586
2963.000000	99.409142
2962.000000	99.399345
2961.000000	99.385707
2960.000000	99.372189
2959.000000	99.361887
2958.000000	99.354844
2957.000000	99.349038
2956.000000	99.343109
2955.000000	99.337796
2954.000000	99.335025
2953.000000	99.336048
2952.000000	99.340339
2951.000000	99.345737
2950.000000	99.349266
2949.000000	99.348305
2948.000000	99.341843
2947.000000	99.331230
2946.000000	99.319526
2945.000000	99.309445
2944.000000	99.301383
2943.000000	99.293403
2942.000000	99.283411
2941.000000	99.271420
2940.000000	99.259429
2939.000000	99.248987
2938.000000	99.239177
2937.000000	99.227340
2936.000000	99.211577
2935.000000	99.192168
2934.000000	99.170720
2933.000000	99.148509
2932.000000	99.125742
2931.000000	99.101951
2930.000000	99.076724
2929.000000	99.050249
2928.000000	99.023350
2927.000000	98.996926
2926.000000	98.971289
2925.000000	98.946368
2924.000000	98.922567
2923.000000	98.901047
2922.000000	98.882980
2921.000000	98.868981
2920.000000	98.859733
2919.000000	98.856664
2918.000000	98.861461
2917.000000	98.874911
2916.000000	98.896571
2915.000000	98.925465
2914.000000	98.960490
2913.000000	99.000049
2912.000000	99.041527
2911.000000	99.081495
2910.000000	99.116632
2909.000000	99.145152
2908.000000	99.168007
2907.000000	99.188480
2906.000000	99.209835
2905.000000	99.232782
2904.000000	99.255354
2903.000000	99.275046
2902.000000	99.290829
2901.000000	99.302937
2900.000000	99.311951
2899.000000	99.318719
2898.000000	99.324773
2897.000000	99.332035
2896.000000	99.341502
2895.000000	99.352139
2894.000000	99.361203
2893.000000	99.366152
2892.000000	99.366839
2891.000000	99.366019
2890.000000	99.367339
2889.000000	99.372517
2888.000000	99.380419
2887.000000	99.388687
2886.000000	99.395843
2885.000000	99.401717
2884.000000	99.406600
2883.000000	99.410645
2882.000000	99.413907
2881.000000	99.416355
2880.000000	99.417771
2879.000000	99.418069
2878.000000	99.417821
2877.000000	99.418039
2876.000000	99.419084
2875.000000	99.419885
2874.000000	99.418436
2873.000000	99.413346
2872.000000	99.405353
2871.000000	99.397558
2870.000000	99.393664
2869.000000	99.394930
2868.000000	99.398594
2867.000000	99.399850
2866.000000	99.396031
2865.000000	99.388699
2864.000000	99.381217
2863.000000	99.374757
2862.000000	99.367346
2861.000000	99.356633
2860.000000	99.342420
2859.000000	99.325904
2858.000000	99.307305
2857.000000	99.285322
2856.000000	99.258902
2855.000000	99.228735
2854.000000	99.197009
2853.000000	99.166475
2852.000000	99.140472
2851.000000	99.123442
2850.000000	99.120081
2849.000000	99.132837
2848.000000	99.159752
2847.000000	99.195157
2846.000000	99.233154
2845.000000	99.270712
2844.000000	99.307307
2843.000000	99.342191
2842.000000	99.373114
2841.000000	99.398146
2840.000000	99.417953
2839.000000	99.435048
2838.000000	99.451068
2837.000000	99.465764
2836.000000	99.478483
2835.000000	99.489277
2834.000000	99.498140
2833.000000	99.504509
2832.000000	99.508608
2831.000000	99.512428
2830.000000	99.517944
2829.000000	99.524536
2828.000000	99.529346
2827.000000	99.530305
2826.000000	99.528011
2825.000000	99.524598
2824.000000	99.521916
2823.000000	99.521214
2822.000000	99.523387
2821.000000	99.528374
2820.000000	99.534588
2819.000000	99.539924
2818.000000	99.543530
2817.000000	99.546176
2816.000000	99.548895
2815.000000	99.551695
2814.000000	99.553630
2813.000000	99.553723
2812.000000	99.551725
2811.000000	99.548403
2810.000000	99.545295
2809.000000	99.543844
2808.000000	99.544345
2807.000000	99.545789
2806.000000	99.547003
2805.000000	99.547964
2804.000000	99.549828
2803.000000	99.553591
2802.000000	99.558841
2801.000000	99.563813
2800.000000	99.566576
2799.000000	99.566202
2798.000000	99.563194
2797.000000	99.559150
2796.000000	99.555916
2795.000000	99.554522
2794.000000	99.554585
2793.000000	99.554901
2792.000000	99.554871
2791.000000	99.555265
2790.000000	99.557373
2789.000000	99.561482
2788.000000	99.566438
2787.000000	99.570603
2786.000000	99.572904
2785.000000	99.573010
2784.000000	99.571151
2783.000000	99.568198
2782.000000	99.565546
2781.000000	99.564243
2780.000000	99.564095
2779.000000	99.564052
2778.000000	99.563542
2777.000000	99.563034
2776.000000	99.563218
2775.000000	99.564195
2774.000000	99.565879
2773.000000	99.568737
2772.000000	99.573320
2771.000000	99.578989
2770.000000	99.583775
2769.000000	99.585937
2768.000000	99.585416
2767.000000	99.583555
2766.000000	99.581754
2765.000000	99.580741
2764.000000	99.580862
2763.000000	99.582320
2762.000000	99.584803
2761.000000	99.587248
2760.000000	99.588484
2759.000000	99.588332
2758.000000	99.587964
2757.000000	99.588929
2756.000000	99.591669
2755.000000	99.595044
2754.000000	99.597461
2753.000000	99.598318
2752.000000	99.598122
2751.000000	99.597420
2750.000000	99.596175
2749.000000	99.594313
2748.000000	99.592219
2747.000000	99.590259
2746.000000	99.588248
2745.000000	99.585970
2744.000000	99.583939
2743.000000	99.583053
2742.000000	99.583658
2741.000000	99.585429
2740.000000	99.587906
2739.000000	99.590479
2738.000000	99.592097
2737.000000	99.592127
2736.000000	99.591712
2735.000000	99.593216
2734.000000	99.597545
2733.000000	99.602548
2732.000000	99.604935
2731.000000	99.603623
2730.000000	99.600650
2729.000000	99.598908
2728.000000	99.599483
2727.000000	99.601238
2726.000000	99.602427
2725.000000	99.602436
2724.000000	99.602212
2723.000000	99.603277
2722.000000	99.606341
2721.000000	99.610611
2720.000000	99.614146
2719.000000	99.614886
2718.000000	99.611916
2717.000000	99.606454
2716.000000	99.601523
2715.000000	99.599879
2714.000000	99.601923
2713.000000	99.605989
2712.000000	99.610626
2711.000000	99.615727
2710.000000	99.621058
2709.000000	99.624823
2708.000000	99.624989
2707.000000	99.621826
2706.000000	99.618009
2705.000000	99.615935
2704.000000	99.615655
2703.000000	99.615718
2702.000000	99.615419
2701.000000	99.615694
2700.000000	99.617914
2699.000000	99.622021
2698.000000	99.625917
2697.000000	99.626944
2696.000000	99.624431
2695.000000	99.620708
2694.000000	99.619160
2693.000000	99.621199
2692.000000	99.625379
2691.000000	99.629209
2690.000000	99.631168
2689.000000	99.630960
2688.000000	99.628907
2687.000000	99.625923
2686.000000	99.623558
2685.000000	99.623028
2684.000000	99.623917
2683.000000	99.624301
2682.000000	99.622521
2681.000000	99.618785
2680.000000	99.615039
2679.000000	99.613295
2678.000000	99.613931
2677.000000	99.615364
2676.000000	99.615397
2675.000000	99.613156
2674.000000	99.609909
2673.000000	99.608029
2672.000000	99.609080
2671.000000	99.612684
2670.000000	99.616813
2669.000000	99.619010
2668.000000	99.617734
2667.000000	99.613215
2666.000000	99.607200
2665.000000	99.601620
2664.000000	99.597279
2663.000000	99.593907
2662.000000	99.591335
2661.000000	99.590090
2660.000000	99.590527
2659.000000	99.591852
2658.000000	99.592791
2657.000000	99.593271
2656.000000	99.594800
2655.000000	99.598673
2654.000000	99.604194
2653.000000	99.609270
2652.000000	99.612573
2651.000000	99.614487
2650.000000	99.615972
2649.000000	99.617376
2648.000000	99.618785
2647.000000	99.620658
2646.000000	99.623033
2645.000000	99.624401
2644.000000	99.622752
2643.000000	99.618269
2642.000000	99.614078
2641.000000	99.613452
2640.000000	99.616617
2639.000000	99.621082
2638.000000	99.624782
2637.000000	99.627738
2636.000000	99.630511
2635.000000	99.632356
2634.000000	99.632066
2633.000000	99.630235
2632.000000	99.629552
2631.000000	99.632479
2630.000000	99.639107
2629.000000	99.647429
2628.000000	99.655064
2627.000000	99.660312
2626.000000	99.662031
2625.000000	99.659566
2624.000000	99.653564
2623.000000	99.646811
2622.000000	99.643523
2621.000000	99.646715
2620.000000	99.655586
2619.000000	99.665549
2618.000000	99.671294
2617.000000	99.670275
2616.000000	99.663894
2615.000000	99.656304
2614.000000	99.652266
2613.000000	99.654589
2612.000000	99.661635
2611.000000	99.667322
2610.000000	99.665657
2609.000000	99.656635
2608.000000	99.647027
2607.000000	99.644296
2606.000000	99.650088
2605.000000	99.660236
2604.000000	99.669922
2603.000000	99.677264
2602.000000	99.682230
2601.000000	99.684333
2600.000000	99.683121
2599.000000	99.680380
2598.000000	99.680148
2597.000000	99.685335
2596.000000	99.694315
2595.000000	99.701853
2594.000000	99.704072
2593.000000	99.702031
2592.000000	99.699519
2591.000000	99.698063
2590.000000	99.695922
2589.000000	99.692022
2588.000000	99.688652
2587.000000	99.688844
2586.000000	99.692633
2585.000000	99.697470
2584.000000	99.701245
2583.000000	99.703433
2582.000000	99.704327
2581.000000	99.705040
2580.000000	99.707372
2579.000000	99.711615
2578.000000	99.715021
2577.000000	99.714641
2576.000000	99.711407
2575.000000	99.709218
2574.000000	99.710027
2573.000000	99.712035
2572.000000	99.712776
2571.000000	99.711690
2570.000000	99.709526
2569.000000	99.707764
2568.000000	99.709273
2567.000000	99.716798
2566.000000	99.729504
2565.000000	99.743025
2564.000000	99.753912
2563.000000	99.761766
2562.000000	99.766047
2561.000000	99.764093
2560.000000	99.754718
2559.000000	99.741357
2558.000000	99.728723
2557.000000	99.718027
2556.000000	99.708447
2555.000000	99.701857
2554.000000	99.702237
2553.000000	99.710232
2552.000000	99.721324
2551.000000	99.730046
2550.000000	99.734067
2549.000000	99.733798
2548.000000	99.730314
2547.000000	99.724852
2546.000000	99.719024
2545.000000	99.714652
2544.000000	99.713749
2543.000000	99.718202
2542.000000	99.727933
2541.000000	99.739311
2540.000000	99.746999
2539.000000	99.748036
2538.000000	99.743338
2537.000000	99.735507
2536.000000	99.726735
2535.000000	99.718900
2534.000000	99.713707
2533.000000	99.711676
2532.000000	99.712077
2531.000000	99.714487
2530.000000	99.719180
2529.000000	99.725247
2528.000000	99.729683
2527.000000	99.729745
2526.000000	99.725750
2525.000000	99.720613
2524.000000	99.717230
2523.000000	99.717087
2522.000000	99.720548
2521.000000	99.726678
2520.000000	99.732466
2519.000000	99.733670
2518.000000	99.727955
2517.000000	99.717625
2516.000000	99.708810
2515.000000	99.707287
2514.000000	99.714295
2513.000000	99.725771
2512.000000	99.735426
2511.000000	99.738875
2510.000000	99.735430
2509.000000	99.726890
2508.000000	99.715610
2507.000000	99.704162
2506.000000	99.696196
2505.000000	99.695880
2504.000000	99.704789
2503.000000	99.719052
2502.000000	99.731010
2501.000000	99.735190
2500.000000	99.732515
2499.000000	99.727867
2498.000000	99.723911
2497.000000	99.719024
2496.000000	99.711559
2495.000000	99.703994
2494.000000	99.701047
2493.000000	99.704126
2492.000000	99.709330
2491.000000	99.711487
2490.000000	99.709452
2489.000000	99.707139
2488.000000	99.709203
2487.000000	99.715592
2486.000000	99.720788
2485.000000	99.719209
2484.000000	99.711713
2483.000000	99.705549
2482.000000	99.707179
2481.000000	99.716374
2480.000000	99.727916
2479.000000	99.737759
2478.000000	99.745698
2477.000000	99.752934
2476.000000	99.759635
2475.000000	99.765112
2474.000000	99.768500
2473.000000	99.768610
2472.000000	99.764788
2471.000000	99.758712
2470.000000	99.753897
2469.000000	99.752226
2468.000000	99.751929
2467.000000	99.750105
2466.000000	99.746249
2465.000000	99.741961
2464.000000	99.738104
2463.000000	99.734572
2462.000000	99.732813
2461.000000	99.735882
2460.000000	99.744118
2459.000000	99.752263
2458.000000	99.753546
2457.000000	99.746866
2456.000000	99.738259
2455.000000	99.734586
2454.000000	99.737009
2453.000000	99.741370
2452.000000	99.743296
2451.000000	99.741428
2450.000000	99.737021
2449.000000	99.732783
2448.000000	99.731777
2447.000000	99.735033
2446.000000	99.739679
2445.000000	99.741415
2444.000000	99.739583
2443.000000	99.738044
2442.000000	99.740174
2441.000000	99.745090
2440.000000	99.750245
2439.000000	99.755460
2438.000000	99.761786
2437.000000	99.767764
2436.000000	99.770124
2435.000000	99.768301
2434.000000	99.765378
2433.000000	99.763719
2432.000000	99.762067
2431.000000	99.758399
2430.000000	99.753867
2429.000000	99.751922
2428.000000	99.754125
2427.000000	99.758328
2426.000000	99.760993
2425.000000	99.760376
2424.000000	99.757468
2423.000000	99.754529
2422.000000	99.752757
2421.000000	99.751311
2420.000000	99.748827
2419.000000	99.745648
2418.000000	99.743470
2417.000000	99.742448
2416.000000	99.740291
2415.000000	99.735722
2414.000000	99.731648
2413.000000	99.732431
2412.000000	99.737775
2411.000000	99.741770
2410.000000	99.739509
2409.000000	99.733283
2408.000000	99.730630
2407.000000	99.736642
2406.000000	99.749283
2405.000000	99.761585
2404.000000	99.767231
2403.000000	99.764950
2402.000000	99.759390
2401.000000	99.757504
2400.000000	99.762052
2399.000000	99.768147
2398.000000	99.768173
2397.000000	99.760780
2396.000000	99.753168
2395.000000	99.753351
2394.000000	99.761688
2393.000000	99.771504
2392.000000	99.776364
2391.000000	99.774903
2390.000000	99.769663
2389.000000	99.764033
2388.000000	99.760676
2387.000000	99.760352
2386.000000	99.761811
2385.000000	99.763363
2384.000000	99.764768
2383.000000	99.766851
2382.000000	99.768964
2381.000000	99.769328
2380.000000	99.767672
2379.000000	99.765873
2378.000000	99.765437
2377.000000	99.765528
2376.000000	99.764676
2375.000000	99.763439
2374.000000	99.764782
2373.000000	99.771297
2372.000000	99.782246
2371.000000	99.792940
2370.000000	99.797997
2369.000000	99.795727
2368.000000	99.787635
2367.000000	99.776069
2366.000000	99.764585
2365.000000	99.758610
2364.000000	99.760335
2363.000000	99.761501
2362.000000	99.751108
2361.000000	99.732450
2360.000000	99.720231
2359.000000	99.725665
2358.000000	99.744588
2357.000000	99.762437
2356.000000	99.768364
2355.000000	99.759665
2354.000000	99.747667
2353.000000	99.747746
2352.000000	99.761481
2351.000000	99.774588
2350.000000	99.773289
2349.000000	99.758665
2348.000000	99.740769
2347.000000	99.732008
2346.000000	99.735882
2345.000000	99.741238
2344.000000	99.736670
2343.000000	99.723527
2342.000000	99.715670
2341.000000	99.719248
2340.000000	99.723885
2339.000000	99.717730
2338.000000	99.703624
2337.000000	99.693748
2336.000000	99.694653
2335.000000	99.703865
2334.000000	99.718383
2333.000000	99.736326
2332.000000	99.752000
2331.000000	99.758929
2330.000000	99.754241
2329.000000	99.742005
2328.000000	99.723430
2327.000000	99.699289
2326.000000	99.674801
2325.000000	99.658433
2324.000000	99.656775
2323.000000	99.666380
2322.000000	99.678283
2321.000000	99.682471
2320.000000	99.675321
2319.000000	99.661070
2318.000000	99.646631
2317.000000	99.636903
2316.000000	99.632716
2315.000000	99.635532
2314.000000	99.646732
2313.000000	99.664336
2312.000000	99.680545
2311.000000	99.687816
2310.000000	99.685292
2309.000000	99.679258
2308.000000	99.677042
2307.000000	99.680979
2306.000000	99.687879
2305.000000	99.692268
2304.000000	99.692221
2303.000000	99.690401
2302.000000	99.690959
2301.000000	99.695316
2300.000000	99.702045
2299.000000	99.709612
2298.000000	99.715548
2297.000000	99.715901
2296.000000	99.707462
2295.000000	99.693608
2294.000000	99.683361
2293.000000	99.683567
2292.000000	99.692902
2291.000000	99.704637
2290.000000	99.713595
2289.000000	99.718010
2288.000000	99.717551
2287.000000	99.711716
2286.000000	99.700903
2285.000000	99.686464
2284.000000	99.670593
2283.000000	99.656390
2282.000000	99.648152
2281.000000	99.649437
2280.000000	99.660760
2279.000000	99.678838
2278.000000	99.697410
2277.000000	99.709224
2276.000000	99.710129
2275.000000	99.704102
2274.000000	99.701873
2273.000000	99.711539
2272.000000	99.729768
2271.000000	99.744840
2270.000000	99.748428
2269.000000	99.742417
2268.000000	99.734326
2267.000000	99.728718
2266.000000	99.724687
2265.000000	99.720112
2264.000000	99.715740
2263.000000	99.714868
2262.000000	99.719715
2261.000000	99.728437
2260.000000	99.736050
2259.000000	99.738321
2258.000000	99.735338
2257.000000	99.730937
2256.000000	99.729347
2255.000000	99.732344
2254.000000	99.738852
2253.000000	99.746319
2252.000000	99.752188
2251.000000	99.755385
2250.000000	99.756924
2249.000000	99.758987
2248.000000	99.762790
2247.000000	99.767124
2246.000000	99.768939
2245.000000	99.765701
2244.000000	99.757826
2243.000000	99.749297
2242.000000	99.745578
2241.000000	99.749696
2240.000000	99.759427
2239.000000	99.768642
2238.000000	99.772281
2237.000000	99.769928
2236.000000	99.764291
2235.000000	99.757246
2234.000000	99.749712
2233.000000	99.745524
2232.000000	99.751462
2231.000000	99.769657
2230.000000	99.791153
2229.000000	99.801450
2228.000000	99.794341
2227.000000	99.778097
2226.000000	99.766753
2225.000000	99.767496
2224.000000	99.777572
2223.000000	99.790616
2222.000000	99.802598
2221.000000	99.811603
2220.000000	99.814048
2219.000000	99.803353
2218.000000	99.774968
2217.000000	99.735131
2216.000000	99.702529
2215.000000	99.695202
2214.000000	99.713994
2213.000000	99.742632
2212.000000	99.765774
2211.000000	99.782148
2210.000000	99.795875
2209.000000	99.801392
2208.000000	99.786925
2207.000000	99.752614
2206.000000	99.717226
2205.000000	99.703097
2204.000000	99.716912
2203.000000	99.745876
2202.000000	99.768967
2201.000000	99.771290
2200.000000	99.753169
2199.000000	99.728987
2198.000000	99.714750
2197.000000	99.714057
2196.000000	99.717302
2195.000000	99.715626
2194.000000	99.711991
2193.000000	99.715378
2192.000000	99.726560
2191.000000	99.734541
2190.000000	99.727746
2189.000000	99.706097
2188.000000	99.681692
2187.000000	99.668522
2186.000000	99.671125
2185.000000	99.681143
2184.000000	99.684569
2183.000000	99.675799
2182.000000	99.666491
2181.000000	99.677865
2180.000000	99.720092
2179.000000	99.778649
2178.000000	99.822996
2177.000000	99.830241
2176.000000	99.802845
2175.000000	99.764228
2174.000000	99.737224
2173.000000	99.727301
2172.000000	99.724405
2171.000000	99.716963
2170.000000	99.702853
2169.000000	99.689658
2168.000000	99.685703
2167.000000	99.690307
2166.000000	99.693745
2165.000000	99.688141
2164.000000	99.677359
2163.000000	99.672490
2162.000000	99.679345
2161.000000	99.697284
2160.000000	99.729396
2159.000000	99.782248
2158.000000	99.847855
2157.000000	99.899985
2156.000000	99.921695
2155.000000	99.923378
2154.000000	99.924559
2153.000000	99.929889
2152.000000	99.931104
2151.000000	99.925090
2150.000000	99.918833
2149.000000	99.915892
2148.000000	99.907971
2147.000000	99.886149
2146.000000	99.856402
2145.000000	99.837857
2144.000000	99.844912
2143.000000	99.874302
2142.000000	99.910109
2141.000000	99.938386
2140.000000	99.956441
2139.000000	99.969500
2138.000000	99.980352
2137.000000	99.984665
2136.000000	99.976985
2135.000000	99.959326
2134.000000	99.940822
2133.000000	99.928028
2132.000000	99.917142
2131.000000	99.897734
2130.000000	99.865011
2129.000000	99.828093
2128.000000	99.804747
2127.000000	99.806130
2126.000000	99.826250
2125.000000	99.846859
2124.000000	99.853025
2123.000000	99.843643
2122.000000	99.827648
2121.000000	99.812892
2120.000000	99.800487
2119.000000	99.788304
2118.000000	99.776554
2117.000000	99.768612
2116.000000	99.767487
2115.000000	99.772932
2114.000000	99.781792
2113.000000	99.790223
2112.000000	99.795831
2111.000000	99.798712
2110.000000	99.800758
2109.000000	99.803504
2108.000000	99.806327
2107.000000	99.807234
2106.000000	99.805705
2105.000000	99.803482
2104.000000	99.801275
2103.000000	99.796174
2102.000000	99.785423
2101.000000	99.773033
2100.000000	99.768837
2099.000000	99.778482
2098.000000	99.796946
2097.000000	99.814366
2096.000000	99.826002
2095.000000	99.832808
2094.000000	99.834504
2093.000000	99.828740
2092.000000	99.817671
2091.000000	99.808685
2090.000000	99.805103
2089.000000	99.800059
2088.000000	99.784191
2087.000000	99.758300
2086.000000	99.734189
2085.000000	99.722935
2084.000000	99.725027
2083.000000	99.732741
2082.000000	99.739846
2081.000000	99.745853
2080.000000	99.751815
2079.000000	99.755902
2078.000000	99.755867
2077.000000	99.754199
2076.000000	99.756190
2075.000000	99.761657
2074.000000	99.762447
2073.000000	99.752035
2072.000000	99.735200
2071.000000	99.723764
2070.000000	99.724717
2069.000000	99.736499
2068.000000	99.754812
2067.000000	99.775953
2066.000000	99.794072
2065.000000	99.802077
2064.000000	99.799308
2063.000000	99.793786
2062.000000	99.793398
2061.000000	99.798005
2060.000000	99.800730
2059.000000	99.793396
2058.000000	99.771536
2057.000000	99.740731
2056.000000	99.718830
2055.000000	99.722809
2054.000000	99.748033
2053.000000	99.767605
2052.000000	99.759441
2051.000000	99.728750
2050.000000	99.698662
2049.000000	99.684244
2048.000000	99.682657
2047.000000	99.687335
2046.000000	99.701154
2045.000000	99.730364
2044.000000	99.773758
2043.000000	99.822551
2042.000000	99.864308
2041.000000	99.885053
2040.000000	99.876513
2039.000000	99.844864
2038.000000	99.807041
2037.000000	99.777890
2036.000000	99.764150
2035.000000	99.769426
2034.000000	99.796764
2033.000000	99.840252
2032.000000	99.879655
2031.000000	99.892749
2030.000000	99.874026
2029.000000	99.840826
2028.000000	99.821829
2027.000000	99.835878
2026.000000	99.877755
2025.000000	99.922613
2024.000000	99.946641
2023.000000	99.945500
2022.000000	99.932043
2021.000000	99.919264
2020.000000	99.908817
2019.000000	99.895126
2018.000000	99.877938
2017.000000	99.868284
2016.000000	99.878553
2015.000000	99.906534
2014.000000	99.933596
2013.000000	99.940794
2012.000000	99.927284
2011.000000	99.910241
2010.000000	99.905175
2009.000000	99.910027
2008.000000	99.909740
2007.000000	99.894311
2006.000000	99.869782
2005.000000	99.852968
2004.000000	99.856909
2003.000000	99.879239
2002.000000	99.903369
2001.000000	99.910209
2000.000000	99.892193
1999.000000	99.858333
1998.000000	99.827721
1997.000000	99.819369
1996.000000	99.840263
1995.000000	99.876327
1994.000000	99.897748
1993.000000	99.883511
1992.000000	99.847721
1991.000000	99.829184
1990.000000	99.846914
1989.000000	99.880152
1988.000000	99.894821
1987.000000	99.876228
1986.000000	99.831761
1985.000000	99.775103
1984.000000	99.721586
1983.000000	99.691474
1982.000000	99.700392
1981.000000	99.741445
1980.000000	99.787695
1979.000000	99.819238
1978.000000	99.841608
1977.000000	99.871587
1976.000000	99.910308
1975.000000	99.940845
1974.000000	99.949011
1973.000000	99.937658
1972.000000	99.922721
1971.000000	99.919811
1970.000000	99.933516
1969.000000	99.955329
1968.000000	99.969985
1967.000000	99.968326
1966.000000	99.957424
1965.000000	99.955122
1964.000000	99.971333
1963.000000	99.996019
1962.000000	100.007016
1961.000000	99.990338
1960.000000	99.951384
1959.000000	99.904400
1958.000000	99.858494
1957.000000	99.820300
1956.000000	99.802034
1955.000000	99.815546
1954.000000	99.856513
1953.000000	99.900230
1952.000000	99.917178
1951.000000	99.894763
1950.000000	99.847048
1949.000000	99.805554
1948.000000	99.797462
1947.000000	99.825955
1946.000000	99.869680
1945.000000	99.902931
1944.000000	99.915181
1943.000000	99.910673
1942.000000	99.894989
1941.000000	99.870539
1940.000000	99.844474
1939.000000	99.829858
1938.000000	99.834922
1937.000000	99.854770
1936.000000	99.875764
1935.000000	99.887265
1934.000000	99.887515
1933.000000	99.882615
1932.000000	99.882006
1931.000000	99.891508
1930.000000	99.908123
1929.000000	99.921830
1928.000000	99.926406
1927.000000	99.924957
1926.000000	99.923439
1925.000000	99.921630
1924.000000	99.913261
1923.000000	99.896144
1922.000000	99.876727
1921.000000	99.862945
1920.000000	99.857194
1919.000000	99.856909
1918.000000	99.858027
1917.000000	99.856657
1916.000000	99.850659
1915.000000	99.841938
1914.000000	99.835032
1913.000000	99.833849
1912.000000	99.838210
1911.000000	99.842611
1910.000000	99.839951
1909.000000	99.828386
1908.000000	99.815632
1907.000000	99.811445
1906.000000	99.817304
1905.000000	99.825941
1904.000000	99.830225
1903.000000	99.831468
1902.000000	99.835030
1901.000000	99.841403
1900.000000	99.847813
1899.000000	99.854972
1898.000000	99.866074
1897.000000	99.879411
1896.000000	99.887149
1895.000000	99.885213
1894.000000	99.879358
1893.000000	99.877701
1892.000000	99.881381
1891.000000	99.884970
1890.000000	99.883135
1889.000000	99.876063
1888.000000	99.868965
1887.000000	99.867896
1886.000000	99.875825
1885.000000	99.889734
1884.000000	99.901368
1883.000000	99.904006
1882.000000	99.898161
1881.000000	99.889435
1880.000000	99.883484
1879.000000	99.883131
1878.000000	99.888672
1877.000000	99.898704
1876.000000	99.908505
1875.000000	99.910648
1874.000000	99.900832
1873.000000	99.882789
1872.000000	99.866161
1871.000000	99.859244
1870.000000	99.864077
1869.000000	99.876672
1868.000000	99.889746
1867.000000	99.898177
1866.000000	99.903231
1865.000000	99.909759
1864.000000	99.920690
1863.000000	99.933318
1862.000000	99.939482
1861.000000	99.932152
1860.000000	99.913740
1859.000000	99.895557
1858.000000	99.887637
1857.000000	99.891042
1856.000000	99.900475
1855.000000	99.911132
1854.000000	99.920805
1853.000000	99.926649
1852.000000	99.926970
1851.000000	99.924329
1850.000000	99.922618
1849.000000	99.923717
1848.000000	99.926556
1847.000000	99.929870
1846.000000	99.933167
1845.000000	99.935966
1844.000000	99.937983
1843.000000	99.938720
1842.000000	99.937709
1841.000000	99.935594
1840.000000	99.933246
1839.000000	99.930201
1838.000000	99.926575
1837.000000	99.924378
1836.000000	99.925222
1835.000000	99.928228
1834.000000	99.930901
1833.000000	99.932632
1832.000000	99.935721
1831.000000	99.939457
1830.000000	99.938681
1829.000000	99.933336
1828.000000	99.930604
1827.000000	99.935527
1826.000000	99.944401
1825.000000	99.949809
1824.000000	99.950401
1823.000000	99.950644
1822.000000	99.952676
1821.000000	99.953790
1820.000000	99.951445
1819.000000	99.946456
1818.000000	99.942425
1817.000000	99.942967
1816.000000	99.948582
1815.000000	99.957013
1814.000000	99.964268
1813.000000	99.966956
1812.000000	99.963885
1811.000000	99.955714
1810.000000	99.945461
1809.000000	99.936905
1808.000000	99.932987
1807.000000	99.935012
1806.000000	99.940950
1805.000000	99.945790
1804.000000	99.945379
1803.000000	99.940362
1802.000000	99.933190
1801.000000	99.925192
1800.000000	99.917322
1799.000000	99.911098
1798.000000	99.908667
1797.000000	99.910031
1796.000000	99.913453
1795.000000	99.917956
1794.000000	99.921820
1793.000000	99.922237
1792.000000	99.920589
1791.000000	99.922702
1790.000000	99.930415
1789.000000	99.938535
1788.000000	99.941510
1787.000000	99.939176
1786.000000	99.937184
1785.000000	99.940879
1784.000000	99.949049
1783.000000	99.957139
1782.000000	99.960464
1781.000000	99.957148
1780.000000	99.951412
1779.000000	99.949027
1778.000000	99.951684
1777.000000	99.955980
1776.000000	99.959760
1775.000000	99.964587
1774.000000	99.969553
1773.000000	99.968884
1772.000000	99.962512
1771.000000	99.958268
1770.000000	99.960558
1769.000000	99.967158
1768.000000	99.972371
1767.000000	99.973178
1766.000000	99.971842
1765.000000	99.971555
1764.000000	99.971460
1763.000000	99.966089
1762.000000	99.951372
1761.000000	99.932358
1760.000000	99.917213
1759.000000	99.907178
1758.000000	99.896144
1757.000000	99.875422
1756.000000	99.845829
1755.000000	99.814924
1754.000000	99.784723
1753.000000	99.749508
1752.000000	99.704122
1751.000000	99.652871
1750.000000	99.605630
1749.000000	99.564516
1748.000000	99.525600
1747.000000	99.488264
1746.000000	99.451412
1745.000000	99.413294
1744.000000	99.374816
1743.000000	99.338416
1742.000000	99.304701
1741.000000	99.271583
1740.000000	99.236476
1739.000000	99.199670
1738.000000	99.161885
1737.000000	99.125829
1736.000000	99.096956
1735.000000	99.083379
1734.000000	99.091059
1733.000000	99.104169
1732.000000	99.105878
1731.000000	99.105104
1730.000000	99.112519
1729.000000	99.125739
1728.000000	99.141040
1727.000000	99.159238
1726.000000	99.181695
1725.000000	99.207206
1724.000000	99.234693
1723.000000	99.263243
1722.000000	99.292161
1721.000000	99.321458
1720.000000	99.355627
1719.000000	99.399257
1718.000000	99.450037
1717.000000	99.495107
1716.000000	99.522681
1715.000000	99.540431
1714.000000	99.559924
1713.000000	99.579076
1712.000000	99.593504
1711.000000	99.606935
1710.000000	99.624902
1709.000000	99.644529
1708.000000	99.659345
1707.000000	99.666569
1706.000000	99.667165
1705.000000	99.663884
1704.000000	99.658663
1703.000000	99.655006
1702.000000	99.652584
1701.000000	99.640386
1700.000000	99.615661
1699.000000	99.595276
1698.000000	99.588065
1697.000000	99.581435
1696.000000	99.559373
1695.000000	99.527148
1694.000000	99.501789
1693.000000	99.487292
1692.000000	99.478341
1691.000000	99.467120
1690.000000	99.449415
1689.000000	99.426639
1688.000000	99.406627
1687.000000	99.394717
1686.000000	99.384747
1685.000000	99.356005
1684.000000	99.307464
1683.000000	99.272517
1682.000000	99.256830
1681.000000	99.241210
1680.000000	99.217790
1679.000000	99.188975
1678.000000	99.160136
1677.000000	99.125631
1676.000000	99.076358
1675.000000	99.019387
1674.000000	98.973541
1673.000000	98.941222
1672.000000	98.911003
1671.000000	98.871607
1670.000000	98.819286
1669.000000	98.761966
1668.000000	98.712154
1667.000000	98.674874
1666.000000	98.645789
1665.000000	98.616107
1664.000000	98.575616
1663.000000	98.522406
1662.000000	98.468318
1661.000000	98.422904
1660.000000	98.386450
1659.000000	98.355961
1658.000000	98.329805
1657.000000	98.308733
1656.000000	98.298403
1655.000000	98.299758
1654.000000	98.289097
1653.000000	98.248229
1652.000000	98.205101
1651.000000	98.180944
1650.000000	98.172047
1649.000000	98.171885
1648.000000	98.164887
1647.000000	98.150164
1646.000000	98.140874
1645.000000	98.139384
1644.000000	98.137014
1643.000000	98.135339
1642.000000	98.137032
1641.000000	98.140898
1640.000000	98.145704
1639.000000	98.152905
1638.000000	98.163788
1637.000000	98.170380
1636.000000	98.161849
1635.000000	98.145769
1634.000000	98.136985
1633.000000	98.139203
1632.000000	98.149129
1631.000000	98.162579
1630.000000	98.176074
1629.000000	98.187620
1628.000000	98.200207
1627.000000	98.220745
1626.000000	98.250564
1625.000000	98.284386
1624.000000	98.317669
1623.000000	98.352034
1622.000000	98.390471
1621.000000	98.431185
1620.000000	98.474943
1619.000000	98.524412
1618.000000	98.576738
1617.000000	98.624384
1616.000000	98.665358
1615.000000	98.704430
1614.000000	98.744593
1613.000000	98.786002
1612.000000	98.828025
1611.000000	98.872385
1610.000000	98.919211
1609.000000	98.963621
1608.000000	99.001068
1607.000000	99.032924
1606.000000	99.062643
1605.000000	99.090906
1604.000000	99.117696
1603.000000	99.142672
1602.000000	99.165410
1601.000000	99.185967
1600.000000	99.204539
1599.000000	99.220357
1598.000000	99.232158
1597.000000	99.241050
1596.000000	99.249836
1595.000000	99.259008
1594.000000	99.265931
1593.000000	99.268616
1592.000000	99.268242
1591.000000	99.266516
1590.000000	99.262904
1589.000000	99.256086
1588.000000	99.245859
1587.000000	99.231171
1586.000000	99.209529
1585.000000	99.179677
1584.000000	99.145856
1583.000000	99.114332
1582.000000	99.085493
1581.000000	99.056527
1580.000000	99.028909
1579.000000	99.007014
1578.000000	98.988357
1577.000000	98.961523
1576.000000	98.923052
1575.000000	98.887691
1574.000000	98.865492
1573.000000	98.854629
1572.000000	98.850329
1571.000000	98.842913
1570.000000	98.823402
1569.000000	98.795595
1568.000000	98.773691
1567.000000	98.760607
1566.000000	98.745832
1565.000000	98.719948
1564.000000	98.686674
1563.000000	98.662326
1562.000000	98.653853
1561.000000	98.656202
1560.000000	98.635186
1559.000000	98.551912
1558.000000	98.468419
1557.000000	98.433959
1556.000000	98.418278
1555.000000	98.405883
1554.000000	98.386230
1553.000000	98.361689
1552.000000	98.333766
1551.000000	98.300921
1550.000000	98.263842
1549.000000	98.231169
1548.000000	98.207551
1547.000000	98.186356
1546.000000	98.155436
1545.000000	98.109099
1544.000000	98.058378
1543.000000	98.019870
1542.000000	97.996924
1541.000000	97.979208
1540.000000	97.967003
1539.000000	97.973469
1538.000000	97.990792
1537.000000	98.008796
1536.000000	98.031990
1535.000000	98.065026
1534.000000	98.110024
1533.000000	98.160815
1532.000000	98.206023
1531.000000	98.240240
1530.000000	98.267374
1529.000000	98.289454
1528.000000	98.305286
1527.000000	98.315170
1526.000000	98.322239
1525.000000	98.330194
1524.000000	98.341877
1523.000000	98.355942
1522.000000	98.366103
1521.000000	98.370924
1520.000000	98.376186
1519.000000	98.386388
1518.000000	98.399515
1517.000000	98.408994
1516.000000	98.413294
1515.000000	98.416558
1514.000000	98.419486
1513.000000	98.419880
1512.000000	98.417081
1511.000000	98.414665
1510.000000	98.416693
1509.000000	98.423313
1508.000000	98.426656
1507.000000	98.422801
1506.000000	98.422005
1505.000000	98.421180
1504.000000	98.416300
1503.000000	98.412958
1502.000000	98.409799
1501.000000	98.405747
1500.000000	98.401707
1499.000000	98.399796
1498.000000	98.394273
1497.000000	98.378615
1496.000000	98.356706
1495.000000	98.337779
1494.000000	98.323185
1493.000000	98.307820
1492.000000	98.288341
1491.000000	98.265839
1490.000000	98.246040
1489.000000	98.233550
1488.000000	98.224455
1487.000000	98.212565
1486.000000	98.197039
1485.000000	98.176746
1484.000000	98.151892
1483.000000	98.123865
1482.000000	98.092059
1481.000000	98.057847
1480.000000	98.024885
1479.000000	97.993679
1478.000000	97.957649
1477.000000	97.910985
1476.000000	97.857730
1475.000000	97.808855
1474.000000	97.765928
1473.000000	97.721588
1472.000000	97.678506
1471.000000	97.642639
1470.000000	97.610158
1469.000000	97.576339
1468.000000	97.542332
1467.000000	97.511674
1466.000000	97.483922
1465.000000	97.453925
1464.000000	97.423045
1463.000000	97.396061
1462.000000	97.372452
1461.000000	97.348776
1460.000000	97.322383
1459.000000	97.289665
1458.000000	97.241336
1457.000000	97.184681
1456.000000	97.145672
1455.000000	97.125545
1454.000000	97.107969
1453.000000	97.087484
1452.000000	97.065935
1451.000000	97.046310
1450.000000	97.026389
1449.000000	97.004843
1448.000000	96.986231
1447.000000	96.975642
1446.000000	96.968175
1445.000000	96.956218
1444.000000	96.941779
1443.000000	96.929925
1442.000000	96.920943
1441.000000	96.911116
1440.000000	96.899448
1439.000000	96.886964
1438.000000	96.872786
1437.000000	96.857656
1436.000000	96.847808
1435.000000	96.844237
1434.000000	96.839455
1433.000000	96.830519
1432.000000	96.820601
1431.000000	96.813227
1430.000000	96.806734
1429.000000	96.798238
1428.000000	96.788759
1427.000000	96.781313
1426.000000	96.776127
1425.000000	96.771657
1424.000000	96.769867
1423.000000	96.770077
1422.000000	96.766236
1421.000000	96.755309
1420.000000	96.743718
1419.000000	96.742625
1418.000000	96.752966
1417.000000	96.765878
1416.000000	96.777463
1415.000000	96.788016
1414.000000	96.796226
1413.000000	96.803889
1412.000000	96.816925
1411.000000	96.837388
1410.000000	96.858941
1409.000000	96.876717
1408.000000	96.893439
1407.000000	96.914088
1406.000000	96.939485
1405.000000	96.967570
1404.000000	96.997679
1403.000000	97.026471
1402.000000	97.049035
1401.000000	97.065195
1400.000000	97.080096
1399.000000	97.098040
1398.000000	97.117170
1397.000000	97.135413
1396.000000	97.156482
1395.000000	97.184845
1394.000000	97.217455
1393.000000	97.248812
1392.000000	97.279037
1391.000000	97.308742
1390.000000	97.335461
1389.000000	97.358466
1388.000000	97.381866
1387.000000	97.408593
1386.000000	97.433966
1385.000000	97.452067
1384.000000	97.463545
1383.000000	97.470945
1382.000000	97.474867
1381.000000	97.476477
1380.000000	97.478602
1379.000000	97.482560
1378.000000	97.485366
1377.000000	97.484022
1376.000000	97.481038
1375.000000	97.483547
1374.000000	97.495618
1373.000000	97.513370
1372.000000	97.531047
1371.000000	97.549532
1370.000000	97.574749
1369.000000	97.610750
1368.000000	97.656065
1367.000000	97.703801
1366.000000	97.748497
1365.000000	97.791229
1364.000000	97.836709
1363.000000	97.887335
1362.000000	97.940904
1361.000000	97.993769
1360.000000	98.044295
1359.000000	98.092046
1358.000000	98.136984
1357.000000	98.180821
1356.000000	98.225569
1355.000000	98.269382
1354.000000	98.307492
1353.000000	98.338717
1352.000000	98.366383
1351.000000	98.392806
1350.000000	98.416081
1349.000000	98.432766
1348.000000	98.442631
1347.000000	98.448083
1346.000000	98.452138
1345.000000	98.457496
1344.000000	98.465396
1343.000000	98.473728
1342.000000	98.478877
1341.000000	98.479830
1340.000000	98.479340
1339.000000	98.480104
1338.000000	98.481949
1337.000000	98.485567
1336.000000	98.494377
1335.000000	98.509478
1334.000000	98.526932
1333.000000	98.542498
1332.000000	98.556695
1331.000000	98.573010
1330.000000	98.592660
1329.000000	98.613449
1328.000000	98.632829
1327.000000	98.649993
1326.000000	98.665151
1325.000000	98.678450
1324.000000	98.689877
1323.000000	98.698440
1322.000000	98.702654
1321.000000	98.702745
1320.000000	98.701751
1319.000000	98.703427
1318.000000	98.709426
1317.000000	98.719071
1316.000000	98.730780
1315.000000	98.742768
1314.000000	98.753868
1313.000000	98.765194
1312.000000	98.779405
1311.000000	98.797138
1310.000000	98.815550
1309.000000	98.831419
1308.000000	98.844039
1307.000000	98.854487
1306.000000	98.863555
1305.000000	98.871644
1304.000000	98.879928
1303.000000	98.889202
1302.000000	98.898287
1301.000000	98.905132
1300.000000	98.909688
1299.000000	98.914465
1298.000000	98.921969
1297.000000	98.932016
1296.000000	98.941698
1295.000000	98.947820
1294.000000	98.949246
1293.000000	98.946699
1292.000000	98.940433
1291.000000	98.929259
1290.000000	98.912843
1289.000000	98.894434
1288.000000	98.879402
1287.000000	98.870328
1286.000000	98.864396
1285.000000	98.856413
1284.000000	98.843681
1283.000000	98.827276
1282.000000	98.809851
1281.000000	98.793197
1280.000000	98.777885
1279.000000	98.764445
1278.000000	98.754056
1277.000000	98.747767
1276.000000	98.744800
1275.000000	98.742173
1274.000000	98.736672
1273.000000	98.727296
1272.000000	98.715064
1271.000000	98.700552
1270.000000	98.682702
1269.000000	98.660425
1268.000000	98.634218
1267.000000	98.605495
1266.000000	98.575520
1265.000000	98.545852
1264.000000	98.518618
1263.000000	98.494595
1262.000000	98.471387
1261.000000	98.445291
1260.000000	98.415402
1259.000000	98.384660
1258.000000	98.356421
1257.000000	98.331088
1256.000000	98.306179
1255.000000	98.278454
1254.000000	98.245919
1253.000000	98.209146
1252.000000	98.171077
1251.000000	98.134835
1250.000000	98.101009
1249.000000	98.067220
1248.000000	98.030412
1247.000000	97.989277
1246.000000	97.945162
1245.000000	97.901706
1244.000000	97.863008
1243.000000	97.830659
1242.000000	97.802580
1241.000000	97.775677
1240.000000	97.748943
1239.000000	97.722980
1238.000000	97.697766
1237.000000	97.673354
1236.000000	97.651882
1235.000000	97.636376
1234.000000	97.627828
1233.000000	97.625309
1232.000000	97.628740
1231.000000	97.638585
1230.000000	97.653177
1229.000000	97.669695
1228.000000	97.687758
1227.000000	97.709649
1226.000000	97.736542
1225.000000	97.767059
1224.000000	97.800107
1223.000000	97.836145
1222.000000	97.874887
1221.000000	97.914050
1220.000000	97.951696
1219.000000	97.988515
1218.000000	98.026590
1217.000000	98.066837
1216.000000	98.108136
1215.000000	98.148237
1214.000000	98.185436
1213.000000	98.220288
1212.000000	98.255396
1211.000000	98.292119
1210.000000	98.327429
1209.000000	98.355499
1208.000000	98.373544
1207.000000	98.385477
1206.000000	98.399082
1205.000000	98.419463
1204.000000	98.445551
1203.000000	98.472839
1202.000000	98.498790
1201.000000	98.525183
1200.000000	98.555401
1199.000000	98.590343
1198.000000	98.627477
1197.000000	98.663492
1196.000000	98.697055
1195.000000	98.729067
1194.000000	98.761067
1193.000000	98.793447
1192.000000	98.824907
1191.000000	98.853817
1190.000000	98.880527
1189.000000	98.907390
1188.000000	98.935545
1187.000000	98.962367
1186.000000	98.983380
1185.000000	98.996663
1184.000000	99.004140
1183.000000	99.009450
1182.000000	99.016304
1181.000000	99.028115
1180.000000	99.046524
1179.000000	99.068815
1178.000000	99.088424
1177.000000	99.099771
1176.000000	99.102348
1175.000000	99.099993
1174.000000	99.097036
1173.000000	99.095689
1172.000000	99.096671
1171.000000	99.100721
1170.000000	99.108243
1169.000000	99.117540
1168.000000	99.124799
1167.000000	99.127128
1166.000000	99.125556
1165.000000	99.124052
1164.000000	99.125391
1163.000000	99.128834
1162.000000	99.131989
1161.000000	99.133897
1160.000000	99.135876
1159.000000	99.140309
1158.000000	99.149010
1157.000000	99.161621
1156.000000	99.175069
1155.000000	99.185693
1154.000000	99.192705
1153.000000	99.198593
1152.000000	99.205521
1151.000000	99.212916
1150.000000	99.219603
1149.000000	99.226353
1148.000000	99.234248
1147.000000	99.242006
1146.000000	99.247347
1145.000000	99.250379
1144.000000	99.253245
1143.000000	99.256492
1142.000000	99.258044
1141.000000	99.256077
1140.000000	99.251246
1139.000000	99.245575
1138.000000	99.240184
1137.000000	99.234472
1136.000000	99.226838
1135.000000	99.216542
1134.000000	99.205654
1133.000000	99.198346
1132.000000	99.196698
1131.000000	99.197408
1130.000000	99.194419
1129.000000	99.185257
1128.000000	99.173614
1127.000000	99.165366
1126.000000	99.163037
1125.000000	99.164249
1124.000000	99.164396
1123.000000	99.160499
1122.000000	99.153572
1121.000000	99.147859
1120.000000	99.147173
1119.000000	99.151455
1118.000000	99.156862
1117.000000	99.158779
1116.000000	99.154411
1115.000000	99.143542
1114.000000	99.128293
1113.000000	99.111757
1112.000000	99.095796
1111.000000	99.080862
1110.000000	99.068688
1109.000000	99.063207
1108.000000	99.065881
1107.000000	99.070827
1106.000000	99.069045
1105.000000	99.058982
1104.000000	99.049266
1103.000000	99.048581
1102.000000	99.055176
1101.000000	99.059609
1100.000000	99.056084
1099.000000	99.047360
1098.000000	99.039106
1097.000000	99.032415
1096.000000	99.023888
1095.000000	99.011229
1094.000000	98.997078
1093.000000	98.987027
1092.000000	98.984167
1091.000000	98.985618
1090.000000	98.984599
1089.000000	98.976230
1088.000000	98.960791
1087.000000	98.941423
1086.000000	98.920634
1085.000000	98.900499
1084.000000	98.884551
1083.000000	98.875873
1082.000000	98.872508
1081.000000	98.867808
1080.000000	98.857667
1079.000000	98.846134
1078.000000	98.841786
1077.000000	98.849223
1076.000000	98.865404
1075.000000	98.883594
1074.000000	98.898882
1073.000000	98.909810
1072.000000	98.916568
1071.000000	98.919152
1070.000000	98.917282
1069.000000	98.911460
1068.000000	98.903788
1067.000000	98.897333
1066.000000	98.894041
1065.000000	98.893045
1064.000000	98.891637
1063.000000	98.887982
1062.000000	98.882259
1061.000000	98.875404
1060.000000	98.868246
1059.000000	98.862348
1058.000000	98.859741
1057.000000	98.860137
1056.000000	98.859421
1055.000000	98.852959
1054.000000	98.840517
1053.000000	98.826568
1052.000000	98.815926
1051.000000	98.810113
1050.000000	98.807099
1049.000000	98.802460
1048.000000	98.791517
1047.000000	98.773657
1046.000000	98.755417
1045.000000	98.746077
1044.000000	98.748156
1043.000000	98.753824
1042.000000	98.752370
1041.000000	98.740459
1040.000000	98.723533
1039.000000	98.708809
1038.000000	98.699122
1037.000000	98.692434
1036.000000	98.684471
1035.000000	98.671286
1034.000000	98.651347
1033.000000	98.626685
1032.000000	98.601772
1031.000000	98.581033
1030.000000	98.566890
1029.000000	98.558733
1028.000000	98.552895
1027.000000	98.544896
1026.000000	98.533367
1025.000000	98.521148
1024.000000	98.511708
1023.000000	98.505497
1022.000000	98.501199
1021.000000	98.498766
1020.000000	98.498502
1019.000000	98.498662
1018.000000	98.497410
1017.000000	98.497075
1016.000000	98.503091
1015.000000	98.518146
1014.000000	98.540736
1013.000000	98.569735
1012.000000	98.606343
1011.000000	98.649770
1010.000000	98.694624
1009.000000	98.735647
1008.000000	98.772537
1007.000000	98.807442
1006.000000	98.840172
1005.000000	98.869178
1004.000000	98.896023
1003.000000	98.925311
1002.000000	98.959600
1001.000000	98.996405
1000.000000	99.030785
999.000000	99.059774
998.000000	99.084088
997.000000	99.106400
996.000000	99.128479
995.000000	99.149904
994.000000	99.169478
993.000000	99.187658
992.000000	99.206874
991.000000	99.229072
990.000000	99.253385
989.000000	99.276716
988.000000	99.296827
987.000000	99.314688
986.000000	99.333327
985.000000	99.353888
984.000000	99.373228
983.000000	99.386805
982.000000	99.394094
981.000000	99.399464
980.000000	99.406906
979.000000	99.415572
978.000000	99.421956
977.000000	99.424817
976.000000	99.425906
975.000000	99.426976
974.000000	99.428459
973.000000	99.430847
972.000000	99.435171
971.000000	99.441792
970.000000	99.449976
969.000000	99.458625
968.000000	99.466585
967.000000	99.473109
966.000000	99.479672
965.000000	99.490154
964.000000	99.506619
963.000000	99.525134
962.000000	99.538208
961.000000	99.541940
960.000000	99.539138
959.000000	99.535722
958.000000	99.536268
957.000000	99.542288
956.000000	99.551374
955.000000	99.557191
954.000000	99.553596
953.000000	99.540505
952.000000	99.523887
951.000000	99.508815
950.000000	99.494999
949.000000	99.480797
948.000000	99.468584
947.000000	99.462715
946.000000	99.463078
945.000000	99.464285
944.000000	99.461829
943.000000	99.457357
942.000000	99.457336
941.000000	99.467349
940.000000	99.487437
939.000000	99.511354
938.000000	99.530642
937.000000	99.541726
936.000000	99.549778
935.000000	99.564183
934.000000	99.588928
933.000000	99.617685
932.000000	99.639426
931.000000	99.648884
930.000000	99.650937
929.000000	99.655223
928.000000	99.667378
927.000000	99.685711
926.000000	99.705102
925.000000	99.722059
924.000000	99.736009
923.000000	99.747576
922.000000	99.757244
921.000000	99.765314
920.000000	99.772101
919.000000	99.778409
918.000000	99.786242
917.000000	99.797961
916.000000	99.813375
915.000000	99.828064
914.000000	99.836305
913.000000	99.836532
912.000000	99.833284
911.000000	99.833495
910.000000	99.841007
909.000000	99.854166
908.000000	99.868010
907.000000	99.878513
906.000000	99.885096
905.000000	99.889567
904.000000	99.893290
903.000000	99.896406
902.000000	99.899515
901.000000	99.904331
900.000000	99.911831
899.000000	99.921041
898.000000	99.930823
897.000000	99.941453
896.000000	99.952794
895.000000	99.961878
894.000000	99.964965
893.000000	99.962742
892.000000	99.961703
891.000000	99.968739
890.000000	99.983724
889.000000	99.997639
888.000000	99.998755
887.000000	99.980819
886.000000	99.945799
885.000000	99.898801
884.000000	99.841468
883.000000	99.771184
882.000000	99.683011
881.000000	99.569843
880.000000	99.422641
879.000000	99.236338
878.000000	99.016326
877.000000	98.774663
876.000000	98.521831
875.000000	98.271262
874.000000	98.057214
873.000000	97.937787
872.000000	97.966752
871.000000	98.151469
870.000000	98.439417
869.000000	98.750561
868.000000	99.022375
867.000000	99.230688
866.000000	99.380894
865.000000	99.489236
864.000000	99.569933
863.000000	99.631443
862.000000	99.678256
861.000000	99.713976
860.000000	99.741944
859.000000	99.763725
858.000000	99.779692
857.000000	99.791098
856.000000	99.800443
855.000000	99.809876
854.000000	99.820331
853.000000	99.831576
852.000000	99.841079
851.000000	99.843825
850.000000	99.836715
849.000000	99.823783
848.000000	99.814308
847.000000	99.814726
846.000000	99.824423
845.000000	99.839475
844.000000	99.857079
843.000000	99.875224
842.000000	99.891517
841.000000	99.904758
840.000000	99.915229
839.000000	99.921694
838.000000	99.921527
837.000000	99.916681
836.000000	99.916149
835.000000	99.927878
834.000000	99.949046
833.000000	99.968368
832.000000	99.978148
831.000000	99.980294
830.000000	99.980316
829.000000	99.979660
828.000000	99.976266
827.000000	99.970060
826.000000	99.964292
825.000000	99.961843
824.000000	99.962453
823.000000	99.963795
822.000000	99.963718
821.000000	99.961594
820.000000	99.958894
819.000000	99.958555
818.000000	99.962261
817.000000	99.967502
816.000000	99.968391
815.000000	99.961426
814.000000	99.950908
813.000000	99.946540
812.000000	99.953532
811.000000	99.965527
810.000000	99.969628
809.000000	99.959825
808.000000	99.944064
807.000000	99.936447
806.000000	99.943428
805.000000	99.958904
804.000000	99.971902
803.000000	99.976217
802.000000	99.971878
801.000000	99.960378
800.000000	99.941771
799.000000	99.916525
798.000000	99.888079
797.000000	99.862540
796.000000	99.846248
795.000000	99.843089
794.000000	99.852185
793.000000	99.867434
792.000000	99.881047
791.000000	99.889690
790.000000	99.897504
789.000000	99.911794
788.000000	99.934916
787.000000	99.960541
786.000000	99.978298
785.000000	99.982417
784.000000	99.976065
783.000000	99.967676
782.000000	99.963435
781.000000	99.963343
780.000000	99.963976
779.000000	99.963743
778.000000	99.963941
777.000000	99.965158
776.000000	99.965452
775.000000	99.963797
774.000000	99.963421
773.000000	99.968661
772.000000	99.978421
771.000000	99.985159
770.000000	99.981195
769.000000	99.964663
768.000000	99.939771
767.000000	99.914423
766.000000	99.898415
765.000000	99.899564
764.000000	99.917146
763.000000	99.939786
762.000000	99.953572
761.000000	99.953651
760.000000	99.947000
759.000000	99.944434
758.000000	99.951523
757.000000	99.965810
756.000000	99.979356
755.000000	99.983919
754.000000	99.977189
753.000000	99.965721
752.000000	99.959465
751.000000	99.961535
750.000000	99.964826
749.000000	99.960271
748.000000	99.946627
747.000000	99.930175
746.000000	99.917139
745.000000	99.909780
744.000000	99.908540
743.000000	99.913348
742.000000	99.921643
741.000000	99.928814
740.000000	99.933242
739.000000	99.938162
738.000000	99.945017
737.000000	99.946961
736.000000	99.934163
735.000000	99.906868
734.000000	99.879003
733.000000	99.865396
732.000000	99.867106
731.000000	99.871962
730.000000	99.868392
729.000000	99.855380
728.000000	99.840854
727.000000	99.833131
726.000000	99.832781
725.000000	99.832679
724.000000	99.825663
723.000000	99.810845
722.000000	99.791402
721.000000	99.768505
720.000000	99.740926
719.000000	99.709050
718.000000	99.674008
717.000000	99.630884
716.000000	99.568234
715.000000	99.482612
714.000000	99.393633
713.000000	99.336419
712.000000	99.334285
711.000000	99.380074
710.000000	99.445674
709.000000	99.505434
708.000000	99.548626
707.000000	99.575319
706.000000	99.586397
705.000000	99.582873
704.000000	99.572372
703.000000	99.567836
702.000000	99.577823
701.000000	99.599454
700.000000	99.621104
699.000000	99.632855
698.000000	99.631846
697.000000	99.621059
696.000000	99.608148
695.000000	99.602343
694.000000	99.609708
693.000000	99.626801
692.000000	99.641040
691.000000	99.645217
690.000000	99.646125
689.000000	99.654899
688.000000	99.670697
687.000000	99.679371
686.000000	99.671847
685.000000	99.653532
684.000000	99.633544
683.000000	99.615586
682.000000	99.600733
681.000000	99.590776
680.000000	99.584783
679.000000	99.581204
678.000000	99.584440
677.000000	99.596353
676.000000	99.608998
675.000000	99.612157
674.000000	99.605858
673.000000	99.600613
672.000000	99.607434
671.000000	99.635985
670.000000	99.693323
669.000000	99.774201
668.000000	99.821425
667.000000	99.768203
666.000000	99.665854
665.000000	99.568043
664.000000	99.493294
663.000000	99.456340
662.000000	99.455548
661.000000	99.472183
660.000000	99.485844
659.000000	99.489499
658.000000	99.483821
657.000000	99.466350
656.000000	99.440643
655.000000	99.420811
654.000000	99.413720
653.000000	99.409756
652.000000	99.402476
651.000000	99.400903
650.000000	99.413731
649.000000	99.432269
648.000000	99.441049
647.000000	99.435353
646.000000	99.421041
645.000000	99.409070
644.000000	99.411206
643.000000	99.430198
642.000000	99.453302
641.000000	99.462936
640.000000	99.456537
639.000000	99.447702
638.000000	99.445431
637.000000	99.444302
636.000000	99.438850
635.000000	99.433138
634.000000	99.431309
633.000000	99.429749
632.000000	99.423486
631.000000	99.412860
630.000000	99.400131
629.000000	99.386829
628.000000	99.378985
627.000000	99.386232
626.000000	99.408426
625.000000	99.431941
624.000000	99.442661
623.000000	99.437425
622.000000	99.423236
621.000000	99.410979
620.000000	99.408496
619.000000	99.412431
618.000000	99.408026
617.000000	99.385184
616.000000	99.352752
615.000000	99.326895
614.000000	99.308956
613.000000	99.287394
612.000000	99.259817
611.000000	99.237127
610.000000	99.223348
609.000000	99.207426
608.000000	99.181528
607.000000	99.155093
606.000000	99.141178
605.000000	99.141466
604.000000	99.151125
603.000000	99.167958
602.000000	99.190825
601.000000	99.217191
600.000000	99.247498
599.000000	99.284059
598.000000	99.320515
597.000000	99.341638
596.000000	99.339802
595.000000	99.324826
594.000000	99.313226
593.000000	99.313353
592.000000	99.325363
591.000000	99.347459
590.000000	99.375284
589.000000	99.402089
588.000000	99.424964
587.000000	99.444496
586.000000	99.455994
585.000000	99.450184
584.000000	99.427424
583.000000	99.403606
582.000000	99.395507
581.000000	99.406548
580.000000	99.430295
579.000000	99.459534
578.000000	99.485722
577.000000	99.498423
576.000000	99.493745
575.000000	99.478740
574.000000	99.461329
573.000000	99.441770
572.000000	99.420223
571.000000	99.402410
570.000000	99.390196
569.000000	99.375163
568.000000	99.352373
567.000000	99.330671
566.000000	99.318476
565.000000	99.308854
564.000000	99.290680
563.000000	99.267705
562.000000	99.253984
561.000000	99.255531
560.000000	99.266793
559.000000	99.280674
558.000000	99.292237
557.000000	99.297699
556.000000	99.299029
555.000000	99.304832
554.000000	99.316887
553.000000	99.322147
552.000000	99.308941
551.000000	99.286526
550.000000	99.278034
549.000000	99.294552
548.000000	99.326253
547.000000	99.355273
546.000000	99.366399
545.000000	99.351629
544.000000	99.318679
543.000000	99.293116
542.000000	99.299389
541.000000	99.335339
540.000000	99.372074
539.000000	99.380657
538.000000	99.353157
537.000000	99.300220
536.000000	99.240037
535.000000	99.195676
534.000000	99.190819
533.000000	99.232526
532.000000	99.297058
531.000000	99.342450
530.000000	99.344308
529.000000	99.316654
528.000000	99.290217
527.000000	99.277785
526.000000	99.268969
525.000000	99.257909
524.000000	99.256329
523.000000	99.267702
522.000000	99.272488
521.000000	99.256249
520.000000	99.239360
519.000000	99.256882
518.000000	99.307944
517.000000	99.352332
516.000000	99.367518
515.000000	99.372724
514.000000	99.390264
513.000000	99.418600
512.000000	99.449648
511.000000	99.485033
510.000000	99.524011
509.000000	99.555452
508.000000	99.574379
507.000000	99.590448
506.000000	99.603988
505.000000	99.592633
504.000000	99.541039
503.000000	99.471441
502.000000	99.429436
501.000000	99.436031
500.000000	99.471818
499.000000	99.511504
498.000000	99.545463
497.000000	99.571321
496.000000	99.587927
495.000000	99.595430
494.000000	99.590734
493.000000	99.566450
492.000000	99.523627
491.000000	99.481470
490.000000	99.463052
489.000000	99.475933
488.000000	99.511043
487.000000	99.550031
486.000000	99.568175
485.000000	99.548774
484.000000	99.509057
483.000000	99.494339
482.000000	99.526193
481.000000	99.571378
480.000000	99.578942
479.000000	99.535515
478.000000	99.476453
477.000000	99.453705
476.000000	99.498074
475.000000	99.602177
474.000000	99.720230
473.000000	99.786067
472.000000	99.766198
471.000000	99.700521
470.000000	99.650976
469.000000	99.636795
468.000000	99.642700
467.000000	99.650844
466.000000	99.651090
465.000000	99.639488
464.000000	99.622396
463.000000	99.614857
462.000000	99.621845
461.000000	99.632381
460.000000	99.645680
459.000000	99.682532
458.000000	99.746502
457.000000	99.791504
456.000000	99.782116
455.000000	99.750368
454.000000	99.753008
453.000000	99.814020
452.000000	99.910829
451.000000	99.989878
450.000000	100.013957
