PE IR       SUBTECH     SPECTRUM    ASCII       PEDS        4.00        
   -1
P8-Or039_1.ASC
23/06/13
16:00:03.00
23/06/13
16:11:22.00
uco
Sample 039 By uco Date Tuesday, June 13 2023
450.000000
#HDR
-1
-1
#GR
cm-1
A
1.0
0.0
4000.000000
-1.000000
3551
8
0.074903
0.012090
#DATA
4000.000000	0.013032
3999.000000	0.013063
3998.000000	0.013052
3997.000000	0.013050
3996.000000	0.013037
3995.000000	0.013028
3994.000000	0.013029
3993.000000	0.013037
3992.000000	0.013038
3991.000000	0.013023
3990.000000	0.013001
3989.000000	0.012988
3988.000000	0.013000
3987.000000	0.013034
3986.000000	0.013077
3985.000000	0.013110
3984.000000	0.013121
3983.000000	0.013111
3982.000000	0.013093
3981.000000	0.013080
3980.000000	0.013081
3979.000000	0.013093
3978.000000	0.013108
3977.000000	0.013116
3976.000000	0.013113
3975.000000	0.013108
3974.000000	0.013109
3973.000000	0.013121
3972.000000	0.013135
3971.000000	0.013141
3970.000000	0.013135
3969.000000	0.013125
3968.000000	0.013124
3967.000000	0.013138
3966.000000	0.013160
3965.000000	0.013177
3964.000000	0.013181
3963.000000	0.013175
3962.000000	0.013167
3961.000000	0.013160
3960.000000	0.013150
3959.000000	0.013138
3958.000000	0.013127
3957.000000	0.013124
3956.000000	0.013129
3955.000000	0.013136
3954.000000	0.013141
3953.000000	0.013144
3952.000000	0.013154
3951.000000	0.013173
3950.000000	0.013200
3949.000000	0.013225
3948.000000	0.013241
3947.000000	0.013245
3946.000000	0.013233
3945.000000	0.013203
3944.000000	0.013160
3943.000000	0.013119
3942.000000	0.013094
3941.000000	0.013089
3940.000000	0.013095
3939.000000	0.013109
3938.000000	0.013132
3937.000000	0.013169
3936.000000	0.013214
3935.000000	0.013256
3934.000000	0.013283
3933.000000	0.013287
3932.000000	0.013275
3931.000000	0.013261
3930.000000	0.013256
3929.000000	0.013258
3928.000000	0.013251
3927.000000	0.013227
3926.000000	0.013195
3925.000000	0.013180
3924.000000	0.013194
3923.000000	0.013226
3922.000000	0.013253
3921.000000	0.013265
3920.000000	0.013271
3919.000000	0.013283
3918.000000	0.013300
3917.000000	0.013310
3916.000000	0.013308
3915.000000	0.013291
3914.000000	0.013265
3913.000000	0.013234
3912.000000	0.013208
3911.000000	0.013198
3910.000000	0.013207
3909.000000	0.013224
3908.000000	0.013236
3907.000000	0.013238
3906.000000	0.013244
3905.000000	0.013276
3904.000000	0.013345
3903.000000	0.013426
3902.000000	0.013474
3901.000000	0.013470
3900.000000	0.013429
3899.000000	0.013384
3898.000000	0.013357
3897.000000	0.013349
3896.000000	0.013354
3895.000000	0.013366
3894.000000	0.013373
3893.000000	0.013371
3892.000000	0.013371
3891.000000	0.013396
3890.000000	0.013450
3889.000000	0.013509
3888.000000	0.013533
3887.000000	0.013500
3886.000000	0.013430
3885.000000	0.013370
3884.000000	0.013347
3883.000000	0.013346
3882.000000	0.013342
3881.000000	0.013331
3880.000000	0.013334
3879.000000	0.013357
3878.000000	0.013384
3877.000000	0.013392
3876.000000	0.013377
3875.000000	0.013362
3874.000000	0.013378
3873.000000	0.013422
3872.000000	0.013457
3871.000000	0.013457
3870.000000	0.013436
3869.000000	0.013422
3868.000000	0.013419
3867.000000	0.013412
3866.000000	0.013394
3865.000000	0.013373
3864.000000	0.013363
3863.000000	0.013372
3862.000000	0.013391
3861.000000	0.013416
3860.000000	0.013443
3859.000000	0.013473
3858.000000	0.013506
3857.000000	0.013536
3856.000000	0.013551
3855.000000	0.013536
3854.000000	0.013517
3853.000000	0.013527
3852.000000	0.013534
3851.000000	0.013506
3850.000000	0.013461
3849.000000	0.013422
3848.000000	0.013401
3847.000000	0.013396
3846.000000	0.013398
3845.000000	0.013395
3844.000000	0.013388
3843.000000	0.013389
3842.000000	0.013406
3841.000000	0.013431
3840.000000	0.013452
3839.000000	0.013466
3838.000000	0.013472
3837.000000	0.013470
3836.000000	0.013459
3835.000000	0.013440
3834.000000	0.013413
3833.000000	0.013378
3832.000000	0.013342
3831.000000	0.013313
3830.000000	0.013293
3829.000000	0.013270
3828.000000	0.013241
3827.000000	0.013228
3826.000000	0.013263
3825.000000	0.013345
3824.000000	0.013438
3823.000000	0.013488
3822.000000	0.013482
3821.000000	0.013467
3820.000000	0.013482
3819.000000	0.013508
3818.000000	0.013503
3817.000000	0.013457
3816.000000	0.013394
3815.000000	0.013348
3814.000000	0.013324
3813.000000	0.013313
3812.000000	0.013313
3811.000000	0.013328
3810.000000	0.013348
3809.000000	0.013350
3808.000000	0.013332
3807.000000	0.013326
3806.000000	0.013367
3805.000000	0.013436
3804.000000	0.013480
3803.000000	0.013463
3802.000000	0.013403
3801.000000	0.013357
3800.000000	0.013349
3799.000000	0.013351
3798.000000	0.013342
3797.000000	0.013326
3796.000000	0.013314
3795.000000	0.013305
3794.000000	0.013283
3793.000000	0.013242
3792.000000	0.013190
3791.000000	0.013149
3790.000000	0.013132
3789.000000	0.013139
3788.000000	0.013159
3787.000000	0.013184
3786.000000	0.013209
3785.000000	0.013239
3784.000000	0.013274
3783.000000	0.013310
3782.000000	0.013335
3781.000000	0.013336
3780.000000	0.013309
3779.000000	0.013268
3778.000000	0.013228
3777.000000	0.013197
3776.000000	0.013183
3775.000000	0.013196
3774.000000	0.013237
3773.000000	0.013292
3772.000000	0.013345
3771.000000	0.013383
3770.000000	0.013405
3769.000000	0.013403
3768.000000	0.013368
3767.000000	0.013307
3766.000000	0.013251
3765.000000	0.013233
3764.000000	0.013256
3763.000000	0.013293
3762.000000	0.013314
3761.000000	0.013309
3760.000000	0.013291
3759.000000	0.013281
3758.000000	0.013290
3757.000000	0.013314
3756.000000	0.013354
3755.000000	0.013414
3754.000000	0.013498
3753.000000	0.013602
3752.000000	0.013708
3751.000000	0.013794
3750.000000	0.013844
3749.000000	0.013858
3748.000000	0.013847
3747.000000	0.013816
3746.000000	0.013771
3745.000000	0.013732
3744.000000	0.013706
3743.000000	0.013661
3742.000000	0.013577
3741.000000	0.013477
3740.000000	0.013392
3739.000000	0.013339
3738.000000	0.013319
3737.000000	0.013325
3736.000000	0.013339
3735.000000	0.013332
3734.000000	0.013300
3733.000000	0.013269
3732.000000	0.013263
3731.000000	0.013289
3730.000000	0.013334
3729.000000	0.013385
3728.000000	0.013433
3727.000000	0.013469
3726.000000	0.013487
3725.000000	0.013483
3724.000000	0.013454
3723.000000	0.013407
3722.000000	0.013359
3721.000000	0.013326
3720.000000	0.013310
3719.000000	0.013310
3718.000000	0.013325
3717.000000	0.013356
3716.000000	0.013391
3715.000000	0.013418
3714.000000	0.013444
3713.000000	0.013492
3712.000000	0.013572
3711.000000	0.013647
3710.000000	0.013652
3709.000000	0.013562
3708.000000	0.013414
3707.000000	0.013269
3706.000000	0.013171
3705.000000	0.013117
3704.000000	0.013074
3703.000000	0.013019
3702.000000	0.012963
3701.000000	0.012939
3700.000000	0.012958
3699.000000	0.013001
3698.000000	0.013048
3697.000000	0.013095
3696.000000	0.013158
3695.000000	0.013248
3694.000000	0.013350
3693.000000	0.013417
3692.000000	0.013399
3691.000000	0.013282
3690.000000	0.013126
3689.000000	0.013039
3688.000000	0.013072
3687.000000	0.013178
3686.000000	0.013280
3685.000000	0.013334
3684.000000	0.013343
3683.000000	0.013335
3682.000000	0.013328
3681.000000	0.013330
3680.000000	0.013352
3679.000000	0.013402
3678.000000	0.013466
3677.000000	0.013504
3676.000000	0.013514
3675.000000	0.013534
3674.000000	0.013579
3673.000000	0.013607
3672.000000	0.013587
3671.000000	0.013517
3670.000000	0.013441
3669.000000	0.013400
3668.000000	0.013387
3667.000000	0.013375
3666.000000	0.013358
3665.000000	0.013341
3664.000000	0.013329
3663.000000	0.013321
3662.000000	0.013313
3661.000000	0.013310
3660.000000	0.013320
3659.000000	0.013342
3658.000000	0.013369
3657.000000	0.013399
3656.000000	0.013443
3655.000000	0.013509
3654.000000	0.013586
3653.000000	0.013653
3652.000000	0.013697
3651.000000	0.013719
3650.000000	0.013726
3649.000000	0.013708
3648.000000	0.013653
3647.000000	0.013580
3646.000000	0.013529
3645.000000	0.013508
3644.000000	0.013509
3643.000000	0.013519
3642.000000	0.013529
3641.000000	0.013533
3640.000000	0.013527
3639.000000	0.013522
3638.000000	0.013534
3637.000000	0.013565
3636.000000	0.013607
3635.000000	0.013653
3634.000000	0.013703
3633.000000	0.013761
3632.000000	0.013819
3631.000000	0.013858
3630.000000	0.013872
3629.000000	0.013877
3628.000000	0.013891
3627.000000	0.013903
3626.000000	0.013898
3625.000000	0.013876
3624.000000	0.013838
3623.000000	0.013773
3622.000000	0.013662
3621.000000	0.013512
3620.000000	0.013386
3619.000000	0.013377
3618.000000	0.013509
3617.000000	0.013709
3616.000000	0.013896
3615.000000	0.014034
3614.000000	0.014123
3613.000000	0.014174
3612.000000	0.014192
3611.000000	0.014185
3610.000000	0.014169
3609.000000	0.014153
3608.000000	0.014127
3607.000000	0.014076
3606.000000	0.013999
3605.000000	0.013920
3604.000000	0.013862
3603.000000	0.013844
3602.000000	0.013863
3601.000000	0.013899
3600.000000	0.013935
3599.000000	0.013971
3598.000000	0.014011
3597.000000	0.014050
3596.000000	0.014078
3595.000000	0.014091
3594.000000	0.014098
3593.000000	0.014103
3592.000000	0.014114
3591.000000	0.014126
3590.000000	0.014133
3589.000000	0.014127
3588.000000	0.014122
3587.000000	0.014139
3586.000000	0.014177
3585.000000	0.014213
3584.000000	0.014227
3583.000000	0.014220
3582.000000	0.014206
3581.000000	0.014197
3580.000000	0.014198
3579.000000	0.014211
3578.000000	0.014233
3577.000000	0.014253
3576.000000	0.014268
3575.000000	0.014276
3574.000000	0.014285
3573.000000	0.014297
3572.000000	0.014321
3571.000000	0.014358
3570.000000	0.014404
3569.000000	0.014444
3568.000000	0.014469
3567.000000	0.014483
3566.000000	0.014496
3565.000000	0.014507
3564.000000	0.014513
3563.000000	0.014511
3562.000000	0.014508
3561.000000	0.014514
3560.000000	0.014527
3559.000000	0.014545
3558.000000	0.014562
3557.000000	0.014579
3556.000000	0.014595
3555.000000	0.014607
3554.000000	0.014609
3553.000000	0.014605
3552.000000	0.014616
3551.000000	0.014656
3550.000000	0.014714
3549.000000	0.014763
3548.000000	0.014792
3547.000000	0.014808
3546.000000	0.014821
3545.000000	0.014827
3544.000000	0.014822
3543.000000	0.014814
3542.000000	0.014808
3541.000000	0.014804
3540.000000	0.014798
3539.000000	0.014797
3538.000000	0.014815
3537.000000	0.014853
3536.000000	0.014904
3535.000000	0.014953
3534.000000	0.014994
3533.000000	0.015024
3532.000000	0.015045
3531.000000	0.015058
3530.000000	0.015065
3529.000000	0.015071
3528.000000	0.015081
3527.000000	0.015103
3526.000000	0.015131
3525.000000	0.015158
3524.000000	0.015178
3523.000000	0.015192
3522.000000	0.015206
3521.000000	0.015218
3520.000000	0.015229
3519.000000	0.015242
3518.000000	0.015263
3517.000000	0.015286
3516.000000	0.015306
3515.000000	0.015318
3514.000000	0.015319
3513.000000	0.015305
3512.000000	0.015282
3511.000000	0.015262
3510.000000	0.015262
3509.000000	0.015280
3508.000000	0.015306
3507.000000	0.015330
3506.000000	0.015351
3505.000000	0.015376
3504.000000	0.015415
3503.000000	0.015472
3502.000000	0.015531
3501.000000	0.015570
3500.000000	0.015578
3499.000000	0.015562
3498.000000	0.015544
3497.000000	0.015543
3496.000000	0.015563
3495.000000	0.015600
3494.000000	0.015636
3493.000000	0.015658
3492.000000	0.015663
3491.000000	0.015664
3490.000000	0.015674
3489.000000	0.015695
3488.000000	0.015721
3487.000000	0.015745
3486.000000	0.015766
3485.000000	0.015782
3484.000000	0.015796
3483.000000	0.015813
3482.000000	0.015835
3481.000000	0.015854
3480.000000	0.015862
3479.000000	0.015857
3478.000000	0.015847
3477.000000	0.015842
3476.000000	0.015853
3475.000000	0.015889
3474.000000	0.015948
3473.000000	0.016012
3472.000000	0.016060
3471.000000	0.016080
3470.000000	0.016078
3469.000000	0.016071
3468.000000	0.016076
3467.000000	0.016095
3466.000000	0.016119
3465.000000	0.016132
3464.000000	0.016132
3463.000000	0.016132
3462.000000	0.016147
3461.000000	0.016177
3460.000000	0.016216
3459.000000	0.016258
3458.000000	0.016296
3457.000000	0.016321
3456.000000	0.016326
3455.000000	0.016320
3454.000000	0.016315
3453.000000	0.016316
3452.000000	0.016323
3451.000000	0.016331
3450.000000	0.016337
3449.000000	0.016340
3448.000000	0.016343
3447.000000	0.016359
3446.000000	0.016391
3445.000000	0.016428
3444.000000	0.016454
3443.000000	0.016470
3442.000000	0.016490
3441.000000	0.016526
3440.000000	0.016571
3439.000000	0.016612
3438.000000	0.016640
3437.000000	0.016661
3436.000000	0.016681
3435.000000	0.016702
3434.000000	0.016721
3433.000000	0.016734
3432.000000	0.016748
3431.000000	0.016767
3430.000000	0.016789
3429.000000	0.016803
3428.000000	0.016804
3427.000000	0.016797
3426.000000	0.016791
3425.000000	0.016795
3424.000000	0.016816
3423.000000	0.016857
3422.000000	0.016912
3421.000000	0.016970
3420.000000	0.017022
3419.000000	0.017059
3418.000000	0.017076
3417.000000	0.017073
3416.000000	0.017061
3415.000000	0.017050
3414.000000	0.017041
3413.000000	0.017029
3412.000000	0.017015
3411.000000	0.017014
3410.000000	0.017035
3409.000000	0.017073
3408.000000	0.017114
3407.000000	0.017147
3406.000000	0.017174
3405.000000	0.017197
3404.000000	0.017221
3403.000000	0.017244
3402.000000	0.017257
3401.000000	0.017260
3400.000000	0.017257
3399.000000	0.017258
3398.000000	0.017267
3397.000000	0.017278
3396.000000	0.017288
3395.000000	0.017296
3394.000000	0.017310
3393.000000	0.017332
3392.000000	0.017364
3391.000000	0.017402
3390.000000	0.017433
3389.000000	0.017451
3388.000000	0.017460
3387.000000	0.017476
3386.000000	0.017502
3385.000000	0.017529
3384.000000	0.017547
3383.000000	0.017556
3382.000000	0.017564
3381.000000	0.017574
3380.000000	0.017583
3379.000000	0.017590
3378.000000	0.017602
3377.000000	0.017625
3376.000000	0.017663
3375.000000	0.017711
3374.000000	0.017756
3373.000000	0.017784
3372.000000	0.017794
3371.000000	0.017796
3370.000000	0.017803
3369.000000	0.017817
3368.000000	0.017835
3367.000000	0.017856
3366.000000	0.017880
3365.000000	0.017904
3364.000000	0.017923
3363.000000	0.017938
3362.000000	0.017958
3361.000000	0.017987
3360.000000	0.018022
3359.000000	0.018057
3358.000000	0.018089
3357.000000	0.018120
3356.000000	0.018154
3355.000000	0.018189
3354.000000	0.018214
3353.000000	0.018221
3352.000000	0.018215
3351.000000	0.018214
3350.000000	0.018231
3349.000000	0.018266
3348.000000	0.018303
3347.000000	0.018333
3346.000000	0.018353
3345.000000	0.018365
3344.000000	0.018378
3343.000000	0.018401
3342.000000	0.018434
3341.000000	0.018466
3340.000000	0.018488
3339.000000	0.018502
3338.000000	0.018518
3337.000000	0.018541
3336.000000	0.018566
3335.000000	0.018591
3334.000000	0.018612
3333.000000	0.018633
3332.000000	0.018658
3331.000000	0.018691
3330.000000	0.018730
3329.000000	0.018767
3328.000000	0.018791
3327.000000	0.018804
3326.000000	0.018820
3325.000000	0.018848
3324.000000	0.018888
3323.000000	0.018927
3322.000000	0.018950
3321.000000	0.018956
3320.000000	0.018957
3319.000000	0.018972
3318.000000	0.019005
3317.000000	0.019042
3316.000000	0.019067
3315.000000	0.019075
3314.000000	0.019076
3313.000000	0.019078
3312.000000	0.019084
3311.000000	0.019093
3310.000000	0.019105
3309.000000	0.019123
3308.000000	0.019151
3307.000000	0.019188
3306.000000	0.019223
3305.000000	0.019246
3304.000000	0.019258
3303.000000	0.019273
3302.000000	0.019299
3301.000000	0.019334
3300.000000	0.019369
3299.000000	0.019398
3298.000000	0.019419
3297.000000	0.019432
3296.000000	0.019441
3295.000000	0.019455
3294.000000	0.019483
3293.000000	0.019519
3292.000000	0.019554
3291.000000	0.019580
3290.000000	0.019592
3289.000000	0.019593
3288.000000	0.019584
3287.000000	0.019571
3286.000000	0.019553
3285.000000	0.019527
3284.000000	0.019493
3283.000000	0.019465
3282.000000	0.019454
3281.000000	0.019462
3280.000000	0.019479
3279.000000	0.019501
3278.000000	0.019530
3277.000000	0.019567
3276.000000	0.019602
3275.000000	0.019616
3274.000000	0.019593
3273.000000	0.019540
3272.000000	0.019479
3271.000000	0.019440
3270.000000	0.019433
3269.000000	0.019443
3268.000000	0.019443
3267.000000	0.019419
3266.000000	0.019377
3265.000000	0.019339
3264.000000	0.019324
3263.000000	0.019332
3262.000000	0.019349
3261.000000	0.019353
3260.000000	0.019335
3259.000000	0.019299
3258.000000	0.019256
3257.000000	0.019220
3256.000000	0.019198
3255.000000	0.019185
3254.000000	0.019164
3253.000000	0.019121
3252.000000	0.019064
3251.000000	0.019015
3250.000000	0.018989
3249.000000	0.018976
3248.000000	0.018956
3247.000000	0.018926
3246.000000	0.018898
3245.000000	0.018884
3244.000000	0.018881
3243.000000	0.018875
3242.000000	0.018854
3241.000000	0.018820
3240.000000	0.018781
3239.000000	0.018753
3238.000000	0.018741
3237.000000	0.018741
3236.000000	0.018743
3235.000000	0.018735
3234.000000	0.018718
3233.000000	0.018696
3232.000000	0.018679
3231.000000	0.018669
3230.000000	0.018664
3229.000000	0.018663
3228.000000	0.018662
3227.000000	0.018664
3226.000000	0.018662
3225.000000	0.018650
3224.000000	0.018631
3223.000000	0.018615
3222.000000	0.018609
3221.000000	0.018607
3220.000000	0.018597
3219.000000	0.018576
3218.000000	0.018548
3217.000000	0.018516
3216.000000	0.018490
3215.000000	0.018478
3214.000000	0.018486
3213.000000	0.018504
3212.000000	0.018516
3211.000000	0.018513
3210.000000	0.018496
3209.000000	0.018473
3208.000000	0.018446
3207.000000	0.018422
3206.000000	0.018401
3205.000000	0.018386
3204.000000	0.018383
3203.000000	0.018393
3202.000000	0.018412
3201.000000	0.018422
3200.000000	0.018409
3199.000000	0.018376
3198.000000	0.018337
3197.000000	0.018300
3196.000000	0.018265
3195.000000	0.018232
3194.000000	0.018207
3193.000000	0.018192
3192.000000	0.018186
3191.000000	0.018182
3190.000000	0.018177
3189.000000	0.018167
3188.000000	0.018149
3187.000000	0.018121
3186.000000	0.018087
3185.000000	0.018052
3184.000000	0.018022
3183.000000	0.017998
3182.000000	0.017980
3181.000000	0.017964
3180.000000	0.017946
3179.000000	0.017929
3178.000000	0.017918
3177.000000	0.017912
3176.000000	0.017910
3175.000000	0.017907
3174.000000	0.017895
3173.000000	0.017868
3172.000000	0.017829
3171.000000	0.017789
3170.000000	0.017761
3169.000000	0.017742
3168.000000	0.017722
3167.000000	0.017697
3166.000000	0.017675
3165.000000	0.017660
3164.000000	0.017650
3163.000000	0.017636
3162.000000	0.017613
3161.000000	0.017585
3160.000000	0.017563
3159.000000	0.017552
3158.000000	0.017545
3157.000000	0.017534
3156.000000	0.017516
3155.000000	0.017496
3154.000000	0.017479
3153.000000	0.017463
3152.000000	0.017443
3151.000000	0.017418
3150.000000	0.017391
3149.000000	0.017369
3148.000000	0.017357
3147.000000	0.017353
3146.000000	0.017347
3145.000000	0.017332
3144.000000	0.017308
3143.000000	0.017280
3142.000000	0.017249
3141.000000	0.017212
3140.000000	0.017170
3139.000000	0.017137
3138.000000	0.017128
3137.000000	0.017141
3136.000000	0.017160
3135.000000	0.017172
3134.000000	0.017170
3133.000000	0.017160
3132.000000	0.017148
3131.000000	0.017141
3130.000000	0.017137
3129.000000	0.017127
3128.000000	0.017105
3127.000000	0.017076
3126.000000	0.017052
3125.000000	0.017045
3124.000000	0.017056
3123.000000	0.017073
3122.000000	0.017086
3121.000000	0.017085
3120.000000	0.017072
3119.000000	0.017057
3118.000000	0.017047
3117.000000	0.017039
3116.000000	0.017032
3115.000000	0.017024
3114.000000	0.017019
3113.000000	0.017016
3112.000000	0.017012
3111.000000	0.017008
3110.000000	0.017007
3109.000000	0.017007
3108.000000	0.017003
3107.000000	0.016994
3106.000000	0.016985
3105.000000	0.016982
3104.000000	0.016987
3103.000000	0.016992
3102.000000	0.016986
3101.000000	0.016965
3100.000000	0.016938
3099.000000	0.016925
3098.000000	0.016933
3097.000000	0.016958
3096.000000	0.016985
3095.000000	0.017002
3094.000000	0.017004
3093.000000	0.016993
3092.000000	0.016980
3091.000000	0.016975
3090.000000	0.016985
3089.000000	0.017000
3088.000000	0.017009
3087.000000	0.017006
3086.000000	0.017001
3085.000000	0.017006
3084.000000	0.017025
3083.000000	0.017051
3082.000000	0.017073
3081.000000	0.017086
3080.000000	0.017088
3079.000000	0.017086
3078.000000	0.017088
3077.000000	0.017098
3076.000000	0.017118
3075.000000	0.017141
3074.000000	0.017153
3073.000000	0.017148
3072.000000	0.017125
3071.000000	0.017096
3070.000000	0.017078
3069.000000	0.017079
3068.000000	0.017098
3067.000000	0.017119
3066.000000	0.017123
3065.000000	0.017106
3064.000000	0.017080
3063.000000	0.017063
3062.000000	0.017063
3061.000000	0.017072
3060.000000	0.017080
3059.000000	0.017080
3058.000000	0.017072
3057.000000	0.017055
3056.000000	0.017041
3055.000000	0.017038
3054.000000	0.017045
3053.000000	0.017046
3052.000000	0.017026
3051.000000	0.016990
3050.000000	0.016954
3049.000000	0.016932
3048.000000	0.016920
3047.000000	0.016911
3046.000000	0.016900
3045.000000	0.016893
3044.000000	0.016898
3043.000000	0.016919
3042.000000	0.016940
3041.000000	0.016942
3040.000000	0.016921
3039.000000	0.016895
3038.000000	0.016882
3037.000000	0.016883
3036.000000	0.016885
3035.000000	0.016884
3034.000000	0.016885
3033.000000	0.016890
3032.000000	0.016891
3031.000000	0.016879
3030.000000	0.016855
3029.000000	0.016826
3028.000000	0.016799
3027.000000	0.016770
3026.000000	0.016739
3025.000000	0.016715
3024.000000	0.016706
3023.000000	0.016717
3022.000000	0.016736
3021.000000	0.016743
3020.000000	0.016725
3019.000000	0.016688
3018.000000	0.016650
3017.000000	0.016628
3016.000000	0.016628
3015.000000	0.016642
3014.000000	0.016659
3013.000000	0.016665
3012.000000	0.016652
3011.000000	0.016627
3010.000000	0.016607
3009.000000	0.016607
3008.000000	0.016623
3007.000000	0.016640
3006.000000	0.016642
3005.000000	0.016628
3004.000000	0.016601
3003.000000	0.016573
3002.000000	0.016558
3001.000000	0.016567
3000.000000	0.016599
2999.000000	0.016644
2998.000000	0.016690
2997.000000	0.016727
2996.000000	0.016758
2995.000000	0.016789
2994.000000	0.016825
2993.000000	0.016864
2992.000000	0.016903
2991.000000	0.016943
2990.000000	0.016990
2989.000000	0.017046
2988.000000	0.017112
2987.000000	0.017179
2986.000000	0.017243
2985.000000	0.017300
2984.000000	0.017357
2983.000000	0.017420
2982.000000	0.017488
2981.000000	0.017553
2980.000000	0.017601
2979.000000	0.017638
2978.000000	0.017677
2977.000000	0.017731
2976.000000	0.017799
2975.000000	0.017873
2974.000000	0.017943
2973.000000	0.018006
2972.000000	0.018067
2971.000000	0.018131
2970.000000	0.018201
2969.000000	0.018279
2968.000000	0.018360
2967.000000	0.018443
2966.000000	0.018526
2965.000000	0.018611
2964.000000	0.018698
2963.000000	0.018782
2962.000000	0.018855
2961.000000	0.018909
2960.000000	0.018944
2959.000000	0.018965
2958.000000	0.018981
2957.000000	0.018991
2956.000000	0.018993
2955.000000	0.018983
2954.000000	0.018958
2953.000000	0.018917
2952.000000	0.018872
2951.000000	0.018839
2950.000000	0.018829
2949.000000	0.018837
2948.000000	0.018855
2947.000000	0.018880
2946.000000	0.018921
2945.000000	0.018982
2944.000000	0.019058
2943.000000	0.019133
2942.000000	0.019196
2941.000000	0.019246
2940.000000	0.019295
2939.000000	0.019361
2938.000000	0.019451
2937.000000	0.019553
2936.000000	0.019647
2935.000000	0.019723
2934.000000	0.019791
2933.000000	0.019864
2932.000000	0.019948
2931.000000	0.020040
2930.000000	0.020128
2929.000000	0.020208
2928.000000	0.020278
2927.000000	0.020340
2926.000000	0.020394
2925.000000	0.020437
2924.000000	0.020469
2923.000000	0.020491
2922.000000	0.020508
2921.000000	0.020520
2920.000000	0.020525
2919.000000	0.020515
2918.000000	0.020477
2917.000000	0.020399
2916.000000	0.020281
2915.000000	0.020139
2914.000000	0.019993
2913.000000	0.019856
2912.000000	0.019727
2911.000000	0.019604
2910.000000	0.019491
2909.000000	0.019399
2908.000000	0.019330
2907.000000	0.019273
2906.000000	0.019214
2905.000000	0.019139
2904.000000	0.019052
2903.000000	0.018967
2902.000000	0.018896
2901.000000	0.018834
2900.000000	0.018765
2899.000000	0.018682
2898.000000	0.018589
2897.000000	0.018500
2896.000000	0.018420
2895.000000	0.018348
2894.000000	0.018280
2893.000000	0.018214
2892.000000	0.018152
2891.000000	0.018102
2890.000000	0.018074
2889.000000	0.018069
2888.000000	0.018072
2887.000000	0.018065
2886.000000	0.018050
2885.000000	0.018045
2884.000000	0.018065
2883.000000	0.018102
2882.000000	0.018140
2881.000000	0.018169
2880.000000	0.018190
2879.000000	0.018214
2878.000000	0.018246
2877.000000	0.018293
2876.000000	0.018356
2875.000000	0.018426
2874.000000	0.018487
2873.000000	0.018529
2872.000000	0.018551
2871.000000	0.018563
2870.000000	0.018567
2869.000000	0.018561
2868.000000	0.018544
2867.000000	0.018527
2866.000000	0.018521
2865.000000	0.018530
2864.000000	0.018546
2863.000000	0.018564
2862.000000	0.018590
2861.000000	0.018625
2860.000000	0.018657
2859.000000	0.018671
2858.000000	0.018666
2857.000000	0.018661
2856.000000	0.018672
2855.000000	0.018709
2854.000000	0.018764
2853.000000	0.018816
2852.000000	0.018838
2851.000000	0.018813
2850.000000	0.018745
2849.000000	0.018650
2848.000000	0.018540
2847.000000	0.018417
2846.000000	0.018279
2845.000000	0.018133
2844.000000	0.017987
2843.000000	0.017847
2842.000000	0.017718
2841.000000	0.017602
2840.000000	0.017501
2839.000000	0.017410
2838.000000	0.017327
2837.000000	0.017250
2836.000000	0.017184
2835.000000	0.017133
2834.000000	0.017101
2833.000000	0.017083
2832.000000	0.017070
2831.000000	0.017050
2830.000000	0.017020
2829.000000	0.016988
2828.000000	0.016964
2827.000000	0.016947
2826.000000	0.016927
2825.000000	0.016892
2824.000000	0.016844
2823.000000	0.016798
2822.000000	0.016770
2821.000000	0.016761
2820.000000	0.016761
2819.000000	0.016758
2818.000000	0.016750
2817.000000	0.016741
2816.000000	0.016733
2815.000000	0.016727
2814.000000	0.016721
2813.000000	0.016711
2812.000000	0.016695
2811.000000	0.016672
2810.000000	0.016645
2809.000000	0.016618
2808.000000	0.016589
2807.000000	0.016557
2806.000000	0.016523
2805.000000	0.016495
2804.000000	0.016478
2803.000000	0.016471
2802.000000	0.016473
2801.000000	0.016480
2800.000000	0.016486
2799.000000	0.016483
2798.000000	0.016470
2797.000000	0.016450
2796.000000	0.016430
2795.000000	0.016414
2794.000000	0.016399
2793.000000	0.016384
2792.000000	0.016367
2791.000000	0.016352
2790.000000	0.016346
2789.000000	0.016352
2788.000000	0.016362
2787.000000	0.016367
2786.000000	0.016365
2785.000000	0.016364
2784.000000	0.016368
2783.000000	0.016374
2782.000000	0.016372
2781.000000	0.016360
2780.000000	0.016340
2779.000000	0.016319
2778.000000	0.016301
2777.000000	0.016288
2776.000000	0.016279
2775.000000	0.016271
2774.000000	0.016264
2773.000000	0.016259
2772.000000	0.016252
2771.000000	0.016240
2770.000000	0.016222
2769.000000	0.016208
2768.000000	0.016207
2767.000000	0.016219
2766.000000	0.016235
2765.000000	0.016243
2764.000000	0.016240
2763.000000	0.016227
2762.000000	0.016208
2761.000000	0.016190
2760.000000	0.016183
2759.000000	0.016190
2758.000000	0.016204
2757.000000	0.016214
2756.000000	0.016209
2755.000000	0.016191
2754.000000	0.016172
2753.000000	0.016161
2752.000000	0.016160
2751.000000	0.016165
2750.000000	0.016172
2749.000000	0.016181
2748.000000	0.016189
2747.000000	0.016194
2746.000000	0.016193
2745.000000	0.016186
2744.000000	0.016175
2743.000000	0.016162
2742.000000	0.016153
2741.000000	0.016151
2740.000000	0.016153
2739.000000	0.016147
2738.000000	0.016128
2737.000000	0.016099
2736.000000	0.016071
2735.000000	0.016048
2734.000000	0.016033
2733.000000	0.016026
2732.000000	0.016031
2731.000000	0.016048
2730.000000	0.016068
2729.000000	0.016084
2728.000000	0.016090
2727.000000	0.016088
2726.000000	0.016078
2725.000000	0.016063
2724.000000	0.016050
2723.000000	0.016045
2722.000000	0.016051
2721.000000	0.016060
2720.000000	0.016064
2719.000000	0.016060
2718.000000	0.016053
2717.000000	0.016048
2716.000000	0.016042
2715.000000	0.016034
2714.000000	0.016024
2713.000000	0.016017
2712.000000	0.016013
2711.000000	0.016010
2710.000000	0.016008
2709.000000	0.016006
2708.000000	0.015998
2707.000000	0.015987
2706.000000	0.015977
2705.000000	0.015975
2704.000000	0.015979
2703.000000	0.015983
2702.000000	0.015982
2701.000000	0.015976
2700.000000	0.015970
2699.000000	0.015971
2698.000000	0.015976
2697.000000	0.015978
2696.000000	0.015972
2695.000000	0.015963
2694.000000	0.015962
2693.000000	0.015974
2692.000000	0.015989
2691.000000	0.015992
2690.000000	0.015978
2689.000000	0.015960
2688.000000	0.015951
2687.000000	0.015956
2686.000000	0.015970
2685.000000	0.015982
2684.000000	0.015985
2683.000000	0.015978
2682.000000	0.015966
2681.000000	0.015953
2680.000000	0.015939
2679.000000	0.015924
2678.000000	0.015912
2677.000000	0.015908
2676.000000	0.015914
2675.000000	0.015925
2674.000000	0.015936
2673.000000	0.015943
2672.000000	0.015939
2671.000000	0.015924
2670.000000	0.015904
2669.000000	0.015891
2668.000000	0.015889
2667.000000	0.015898
2666.000000	0.015914
2665.000000	0.015931
2664.000000	0.015942
2663.000000	0.015943
2662.000000	0.015942
2661.000000	0.015952
2660.000000	0.015972
2659.000000	0.015989
2658.000000	0.015987
2657.000000	0.015963
2656.000000	0.015924
2655.000000	0.015884
2654.000000	0.015855
2653.000000	0.015845
2652.000000	0.015849
2651.000000	0.015858
2650.000000	0.015859
2649.000000	0.015847
2648.000000	0.015823
2647.000000	0.015795
2646.000000	0.015774
2645.000000	0.015767
2644.000000	0.015772
2643.000000	0.015783
2642.000000	0.015796
2641.000000	0.015805
2640.000000	0.015802
2639.000000	0.015785
2638.000000	0.015762
2637.000000	0.015746
2636.000000	0.015736
2635.000000	0.015716
2634.000000	0.015684
2633.000000	0.015649
2632.000000	0.015624
2631.000000	0.015611
2630.000000	0.015602
2629.000000	0.015595
2628.000000	0.015599
2627.000000	0.015619
2626.000000	0.015649
2625.000000	0.015672
2624.000000	0.015676
2623.000000	0.015657
2622.000000	0.015628
2621.000000	0.015597
2620.000000	0.015568
2619.000000	0.015547
2618.000000	0.015548
2617.000000	0.015579
2616.000000	0.015625
2615.000000	0.015656
2614.000000	0.015659
2613.000000	0.015642
2612.000000	0.015623
2611.000000	0.015609
2610.000000	0.015598
2609.000000	0.015587
2608.000000	0.015575
2607.000000	0.015563
2606.000000	0.015557
2605.000000	0.015558
2604.000000	0.015554
2603.000000	0.015536
2602.000000	0.015505
2601.000000	0.015474
2600.000000	0.015453
2599.000000	0.015440
2598.000000	0.015435
2597.000000	0.015450
2596.000000	0.015494
2595.000000	0.015550
2594.000000	0.015592
2593.000000	0.015600
2592.000000	0.015578
2591.000000	0.015545
2590.000000	0.015521
2589.000000	0.015511
2588.000000	0.015504
2587.000000	0.015488
2586.000000	0.015466
2585.000000	0.015449
2584.000000	0.015445
2583.000000	0.015453
2582.000000	0.015477
2581.000000	0.015512
2580.000000	0.015543
2579.000000	0.015547
2578.000000	0.015517
2577.000000	0.015468
2576.000000	0.015421
2575.000000	0.015385
2574.000000	0.015358
2573.000000	0.015334
2572.000000	0.015307
2571.000000	0.015283
2570.000000	0.015278
2569.000000	0.015306
2568.000000	0.015353
2567.000000	0.015393
2566.000000	0.015417
2565.000000	0.015437
2564.000000	0.015455
2563.000000	0.015454
2562.000000	0.015431
2561.000000	0.015402
2560.000000	0.015388
2559.000000	0.015389
2558.000000	0.015389
2557.000000	0.015384
2556.000000	0.015376
2555.000000	0.015369
2554.000000	0.015374
2553.000000	0.015401
2552.000000	0.015449
2551.000000	0.015495
2550.000000	0.015513
2549.000000	0.015505
2548.000000	0.015487
2547.000000	0.015472
2546.000000	0.015457
2545.000000	0.015440
2544.000000	0.015430
2543.000000	0.015443
2542.000000	0.015478
2541.000000	0.015517
2540.000000	0.015532
2539.000000	0.015519
2538.000000	0.015504
2537.000000	0.015524
2536.000000	0.015585
2535.000000	0.015653
2534.000000	0.015689
2533.000000	0.015687
2532.000000	0.015673
2531.000000	0.015680
2530.000000	0.015722
2529.000000	0.015793
2528.000000	0.015881
2527.000000	0.015969
2526.000000	0.016043
2525.000000	0.016102
2524.000000	0.016163
2523.000000	0.016241
2522.000000	0.016319
2521.000000	0.016357
2520.000000	0.016342
2519.000000	0.016309
2518.000000	0.016313
2517.000000	0.016367
2516.000000	0.016436
2515.000000	0.016481
2514.000000	0.016496
2513.000000	0.016496
2512.000000	0.016492
2511.000000	0.016497
2510.000000	0.016515
2509.000000	0.016535
2508.000000	0.016528
2507.000000	0.016481
2506.000000	0.016415
2505.000000	0.016358
2504.000000	0.016310
2503.000000	0.016252
2502.000000	0.016185
2501.000000	0.016119
2500.000000	0.016053
2499.000000	0.015976
2498.000000	0.015893
2497.000000	0.015824
2496.000000	0.015777
2495.000000	0.015739
2494.000000	0.015703
2493.000000	0.015674
2492.000000	0.015653
2491.000000	0.015633
2490.000000	0.015607
2489.000000	0.015574
2488.000000	0.015533
2487.000000	0.015481
2486.000000	0.015429
2485.000000	0.015399
2484.000000	0.015393
2483.000000	0.015392
2482.000000	0.015377
2481.000000	0.015352
2480.000000	0.015332
2479.000000	0.015324
2478.000000	0.015322
2477.000000	0.015317
2476.000000	0.015304
2475.000000	0.015289
2474.000000	0.015281
2473.000000	0.015281
2472.000000	0.015272
2471.000000	0.015239
2470.000000	0.015195
2469.000000	0.015166
2468.000000	0.015165
2467.000000	0.015183
2466.000000	0.015207
2465.000000	0.015226
2464.000000	0.015229
2463.000000	0.015210
2462.000000	0.015178
2461.000000	0.015149
2460.000000	0.015132
2459.000000	0.015131
2458.000000	0.015150
2457.000000	0.015185
2456.000000	0.015222
2455.000000	0.015250
2454.000000	0.015269
2453.000000	0.015282
2452.000000	0.015283
2451.000000	0.015265
2450.000000	0.015232
2449.000000	0.015193
2448.000000	0.015142
2447.000000	0.015079
2446.000000	0.015030
2445.000000	0.015027
2444.000000	0.015073
2443.000000	0.015136
2442.000000	0.015185
2441.000000	0.015203
2440.000000	0.015180
2439.000000	0.015125
2438.000000	0.015076
2437.000000	0.015073
2436.000000	0.015119
2435.000000	0.015171
2434.000000	0.015194
2433.000000	0.015182
2432.000000	0.015148
2431.000000	0.015105
2430.000000	0.015069
2429.000000	0.015056
2428.000000	0.015063
2427.000000	0.015070
2426.000000	0.015063
2425.000000	0.015049
2424.000000	0.015033
2423.000000	0.015017
2422.000000	0.015002
2421.000000	0.014992
2420.000000	0.014991
2419.000000	0.015000
2418.000000	0.015025
2417.000000	0.015073
2416.000000	0.015122
2415.000000	0.015142
2414.000000	0.015125
2413.000000	0.015099
2412.000000	0.015094
2411.000000	0.015112
2410.000000	0.015127
2409.000000	0.015115
2408.000000	0.015072
2407.000000	0.015025
2406.000000	0.015002
2405.000000	0.015009
2404.000000	0.015023
2403.000000	0.015029
2402.000000	0.015032
2401.000000	0.015034
2400.000000	0.015022
2399.000000	0.014987
2398.000000	0.014950
2397.000000	0.014935
2396.000000	0.014940
2395.000000	0.014954
2394.000000	0.014978
2393.000000	0.015019
2392.000000	0.015064
2391.000000	0.015089
2390.000000	0.015096
2389.000000	0.015107
2388.000000	0.015128
2387.000000	0.015149
2386.000000	0.015166
2385.000000	0.015174
2384.000000	0.015155
2383.000000	0.015090
2382.000000	0.014990
2381.000000	0.014892
2380.000000	0.014833
2379.000000	0.014843
2378.000000	0.014948
2377.000000	0.015129
2376.000000	0.015304
2375.000000	0.015397
2374.000000	0.015397
2373.000000	0.015340
2372.000000	0.015242
2371.000000	0.015124
2370.000000	0.015038
2369.000000	0.015012
2368.000000	0.015034
2367.000000	0.015103
2366.000000	0.015250
2365.000000	0.015472
2364.000000	0.015696
2363.000000	0.015867
2362.000000	0.016000
2361.000000	0.016110
2360.000000	0.016157
2359.000000	0.016123
2358.000000	0.016032
2357.000000	0.015897
2356.000000	0.015806
2355.000000	0.015850
2354.000000	0.015921
2353.000000	0.015861
2352.000000	0.015769
2351.000000	0.015886
2350.000000	0.016194
2349.000000	0.016474
2348.000000	0.016517
2347.000000	0.016267
2346.000000	0.015909
2345.000000	0.015764
2344.000000	0.015946
2343.000000	0.016226
2342.000000	0.016395
2341.000000	0.016410
2340.000000	0.016348
2339.000000	0.016288
2338.000000	0.016233
2337.000000	0.016165
2336.000000	0.016115
2335.000000	0.016107
2334.000000	0.016065
2333.000000	0.015912
2332.000000	0.015720
2331.000000	0.015643
2330.000000	0.015711
2329.000000	0.015873
2328.000000	0.016070
2327.000000	0.016266
2326.000000	0.016385
2325.000000	0.016373
2324.000000	0.016277
2323.000000	0.016183
2322.000000	0.016174
2321.000000	0.016286
2320.000000	0.016507
2319.000000	0.016759
2318.000000	0.016932
2317.000000	0.016969
2316.000000	0.016881
2315.000000	0.016715
2314.000000	0.016512
2313.000000	0.016328
2312.000000	0.016206
2311.000000	0.016146
2310.000000	0.016097
2309.000000	0.016025
2308.000000	0.015935
2307.000000	0.015846
2306.000000	0.015768
2305.000000	0.015705
2304.000000	0.015665
2303.000000	0.015642
2302.000000	0.015626
2301.000000	0.015624
2300.000000	0.015640
2299.000000	0.015670
2298.000000	0.015706
2297.000000	0.015747
2296.000000	0.015778
2295.000000	0.015773
2294.000000	0.015721
2293.000000	0.015659
2292.000000	0.015631
2291.000000	0.015639
2290.000000	0.015646
2289.000000	0.015633
2288.000000	0.015616
2287.000000	0.015612
2286.000000	0.015612
2285.000000	0.015597
2284.000000	0.015557
2283.000000	0.015503
2282.000000	0.015464
2281.000000	0.015457
2280.000000	0.015457
2279.000000	0.015417
2278.000000	0.015324
2277.000000	0.015229
2276.000000	0.015179
2275.000000	0.015173
2274.000000	0.015186
2273.000000	0.015208
2272.000000	0.015226
2271.000000	0.015209
2270.000000	0.015137
2269.000000	0.015043
2268.000000	0.014966
2267.000000	0.014904
2266.000000	0.014836
2265.000000	0.014776
2264.000000	0.014764
2263.000000	0.014804
2262.000000	0.014860
2261.000000	0.014903
2260.000000	0.014929
2259.000000	0.014939
2258.000000	0.014934
2257.000000	0.014918
2256.000000	0.014890
2255.000000	0.014842
2254.000000	0.014791
2253.000000	0.014771
2252.000000	0.014789
2251.000000	0.014808
2250.000000	0.014796
2249.000000	0.014774
2248.000000	0.014767
2247.000000	0.014765
2246.000000	0.014753
2245.000000	0.014752
2244.000000	0.014783
2243.000000	0.014838
2242.000000	0.014903
2241.000000	0.014979
2240.000000	0.015047
2239.000000	0.015048
2238.000000	0.014957
2237.000000	0.014829
2236.000000	0.014732
2235.000000	0.014669
2234.000000	0.014606
2233.000000	0.014548
2232.000000	0.014528
2231.000000	0.014549
2230.000000	0.014591
2229.000000	0.014642
2228.000000	0.014687
2227.000000	0.014689
2226.000000	0.014630
2225.000000	0.014551
2224.000000	0.014494
2223.000000	0.014451
2222.000000	0.014389
2221.000000	0.014320
2220.000000	0.014284
2219.000000	0.014290
2218.000000	0.014318
2217.000000	0.014352
2216.000000	0.014374
2215.000000	0.014372
2214.000000	0.014367
2213.000000	0.014411
2212.000000	0.014497
2211.000000	0.014533
2210.000000	0.014443
2209.000000	0.014280
2208.000000	0.014168
2207.000000	0.014181
2206.000000	0.014311
2205.000000	0.014514
2204.000000	0.014724
2203.000000	0.014855
2202.000000	0.014852
2201.000000	0.014737
2200.000000	0.014583
2199.000000	0.014455
2198.000000	0.014385
2197.000000	0.014373
2196.000000	0.014374
2195.000000	0.014345
2194.000000	0.014311
2193.000000	0.014329
2192.000000	0.014373
2191.000000	0.014335
2190.000000	0.014173
2189.000000	0.013992
2188.000000	0.013920
2187.000000	0.013966
2186.000000	0.014062
2185.000000	0.014157
2184.000000	0.014209
2183.000000	0.014165
2182.000000	0.014029
2181.000000	0.013898
2180.000000	0.013856
2179.000000	0.013877
2178.000000	0.013892
2177.000000	0.013878
2176.000000	0.013847
2175.000000	0.013808
2174.000000	0.013797
2173.000000	0.013871
2172.000000	0.014015
2171.000000	0.014135
2170.000000	0.014197
2169.000000	0.014277
2168.000000	0.014424
2167.000000	0.014554
2166.000000	0.014551
2165.000000	0.014417
2164.000000	0.014231
2163.000000	0.014028
2162.000000	0.013787
2161.000000	0.013505
2160.000000	0.013205
2159.000000	0.012933
2158.000000	0.012782
2157.000000	0.012808
2156.000000	0.012924
2155.000000	0.012993
2154.000000	0.013019
2153.000000	0.013108
2152.000000	0.013270
2151.000000	0.013398
2150.000000	0.013429
2149.000000	0.013421
2148.000000	0.013429
2147.000000	0.013442
2146.000000	0.013473
2145.000000	0.013587
2144.000000	0.013784
2143.000000	0.013964
2142.000000	0.014055
2141.000000	0.014081
2140.000000	0.014083
2139.000000	0.014057
2138.000000	0.014016
2137.000000	0.014016
2136.000000	0.014068
2135.000000	0.014115
2134.000000	0.014131
2133.000000	0.014176
2132.000000	0.014291
2131.000000	0.014432
2130.000000	0.014540
2129.000000	0.014601
2128.000000	0.014617
2127.000000	0.014575
2126.000000	0.014498
2125.000000	0.014452
2124.000000	0.014478
2123.000000	0.014542
2122.000000	0.014604
2121.000000	0.014676
2120.000000	0.014777
2119.000000	0.014881
2118.000000	0.014949
2117.000000	0.014992
2116.000000	0.015042
2115.000000	0.015097
2114.000000	0.015126
2113.000000	0.015115
2112.000000	0.015076
2111.000000	0.015030
2110.000000	0.014995
2109.000000	0.014993
2108.000000	0.015032
2107.000000	0.015101
2106.000000	0.015186
2105.000000	0.015263
2104.000000	0.015282
2103.000000	0.015204
2102.000000	0.015069
2101.000000	0.014978
2100.000000	0.014989
2099.000000	0.015054
2098.000000	0.015087
2097.000000	0.015047
2096.000000	0.014953
2095.000000	0.014857
2094.000000	0.014820
2093.000000	0.014861
2092.000000	0.014924
2091.000000	0.014945
2090.000000	0.014926
2089.000000	0.014924
2088.000000	0.014954
2087.000000	0.014988
2086.000000	0.015033
2085.000000	0.015123
2084.000000	0.015214
2083.000000	0.015203
2082.000000	0.015080
2081.000000	0.014970
2080.000000	0.014966
2079.000000	0.015010
2078.000000	0.014996
2077.000000	0.014921
2076.000000	0.014869
2075.000000	0.014892
2074.000000	0.014977
2073.000000	0.015073
2072.000000	0.015108
2071.000000	0.015026
2070.000000	0.014867
2069.000000	0.014748
2068.000000	0.014729
2067.000000	0.014757
2066.000000	0.014775
2065.000000	0.014793
2064.000000	0.014809
2063.000000	0.014763
2062.000000	0.014637
2061.000000	0.014524
2060.000000	0.014515
2059.000000	0.014591
2058.000000	0.014686
2057.000000	0.014783
2056.000000	0.014878
2055.000000	0.014922
2054.000000	0.014893
2053.000000	0.014850
2052.000000	0.014832
2051.000000	0.014783
2050.000000	0.014636
2049.000000	0.014413
2048.000000	0.014177
2047.000000	0.013934
2046.000000	0.013691
2045.000000	0.013537
2044.000000	0.013539
2043.000000	0.013641
2042.000000	0.013771
2041.000000	0.013928
2040.000000	0.014090
2039.000000	0.014136
2038.000000	0.013991
2037.000000	0.013749
2036.000000	0.013545
2035.000000	0.013382
2034.000000	0.013203
2033.000000	0.013045
2032.000000	0.012967
2031.000000	0.012947
2030.000000	0.012952
2029.000000	0.013014
2028.000000	0.013117
2027.000000	0.013153
2026.000000	0.013078
2025.000000	0.012992
2024.000000	0.012975
2023.000000	0.012974
2022.000000	0.012954
2021.000000	0.012994
2020.000000	0.013119
2019.000000	0.013182
2018.000000	0.013070
2017.000000	0.012906
2016.000000	0.012907
2015.000000	0.013114
2014.000000	0.013394
2013.000000	0.013609
2012.000000	0.013685
2011.000000	0.013610
2010.000000	0.013460
2009.000000	0.013343
2008.000000	0.013283
2007.000000	0.013222
2006.000000	0.013180
2005.000000	0.013261
2004.000000	0.013449
2003.000000	0.013571
2002.000000	0.013517
2001.000000	0.013368
2000.000000	0.013253
1999.000000	0.013217
1998.000000	0.013270
1997.000000	0.013450
1996.000000	0.013720
1995.000000	0.013932
1994.000000	0.013985
1993.000000	0.013936
1992.000000	0.013900
1991.000000	0.013907
1990.000000	0.013936
1989.000000	0.013977
1988.000000	0.013989
1987.000000	0.013899
1986.000000	0.013729
1985.000000	0.013626
1984.000000	0.013686
1983.000000	0.013837
1982.000000	0.013952
1981.000000	0.013980
1980.000000	0.013891
1979.000000	0.013632
1978.000000	0.013246
1977.000000	0.012927
1976.000000	0.012827
1975.000000	0.012901
1974.000000	0.013048
1973.000000	0.013225
1972.000000	0.013363
1971.000000	0.013348
1970.000000	0.013167
1969.000000	0.012957
1968.000000	0.012846
1967.000000	0.012846
1966.000000	0.012927
1965.000000	0.013051
1964.000000	0.013131
1963.000000	0.013090
1962.000000	0.013011
1961.000000	0.013061
1960.000000	0.013252
1959.000000	0.013425
1958.000000	0.013505
1957.000000	0.013576
1956.000000	0.013692
1955.000000	0.013781
1954.000000	0.013803
1953.000000	0.013842
1952.000000	0.013978
1951.000000	0.014167
1950.000000	0.014318
1949.000000	0.014384
1948.000000	0.014351
1947.000000	0.014221
1946.000000	0.014060
1945.000000	0.013980
1944.000000	0.014019
1943.000000	0.014104
1942.000000	0.014146
1941.000000	0.014132
1940.000000	0.014084
1939.000000	0.014025
1938.000000	0.014001
1937.000000	0.014056
1936.000000	0.014157
1935.000000	0.014218
1934.000000	0.014217
1933.000000	0.014198
1932.000000	0.014172
1931.000000	0.014115
1930.000000	0.014063
1929.000000	0.014088
1928.000000	0.014176
1927.000000	0.014230
1926.000000	0.014227
1925.000000	0.014246
1924.000000	0.014329
1923.000000	0.014400
1922.000000	0.014378
1921.000000	0.014294
1920.000000	0.014214
1919.000000	0.014150
1918.000000	0.014108
1917.000000	0.014119
1916.000000	0.014193
1915.000000	0.014283
1914.000000	0.014342
1913.000000	0.014366
1912.000000	0.014350
1911.000000	0.014273
1910.000000	0.014147
1909.000000	0.014039
1908.000000	0.013990
1907.000000	0.013978
1906.000000	0.013986
1905.000000	0.014032
1904.000000	0.014112
1903.000000	0.014168
1902.000000	0.014167
1901.000000	0.014143
1900.000000	0.014136
1899.000000	0.014134
1898.000000	0.014122
1897.000000	0.014123
1896.000000	0.014148
1895.000000	0.014160
1894.000000	0.014131
1893.000000	0.014092
1892.000000	0.014079
1891.000000	0.014073
1890.000000	0.014043
1889.000000	0.013998
1888.000000	0.013959
1887.000000	0.013918
1886.000000	0.013872
1885.000000	0.013841
1884.000000	0.013832
1883.000000	0.013813
1882.000000	0.013768
1881.000000	0.013728
1880.000000	0.013722
1879.000000	0.013731
1878.000000	0.013733
1877.000000	0.013741
1876.000000	0.013765
1875.000000	0.013781
1874.000000	0.013779
1873.000000	0.013795
1872.000000	0.013851
1871.000000	0.013918
1870.000000	0.013963
1869.000000	0.014000
1868.000000	0.014040
1867.000000	0.014044
1866.000000	0.013985
1865.000000	0.013898
1864.000000	0.013828
1863.000000	0.013776
1862.000000	0.013727
1861.000000	0.013691
1860.000000	0.013688
1859.000000	0.013713
1858.000000	0.013740
1857.000000	0.013759
1856.000000	0.013767
1855.000000	0.013751
1854.000000	0.013713
1853.000000	0.013673
1852.000000	0.013651
1851.000000	0.013639
1850.000000	0.013644
1849.000000	0.013689
1848.000000	0.013763
1847.000000	0.013806
1846.000000	0.013782
1845.000000	0.013725
1844.000000	0.013686
1843.000000	0.013648
1842.000000	0.013579
1841.000000	0.013502
1840.000000	0.013446
1839.000000	0.013412
1838.000000	0.013387
1837.000000	0.013374
1836.000000	0.013378
1835.000000	0.013393
1834.000000	0.013423
1833.000000	0.013474
1832.000000	0.013523
1831.000000	0.013528
1830.000000	0.013495
1829.000000	0.013471
1828.000000	0.013479
1827.000000	0.013500
1826.000000	0.013518
1825.000000	0.013524
1824.000000	0.013496
1823.000000	0.013415
1822.000000	0.013305
1821.000000	0.013222
1820.000000	0.013194
1819.000000	0.013206
1818.000000	0.013229
1817.000000	0.013240
1816.000000	0.013232
1815.000000	0.013218
1814.000000	0.013229
1813.000000	0.013280
1812.000000	0.013344
1811.000000	0.013392
1810.000000	0.013437
1809.000000	0.013496
1808.000000	0.013564
1807.000000	0.013627
1806.000000	0.013705
1805.000000	0.013844
1804.000000	0.014061
1803.000000	0.014334
1802.000000	0.014628
1801.000000	0.014917
1800.000000	0.015170
1799.000000	0.015362
1798.000000	0.015490
1797.000000	0.015569
1796.000000	0.015615
1795.000000	0.015635
1794.000000	0.015625
1793.000000	0.015560
1792.000000	0.015392
1791.000000	0.015097
1790.000000	0.014729
1789.000000	0.014383
1788.000000	0.014118
1787.000000	0.013941
1786.000000	0.013818
1785.000000	0.013709
1784.000000	0.013588
1783.000000	0.013453
1782.000000	0.013330
1781.000000	0.013255
1780.000000	0.013219
1779.000000	0.013184
1778.000000	0.013138
1777.000000	0.013107
1776.000000	0.013086
1775.000000	0.013029
1774.000000	0.012922
1773.000000	0.012852
1772.000000	0.012910
1771.000000	0.013053
1770.000000	0.013187
1769.000000	0.013263
1768.000000	0.013245
1767.000000	0.013128
1766.000000	0.012985
1765.000000	0.012910
1764.000000	0.012922
1763.000000	0.012967
1762.000000	0.013010
1761.000000	0.013059
1760.000000	0.013118
1759.000000	0.013177
1758.000000	0.013239
1757.000000	0.013331
1756.000000	0.013444
1755.000000	0.013538
1754.000000	0.013641
1753.000000	0.013821
1752.000000	0.014098
1751.000000	0.014382
1750.000000	0.014588
1749.000000	0.014758
1748.000000	0.014943
1747.000000	0.015117
1746.000000	0.015269
1745.000000	0.015435
1744.000000	0.015609
1743.000000	0.015720
1742.000000	0.015750
1741.000000	0.015780
1740.000000	0.015876
1739.000000	0.015997
1738.000000	0.016084
1737.000000	0.016153
1736.000000	0.016228
1735.000000	0.016297
1734.000000	0.016328
1733.000000	0.016289
1732.000000	0.016205
1731.000000	0.016082
1730.000000	0.015894
1729.000000	0.015668
1728.000000	0.015447
1727.000000	0.015244
1726.000000	0.015071
1725.000000	0.014956
1724.000000	0.014882
1723.000000	0.014793
1722.000000	0.014680
1721.000000	0.014586
1720.000000	0.014517
1719.000000	0.014440
1718.000000	0.014389
1717.000000	0.014420
1716.000000	0.014495
1715.000000	0.014538
1714.000000	0.014498
1713.000000	0.014406
1712.000000	0.014333
1711.000000	0.014300
1710.000000	0.014297
1709.000000	0.014331
1708.000000	0.014410
1707.000000	0.014519
1706.000000	0.014655
1705.000000	0.014819
1704.000000	0.014987
1703.000000	0.015143
1702.000000	0.015296
1701.000000	0.015476
1700.000000	0.015659
1699.000000	0.015767
1698.000000	0.015838
1697.000000	0.015983
1696.000000	0.016247
1695.000000	0.016538
1694.000000	0.016767
1693.000000	0.016978
1692.000000	0.017212
1691.000000	0.017477
1690.000000	0.017772
1689.000000	0.018064
1688.000000	0.018286
1687.000000	0.018413
1686.000000	0.018503
1685.000000	0.018734
1684.000000	0.019206
1683.000000	0.019655
1682.000000	0.019917
1681.000000	0.020126
1680.000000	0.020338
1679.000000	0.020526
1678.000000	0.020681
1677.000000	0.020861
1676.000000	0.021106
1675.000000	0.021359
1674.000000	0.021552
1673.000000	0.021740
1672.000000	0.021983
1671.000000	0.022258
1670.000000	0.022536
1669.000000	0.022808
1668.000000	0.023043
1667.000000	0.023208
1666.000000	0.023342
1665.000000	0.023520
1664.000000	0.023790
1663.000000	0.024119
1662.000000	0.024417
1661.000000	0.024654
1660.000000	0.024872
1659.000000	0.025077
1658.000000	0.025270
1657.000000	0.025460
1656.000000	0.025639
1655.000000	0.025733
1654.000000	0.025774
1653.000000	0.025916
1652.000000	0.026052
1651.000000	0.026136
1650.000000	0.026262
1649.000000	0.026377
1648.000000	0.026488
1647.000000	0.026604
1646.000000	0.026628
1645.000000	0.026527
1644.000000	0.026414
1643.000000	0.026334
1642.000000	0.026258
1641.000000	0.026177
1640.000000	0.026096
1639.000000	0.025993
1638.000000	0.025837
1637.000000	0.025657
1636.000000	0.025536
1635.000000	0.025413
1634.000000	0.025189
1633.000000	0.024927
1632.000000	0.024686
1631.000000	0.024452
1630.000000	0.024205
1629.000000	0.023956
1628.000000	0.023724
1627.000000	0.023487
1626.000000	0.023230
1625.000000	0.022974
1624.000000	0.022742
1623.000000	0.022513
1622.000000	0.022244
1621.000000	0.021961
1620.000000	0.021689
1619.000000	0.021393
1618.000000	0.021055
1617.000000	0.020761
1616.000000	0.020591
1615.000000	0.020482
1614.000000	0.020349
1613.000000	0.020183
1612.000000	0.020005
1611.000000	0.019824
1610.000000	0.019633
1609.000000	0.019452
1608.000000	0.019301
1607.000000	0.019161
1606.000000	0.019007
1605.000000	0.018862
1604.000000	0.018748
1603.000000	0.018638
1602.000000	0.018511
1601.000000	0.018398
1600.000000	0.018334
1599.000000	0.018298
1598.000000	0.018250
1597.000000	0.018192
1596.000000	0.018142
1595.000000	0.018095
1594.000000	0.018044
1593.000000	0.018007
1592.000000	0.018006
1591.000000	0.018021
1590.000000	0.018026
1589.000000	0.018026
1588.000000	0.018040
1587.000000	0.018052
1586.000000	0.018042
1585.000000	0.018029
1584.000000	0.018041
1583.000000	0.018067
1582.000000	0.018083
1581.000000	0.018103
1580.000000	0.018131
1579.000000	0.018125
1578.000000	0.018053
1577.000000	0.017990
1576.000000	0.018042
1575.000000	0.018154
1574.000000	0.018235
1573.000000	0.018291
1572.000000	0.018333
1571.000000	0.018368
1570.000000	0.018436
1569.000000	0.018563
1568.000000	0.018696
1567.000000	0.018781
1566.000000	0.018839
1565.000000	0.018922
1564.000000	0.019040
1563.000000	0.019151
1562.000000	0.019236
1561.000000	0.019357
1560.000000	0.019596
1559.000000	0.020075
1558.000000	0.020435
1557.000000	0.020540
1556.000000	0.020666
1555.000000	0.020838
1554.000000	0.021011
1553.000000	0.021212
1552.000000	0.021481
1551.000000	0.021799
1550.000000	0.022101
1549.000000	0.022344
1548.000000	0.022551
1547.000000	0.022791
1546.000000	0.023106
1545.000000	0.023472
1544.000000	0.023791
1543.000000	0.023978
1542.000000	0.024063
1541.000000	0.024219
1540.000000	0.024586
1539.000000	0.024947
1538.000000	0.025134
1537.000000	0.025287
1536.000000	0.025479
1535.000000	0.025707
1534.000000	0.025994
1533.000000	0.026312
1532.000000	0.026539
1531.000000	0.026663
1530.000000	0.026786
1529.000000	0.026990
1528.000000	0.027275
1527.000000	0.027574
1526.000000	0.027818
1525.000000	0.027998
1524.000000	0.028150
1523.000000	0.028335
1522.000000	0.028644
1521.000000	0.029053
1520.000000	0.029404
1519.000000	0.029662
1518.000000	0.029931
1517.000000	0.030263
1516.000000	0.030566
1515.000000	0.030733
1514.000000	0.030840
1513.000000	0.031017
1512.000000	0.031289
1511.000000	0.031599
1510.000000	0.031905
1509.000000	0.032201
1508.000000	0.032461
1507.000000	0.032680
1506.000000	0.032793
1505.000000	0.032829
1504.000000	0.032950
1503.000000	0.033160
1502.000000	0.033406
1501.000000	0.033687
1500.000000	0.033997
1499.000000	0.034302
1498.000000	0.034629
1497.000000	0.035028
1496.000000	0.035423
1495.000000	0.035720
1494.000000	0.035977
1493.000000	0.036315
1492.000000	0.036771
1491.000000	0.037286
1490.000000	0.037777
1489.000000	0.038180
1488.000000	0.038481
1487.000000	0.038726
1486.000000	0.038969
1485.000000	0.039250
1484.000000	0.039581
1483.000000	0.039953
1482.000000	0.040364
1481.000000	0.040813
1480.000000	0.041269
1479.000000	0.041723
1478.000000	0.042208
1477.000000	0.042743
1476.000000	0.043275
1475.000000	0.043747
1474.000000	0.044193
1473.000000	0.044685
1472.000000	0.045159
1471.000000	0.045508
1470.000000	0.045796
1469.000000	0.046138
1468.000000	0.046551
1467.000000	0.046994
1466.000000	0.047455
1465.000000	0.047931
1464.000000	0.048355
1463.000000	0.048683
1462.000000	0.049004
1461.000000	0.049421
1460.000000	0.049938
1459.000000	0.050488
1458.000000	0.051050
1457.000000	0.051595
1456.000000	0.051949
1455.000000	0.052124
1454.000000	0.052323
1453.000000	0.052620
1452.000000	0.052966
1451.000000	0.053300
1450.000000	0.053632
1449.000000	0.054003
1448.000000	0.054374
1447.000000	0.054665
1446.000000	0.054888
1445.000000	0.055130
1444.000000	0.055418
1443.000000	0.055715
1442.000000	0.056014
1441.000000	0.056361
1440.000000	0.056779
1439.000000	0.057237
1438.000000	0.057706
1437.000000	0.058136
1436.000000	0.058418
1435.000000	0.058538
1434.000000	0.058657
1433.000000	0.058885
1432.000000	0.059187
1431.000000	0.059476
1430.000000	0.059728
1429.000000	0.059979
1428.000000	0.060234
1427.000000	0.060489
1426.000000	0.060783
1425.000000	0.061144
1424.000000	0.061508
1423.000000	0.061793
1422.000000	0.062057
1421.000000	0.062418
1420.000000	0.062861
1419.000000	0.063234
1418.000000	0.063473
1417.000000	0.063656
1416.000000	0.063816
1415.000000	0.063940
1414.000000	0.064085
1413.000000	0.064326
1412.000000	0.064624
1411.000000	0.064871
1410.000000	0.065061
1409.000000	0.065291
1408.000000	0.065599
1407.000000	0.065929
1406.000000	0.066234
1405.000000	0.066500
1404.000000	0.066683
1403.000000	0.066774
1402.000000	0.066875
1401.000000	0.067077
1400.000000	0.067331
1399.000000	0.067517
1398.000000	0.067654
1397.000000	0.067864
1396.000000	0.068135
1395.000000	0.068322
1394.000000	0.068374
1393.000000	0.068416
1392.000000	0.068533
1391.000000	0.068702
1390.000000	0.068893
1389.000000	0.069097
1388.000000	0.069231
1387.000000	0.069187
1386.000000	0.069005
1385.000000	0.068856
1384.000000	0.068802
1383.000000	0.068785
1382.000000	0.068765
1381.000000	0.068762
1380.000000	0.068754
1379.000000	0.068675
1378.000000	0.068528
1377.000000	0.068402
1376.000000	0.068327
1375.000000	0.068230
1374.000000	0.068055
1373.000000	0.067846
1372.000000	0.067656
1371.000000	0.067481
1370.000000	0.067302
1369.000000	0.067129
1368.000000	0.066964
1367.000000	0.066804
1366.000000	0.066690
1365.000000	0.066658
1364.000000	0.066641
1363.000000	0.066508
1362.000000	0.066223
1361.000000	0.065892
1360.000000	0.065604
1359.000000	0.065359
1358.000000	0.065138
1357.000000	0.064945
1356.000000	0.064763
1355.000000	0.064547
1354.000000	0.064297
1353.000000	0.064061
1352.000000	0.063855
1351.000000	0.063644
1350.000000	0.063410
1349.000000	0.063180
1348.000000	0.062971
1347.000000	0.062762
1346.000000	0.062553
1345.000000	0.062377
1344.000000	0.062250
1343.000000	0.062159
1342.000000	0.062096
1341.000000	0.062060
1340.000000	0.062000
1339.000000	0.061843
1338.000000	0.061590
1337.000000	0.061311
1336.000000	0.061040
1335.000000	0.060758
1334.000000	0.060470
1333.000000	0.060212
1332.000000	0.059985
1331.000000	0.059750
1330.000000	0.059496
1329.000000	0.059254
1328.000000	0.059025
1327.000000	0.058782
1326.000000	0.058525
1325.000000	0.058298
1324.000000	0.058110
1323.000000	0.057926
1322.000000	0.057735
1321.000000	0.057563
1320.000000	0.057407
1319.000000	0.057226
1318.000000	0.057011
1317.000000	0.056798
1316.000000	0.056604
1315.000000	0.056397
1314.000000	0.056163
1313.000000	0.055917
1312.000000	0.055659
1311.000000	0.055377
1310.000000	0.055098
1309.000000	0.054863
1308.000000	0.054661
1307.000000	0.054434
1306.000000	0.054168
1305.000000	0.053912
1304.000000	0.053690
1303.000000	0.053472
1302.000000	0.053236
1301.000000	0.053001
1300.000000	0.052772
1299.000000	0.052528
1298.000000	0.052263
1297.000000	0.052004
1296.000000	0.051752
1295.000000	0.051483
1294.000000	0.051206
1293.000000	0.050964
1292.000000	0.050763
1291.000000	0.050562
1290.000000	0.050343
1289.000000	0.050125
1288.000000	0.049911
1287.000000	0.049677
1286.000000	0.049426
1285.000000	0.049194
1284.000000	0.048983
1283.000000	0.048758
1282.000000	0.048516
1281.000000	0.048300
1280.000000	0.048125
1279.000000	0.047958
1278.000000	0.047786
1277.000000	0.047638
1276.000000	0.047529
1275.000000	0.047430
1274.000000	0.047327
1273.000000	0.047233
1272.000000	0.047145
1271.000000	0.047035
1270.000000	0.046908
1269.000000	0.046813
1268.000000	0.046769
1267.000000	0.046740
1266.000000	0.046701
1265.000000	0.046670
1264.000000	0.046649
1263.000000	0.046606
1262.000000	0.046530
1261.000000	0.046461
1260.000000	0.046421
1259.000000	0.046390
1258.000000	0.046355
1257.000000	0.046331
1256.000000	0.046306
1255.000000	0.046240
1254.000000	0.046123
1253.000000	0.045995
1252.000000	0.045875
1251.000000	0.045743
1250.000000	0.045596
1249.000000	0.045472
1248.000000	0.045384
1247.000000	0.045307
1246.000000	0.045229
1245.000000	0.045175
1244.000000	0.045151
1243.000000	0.045117
1242.000000	0.045055
1241.000000	0.044986
1240.000000	0.044918
1239.000000	0.044813
1238.000000	0.044657
1237.000000	0.044485
1236.000000	0.044323
1235.000000	0.044153
1234.000000	0.043970
1233.000000	0.043801
1232.000000	0.043655
1231.000000	0.043501
1230.000000	0.043315
1229.000000	0.043113
1228.000000	0.042909
1227.000000	0.042684
1226.000000	0.042434
1225.000000	0.042179
1224.000000	0.041925
1223.000000	0.041653
1222.000000	0.041368
1221.000000	0.041106
1220.000000	0.040877
1219.000000	0.040648
1218.000000	0.040402
1217.000000	0.040165
1216.000000	0.039949
1215.000000	0.039732
1214.000000	0.039503
1213.000000	0.039286
1212.000000	0.039098
1211.000000	0.038921
1210.000000	0.038748
1209.000000	0.038596
1208.000000	0.038467
1207.000000	0.038337
1206.000000	0.038198
1205.000000	0.038071
1204.000000	0.037956
1203.000000	0.037820
1202.000000	0.037661
1201.000000	0.037514
1200.000000	0.037397
1199.000000	0.037277
1198.000000	0.037141
1197.000000	0.037015
1196.000000	0.036913
1195.000000	0.036817
1194.000000	0.036717
1193.000000	0.036633
1192.000000	0.036569
1191.000000	0.036495
1190.000000	0.036402
1189.000000	0.036325
1188.000000	0.036279
1187.000000	0.036239
1186.000000	0.036188
1185.000000	0.036151
1184.000000	0.036139
1183.000000	0.036129
1182.000000	0.036109
1181.000000	0.036108
1180.000000	0.036144
1179.000000	0.036196
1178.000000	0.036247
1177.000000	0.036307
1176.000000	0.036371
1175.000000	0.036406
1174.000000	0.036406
1173.000000	0.036409
1172.000000	0.036436
1171.000000	0.036463
1170.000000	0.036477
1169.000000	0.036491
1168.000000	0.036503
1167.000000	0.036486
1166.000000	0.036445
1165.000000	0.036428
1164.000000	0.036447
1163.000000	0.036454
1162.000000	0.036416
1161.000000	0.036357
1160.000000	0.036293
1159.000000	0.036198
1158.000000	0.036065
1157.000000	0.035935
1156.000000	0.035831
1155.000000	0.035726
1154.000000	0.035598
1153.000000	0.035460
1152.000000	0.035305
1151.000000	0.035096
1150.000000	0.034836
1149.000000	0.034584
1148.000000	0.034362
1147.000000	0.034131
1146.000000	0.033869
1145.000000	0.033617
1144.000000	0.033401
1143.000000	0.033192
1142.000000	0.032966
1141.000000	0.032751
1140.000000	0.032565
1139.000000	0.032383
1138.000000	0.032191
1137.000000	0.032022
1136.000000	0.031895
1135.000000	0.031784
1134.000000	0.031676
1133.000000	0.031602
1132.000000	0.031572
1131.000000	0.031542
1130.000000	0.031496
1129.000000	0.031474
1128.000000	0.031492
1127.000000	0.031497
1126.000000	0.031454
1125.000000	0.031399
1124.000000	0.031377
1123.000000	0.031368
1122.000000	0.031342
1121.000000	0.031315
1120.000000	0.031308
1119.000000	0.031302
1118.000000	0.031287
1117.000000	0.031298
1116.000000	0.031357
1115.000000	0.031441
1114.000000	0.031528
1113.000000	0.031629
1112.000000	0.031737
1111.000000	0.031809
1110.000000	0.031841
1109.000000	0.031883
1108.000000	0.031947
1107.000000	0.031971
1106.000000	0.031924
1105.000000	0.031860
1104.000000	0.031838
1103.000000	0.031845
1102.000000	0.031858
1101.000000	0.031898
1100.000000	0.031974
1099.000000	0.032040
1098.000000	0.032067
1097.000000	0.032091
1096.000000	0.032150
1095.000000	0.032226
1094.000000	0.032296
1093.000000	0.032369
1092.000000	0.032449
1091.000000	0.032501
1090.000000	0.032528
1089.000000	0.032574
1088.000000	0.032647
1087.000000	0.032683
1086.000000	0.032650
1085.000000	0.032594
1084.000000	0.032554
1083.000000	0.032508
1082.000000	0.032439
1081.000000	0.032385
1080.000000	0.032366
1079.000000	0.032342
1078.000000	0.032289
1077.000000	0.032239
1076.000000	0.032206
1075.000000	0.032146
1074.000000	0.032047
1073.000000	0.031968
1072.000000	0.031939
1071.000000	0.031911
1070.000000	0.031849
1069.000000	0.031798
1068.000000	0.031790
1067.000000	0.031776
1066.000000	0.031712
1065.000000	0.031631
1064.000000	0.031576
1063.000000	0.031532
1062.000000	0.031488
1061.000000	0.031482
1060.000000	0.031527
1059.000000	0.031569
1058.000000	0.031573
1057.000000	0.031577
1056.000000	0.031612
1055.000000	0.031644
1054.000000	0.031647
1053.000000	0.031675
1052.000000	0.031776
1051.000000	0.031913
1050.000000	0.032029
1049.000000	0.032120
1048.000000	0.032199
1047.000000	0.032254
1046.000000	0.032300
1045.000000	0.032401
1044.000000	0.032569
1043.000000	0.032735
1042.000000	0.032846
1041.000000	0.032926
1040.000000	0.032994
1039.000000	0.033021
1038.000000	0.032998
1037.000000	0.032988
1036.000000	0.033030
1035.000000	0.033079
1034.000000	0.033097
1033.000000	0.033118
1032.000000	0.033170
1031.000000	0.033212
1030.000000	0.033216
1029.000000	0.033218
1028.000000	0.033241
1027.000000	0.033237
1026.000000	0.033178
1025.000000	0.033115
1024.000000	0.033092
1023.000000	0.033072
1022.000000	0.033021
1021.000000	0.032976
1020.000000	0.032961
1019.000000	0.032928
1018.000000	0.032833
1017.000000	0.032716
1016.000000	0.032620
1015.000000	0.032522
1014.000000	0.032388
1013.000000	0.032241
1012.000000	0.032109
1011.000000	0.031967
1010.000000	0.031801
1009.000000	0.031645
1008.000000	0.031511
1007.000000	0.031350
1006.000000	0.031138
1005.000000	0.030929
1004.000000	0.030766
1003.000000	0.030614
1002.000000	0.030432
1001.000000	0.030249
1000.000000	0.030095
999.000000	0.029941
998.000000	0.029749
997.000000	0.029539
996.000000	0.029334
995.000000	0.029117
994.000000	0.028882
993.000000	0.028672
992.000000	0.028509
991.000000	0.028354
990.000000	0.028173
989.000000	0.027986
988.000000	0.027799
987.000000	0.027575
986.000000	0.027312
985.000000	0.027075
984.000000	0.026900
983.000000	0.026734
982.000000	0.026539
981.000000	0.026362
980.000000	0.026247
979.000000	0.026153
978.000000	0.026019
977.000000	0.025858
976.000000	0.025702
975.000000	0.025542
974.000000	0.025363
973.000000	0.025192
972.000000	0.025050
971.000000	0.024906
970.000000	0.024742
969.000000	0.024590
968.000000	0.024471
967.000000	0.024338
966.000000	0.024150
965.000000	0.023945
964.000000	0.023769
963.000000	0.023610
962.000000	0.023449
961.000000	0.023307
960.000000	0.023196
959.000000	0.023068
958.000000	0.022889
957.000000	0.022694
956.000000	0.022527
955.000000	0.022374
954.000000	0.022210
953.000000	0.022053
952.000000	0.021919
951.000000	0.021776
950.000000	0.021597
949.000000	0.021409
948.000000	0.021244
947.000000	0.021103
946.000000	0.020980
945.000000	0.020891
944.000000	0.020817
943.000000	0.020705
942.000000	0.020549
941.000000	0.020410
940.000000	0.020322
939.000000	0.020245
938.000000	0.020148
937.000000	0.020056
936.000000	0.019976
935.000000	0.019854
934.000000	0.019671
933.000000	0.019493
932.000000	0.019372
931.000000	0.019273
930.000000	0.019153
929.000000	0.019025
928.000000	0.018910
927.000000	0.018776
926.000000	0.018607
925.000000	0.018447
924.000000	0.018328
923.000000	0.018211
922.000000	0.018063
921.000000	0.017915
920.000000	0.017789
919.000000	0.017652
918.000000	0.017480
917.000000	0.017313
916.000000	0.017178
915.000000	0.017033
914.000000	0.016840
913.000000	0.016629
912.000000	0.016438
911.000000	0.016251
910.000000	0.016056
909.000000	0.015885
908.000000	0.015742
907.000000	0.015571
906.000000	0.015332
905.000000	0.015073
904.000000	0.014849
903.000000	0.014643
902.000000	0.014430
901.000000	0.014227
900.000000	0.014044
899.000000	0.013846
898.000000	0.013613
897.000000	0.013386
896.000000	0.013195
895.000000	0.013010
894.000000	0.012814
893.000000	0.012643
892.000000	0.012511
891.000000	0.012384
890.000000	0.012299
889.000000	0.012463
888.000000	0.013186
887.000000	0.014751
886.000000	0.017321
885.000000	0.020817
884.000000	0.024867
883.000000	0.028986
882.000000	0.032966
881.000000	0.036990
880.000000	0.041321
879.000000	0.045967
878.000000	0.050728
877.000000	0.055409
876.000000	0.059867
875.000000	0.063978
874.000000	0.067675
873.000000	0.070914
872.000000	0.073473
871.000000	0.074903
870.000000	0.074828
869.000000	0.073224
868.000000	0.070393
867.000000	0.066765
866.000000	0.062795
865.000000	0.058889
864.000000	0.055265
863.000000	0.051947
862.000000	0.048910
861.000000	0.046173
860.000000	0.043728
859.000000	0.041518
858.000000	0.039519
857.000000	0.037763
856.000000	0.036236
855.000000	0.034831
854.000000	0.033474
853.000000	0.032204
852.000000	0.031151
851.000000	0.030529
850.000000	0.030547
849.000000	0.031139
848.000000	0.031753
847.000000	0.031684
846.000000	0.030725
845.000000	0.029325
844.000000	0.028049
843.000000	0.027080
842.000000	0.026320
841.000000	0.025702
840.000000	0.025223
839.000000	0.024811
838.000000	0.024389
837.000000	0.023973
836.000000	0.023597
835.000000	0.023233
834.000000	0.022867
833.000000	0.022573
832.000000	0.022379
831.000000	0.022187
830.000000	0.021925
829.000000	0.021652
828.000000	0.021427
827.000000	0.021186
826.000000	0.020881
825.000000	0.020593
824.000000	0.020381
823.000000	0.020173
822.000000	0.019917
821.000000	0.019707
820.000000	0.019605
819.000000	0.019501
818.000000	0.019280
817.000000	0.019000
816.000000	0.018776
815.000000	0.018608
814.000000	0.018439
813.000000	0.018294
812.000000	0.018210
811.000000	0.018141
810.000000	0.018036
809.000000	0.017945
808.000000	0.017919
807.000000	0.017905
806.000000	0.017845
805.000000	0.017781
804.000000	0.017745
803.000000	0.017675
802.000000	0.017534
801.000000	0.017419
800.000000	0.017420
799.000000	0.017469
798.000000	0.017451
797.000000	0.017368
796.000000	0.017279
795.000000	0.017184
794.000000	0.017080
793.000000	0.017030
792.000000	0.017060
791.000000	0.017076
790.000000	0.017000
789.000000	0.016898
788.000000	0.016861
787.000000	0.016859
786.000000	0.016813
785.000000	0.016731
784.000000	0.016666
783.000000	0.016617
782.000000	0.016564
781.000000	0.016538
780.000000	0.016553
779.000000	0.016557
778.000000	0.016528
777.000000	0.016523
776.000000	0.016558
775.000000	0.016535
774.000000	0.016389
773.000000	0.016200
772.000000	0.016072
771.000000	0.015992
770.000000	0.015901
769.000000	0.015815
768.000000	0.015771
767.000000	0.015731
766.000000	0.015664
765.000000	0.015626
764.000000	0.015661
763.000000	0.015708
762.000000	0.015694
761.000000	0.015645
760.000000	0.015612
759.000000	0.015571
758.000000	0.015487
757.000000	0.015403
756.000000	0.015365
755.000000	0.015331
754.000000	0.015259
753.000000	0.015194
752.000000	0.015177
751.000000	0.015150
750.000000	0.015055
749.000000	0.014951
748.000000	0.014920
747.000000	0.014931
746.000000	0.014909
745.000000	0.014857
744.000000	0.014821
743.000000	0.014790
742.000000	0.014734
741.000000	0.014677
740.000000	0.014644
739.000000	0.014585
738.000000	0.014448
737.000000	0.014274
736.000000	0.014138
735.000000	0.014046
734.000000	0.013971
733.000000	0.013930
732.000000	0.013937
731.000000	0.013929
730.000000	0.013837
729.000000	0.013697
728.000000	0.013583
727.000000	0.013483
726.000000	0.013362
725.000000	0.013260
724.000000	0.013221
723.000000	0.013216
722.000000	0.013232
721.000000	0.013361
720.000000	0.013713
719.000000	0.014365
718.000000	0.015518
717.000000	0.017658
716.000000	0.021389
715.000000	0.026935
714.000000	0.033641
713.000000	0.039899
712.000000	0.043749
711.000000	0.044062
710.000000	0.041317
709.000000	0.037157
708.000000	0.033155
707.000000	0.029986
706.000000	0.027643
705.000000	0.025985
704.000000	0.024867
703.000000	0.024072
702.000000	0.023407
701.000000	0.022834
700.000000	0.022399
699.000000	0.022046
698.000000	0.021686
697.000000	0.021351
696.000000	0.021094
695.000000	0.020876
694.000000	0.020610
693.000000	0.020279
692.000000	0.019960
691.000000	0.019665
690.000000	0.019373
689.000000	0.019114
688.000000	0.018934
687.000000	0.018822
686.000000	0.018712
685.000000	0.018570
684.000000	0.018428
683.000000	0.018294
682.000000	0.018135
681.000000	0.017986
680.000000	0.017974
679.000000	0.018135
678.000000	0.018298
677.000000	0.018350
676.000000	0.018338
675.000000	0.018303
674.000000	0.018186
673.000000	0.017918
672.000000	0.017411
671.000000	0.016471
670.000000	0.014901
669.000000	0.012965
668.000000	0.012090
667.000000	0.013297
666.000000	0.014890
665.000000	0.016210
664.000000	0.017256
663.000000	0.017805
662.000000	0.017819
661.000000	0.017632
660.000000	0.017545
659.000000	0.017487
658.000000	0.017300
657.000000	0.017144
656.000000	0.017156
655.000000	0.017135
654.000000	0.016952
653.000000	0.016838
652.000000	0.016906
651.000000	0.016927
650.000000	0.016794
649.000000	0.016777
648.000000	0.017010
647.000000	0.017212
646.000000	0.017222
645.000000	0.017267
644.000000	0.017484
643.000000	0.017668
642.000000	0.017660
641.000000	0.017649
640.000000	0.017797
639.000000	0.017921
638.000000	0.017862
637.000000	0.017786
636.000000	0.017838
635.000000	0.017886
634.000000	0.017834
633.000000	0.017817
632.000000	0.017906
631.000000	0.017936
630.000000	0.017854
629.000000	0.017887
628.000000	0.018111
627.000000	0.018233
626.000000	0.018067
625.000000	0.017822
624.000000	0.017704
623.000000	0.017622
622.000000	0.017487
621.000000	0.017464
620.000000	0.017658
619.000000	0.017885
618.000000	0.017983
617.000000	0.018058
616.000000	0.018206
615.000000	0.018290
614.000000	0.018234
613.000000	0.018215
612.000000	0.018324
611.000000	0.018370
610.000000	0.018242
609.000000	0.018137
608.000000	0.018197
607.000000	0.018229
606.000000	0.018084
605.000000	0.017925
604.000000	0.017894
603.000000	0.017861
602.000000	0.017705
601.000000	0.017555
600.000000	0.017516
599.000000	0.017468
598.000000	0.017346
597.000000	0.017308
596.000000	0.017410
595.000000	0.017437
594.000000	0.017259
593.000000	0.017063
592.000000	0.016996
591.000000	0.016921
590.000000	0.016760
589.000000	0.016699
588.000000	0.016817
587.000000	0.016862
586.000000	0.016676
585.000000	0.016481
584.000000	0.016489
583.000000	0.016558
582.000000	0.016512
581.000000	0.016453
580.000000	0.016483
579.000000	0.016458
578.000000	0.016317
577.000000	0.016291
576.000000	0.016490
575.000000	0.016643
574.000000	0.016548
573.000000	0.016406
572.000000	0.016389
571.000000	0.016308
570.000000	0.016008
569.000000	0.015743
568.000000	0.015764
567.000000	0.015904
566.000000	0.015915
565.000000	0.015866
564.000000	0.015890
563.000000	0.015857
562.000000	0.015675
561.000000	0.015542
560.000000	0.015591
559.000000	0.015628
558.000000	0.015519
557.000000	0.015473
556.000000	0.015631
555.000000	0.015739
554.000000	0.015576
553.000000	0.015349
552.000000	0.015312
551.000000	0.015347
550.000000	0.015274
549.000000	0.015215
548.000000	0.015301
547.000000	0.015366
546.000000	0.015274
545.000000	0.015214
544.000000	0.015322
543.000000	0.015405
542.000000	0.015337
541.000000	0.015351
540.000000	0.015591
539.000000	0.015793
538.000000	0.015735
537.000000	0.015615
536.000000	0.015642
535.000000	0.015646
534.000000	0.015466
533.000000	0.015298
532.000000	0.015321
531.000000	0.015379
530.000000	0.015352
529.000000	0.015456
528.000000	0.015805
527.000000	0.016086
526.000000	0.016060
525.000000	0.016009
524.000000	0.016216
523.000000	0.016473
522.000000	0.016524
521.000000	0.016515
520.000000	0.016622
519.000000	0.016653
518.000000	0.016420
517.000000	0.016146
516.000000	0.016058
515.000000	0.016002
514.000000	0.015863
513.000000	0.015848
512.000000	0.016021
511.000000	0.016012
510.000000	0.015590
509.000000	0.015104
508.000000	0.014964
507.000000	0.015086
506.000000	0.015213
505.000000	0.015377
504.000000	0.015600
503.000000	0.015599
502.000000	0.015223
501.000000	0.014807
500.000000	0.014625
499.000000	0.014492
498.000000	0.014281
497.000000	0.014263
496.000000	0.014570
495.000000	0.014818
494.000000	0.014676
493.000000	0.014383
492.000000	0.014275
491.000000	0.014255
490.000000	0.014180
489.000000	0.014252
488.000000	0.014566
487.000000	0.014779
486.000000	0.014680
485.000000	0.014613
484.000000	0.014883
483.000000	0.015193
482.000000	0.015217
481.000000	0.015163
480.000000	0.015236
479.000000	0.015146
478.000000	0.014721
477.000000	0.014409
476.000000	0.014633
475.000000	0.015148
474.000000	0.015586
473.000000	0.016094
472.000000	0.016840
471.000000	0.017386
470.000000	0.017358
469.000000	0.017035
468.000000	0.016714
467.000000	0.016218
466.000000	0.015495
465.000000	0.014978
464.000000	0.014846
463.000000	0.014653
462.000000	0.014188
461.000000	0.013995
460.000000	0.014421
459.000000	0.014876
458.000000	0.014684
457.000000	0.014129
456.000000	0.013771
455.000000	0.013466
454.000000	0.013053
453.000000	0.012920
452.000000	0.013244
451.000000	0.013417
450.000000	0.013014
