PE IR       SUBTECH     SPECTRUM    ASCII       PEDS        4.00        
   -1
P8-Or041_1.ASC
23/06/13
16:01:51.00
23/06/13
16:11:22.00
uco
Sample 041 By uco Date Tuesday, June 13 2023
450.000000
#HDR
-1
-1
#GR
cm-1
A
1.0
0.0
4000.000000
-1.000000
3551
8
0.045047
0.004882
#DATA
4000.000000	0.007491
3999.000000	0.007521
3998.000000	0.007505
3997.000000	0.007496
3996.000000	0.007476
3995.000000	0.007464
3994.000000	0.007471
3993.000000	0.007493
3992.000000	0.007513
3991.000000	0.007516
3990.000000	0.007499
3989.000000	0.007480
3988.000000	0.007476
3987.000000	0.007491
3986.000000	0.007514
3985.000000	0.007525
3984.000000	0.007512
3983.000000	0.007484
3982.000000	0.007461
3981.000000	0.007460
3980.000000	0.007481
3979.000000	0.007508
3978.000000	0.007522
3977.000000	0.007515
3976.000000	0.007500
3975.000000	0.007496
3974.000000	0.007515
3973.000000	0.007553
3972.000000	0.007590
3971.000000	0.007608
3970.000000	0.007600
3969.000000	0.007578
3968.000000	0.007559
3967.000000	0.007552
3966.000000	0.007556
3965.000000	0.007561
3964.000000	0.007559
3963.000000	0.007554
3962.000000	0.007554
3961.000000	0.007562
3960.000000	0.007572
3959.000000	0.007573
3958.000000	0.007563
3957.000000	0.007545
3956.000000	0.007527
3955.000000	0.007516
3954.000000	0.007518
3953.000000	0.007533
3952.000000	0.007557
3951.000000	0.007584
3950.000000	0.007608
3949.000000	0.007629
3948.000000	0.007643
3947.000000	0.007645
3946.000000	0.007630
3945.000000	0.007599
3944.000000	0.007570
3943.000000	0.007563
3942.000000	0.007582
3941.000000	0.007604
3940.000000	0.007604
3939.000000	0.007582
3938.000000	0.007560
3937.000000	0.007562
3936.000000	0.007586
3935.000000	0.007614
3934.000000	0.007631
3933.000000	0.007633
3932.000000	0.007622
3931.000000	0.007606
3930.000000	0.007594
3929.000000	0.007589
3928.000000	0.007583
3927.000000	0.007569
3926.000000	0.007553
3925.000000	0.007558
3924.000000	0.007592
3923.000000	0.007635
3922.000000	0.007661
3921.000000	0.007673
3920.000000	0.007683
3919.000000	0.007697
3918.000000	0.007708
3917.000000	0.007707
3916.000000	0.007697
3915.000000	0.007674
3914.000000	0.007641
3913.000000	0.007605
3912.000000	0.007579
3911.000000	0.007574
3910.000000	0.007587
3909.000000	0.007609
3908.000000	0.007631
3907.000000	0.007650
3906.000000	0.007676
3905.000000	0.007727
3904.000000	0.007808
3903.000000	0.007883
3902.000000	0.007899
3901.000000	0.007847
3900.000000	0.007773
3899.000000	0.007730
3898.000000	0.007731
3897.000000	0.007751
3896.000000	0.007768
3895.000000	0.007778
3894.000000	0.007771
3893.000000	0.007748
3892.000000	0.007735
3891.000000	0.007769
3890.000000	0.007846
3889.000000	0.007910
3888.000000	0.007907
3887.000000	0.007842
3886.000000	0.007779
3885.000000	0.007770
3884.000000	0.007793
3883.000000	0.007791
3882.000000	0.007745
3881.000000	0.007700
3880.000000	0.007707
3879.000000	0.007762
3878.000000	0.007808
3877.000000	0.007805
3876.000000	0.007760
3875.000000	0.007731
3874.000000	0.007771
3873.000000	0.007856
3872.000000	0.007913
3871.000000	0.007913
3870.000000	0.007905
3869.000000	0.007924
3868.000000	0.007929
3867.000000	0.007884
3866.000000	0.007814
3865.000000	0.007775
3864.000000	0.007782
3863.000000	0.007802
3862.000000	0.007806
3861.000000	0.007805
3860.000000	0.007822
3859.000000	0.007873
3858.000000	0.007950
3857.000000	0.008023
3856.000000	0.008045
3855.000000	0.007992
3854.000000	0.007939
3853.000000	0.007974
3852.000000	0.008029
3851.000000	0.008012
3850.000000	0.007943
3849.000000	0.007879
3848.000000	0.007851
3847.000000	0.007851
3846.000000	0.007856
3845.000000	0.007848
3844.000000	0.007829
3843.000000	0.007816
3842.000000	0.007820
3841.000000	0.007831
3840.000000	0.007840
3839.000000	0.007860
3838.000000	0.007897
3837.000000	0.007936
3836.000000	0.007954
3835.000000	0.007938
3834.000000	0.007895
3833.000000	0.007843
3832.000000	0.007807
3831.000000	0.007801
3830.000000	0.007807
3829.000000	0.007791
3828.000000	0.007745
3827.000000	0.007714
3826.000000	0.007749
3825.000000	0.007846
3824.000000	0.007935
3823.000000	0.007950
3822.000000	0.007899
3821.000000	0.007871
3820.000000	0.007901
3819.000000	0.007928
3818.000000	0.007901
3817.000000	0.007843
3816.000000	0.007820
3815.000000	0.007837
3814.000000	0.007830
3813.000000	0.007774
3812.000000	0.007714
3811.000000	0.007695
3810.000000	0.007713
3809.000000	0.007727
3808.000000	0.007735
3807.000000	0.007781
3806.000000	0.007879
3805.000000	0.007960
3804.000000	0.007948
3803.000000	0.007842
3802.000000	0.007733
3801.000000	0.007718
3800.000000	0.007773
3799.000000	0.007805
3798.000000	0.007791
3797.000000	0.007765
3796.000000	0.007762
3795.000000	0.007769
3794.000000	0.007753
3793.000000	0.007709
3792.000000	0.007657
3791.000000	0.007616
3790.000000	0.007591
3789.000000	0.007579
3788.000000	0.007575
3787.000000	0.007577
3786.000000	0.007583
3785.000000	0.007602
3784.000000	0.007636
3783.000000	0.007673
3782.000000	0.007695
3781.000000	0.007691
3780.000000	0.007675
3779.000000	0.007666
3778.000000	0.007660
3777.000000	0.007643
3776.000000	0.007622
3775.000000	0.007626
3774.000000	0.007670
3773.000000	0.007733
3772.000000	0.007780
3771.000000	0.007806
3770.000000	0.007827
3769.000000	0.007839
3768.000000	0.007814
3767.000000	0.007751
3766.000000	0.007689
3765.000000	0.007674
3764.000000	0.007705
3763.000000	0.007736
3762.000000	0.007733
3761.000000	0.007706
3760.000000	0.007685
3759.000000	0.007689
3758.000000	0.007720
3757.000000	0.007771
3756.000000	0.007837
3755.000000	0.007909
3754.000000	0.007982
3753.000000	0.008063
3752.000000	0.008142
3751.000000	0.008204
3750.000000	0.008248
3749.000000	0.008292
3748.000000	0.008332
3747.000000	0.008330
3746.000000	0.008270
3745.000000	0.008207
3744.000000	0.008198
3743.000000	0.008187
3742.000000	0.008106
3741.000000	0.007993
3740.000000	0.007916
3739.000000	0.007894
3738.000000	0.007894
3737.000000	0.007885
3736.000000	0.007852
3735.000000	0.007779
3734.000000	0.007674
3733.000000	0.007592
3732.000000	0.007584
3731.000000	0.007646
3730.000000	0.007727
3729.000000	0.007784
3728.000000	0.007807
3727.000000	0.007811
3726.000000	0.007809
3725.000000	0.007798
3724.000000	0.007783
3723.000000	0.007776
3722.000000	0.007787
3721.000000	0.007802
3720.000000	0.007799
3719.000000	0.007779
3718.000000	0.007767
3717.000000	0.007784
3716.000000	0.007826
3715.000000	0.007873
3714.000000	0.007928
3713.000000	0.008013
3712.000000	0.008127
3711.000000	0.008218
3710.000000	0.008215
3709.000000	0.008108
3708.000000	0.007950
3707.000000	0.007809
3706.000000	0.007718
3705.000000	0.007656
3704.000000	0.007583
3703.000000	0.007489
3702.000000	0.007408
3701.000000	0.007380
3700.000000	0.007404
3699.000000	0.007449
3698.000000	0.007491
3697.000000	0.007537
3696.000000	0.007597
3695.000000	0.007672
3694.000000	0.007748
3693.000000	0.007804
3692.000000	0.007810
3691.000000	0.007748
3690.000000	0.007651
3689.000000	0.007592
3688.000000	0.007615
3687.000000	0.007687
3686.000000	0.007747
3685.000000	0.007769
3684.000000	0.007769
3683.000000	0.007771
3682.000000	0.007774
3681.000000	0.007777
3680.000000	0.007807
3679.000000	0.007875
3678.000000	0.007936
3677.000000	0.007938
3676.000000	0.007917
3675.000000	0.007963
3674.000000	0.008062
3673.000000	0.008112
3672.000000	0.008064
3671.000000	0.007957
3670.000000	0.007869
3669.000000	0.007837
3668.000000	0.007820
3667.000000	0.007786
3666.000000	0.007743
3665.000000	0.007707
3664.000000	0.007680
3663.000000	0.007660
3662.000000	0.007651
3661.000000	0.007667
3660.000000	0.007711
3659.000000	0.007763
3658.000000	0.007803
3657.000000	0.007838
3656.000000	0.007899
3655.000000	0.007987
3654.000000	0.008069
3653.000000	0.008115
3652.000000	0.008131
3651.000000	0.008142
3650.000000	0.008162
3649.000000	0.008163
3648.000000	0.008114
3647.000000	0.008035
3646.000000	0.007967
3645.000000	0.007924
3644.000000	0.007901
3643.000000	0.007892
3642.000000	0.007890
3641.000000	0.007881
3640.000000	0.007858
3639.000000	0.007834
3638.000000	0.007833
3637.000000	0.007857
3636.000000	0.007887
3635.000000	0.007920
3634.000000	0.007973
3633.000000	0.008050
3632.000000	0.008126
3631.000000	0.008166
3630.000000	0.008176
3629.000000	0.008195
3628.000000	0.008225
3627.000000	0.008220
3626.000000	0.008162
3625.000000	0.008085
3624.000000	0.008014
3623.000000	0.007934
3622.000000	0.007808
3621.000000	0.007639
3620.000000	0.007508
3619.000000	0.007524
3618.000000	0.007700
3617.000000	0.007937
3616.000000	0.008127
3615.000000	0.008232
3614.000000	0.008284
3613.000000	0.008328
3612.000000	0.008379
3611.000000	0.008418
3610.000000	0.008423
3609.000000	0.008390
3608.000000	0.008322
3607.000000	0.008232
3606.000000	0.008135
3605.000000	0.008049
3604.000000	0.007993
3603.000000	0.007982
3602.000000	0.008015
3601.000000	0.008069
3600.000000	0.008117
3599.000000	0.008139
3598.000000	0.008144
3597.000000	0.008153
3596.000000	0.008183
3595.000000	0.008236
3594.000000	0.008295
3593.000000	0.008339
3592.000000	0.008363
3591.000000	0.008373
3590.000000	0.008376
3589.000000	0.008375
3588.000000	0.008380
3587.000000	0.008403
3586.000000	0.008435
3585.000000	0.008453
3584.000000	0.008443
3583.000000	0.008414
3582.000000	0.008381
3581.000000	0.008355
3580.000000	0.008345
3579.000000	0.008356
3578.000000	0.008383
3577.000000	0.008415
3576.000000	0.008445
3575.000000	0.008468
3574.000000	0.008485
3573.000000	0.008499
3572.000000	0.008518
3571.000000	0.008549
3570.000000	0.008585
3569.000000	0.008618
3568.000000	0.008644
3567.000000	0.008671
3566.000000	0.008695
3565.000000	0.008703
3564.000000	0.008689
3563.000000	0.008661
3562.000000	0.008634
3561.000000	0.008617
3560.000000	0.008613
3559.000000	0.008622
3558.000000	0.008644
3557.000000	0.008674
3556.000000	0.008707
3555.000000	0.008734
3554.000000	0.008749
3553.000000	0.008751
3552.000000	0.008752
3551.000000	0.008763
3550.000000	0.008780
3549.000000	0.008793
3548.000000	0.008805
3547.000000	0.008822
3546.000000	0.008844
3545.000000	0.008863
3544.000000	0.008874
3543.000000	0.008884
3542.000000	0.008896
3541.000000	0.008903
3540.000000	0.008903
3539.000000	0.008902
3538.000000	0.008911
3537.000000	0.008937
3536.000000	0.008978
3535.000000	0.009025
3534.000000	0.009065
3533.000000	0.009083
3532.000000	0.009075
3531.000000	0.009053
3530.000000	0.009036
3529.000000	0.009035
3528.000000	0.009054
3527.000000	0.009080
3526.000000	0.009097
3525.000000	0.009092
3524.000000	0.009072
3523.000000	0.009057
3522.000000	0.009056
3521.000000	0.009065
3520.000000	0.009074
3519.000000	0.009083
3518.000000	0.009100
3517.000000	0.009126
3516.000000	0.009159
3515.000000	0.009191
3514.000000	0.009207
3513.000000	0.009193
3512.000000	0.009149
3511.000000	0.009100
3510.000000	0.009082
3509.000000	0.009107
3508.000000	0.009162
3507.000000	0.009218
3506.000000	0.009260
3505.000000	0.009284
3504.000000	0.009302
3503.000000	0.009324
3502.000000	0.009350
3501.000000	0.009367
3500.000000	0.009365
3499.000000	0.009348
3498.000000	0.009334
3497.000000	0.009340
3496.000000	0.009372
3495.000000	0.009417
3494.000000	0.009451
3493.000000	0.009457
3492.000000	0.009439
3491.000000	0.009423
3490.000000	0.009426
3489.000000	0.009445
3488.000000	0.009464
3487.000000	0.009476
3486.000000	0.009485
3485.000000	0.009495
3484.000000	0.009510
3483.000000	0.009534
3482.000000	0.009569
3481.000000	0.009606
3480.000000	0.009631
3479.000000	0.009633
3478.000000	0.009617
3477.000000	0.009602
3476.000000	0.009607
3475.000000	0.009644
3474.000000	0.009702
3473.000000	0.009756
3472.000000	0.009787
3471.000000	0.009792
3470.000000	0.009784
3469.000000	0.009771
3468.000000	0.009762
3467.000000	0.009765
3466.000000	0.009778
3465.000000	0.009793
3464.000000	0.009796
3463.000000	0.009787
3462.000000	0.009778
3461.000000	0.009781
3460.000000	0.009800
3459.000000	0.009830
3458.000000	0.009869
3457.000000	0.009908
3456.000000	0.009935
3455.000000	0.009947
3454.000000	0.009943
3453.000000	0.009934
3452.000000	0.009934
3451.000000	0.009948
3450.000000	0.009969
3449.000000	0.009985
3448.000000	0.009992
3447.000000	0.010005
3446.000000	0.010031
3445.000000	0.010062
3444.000000	0.010088
3443.000000	0.010110
3442.000000	0.010135
3441.000000	0.010165
3440.000000	0.010190
3439.000000	0.010210
3438.000000	0.010230
3437.000000	0.010254
3436.000000	0.010278
3435.000000	0.010299
3434.000000	0.010312
3433.000000	0.010321
3432.000000	0.010329
3431.000000	0.010336
3430.000000	0.010341
3429.000000	0.010344
3428.000000	0.010347
3427.000000	0.010354
3426.000000	0.010367
3425.000000	0.010387
3424.000000	0.010412
3423.000000	0.010433
3422.000000	0.010439
3421.000000	0.010434
3420.000000	0.010432
3419.000000	0.010448
3418.000000	0.010480
3417.000000	0.010514
3416.000000	0.010537
3415.000000	0.010545
3414.000000	0.010541
3413.000000	0.010532
3412.000000	0.010531
3411.000000	0.010550
3410.000000	0.010583
3409.000000	0.010617
3408.000000	0.010639
3407.000000	0.010649
3406.000000	0.010646
3405.000000	0.010632
3404.000000	0.010614
3403.000000	0.010604
3402.000000	0.010611
3401.000000	0.010631
3400.000000	0.010650
3399.000000	0.010658
3398.000000	0.010654
3397.000000	0.010648
3396.000000	0.010657
3395.000000	0.010687
3394.000000	0.010729
3393.000000	0.010767
3392.000000	0.010787
3391.000000	0.010788
3390.000000	0.010777
3389.000000	0.010764
3388.000000	0.010761
3387.000000	0.010776
3386.000000	0.010808
3385.000000	0.010842
3384.000000	0.010866
3383.000000	0.010875
3382.000000	0.010876
3381.000000	0.010875
3380.000000	0.010874
3379.000000	0.010875
3378.000000	0.010881
3377.000000	0.010890
3376.000000	0.010902
3375.000000	0.010917
3374.000000	0.010936
3373.000000	0.010950
3372.000000	0.010955
3371.000000	0.010958
3370.000000	0.010968
3369.000000	0.010989
3368.000000	0.011014
3367.000000	0.011035
3366.000000	0.011050
3365.000000	0.011058
3364.000000	0.011063
3363.000000	0.011071
3362.000000	0.011085
3361.000000	0.011107
3360.000000	0.011134
3359.000000	0.011163
3358.000000	0.011192
3357.000000	0.011223
3356.000000	0.011259
3355.000000	0.011297
3354.000000	0.011329
3353.000000	0.011347
3352.000000	0.011354
3351.000000	0.011364
3350.000000	0.011390
3349.000000	0.011427
3348.000000	0.011459
3347.000000	0.011471
3346.000000	0.011464
3345.000000	0.011447
3344.000000	0.011432
3343.000000	0.011426
3342.000000	0.011432
3341.000000	0.011445
3340.000000	0.011462
3339.000000	0.011487
3338.000000	0.011518
3337.000000	0.011548
3336.000000	0.011567
3335.000000	0.011575
3334.000000	0.011579
3333.000000	0.011591
3332.000000	0.011616
3331.000000	0.011651
3330.000000	0.011690
3329.000000	0.011720
3328.000000	0.011732
3327.000000	0.011727
3326.000000	0.011717
3325.000000	0.011719
3324.000000	0.011742
3323.000000	0.011777
3322.000000	0.011813
3321.000000	0.011841
3320.000000	0.011866
3319.000000	0.011895
3318.000000	0.011927
3317.000000	0.011950
3316.000000	0.011953
3315.000000	0.011933
3314.000000	0.011904
3313.000000	0.011880
3312.000000	0.011875
3311.000000	0.011889
3310.000000	0.011915
3309.000000	0.011943
3308.000000	0.011971
3307.000000	0.012004
3306.000000	0.012043
3305.000000	0.012079
3304.000000	0.012106
3303.000000	0.012123
3302.000000	0.012136
3301.000000	0.012150
3300.000000	0.012171
3299.000000	0.012199
3298.000000	0.012225
3297.000000	0.012243
3296.000000	0.012247
3295.000000	0.012246
3294.000000	0.012249
3293.000000	0.012263
3292.000000	0.012287
3291.000000	0.012312
3290.000000	0.012324
3289.000000	0.012310
3288.000000	0.012272
3287.000000	0.012227
3286.000000	0.012189
3285.000000	0.012166
3284.000000	0.012157
3283.000000	0.012164
3282.000000	0.012185
3281.000000	0.012214
3280.000000	0.012241
3279.000000	0.012261
3278.000000	0.012277
3277.000000	0.012289
3276.000000	0.012295
3275.000000	0.012288
3274.000000	0.012266
3273.000000	0.012240
3272.000000	0.012229
3271.000000	0.012240
3270.000000	0.012263
3269.000000	0.012270
3268.000000	0.012244
3267.000000	0.012192
3266.000000	0.012141
3265.000000	0.012111
3264.000000	0.012105
3263.000000	0.012111
3262.000000	0.012111
3261.000000	0.012100
3260.000000	0.012085
3259.000000	0.012080
3258.000000	0.012084
3257.000000	0.012088
3256.000000	0.012080
3255.000000	0.012055
3254.000000	0.012016
3253.000000	0.011970
3252.000000	0.011928
3251.000000	0.011901
3250.000000	0.011889
3249.000000	0.011876
3248.000000	0.011849
3247.000000	0.011815
3246.000000	0.011790
3245.000000	0.011787
3244.000000	0.011798
3243.000000	0.011805
3242.000000	0.011793
3241.000000	0.011755
3240.000000	0.011705
3239.000000	0.011665
3238.000000	0.011651
3237.000000	0.011656
3236.000000	0.011663
3235.000000	0.011660
3234.000000	0.011646
3233.000000	0.011633
3232.000000	0.011626
3231.000000	0.011628
3230.000000	0.011632
3229.000000	0.011633
3228.000000	0.011627
3227.000000	0.011619
3226.000000	0.011609
3225.000000	0.011597
3224.000000	0.011582
3223.000000	0.011567
3222.000000	0.011559
3221.000000	0.011553
3220.000000	0.011545
3219.000000	0.011533
3218.000000	0.011518
3217.000000	0.011505
3216.000000	0.011498
3215.000000	0.011503
3214.000000	0.011519
3213.000000	0.011534
3212.000000	0.011531
3211.000000	0.011506
3210.000000	0.011471
3209.000000	0.011439
3208.000000	0.011417
3207.000000	0.011409
3206.000000	0.011408
3205.000000	0.011406
3204.000000	0.011400
3203.000000	0.011396
3202.000000	0.011399
3201.000000	0.011402
3200.000000	0.011396
3199.000000	0.011377
3198.000000	0.011353
3197.000000	0.011330
3196.000000	0.011306
3195.000000	0.011282
3194.000000	0.011263
3193.000000	0.011253
3192.000000	0.011251
3191.000000	0.011252
3190.000000	0.011249
3189.000000	0.011241
3188.000000	0.011225
3187.000000	0.011200
3186.000000	0.011163
3185.000000	0.011116
3184.000000	0.011073
3183.000000	0.011050
3182.000000	0.011055
3181.000000	0.011079
3180.000000	0.011099
3179.000000	0.011101
3178.000000	0.011086
3177.000000	0.011067
3176.000000	0.011053
3175.000000	0.011045
3174.000000	0.011034
3173.000000	0.011012
3172.000000	0.010981
3171.000000	0.010951
3170.000000	0.010928
3169.000000	0.010908
3168.000000	0.010890
3167.000000	0.010874
3166.000000	0.010863
3165.000000	0.010855
3164.000000	0.010848
3163.000000	0.010846
3162.000000	0.010848
3161.000000	0.010848
3160.000000	0.010837
3159.000000	0.010816
3158.000000	0.010792
3157.000000	0.010773
3156.000000	0.010762
3155.000000	0.010762
3154.000000	0.010769
3153.000000	0.010770
3152.000000	0.010753
3151.000000	0.010717
3150.000000	0.010675
3149.000000	0.010643
3148.000000	0.010632
3147.000000	0.010641
3146.000000	0.010655
3145.000000	0.010658
3144.000000	0.010645
3143.000000	0.010620
3142.000000	0.010591
3141.000000	0.010563
3140.000000	0.010537
3139.000000	0.010517
3138.000000	0.010512
3137.000000	0.010519
3136.000000	0.010529
3135.000000	0.010534
3134.000000	0.010531
3133.000000	0.010523
3132.000000	0.010517
3131.000000	0.010514
3130.000000	0.010509
3129.000000	0.010494
3128.000000	0.010471
3127.000000	0.010452
3126.000000	0.010450
3125.000000	0.010462
3124.000000	0.010480
3123.000000	0.010494
3122.000000	0.010499
3121.000000	0.010489
3120.000000	0.010467
3119.000000	0.010438
3118.000000	0.010417
3117.000000	0.010406
3116.000000	0.010402
3115.000000	0.010397
3114.000000	0.010387
3113.000000	0.010370
3112.000000	0.010354
3111.000000	0.010350
3110.000000	0.010365
3109.000000	0.010388
3108.000000	0.010404
3107.000000	0.010405
3106.000000	0.010397
3105.000000	0.010385
3104.000000	0.010372
3103.000000	0.010356
3102.000000	0.010340
3101.000000	0.010333
3100.000000	0.010340
3099.000000	0.010358
3098.000000	0.010376
3097.000000	0.010385
3096.000000	0.010382
3095.000000	0.010372
3094.000000	0.010356
3093.000000	0.010334
3092.000000	0.010315
3091.000000	0.010311
3090.000000	0.010327
3089.000000	0.010356
3088.000000	0.010378
3087.000000	0.010387
3086.000000	0.010386
3085.000000	0.010386
3084.000000	0.010395
3083.000000	0.010416
3082.000000	0.010443
3081.000000	0.010466
3080.000000	0.010471
3079.000000	0.010460
3078.000000	0.010444
3077.000000	0.010434
3076.000000	0.010436
3075.000000	0.010443
3074.000000	0.010445
3073.000000	0.010439
3072.000000	0.010430
3071.000000	0.010424
3070.000000	0.010427
3069.000000	0.010432
3068.000000	0.010435
3067.000000	0.010433
3066.000000	0.010432
3065.000000	0.010431
3064.000000	0.010430
3063.000000	0.010429
3062.000000	0.010429
3061.000000	0.010427
3060.000000	0.010420
3059.000000	0.010405
3058.000000	0.010387
3057.000000	0.010374
3056.000000	0.010373
3055.000000	0.010384
3054.000000	0.010396
3053.000000	0.010399
3052.000000	0.010383
3051.000000	0.010352
3050.000000	0.010315
3049.000000	0.010284
3048.000000	0.010265
3047.000000	0.010255
3046.000000	0.010249
3045.000000	0.010248
3044.000000	0.010255
3043.000000	0.010273
3042.000000	0.010293
3041.000000	0.010300
3040.000000	0.010291
3039.000000	0.010273
3038.000000	0.010261
3037.000000	0.010260
3036.000000	0.010266
3035.000000	0.010273
3034.000000	0.010280
3033.000000	0.010284
3032.000000	0.010282
3031.000000	0.010268
3030.000000	0.010242
3029.000000	0.010212
3028.000000	0.010189
3027.000000	0.010172
3026.000000	0.010160
3025.000000	0.010151
3024.000000	0.010146
3023.000000	0.010148
3022.000000	0.010153
3021.000000	0.010159
3020.000000	0.010163
3019.000000	0.010162
3018.000000	0.010156
3017.000000	0.010144
3016.000000	0.010128
3015.000000	0.010116
3014.000000	0.010112
3013.000000	0.010113
3012.000000	0.010115
3011.000000	0.010115
3010.000000	0.010113
3009.000000	0.010113
3008.000000	0.010118
3007.000000	0.010127
3006.000000	0.010134
3005.000000	0.010129
3004.000000	0.010114
3003.000000	0.010095
3002.000000	0.010083
3001.000000	0.010085
3000.000000	0.010100
2999.000000	0.010127
2998.000000	0.010158
2997.000000	0.010188
2996.000000	0.010215
2995.000000	0.010239
2994.000000	0.010262
2993.000000	0.010286
2992.000000	0.010311
2991.000000	0.010340
2990.000000	0.010378
2989.000000	0.010427
2988.000000	0.010486
2987.000000	0.010549
2986.000000	0.010604
2985.000000	0.010647
2984.000000	0.010683
2983.000000	0.010721
2982.000000	0.010763
2981.000000	0.010802
2980.000000	0.010834
2979.000000	0.010863
2978.000000	0.010899
2977.000000	0.010949
2976.000000	0.011011
2975.000000	0.011072
2974.000000	0.011125
2973.000000	0.011167
2972.000000	0.011204
2971.000000	0.011243
2970.000000	0.011286
2969.000000	0.011337
2968.000000	0.011397
2967.000000	0.011464
2966.000000	0.011535
2965.000000	0.011604
2964.000000	0.011666
2963.000000	0.011715
2962.000000	0.011748
2961.000000	0.011769
2960.000000	0.011788
2959.000000	0.011816
2958.000000	0.011850
2957.000000	0.011881
2956.000000	0.011900
2955.000000	0.011902
2954.000000	0.011884
2953.000000	0.011850
2952.000000	0.011808
2951.000000	0.011778
2950.000000	0.011766
2949.000000	0.011769
2948.000000	0.011774
2947.000000	0.011780
2946.000000	0.011793
2945.000000	0.011822
2944.000000	0.011866
2943.000000	0.011917
2942.000000	0.011968
2941.000000	0.012014
2940.000000	0.012061
2939.000000	0.012117
2938.000000	0.012186
2937.000000	0.012259
2936.000000	0.012324
2935.000000	0.012376
2934.000000	0.012423
2933.000000	0.012474
2932.000000	0.012538
2931.000000	0.012610
2930.000000	0.012678
2929.000000	0.012732
2928.000000	0.012772
2927.000000	0.012809
2926.000000	0.012853
2925.000000	0.012906
2924.000000	0.012959
2923.000000	0.013001
2922.000000	0.013026
2921.000000	0.013032
2920.000000	0.013021
2919.000000	0.012997
2918.000000	0.012959
2917.000000	0.012905
2916.000000	0.012834
2915.000000	0.012746
2914.000000	0.012643
2913.000000	0.012527
2912.000000	0.012411
2911.000000	0.012311
2910.000000	0.012239
2909.000000	0.012191
2908.000000	0.012155
2907.000000	0.012117
2906.000000	0.012071
2905.000000	0.012015
2904.000000	0.011945
2903.000000	0.011865
2902.000000	0.011787
2901.000000	0.011718
2900.000000	0.011662
2899.000000	0.011611
2898.000000	0.011553
2897.000000	0.011486
2896.000000	0.011415
2895.000000	0.011347
2894.000000	0.011287
2893.000000	0.011232
2892.000000	0.011181
2891.000000	0.011142
2890.000000	0.011119
2889.000000	0.011106
2888.000000	0.011095
2887.000000	0.011083
2886.000000	0.011080
2885.000000	0.011095
2884.000000	0.011124
2883.000000	0.011155
2882.000000	0.011176
2881.000000	0.011184
2880.000000	0.011182
2879.000000	0.011184
2878.000000	0.011201
2877.000000	0.011237
2876.000000	0.011284
2875.000000	0.011331
2874.000000	0.011370
2873.000000	0.011399
2872.000000	0.011420
2871.000000	0.011436
2870.000000	0.011445
2869.000000	0.011444
2868.000000	0.011432
2867.000000	0.011421
2866.000000	0.011430
2865.000000	0.011460
2864.000000	0.011495
2863.000000	0.011517
2862.000000	0.011526
2861.000000	0.011537
2860.000000	0.011562
2859.000000	0.011595
2858.000000	0.011625
2857.000000	0.011647
2856.000000	0.011664
2855.000000	0.011683
2854.000000	0.011707
2853.000000	0.011724
2852.000000	0.011723
2851.000000	0.011695
2850.000000	0.011641
2849.000000	0.011566
2848.000000	0.011477
2847.000000	0.011377
2846.000000	0.011269
2845.000000	0.011157
2844.000000	0.011048
2843.000000	0.010948
2842.000000	0.010863
2841.000000	0.010796
2840.000000	0.010742
2839.000000	0.010695
2838.000000	0.010646
2837.000000	0.010592
2836.000000	0.010539
2835.000000	0.010492
2834.000000	0.010456
2833.000000	0.010428
2832.000000	0.010404
2831.000000	0.010378
2830.000000	0.010349
2829.000000	0.010321
2828.000000	0.010295
2827.000000	0.010272
2826.000000	0.010252
2825.000000	0.010235
2824.000000	0.010222
2823.000000	0.010213
2822.000000	0.010205
2821.000000	0.010195
2820.000000	0.010182
2819.000000	0.010166
2818.000000	0.010153
2817.000000	0.010144
2816.000000	0.010138
2815.000000	0.010133
2814.000000	0.010127
2813.000000	0.010122
2812.000000	0.010116
2811.000000	0.010105
2810.000000	0.010087
2809.000000	0.010064
2808.000000	0.010042
2807.000000	0.010023
2806.000000	0.010003
2805.000000	0.009981
2804.000000	0.009957
2803.000000	0.009939
2802.000000	0.009928
2801.000000	0.009922
2800.000000	0.009910
2799.000000	0.009893
2798.000000	0.009873
2797.000000	0.009856
2796.000000	0.009844
2795.000000	0.009839
2794.000000	0.009840
2793.000000	0.009844
2792.000000	0.009845
2791.000000	0.009843
2790.000000	0.009838
2789.000000	0.009833
2788.000000	0.009825
2787.000000	0.009813
2786.000000	0.009798
2785.000000	0.009786
2784.000000	0.009783
2783.000000	0.009787
2782.000000	0.009791
2781.000000	0.009787
2780.000000	0.009777
2779.000000	0.009772
2778.000000	0.009780
2777.000000	0.009800
2776.000000	0.009819
2775.000000	0.009823
2774.000000	0.009814
2773.000000	0.009798
2772.000000	0.009786
2771.000000	0.009777
2770.000000	0.009768
2769.000000	0.009755
2768.000000	0.009739
2767.000000	0.009726
2766.000000	0.009718
2765.000000	0.009714
2764.000000	0.009710
2763.000000	0.009705
2762.000000	0.009704
2761.000000	0.009707
2760.000000	0.009714
2759.000000	0.009722
2758.000000	0.009727
2757.000000	0.009727
2756.000000	0.009723
2755.000000	0.009720
2754.000000	0.009722
2753.000000	0.009725
2752.000000	0.009724
2751.000000	0.009717
2750.000000	0.009711
2749.000000	0.009713
2748.000000	0.009721
2747.000000	0.009727
2746.000000	0.009729
2745.000000	0.009729
2744.000000	0.009726
2743.000000	0.009720
2742.000000	0.009712
2741.000000	0.009704
2740.000000	0.009695
2739.000000	0.009682
2738.000000	0.009663
2737.000000	0.009644
2736.000000	0.009631
2735.000000	0.009624
2734.000000	0.009621
2733.000000	0.009621
2732.000000	0.009625
2731.000000	0.009635
2730.000000	0.009651
2729.000000	0.009673
2728.000000	0.009696
2727.000000	0.009711
2726.000000	0.009710
2725.000000	0.009692
2724.000000	0.009666
2723.000000	0.009646
2722.000000	0.009641
2721.000000	0.009650
2720.000000	0.009660
2719.000000	0.009661
2718.000000	0.009658
2717.000000	0.009659
2716.000000	0.009670
2715.000000	0.009681
2714.000000	0.009679
2713.000000	0.009664
2712.000000	0.009649
2711.000000	0.009642
2710.000000	0.009641
2709.000000	0.009636
2708.000000	0.009621
2707.000000	0.009602
2706.000000	0.009588
2705.000000	0.009585
2704.000000	0.009591
2703.000000	0.009601
2702.000000	0.009607
2701.000000	0.009608
2700.000000	0.009605
2699.000000	0.009601
2698.000000	0.009596
2697.000000	0.009587
2696.000000	0.009573
2695.000000	0.009558
2694.000000	0.009549
2693.000000	0.009549
2692.000000	0.009552
2691.000000	0.009548
2690.000000	0.009535
2689.000000	0.009522
2688.000000	0.009518
2687.000000	0.009527
2686.000000	0.009543
2685.000000	0.009553
2684.000000	0.009549
2683.000000	0.009535
2682.000000	0.009521
2681.000000	0.009515
2680.000000	0.009515
2679.000000	0.009516
2678.000000	0.009515
2677.000000	0.009511
2676.000000	0.009509
2675.000000	0.009514
2674.000000	0.009529
2673.000000	0.009547
2672.000000	0.009559
2671.000000	0.009558
2670.000000	0.009544
2669.000000	0.009528
2668.000000	0.009515
2667.000000	0.009512
2666.000000	0.009521
2665.000000	0.009538
2664.000000	0.009552
2663.000000	0.009554
2662.000000	0.009547
2661.000000	0.009543
2660.000000	0.009547
2659.000000	0.009549
2658.000000	0.009537
2657.000000	0.009508
2656.000000	0.009473
2655.000000	0.009446
2654.000000	0.009430
2653.000000	0.009419
2652.000000	0.009409
2651.000000	0.009401
2650.000000	0.009396
2649.000000	0.009389
2648.000000	0.009374
2647.000000	0.009351
2646.000000	0.009329
2645.000000	0.009318
2644.000000	0.009320
2643.000000	0.009328
2642.000000	0.009334
2641.000000	0.009328
2640.000000	0.009304
2639.000000	0.009270
2638.000000	0.009241
2637.000000	0.009229
2636.000000	0.009228
2635.000000	0.009218
2634.000000	0.009191
2633.000000	0.009160
2632.000000	0.009144
2631.000000	0.009149
2630.000000	0.009166
2629.000000	0.009180
2628.000000	0.009180
2627.000000	0.009166
2626.000000	0.009146
2625.000000	0.009128
2624.000000	0.009115
2623.000000	0.009107
2622.000000	0.009099
2621.000000	0.009089
2620.000000	0.009076
2619.000000	0.009063
2618.000000	0.009051
2617.000000	0.009045
2616.000000	0.009042
2615.000000	0.009037
2614.000000	0.009031
2613.000000	0.009027
2612.000000	0.009030
2611.000000	0.009042
2610.000000	0.009058
2609.000000	0.009077
2608.000000	0.009093
2607.000000	0.009101
2606.000000	0.009099
2605.000000	0.009087
2604.000000	0.009066
2603.000000	0.009047
2602.000000	0.009038
2601.000000	0.009039
2600.000000	0.009031
2599.000000	0.009002
2598.000000	0.008969
2597.000000	0.008965
2596.000000	0.009006
2595.000000	0.009073
2594.000000	0.009124
2593.000000	0.009129
2592.000000	0.009095
2591.000000	0.009051
2590.000000	0.009024
2589.000000	0.009020
2588.000000	0.009028
2587.000000	0.009032
2586.000000	0.009031
2585.000000	0.009028
2584.000000	0.009022
2583.000000	0.009017
2582.000000	0.009021
2581.000000	0.009044
2580.000000	0.009080
2579.000000	0.009108
2578.000000	0.009112
2577.000000	0.009087
2576.000000	0.009046
2575.000000	0.009008
2574.000000	0.008988
2573.000000	0.008982
2572.000000	0.008968
2571.000000	0.008940
2570.000000	0.008913
2569.000000	0.008907
2568.000000	0.008918
2567.000000	0.008926
2566.000000	0.008923
2565.000000	0.008921
2564.000000	0.008928
2563.000000	0.008941
2562.000000	0.008954
2561.000000	0.008971
2560.000000	0.008990
2559.000000	0.009000
2558.000000	0.008996
2557.000000	0.008984
2556.000000	0.008976
2555.000000	0.008980
2554.000000	0.008993
2553.000000	0.009011
2552.000000	0.009022
2551.000000	0.009012
2550.000000	0.008981
2549.000000	0.008950
2548.000000	0.008932
2547.000000	0.008926
2546.000000	0.008917
2545.000000	0.008901
2544.000000	0.008892
2543.000000	0.008905
2542.000000	0.008944
2541.000000	0.008994
2540.000000	0.009032
2539.000000	0.009045
2538.000000	0.009044
2537.000000	0.009046
2536.000000	0.009052
2535.000000	0.009046
2534.000000	0.009018
2533.000000	0.008983
2532.000000	0.008964
2531.000000	0.008974
2530.000000	0.009009
2529.000000	0.009057
2528.000000	0.009111
2527.000000	0.009161
2526.000000	0.009198
2525.000000	0.009226
2524.000000	0.009254
2523.000000	0.009293
2522.000000	0.009335
2521.000000	0.009363
2520.000000	0.009366
2519.000000	0.009355
2518.000000	0.009352
2517.000000	0.009366
2516.000000	0.009387
2515.000000	0.009406
2514.000000	0.009418
2513.000000	0.009423
2512.000000	0.009415
2511.000000	0.009397
2510.000000	0.009383
2509.000000	0.009379
2508.000000	0.009375
2507.000000	0.009359
2506.000000	0.009341
2505.000000	0.009338
2504.000000	0.009356
2503.000000	0.009375
2502.000000	0.009372
2501.000000	0.009336
2500.000000	0.009266
2499.000000	0.009177
2498.000000	0.009092
2497.000000	0.009031
2496.000000	0.009003
2495.000000	0.009002
2494.000000	0.009024
2493.000000	0.009055
2492.000000	0.009069
2491.000000	0.009049
2490.000000	0.009011
2489.000000	0.008984
2488.000000	0.008974
2487.000000	0.008957
2486.000000	0.008919
2485.000000	0.008871
2484.000000	0.008831
2483.000000	0.008800
2482.000000	0.008772
2481.000000	0.008746
2480.000000	0.008731
2479.000000	0.008731
2478.000000	0.008745
2477.000000	0.008766
2476.000000	0.008783
2475.000000	0.008787
2474.000000	0.008780
2473.000000	0.008770
2472.000000	0.008762
2471.000000	0.008754
2470.000000	0.008746
2469.000000	0.008744
2468.000000	0.008754
2467.000000	0.008772
2466.000000	0.008795
2465.000000	0.008820
2464.000000	0.008843
2463.000000	0.008855
2462.000000	0.008851
2461.000000	0.008833
2460.000000	0.008806
2459.000000	0.008783
2458.000000	0.008778
2457.000000	0.008796
2456.000000	0.008830
2455.000000	0.008869
2454.000000	0.008906
2453.000000	0.008937
2452.000000	0.008949
2451.000000	0.008934
2450.000000	0.008897
2449.000000	0.008848
2448.000000	0.008786
2447.000000	0.008720
2446.000000	0.008673
2445.000000	0.008668
2444.000000	0.008700
2443.000000	0.008744
2442.000000	0.008776
2441.000000	0.008779
2440.000000	0.008748
2439.000000	0.008697
2438.000000	0.008666
2437.000000	0.008687
2436.000000	0.008747
2435.000000	0.008804
2434.000000	0.008833
2433.000000	0.008832
2432.000000	0.008807
2431.000000	0.008764
2430.000000	0.008723
2429.000000	0.008706
2428.000000	0.008708
2427.000000	0.008709
2426.000000	0.008699
2425.000000	0.008690
2424.000000	0.008691
2423.000000	0.008701
2422.000000	0.008718
2421.000000	0.008739
2420.000000	0.008754
2419.000000	0.008750
2418.000000	0.008740
2417.000000	0.008745
2416.000000	0.008766
2415.000000	0.008771
2414.000000	0.008743
2413.000000	0.008698
2412.000000	0.008668
2411.000000	0.008668
2410.000000	0.008688
2409.000000	0.008705
2408.000000	0.008697
2407.000000	0.008670
2406.000000	0.008652
2405.000000	0.008662
2404.000000	0.008689
2403.000000	0.008704
2402.000000	0.008692
2401.000000	0.008666
2400.000000	0.008637
2399.000000	0.008611
2398.000000	0.008595
2397.000000	0.008600
2396.000000	0.008628
2395.000000	0.008672
2394.000000	0.008722
2393.000000	0.008764
2392.000000	0.008784
2391.000000	0.008776
2390.000000	0.008754
2389.000000	0.008738
2388.000000	0.008725
2387.000000	0.008706
2386.000000	0.008684
2385.000000	0.008658
2384.000000	0.008615
2383.000000	0.008529
2382.000000	0.008405
2381.000000	0.008271
2380.000000	0.008165
2379.000000	0.008137
2378.000000	0.008231
2377.000000	0.008438
2376.000000	0.008661
2375.000000	0.008797
2374.000000	0.008814
2373.000000	0.008745
2372.000000	0.008623
2371.000000	0.008480
2370.000000	0.008372
2369.000000	0.008334
2368.000000	0.008349
2367.000000	0.008393
2366.000000	0.008467
2365.000000	0.008563
2364.000000	0.008642
2363.000000	0.008711
2362.000000	0.008821
2361.000000	0.008940
2360.000000	0.008991
2359.000000	0.008944
2358.000000	0.008839
2357.000000	0.008734
2356.000000	0.008678
2355.000000	0.008751
2354.000000	0.008845
2353.000000	0.008768
2352.000000	0.008513
2351.000000	0.008300
2350.000000	0.008302
2349.000000	0.008503
2348.000000	0.008770
2347.000000	0.008911
2346.000000	0.008859
2345.000000	0.008787
2344.000000	0.008867
2343.000000	0.009066
2342.000000	0.009198
2341.000000	0.009167
2340.000000	0.009064
2339.000000	0.009018
2338.000000	0.009041
2337.000000	0.009056
2336.000000	0.009045
2335.000000	0.009004
2334.000000	0.008897
2333.000000	0.008686
2332.000000	0.008508
2331.000000	0.008501
2330.000000	0.008699
2329.000000	0.008944
2328.000000	0.009159
2327.000000	0.009299
2326.000000	0.009359
2325.000000	0.009322
2324.000000	0.009231
2323.000000	0.009160
2322.000000	0.009184
2321.000000	0.009340
2320.000000	0.009628
2319.000000	0.009938
2318.000000	0.010151
2317.000000	0.010180
2316.000000	0.010075
2315.000000	0.009888
2314.000000	0.009687
2313.000000	0.009500
2312.000000	0.009385
2311.000000	0.009325
2310.000000	0.009280
2309.000000	0.009199
2308.000000	0.009102
2307.000000	0.009015
2306.000000	0.008961
2305.000000	0.008937
2304.000000	0.008947
2303.000000	0.008967
2302.000000	0.008986
2301.000000	0.008999
2300.000000	0.009038
2299.000000	0.009099
2298.000000	0.009166
2297.000000	0.009206
2296.000000	0.009217
2295.000000	0.009190
2294.000000	0.009137
2293.000000	0.009086
2292.000000	0.009073
2291.000000	0.009102
2290.000000	0.009143
2289.000000	0.009171
2288.000000	0.009187
2287.000000	0.009198
2286.000000	0.009193
2285.000000	0.009168
2284.000000	0.009130
2283.000000	0.009097
2282.000000	0.009070
2281.000000	0.009042
2280.000000	0.008999
2279.000000	0.008934
2278.000000	0.008868
2277.000000	0.008838
2276.000000	0.008858
2275.000000	0.008886
2274.000000	0.008866
2273.000000	0.008790
2272.000000	0.008700
2271.000000	0.008637
2270.000000	0.008612
2269.000000	0.008622
2268.000000	0.008650
2267.000000	0.008663
2266.000000	0.008636
2265.000000	0.008589
2264.000000	0.008569
2263.000000	0.008592
2262.000000	0.008630
2261.000000	0.008645
2260.000000	0.008623
2259.000000	0.008572
2258.000000	0.008503
2257.000000	0.008439
2256.000000	0.008402
2255.000000	0.008411
2254.000000	0.008481
2253.000000	0.008605
2252.000000	0.008736
2251.000000	0.008802
2250.000000	0.008775
2249.000000	0.008704
2248.000000	0.008661
2247.000000	0.008664
2246.000000	0.008674
2245.000000	0.008661
2244.000000	0.008631
2243.000000	0.008608
2242.000000	0.008627
2241.000000	0.008706
2240.000000	0.008808
2239.000000	0.008854
2238.000000	0.008799
2237.000000	0.008682
2236.000000	0.008573
2235.000000	0.008494
2234.000000	0.008422
2233.000000	0.008357
2232.000000	0.008315
2231.000000	0.008286
2230.000000	0.008252
2229.000000	0.008225
2228.000000	0.008232
2227.000000	0.008263
2226.000000	0.008275
2225.000000	0.008255
2224.000000	0.008226
2223.000000	0.008208
2222.000000	0.008200
2221.000000	0.008200
2220.000000	0.008208
2219.000000	0.008218
2218.000000	0.008226
2217.000000	0.008241
2216.000000	0.008266
2215.000000	0.008283
2214.000000	0.008294
2213.000000	0.008328
2212.000000	0.008397
2211.000000	0.008453
2210.000000	0.008446
2209.000000	0.008387
2208.000000	0.008314
2207.000000	0.008239
2206.000000	0.008153
2205.000000	0.008083
2204.000000	0.008069
2203.000000	0.008113
2202.000000	0.008185
2201.000000	0.008271
2200.000000	0.008377
2199.000000	0.008491
2198.000000	0.008573
2197.000000	0.008564
2196.000000	0.008425
2195.000000	0.008185
2194.000000	0.007967
2193.000000	0.007902
2192.000000	0.007980
2191.000000	0.008026
2190.000000	0.007896
2189.000000	0.007647
2188.000000	0.007455
2187.000000	0.007429
2186.000000	0.007539
2185.000000	0.007690
2184.000000	0.007776
2183.000000	0.007730
2182.000000	0.007584
2181.000000	0.007463
2180.000000	0.007446
2179.000000	0.007479
2178.000000	0.007480
2177.000000	0.007467
2176.000000	0.007510
2175.000000	0.007599
2174.000000	0.007660
2173.000000	0.007669
2172.000000	0.007688
2171.000000	0.007784
2170.000000	0.007983
2169.000000	0.008262
2168.000000	0.008541
2167.000000	0.008702
2166.000000	0.008695
2165.000000	0.008576
2164.000000	0.008424
2163.000000	0.008224
2162.000000	0.007921
2161.000000	0.007543
2160.000000	0.007217
2159.000000	0.007077
2158.000000	0.007176
2157.000000	0.007443
2156.000000	0.007687
2155.000000	0.007750
2154.000000	0.007663
2153.000000	0.007610
2152.000000	0.007704
2151.000000	0.007860
2150.000000	0.007914
2149.000000	0.007807
2148.000000	0.007623
2147.000000	0.007491
2146.000000	0.007512
2145.000000	0.007701
2144.000000	0.007953
2143.000000	0.008112
2142.000000	0.008115
2141.000000	0.008044
2140.000000	0.008012
2139.000000	0.008047
2138.000000	0.008109
2137.000000	0.008163
2136.000000	0.008189
2135.000000	0.008164
2134.000000	0.008095
2133.000000	0.008042
2132.000000	0.008067
2131.000000	0.008182
2130.000000	0.008349
2129.000000	0.008507
2128.000000	0.008584
2127.000000	0.008539
2126.000000	0.008415
2125.000000	0.008314
2124.000000	0.008300
2123.000000	0.008344
2122.000000	0.008393
2121.000000	0.008449
2120.000000	0.008542
2119.000000	0.008657
2118.000000	0.008740
2117.000000	0.008759
2116.000000	0.008731
2115.000000	0.008700
2114.000000	0.008700
2113.000000	0.008744
2112.000000	0.008808
2111.000000	0.008843
2110.000000	0.008816
2109.000000	0.008745
2108.000000	0.008676
2107.000000	0.008639
2106.000000	0.008641
2105.000000	0.008670
2104.000000	0.008695
2103.000000	0.008681
2102.000000	0.008623
2101.000000	0.008569
2100.000000	0.008574
2099.000000	0.008645
2098.000000	0.008737
2097.000000	0.008790
2096.000000	0.008768
2095.000000	0.008689
2094.000000	0.008614
2093.000000	0.008588
2092.000000	0.008596
2091.000000	0.008595
2090.000000	0.008580
2089.000000	0.008587
2088.000000	0.008629
2087.000000	0.008680
2086.000000	0.008731
2085.000000	0.008791
2084.000000	0.008848
2083.000000	0.008855
2082.000000	0.008807
2081.000000	0.008750
2080.000000	0.008713
2079.000000	0.008667
2078.000000	0.008591
2077.000000	0.008530
2076.000000	0.008541
2075.000000	0.008625
2074.000000	0.008736
2073.000000	0.008823
2072.000000	0.008845
2071.000000	0.008782
2070.000000	0.008677
2069.000000	0.008617
2068.000000	0.008640
2067.000000	0.008701
2066.000000	0.008745
2065.000000	0.008760
2064.000000	0.008735
2063.000000	0.008633
2062.000000	0.008470
2061.000000	0.008339
2060.000000	0.008311
2059.000000	0.008352
2058.000000	0.008398
2057.000000	0.008446
2056.000000	0.008514
2055.000000	0.008561
2054.000000	0.008540
2053.000000	0.008475
2052.000000	0.008410
2051.000000	0.008334
2050.000000	0.008207
2049.000000	0.008046
2048.000000	0.007921
2047.000000	0.007872
2046.000000	0.007891
2045.000000	0.007949
2044.000000	0.007993
2043.000000	0.007969
2042.000000	0.007917
2041.000000	0.007956
2040.000000	0.008129
2039.000000	0.008306
2038.000000	0.008337
2037.000000	0.008219
2036.000000	0.008057
2035.000000	0.007928
2034.000000	0.007859
2033.000000	0.007863
2032.000000	0.007907
2031.000000	0.007918
2030.000000	0.007877
2029.000000	0.007848
2028.000000	0.007853
2027.000000	0.007815
2026.000000	0.007696
2025.000000	0.007576
2024.000000	0.007531
2023.000000	0.007542
2022.000000	0.007581
2021.000000	0.007673
2020.000000	0.007794
2019.000000	0.007826
2018.000000	0.007716
2017.000000	0.007568
2016.000000	0.007495
2015.000000	0.007473
2014.000000	0.007445
2013.000000	0.007450
2012.000000	0.007546
2011.000000	0.007690
2010.000000	0.007778
2009.000000	0.007764
2008.000000	0.007675
2007.000000	0.007561
2006.000000	0.007500
2005.000000	0.007560
2004.000000	0.007709
2003.000000	0.007830
2002.000000	0.007861
2001.000000	0.007851
2000.000000	0.007858
1999.000000	0.007879
1998.000000	0.007908
1997.000000	0.007971
1996.000000	0.008048
1995.000000	0.008065
1994.000000	0.008002
1993.000000	0.007950
1992.000000	0.007985
1991.000000	0.008071
1990.000000	0.008146
1989.000000	0.008204
1988.000000	0.008250
1987.000000	0.008261
1986.000000	0.008242
1985.000000	0.008241
1984.000000	0.008246
1983.000000	0.008177
1982.000000	0.008021
1981.000000	0.007879
1980.000000	0.007810
1979.000000	0.007734
1978.000000	0.007593
1977.000000	0.007482
1976.000000	0.007502
1975.000000	0.007602
1974.000000	0.007692
1973.000000	0.007761
1972.000000	0.007800
1971.000000	0.007745
1970.000000	0.007593
1969.000000	0.007439
1968.000000	0.007349
1967.000000	0.007292
1966.000000	0.007256
1965.000000	0.007321
1964.000000	0.007514
1963.000000	0.007744
1962.000000	0.007924
1961.000000	0.008054
1960.000000	0.008140
1959.000000	0.008148
1958.000000	0.008093
1957.000000	0.008061
1956.000000	0.008092
1955.000000	0.008126
1954.000000	0.008126
1953.000000	0.008135
1952.000000	0.008172
1951.000000	0.008169
1950.000000	0.008075
1949.000000	0.007939
1948.000000	0.007850
1947.000000	0.007843
1946.000000	0.007919
1945.000000	0.008078
1944.000000	0.008280
1943.000000	0.008430
1942.000000	0.008461
1941.000000	0.008398
1940.000000	0.008310
1939.000000	0.008245
1938.000000	0.008237
1937.000000	0.008309
1936.000000	0.008421
1935.000000	0.008488
1934.000000	0.008484
1933.000000	0.008455
1932.000000	0.008438
1931.000000	0.008426
1930.000000	0.008407
1929.000000	0.008398
1928.000000	0.008392
1927.000000	0.008349
1926.000000	0.008262
1925.000000	0.008189
1924.000000	0.008176
1923.000000	0.008212
1922.000000	0.008257
1921.000000	0.008292
1920.000000	0.008310
1919.000000	0.008299
1918.000000	0.008274
1917.000000	0.008288
1916.000000	0.008359
1915.000000	0.008449
1914.000000	0.008516
1913.000000	0.008552
1912.000000	0.008546
1911.000000	0.008477
1910.000000	0.008354
1909.000000	0.008236
1908.000000	0.008177
1907.000000	0.008169
1906.000000	0.008187
1905.000000	0.008217
1904.000000	0.008246
1903.000000	0.008249
1902.000000	0.008224
1901.000000	0.008216
1900.000000	0.008252
1899.000000	0.008298
1898.000000	0.008302
1897.000000	0.008257
1896.000000	0.008192
1895.000000	0.008145
1894.000000	0.008142
1893.000000	0.008193
1892.000000	0.008268
1891.000000	0.008313
1890.000000	0.008316
1889.000000	0.008321
1888.000000	0.008355
1887.000000	0.008385
1886.000000	0.008373
1885.000000	0.008328
1884.000000	0.008274
1883.000000	0.008204
1882.000000	0.008110
1881.000000	0.008023
1880.000000	0.007983
1879.000000	0.007985
1878.000000	0.008006
1877.000000	0.008043
1876.000000	0.008087
1875.000000	0.008108
1874.000000	0.008090
1873.000000	0.008063
1872.000000	0.008063
1871.000000	0.008087
1870.000000	0.008122
1869.000000	0.008178
1868.000000	0.008263
1867.000000	0.008340
1866.000000	0.008364
1865.000000	0.008339
1864.000000	0.008299
1863.000000	0.008258
1862.000000	0.008204
1861.000000	0.008138
1860.000000	0.008080
1859.000000	0.008046
1858.000000	0.008040
1857.000000	0.008059
1856.000000	0.008084
1855.000000	0.008091
1854.000000	0.008077
1853.000000	0.008068
1852.000000	0.008074
1851.000000	0.008069
1850.000000	0.008041
1849.000000	0.008022
1848.000000	0.008037
1847.000000	0.008053
1846.000000	0.008031
1845.000000	0.007988
1844.000000	0.007967
1843.000000	0.007957
1842.000000	0.007913
1841.000000	0.007841
1840.000000	0.007771
1839.000000	0.007722
1838.000000	0.007696
1837.000000	0.007699
1836.000000	0.007731
1835.000000	0.007780
1834.000000	0.007834
1833.000000	0.007891
1832.000000	0.007937
1831.000000	0.007941
1830.000000	0.007909
1829.000000	0.007886
1828.000000	0.007889
1827.000000	0.007906
1826.000000	0.007928
1825.000000	0.007956
1824.000000	0.007971
1823.000000	0.007943
1822.000000	0.007879
1821.000000	0.007813
1820.000000	0.007765
1819.000000	0.007725
1818.000000	0.007681
1817.000000	0.007633
1816.000000	0.007600
1815.000000	0.007602
1814.000000	0.007640
1813.000000	0.007697
1812.000000	0.007736
1811.000000	0.007752
1810.000000	0.007774
1809.000000	0.007821
1808.000000	0.007881
1807.000000	0.007932
1806.000000	0.007971
1805.000000	0.008025
1804.000000	0.008118
1803.000000	0.008254
1802.000000	0.008412
1801.000000	0.008567
1800.000000	0.008706
1799.000000	0.008833
1798.000000	0.008937
1797.000000	0.008999
1796.000000	0.009014
1795.000000	0.008994
1794.000000	0.008959
1793.000000	0.008913
1792.000000	0.008828
1791.000000	0.008686
1790.000000	0.008503
1789.000000	0.008324
1788.000000	0.008184
1787.000000	0.008089
1786.000000	0.008017
1785.000000	0.007941
1784.000000	0.007853
1783.000000	0.007764
1782.000000	0.007691
1781.000000	0.007654
1780.000000	0.007643
1779.000000	0.007625
1778.000000	0.007590
1777.000000	0.007557
1776.000000	0.007536
1775.000000	0.007503
1774.000000	0.007445
1773.000000	0.007402
1772.000000	0.007420
1771.000000	0.007478
1770.000000	0.007535
1769.000000	0.007567
1768.000000	0.007558
1767.000000	0.007503
1766.000000	0.007444
1765.000000	0.007425
1764.000000	0.007445
1763.000000	0.007468
1762.000000	0.007483
1761.000000	0.007517
1760.000000	0.007573
1759.000000	0.007637
1758.000000	0.007700
1757.000000	0.007780
1756.000000	0.007868
1755.000000	0.007933
1754.000000	0.007997
1753.000000	0.008124
1752.000000	0.008337
1751.000000	0.008563
1750.000000	0.008737
1749.000000	0.008888
1748.000000	0.009044
1747.000000	0.009173
1746.000000	0.009270
1745.000000	0.009387
1744.000000	0.009540
1743.000000	0.009688
1742.000000	0.009821
1741.000000	0.009974
1740.000000	0.010155
1739.000000	0.010311
1738.000000	0.010406
1737.000000	0.010465
1736.000000	0.010509
1735.000000	0.010523
1734.000000	0.010481
1733.000000	0.010424
1732.000000	0.010393
1731.000000	0.010341
1730.000000	0.010216
1729.000000	0.010046
1728.000000	0.009877
1727.000000	0.009712
1726.000000	0.009554
1725.000000	0.009428
1724.000000	0.009336
1723.000000	0.009246
1722.000000	0.009147
1721.000000	0.009055
1720.000000	0.008967
1719.000000	0.008855
1718.000000	0.008751
1717.000000	0.008710
1716.000000	0.008740
1715.000000	0.008787
1714.000000	0.008783
1713.000000	0.008720
1712.000000	0.008654
1711.000000	0.008620
1710.000000	0.008619
1709.000000	0.008652
1708.000000	0.008713
1707.000000	0.008779
1706.000000	0.008837
1705.000000	0.008895
1704.000000	0.008966
1703.000000	0.009060
1702.000000	0.009194
1701.000000	0.009365
1700.000000	0.009483
1699.000000	0.009519
1698.000000	0.009542
1697.000000	0.009632
1696.000000	0.009830
1695.000000	0.010078
1694.000000	0.010289
1693.000000	0.010456
1692.000000	0.010599
1691.000000	0.010738
1690.000000	0.010889
1689.000000	0.011048
1688.000000	0.011172
1687.000000	0.011234
1686.000000	0.011286
1685.000000	0.011446
1684.000000	0.011771
1683.000000	0.012095
1682.000000	0.012287
1681.000000	0.012433
1680.000000	0.012593
1679.000000	0.012755
1678.000000	0.012902
1677.000000	0.013066
1676.000000	0.013269
1675.000000	0.013455
1674.000000	0.013581
1673.000000	0.013705
1672.000000	0.013872
1671.000000	0.014062
1670.000000	0.014241
1669.000000	0.014414
1668.000000	0.014575
1667.000000	0.014695
1666.000000	0.014797
1665.000000	0.014934
1664.000000	0.015128
1663.000000	0.015337
1662.000000	0.015508
1661.000000	0.015653
1660.000000	0.015809
1659.000000	0.015960
1658.000000	0.016083
1657.000000	0.016181
1656.000000	0.016262
1655.000000	0.016320
1654.000000	0.016413
1653.000000	0.016604
1652.000000	0.016776
1651.000000	0.016847
1650.000000	0.016909
1649.000000	0.016953
1648.000000	0.017011
1647.000000	0.017096
1646.000000	0.017145
1645.000000	0.017111
1644.000000	0.017048
1643.000000	0.016990
1642.000000	0.016922
1641.000000	0.016853
1640.000000	0.016796
1639.000000	0.016726
1638.000000	0.016623
1637.000000	0.016520
1636.000000	0.016486
1635.000000	0.016466
1634.000000	0.016351
1633.000000	0.016171
1632.000000	0.015990
1631.000000	0.015822
1630.000000	0.015661
1629.000000	0.015512
1628.000000	0.015382
1627.000000	0.015246
1626.000000	0.015078
1625.000000	0.014900
1624.000000	0.014739
1623.000000	0.014585
1622.000000	0.014407
1621.000000	0.014216
1620.000000	0.014025
1619.000000	0.013813
1618.000000	0.013575
1617.000000	0.013380
1616.000000	0.013287
1615.000000	0.013238
1614.000000	0.013156
1613.000000	0.013041
1612.000000	0.012922
1611.000000	0.012799
1610.000000	0.012656
1609.000000	0.012513
1608.000000	0.012399
1607.000000	0.012298
1606.000000	0.012186
1605.000000	0.012085
1604.000000	0.012015
1603.000000	0.011949
1602.000000	0.011858
1601.000000	0.011763
1600.000000	0.011696
1599.000000	0.011645
1598.000000	0.011585
1597.000000	0.011524
1596.000000	0.011479
1595.000000	0.011438
1594.000000	0.011384
1593.000000	0.011334
1592.000000	0.011311
1591.000000	0.011296
1590.000000	0.011268
1589.000000	0.011244
1588.000000	0.011252
1587.000000	0.011279
1586.000000	0.011288
1585.000000	0.011281
1584.000000	0.011284
1583.000000	0.011293
1582.000000	0.011290
1581.000000	0.011285
1580.000000	0.011283
1579.000000	0.011251
1578.000000	0.011180
1577.000000	0.011143
1576.000000	0.011215
1575.000000	0.011321
1574.000000	0.011365
1573.000000	0.011370
1572.000000	0.011371
1571.000000	0.011390
1570.000000	0.011433
1569.000000	0.011510
1568.000000	0.011595
1567.000000	0.011651
1566.000000	0.011694
1565.000000	0.011757
1564.000000	0.011836
1563.000000	0.011882
1562.000000	0.011896
1561.000000	0.011974
1560.000000	0.012209
1559.000000	0.012572
1558.000000	0.012807
1557.000000	0.012852
1556.000000	0.012898
1555.000000	0.012991
1554.000000	0.013115
1553.000000	0.013274
1552.000000	0.013463
1551.000000	0.013674
1550.000000	0.013892
1549.000000	0.014091
1548.000000	0.014253
1547.000000	0.014390
1546.000000	0.014540
1545.000000	0.014726
1544.000000	0.014914
1543.000000	0.015048
1542.000000	0.015138
1541.000000	0.015268
1540.000000	0.015522
1539.000000	0.015773
1538.000000	0.015897
1537.000000	0.015984
1536.000000	0.016098
1535.000000	0.016251
1534.000000	0.016454
1533.000000	0.016660
1532.000000	0.016780
1531.000000	0.016818
1530.000000	0.016857
1529.000000	0.016952
1528.000000	0.017107
1527.000000	0.017284
1526.000000	0.017441
1525.000000	0.017551
1524.000000	0.017613
1523.000000	0.017675
1522.000000	0.017832
1521.000000	0.018092
1520.000000	0.018331
1519.000000	0.018495
1518.000000	0.018653
1517.000000	0.018863
1516.000000	0.019066
1515.000000	0.019167
1514.000000	0.019203
1513.000000	0.019272
1512.000000	0.019390
1511.000000	0.019504
1510.000000	0.019572
1509.000000	0.019625
1508.000000	0.019729
1507.000000	0.019965
1506.000000	0.020249
1505.000000	0.020400
1504.000000	0.020465
1503.000000	0.020522
1502.000000	0.020596
1501.000000	0.020711
1500.000000	0.020853
1499.000000	0.020987
1498.000000	0.021148
1497.000000	0.021396
1496.000000	0.021672
1495.000000	0.021875
1494.000000	0.022012
1493.000000	0.022156
1492.000000	0.022355
1491.000000	0.022610
1490.000000	0.022891
1489.000000	0.023138
1488.000000	0.023317
1487.000000	0.023461
1486.000000	0.023602
1485.000000	0.023753
1484.000000	0.023918
1483.000000	0.024104
1482.000000	0.024337
1481.000000	0.024615
1480.000000	0.024890
1479.000000	0.025134
1478.000000	0.025382
1477.000000	0.025662
1476.000000	0.025939
1475.000000	0.026185
1474.000000	0.026466
1473.000000	0.026868
1472.000000	0.027302
1471.000000	0.027605
1470.000000	0.027788
1469.000000	0.027951
1468.000000	0.028140
1467.000000	0.028364
1466.000000	0.028650
1465.000000	0.029007
1464.000000	0.029333
1463.000000	0.029526
1462.000000	0.029629
1461.000000	0.029740
1460.000000	0.029893
1459.000000	0.030097
1458.000000	0.030444
1457.000000	0.030975
1456.000000	0.031422
1455.000000	0.031616
1454.000000	0.031708
1453.000000	0.031828
1452.000000	0.031983
1451.000000	0.032132
1450.000000	0.032288
1449.000000	0.032504
1448.000000	0.032768
1447.000000	0.032989
1446.000000	0.033128
1445.000000	0.033240
1444.000000	0.033373
1443.000000	0.033523
1442.000000	0.033683
1441.000000	0.033854
1440.000000	0.034020
1439.000000	0.034181
1438.000000	0.034413
1437.000000	0.034775
1436.000000	0.035125
1435.000000	0.035283
1434.000000	0.035315
1433.000000	0.035369
1432.000000	0.035490
1431.000000	0.035642
1430.000000	0.035811
1429.000000	0.036014
1428.000000	0.036214
1427.000000	0.036358
1426.000000	0.036478
1425.000000	0.036655
1424.000000	0.036866
1423.000000	0.036990
1422.000000	0.037023
1421.000000	0.037113
1420.000000	0.037374
1419.000000	0.037729
1418.000000	0.038011
1417.000000	0.038167
1416.000000	0.038227
1415.000000	0.038234
1414.000000	0.038254
1413.000000	0.038344
1412.000000	0.038486
1411.000000	0.038608
1410.000000	0.038702
1409.000000	0.038808
1408.000000	0.038925
1407.000000	0.039019
1406.000000	0.039103
1405.000000	0.039223
1404.000000	0.039335
1403.000000	0.039354
1402.000000	0.039315
1401.000000	0.039330
1400.000000	0.039429
1399.000000	0.039520
1398.000000	0.039548
1397.000000	0.039586
1396.000000	0.039695
1395.000000	0.039825
1394.000000	0.039906
1393.000000	0.039953
1392.000000	0.039990
1391.000000	0.040007
1390.000000	0.040011
1389.000000	0.040034
1388.000000	0.040070
1387.000000	0.040058
1386.000000	0.039981
1385.000000	0.039898
1384.000000	0.039840
1383.000000	0.039776
1382.000000	0.039691
1381.000000	0.039607
1380.000000	0.039532
1379.000000	0.039436
1378.000000	0.039300
1377.000000	0.039157
1376.000000	0.039037
1375.000000	0.038931
1374.000000	0.038825
1373.000000	0.038721
1372.000000	0.038611
1371.000000	0.038477
1370.000000	0.038332
1369.000000	0.038211
1368.000000	0.038112
1367.000000	0.037986
1366.000000	0.037830
1365.000000	0.037692
1364.000000	0.037601
1363.000000	0.037524
1362.000000	0.037418
1361.000000	0.037286
1360.000000	0.037154
1359.000000	0.037025
1358.000000	0.036891
1357.000000	0.036755
1356.000000	0.036617
1355.000000	0.036470
1354.000000	0.036327
1353.000000	0.036207
1352.000000	0.036099
1351.000000	0.035972
1350.000000	0.035819
1349.000000	0.035674
1348.000000	0.035554
1347.000000	0.035442
1346.000000	0.035330
1345.000000	0.035231
1344.000000	0.035142
1343.000000	0.035042
1342.000000	0.034937
1341.000000	0.034856
1340.000000	0.034809
1339.000000	0.034760
1338.000000	0.034692
1337.000000	0.034625
1336.000000	0.034555
1335.000000	0.034444
1334.000000	0.034286
1333.000000	0.034121
1332.000000	0.033975
1331.000000	0.033830
1330.000000	0.033677
1329.000000	0.033533
1328.000000	0.033403
1327.000000	0.033265
1326.000000	0.033112
1325.000000	0.032975
1324.000000	0.032864
1323.000000	0.032747
1322.000000	0.032612
1321.000000	0.032490
1320.000000	0.032396
1319.000000	0.032303
1318.000000	0.032193
1317.000000	0.032085
1316.000000	0.031983
1315.000000	0.031859
1314.000000	0.031700
1313.000000	0.031528
1312.000000	0.031360
1311.000000	0.031185
1310.000000	0.031011
1309.000000	0.030867
1308.000000	0.030749
1307.000000	0.030616
1306.000000	0.030453
1305.000000	0.030296
1304.000000	0.030169
1303.000000	0.030045
1302.000000	0.029905
1301.000000	0.029766
1300.000000	0.029637
1299.000000	0.029499
1298.000000	0.029342
1297.000000	0.029187
1296.000000	0.029034
1295.000000	0.028865
1294.000000	0.028687
1293.000000	0.028538
1292.000000	0.028424
1291.000000	0.028307
1290.000000	0.028168
1289.000000	0.028039
1288.000000	0.027936
1287.000000	0.027830
1286.000000	0.027705
1285.000000	0.027591
1284.000000	0.027501
1283.000000	0.027402
1282.000000	0.027272
1281.000000	0.027144
1280.000000	0.027047
1279.000000	0.026966
1278.000000	0.026884
1277.000000	0.026819
1276.000000	0.026782
1275.000000	0.026748
1274.000000	0.026699
1273.000000	0.026653
1272.000000	0.026631
1271.000000	0.026613
1270.000000	0.026587
1269.000000	0.026578
1268.000000	0.026603
1267.000000	0.026641
1266.000000	0.026672
1265.000000	0.026711
1264.000000	0.026763
1263.000000	0.026797
1262.000000	0.026800
1261.000000	0.026812
1260.000000	0.026859
1259.000000	0.026912
1258.000000	0.026938
1257.000000	0.026948
1256.000000	0.026953
1255.000000	0.026937
1254.000000	0.026891
1253.000000	0.026839
1252.000000	0.026793
1251.000000	0.026729
1250.000000	0.026639
1249.000000	0.026556
1248.000000	0.026507
1247.000000	0.026471
1246.000000	0.026425
1245.000000	0.026386
1244.000000	0.026372
1243.000000	0.026370
1242.000000	0.026360
1241.000000	0.026343
1240.000000	0.026312
1239.000000	0.026242
1238.000000	0.026133
1237.000000	0.026025
1236.000000	0.025935
1235.000000	0.025834
1234.000000	0.025705
1233.000000	0.025578
1232.000000	0.025480
1231.000000	0.025391
1230.000000	0.025285
1229.000000	0.025165
1228.000000	0.025034
1227.000000	0.024873
1226.000000	0.024674
1225.000000	0.024459
1224.000000	0.024240
1223.000000	0.024014
1222.000000	0.023794
1221.000000	0.023615
1220.000000	0.023480
1219.000000	0.023354
1218.000000	0.023220
1217.000000	0.023105
1216.000000	0.023012
1215.000000	0.022898
1214.000000	0.022745
1213.000000	0.022591
1212.000000	0.022476
1211.000000	0.022382
1210.000000	0.022283
1209.000000	0.022187
1208.000000	0.022106
1207.000000	0.022029
1206.000000	0.021947
1205.000000	0.021879
1204.000000	0.021831
1203.000000	0.021772
1202.000000	0.021688
1201.000000	0.021607
1200.000000	0.021543
1199.000000	0.021475
1198.000000	0.021387
1197.000000	0.021302
1196.000000	0.021238
1195.000000	0.021180
1194.000000	0.021122
1193.000000	0.021086
1192.000000	0.021072
1191.000000	0.021040
1190.000000	0.020966
1189.000000	0.020889
1188.000000	0.020847
1187.000000	0.020837
1186.000000	0.020838
1185.000000	0.020851
1184.000000	0.020874
1183.000000	0.020888
1182.000000	0.020896
1181.000000	0.020926
1180.000000	0.020983
1179.000000	0.021028
1178.000000	0.021052
1177.000000	0.021091
1176.000000	0.021161
1175.000000	0.021228
1174.000000	0.021265
1173.000000	0.021297
1172.000000	0.021345
1171.000000	0.021385
1170.000000	0.021402
1169.000000	0.021421
1168.000000	0.021457
1167.000000	0.021482
1166.000000	0.021482
1165.000000	0.021488
1164.000000	0.021517
1163.000000	0.021532
1162.000000	0.021507
1161.000000	0.021473
1160.000000	0.021455
1159.000000	0.021429
1158.000000	0.021368
1157.000000	0.021300
1156.000000	0.021248
1155.000000	0.021191
1154.000000	0.021104
1153.000000	0.020995
1152.000000	0.020866
1151.000000	0.020699
1150.000000	0.020503
1149.000000	0.020336
1148.000000	0.020220
1147.000000	0.020102
1146.000000	0.019938
1145.000000	0.019760
1144.000000	0.019604
1143.000000	0.019452
1142.000000	0.019278
1141.000000	0.019107
1140.000000	0.018975
1139.000000	0.018869
1138.000000	0.018770
1137.000000	0.018691
1136.000000	0.018639
1135.000000	0.018581
1134.000000	0.018494
1133.000000	0.018409
1132.000000	0.018355
1131.000000	0.018318
1130.000000	0.018280
1129.000000	0.018261
1128.000000	0.018272
1127.000000	0.018276
1126.000000	0.018249
1125.000000	0.018224
1124.000000	0.018231
1123.000000	0.018250
1122.000000	0.018256
1121.000000	0.018264
1120.000000	0.018296
1119.000000	0.018332
1118.000000	0.018358
1117.000000	0.018389
1116.000000	0.018435
1115.000000	0.018474
1114.000000	0.018500
1113.000000	0.018545
1112.000000	0.018617
1111.000000	0.018681
1110.000000	0.018722
1109.000000	0.018776
1108.000000	0.018849
1107.000000	0.018891
1106.000000	0.018885
1105.000000	0.018884
1104.000000	0.018917
1103.000000	0.018941
1102.000000	0.018925
1101.000000	0.018912
1100.000000	0.018944
1099.000000	0.018994
1098.000000	0.019030
1097.000000	0.019079
1096.000000	0.019166
1095.000000	0.019259
1094.000000	0.019320
1093.000000	0.019366
1092.000000	0.019411
1091.000000	0.019430
1090.000000	0.019412
1089.000000	0.019401
1088.000000	0.019420
1087.000000	0.019426
1086.000000	0.019386
1085.000000	0.019330
1084.000000	0.019288
1083.000000	0.019237
1082.000000	0.019170
1081.000000	0.019131
1080.000000	0.019141
1079.000000	0.019150
1078.000000	0.019115
1077.000000	0.019061
1076.000000	0.019009
1075.000000	0.018935
1074.000000	0.018832
1073.000000	0.018757
1072.000000	0.018744
1071.000000	0.018752
1070.000000	0.018741
1069.000000	0.018734
1068.000000	0.018749
1067.000000	0.018747
1066.000000	0.018698
1065.000000	0.018647
1064.000000	0.018633
1063.000000	0.018630
1062.000000	0.018615
1061.000000	0.018616
1060.000000	0.018649
1059.000000	0.018670
1058.000000	0.018649
1057.000000	0.018621
1056.000000	0.018620
1055.000000	0.018616
1054.000000	0.018589
1053.000000	0.018586
1052.000000	0.018644
1051.000000	0.018722
1050.000000	0.018770
1049.000000	0.018801
1048.000000	0.018838
1047.000000	0.018864
1046.000000	0.018878
1045.000000	0.018930
1044.000000	0.019041
1043.000000	0.019164
1042.000000	0.019248
1041.000000	0.019308
1040.000000	0.019359
1039.000000	0.019381
1038.000000	0.019375
1037.000000	0.019390
1036.000000	0.019439
1035.000000	0.019471
1034.000000	0.019467
1033.000000	0.019484
1032.000000	0.019560
1031.000000	0.019645
1030.000000	0.019696
1029.000000	0.019732
1028.000000	0.019762
1027.000000	0.019733
1026.000000	0.019626
1025.000000	0.019524
1024.000000	0.019495
1023.000000	0.019506
1022.000000	0.019496
1021.000000	0.019476
1020.000000	0.019477
1019.000000	0.019476
1018.000000	0.019435
1017.000000	0.019377
1016.000000	0.019335
1015.000000	0.019294
1014.000000	0.019238
1013.000000	0.019183
1012.000000	0.019131
1011.000000	0.019045
1010.000000	0.018919
1009.000000	0.018804
1008.000000	0.018721
1007.000000	0.018622
1006.000000	0.018482
1005.000000	0.018350
1004.000000	0.018263
1003.000000	0.018184
1002.000000	0.018077
1001.000000	0.017964
1000.000000	0.017869
999.000000	0.017760
998.000000	0.017622
997.000000	0.017500
996.000000	0.017422
995.000000	0.017342
994.000000	0.017219
993.000000	0.017089
992.000000	0.016991
991.000000	0.016910
990.000000	0.016820
989.000000	0.016733
988.000000	0.016647
987.000000	0.016523
986.000000	0.016354
985.000000	0.016199
984.000000	0.016089
983.000000	0.015980
982.000000	0.015851
981.000000	0.015757
980.000000	0.015732
979.000000	0.015723
978.000000	0.015673
977.000000	0.015601
976.000000	0.015538
975.000000	0.015462
974.000000	0.015358
973.000000	0.015262
972.000000	0.015198
971.000000	0.015126
970.000000	0.015026
969.000000	0.014940
968.000000	0.014893
967.000000	0.014835
966.000000	0.014730
965.000000	0.014623
964.000000	0.014558
963.000000	0.014503
962.000000	0.014418
961.000000	0.014332
960.000000	0.014267
959.000000	0.014184
958.000000	0.014055
957.000000	0.013931
956.000000	0.013855
955.000000	0.013783
954.000000	0.013660
953.000000	0.013515
952.000000	0.013407
951.000000	0.013327
950.000000	0.013235
949.000000	0.013131
948.000000	0.013035
947.000000	0.012942
946.000000	0.012848
945.000000	0.012771
944.000000	0.012710
943.000000	0.012620
942.000000	0.012497
941.000000	0.012397
940.000000	0.012346
939.000000	0.012299
938.000000	0.012223
937.000000	0.012160
936.000000	0.012136
935.000000	0.012102
934.000000	0.012018
933.000000	0.011921
932.000000	0.011847
931.000000	0.011763
930.000000	0.011643
929.000000	0.011520
928.000000	0.011426
927.000000	0.011329
926.000000	0.011203
925.000000	0.011089
924.000000	0.011018
923.000000	0.010953
922.000000	0.010863
921.000000	0.010788
920.000000	0.010757
919.000000	0.010725
918.000000	0.010639
917.000000	0.010519
916.000000	0.010398
915.000000	0.010264
914.000000	0.010106
913.000000	0.009961
912.000000	0.009853
911.000000	0.009749
910.000000	0.009625
909.000000	0.009512
908.000000	0.009420
907.000000	0.009293
906.000000	0.009105
905.000000	0.008916
904.000000	0.008783
903.000000	0.008670
902.000000	0.008525
901.000000	0.008365
900.000000	0.008219
899.000000	0.008066
898.000000	0.007890
897.000000	0.007728
896.000000	0.007604
895.000000	0.007484
894.000000	0.007342
893.000000	0.007210
892.000000	0.007107
891.000000	0.006999
890.000000	0.006906
889.000000	0.006984
888.000000	0.007441
887.000000	0.008434
886.000000	0.010043
885.000000	0.012232
884.000000	0.014779
883.000000	0.017373
882.000000	0.019881
881.000000	0.022445
880.000000	0.025232
879.000000	0.028201
878.000000	0.031186
877.000000	0.034070
876.000000	0.036773
875.000000	0.039199
874.000000	0.041291
873.000000	0.043057
872.000000	0.044398
871.000000	0.045047
870.000000	0.044787
869.000000	0.043665
868.000000	0.041913
867.000000	0.039775
866.000000	0.037481
865.000000	0.035254
864.000000	0.033206
863.000000	0.031307
862.000000	0.029515
861.000000	0.027874
860.000000	0.026422
859.000000	0.025128
858.000000	0.023959
857.000000	0.022937
856.000000	0.022049
855.000000	0.021204
854.000000	0.020353
853.000000	0.019560
852.000000	0.018931
851.000000	0.018556
850.000000	0.018516
849.000000	0.018789
848.000000	0.019104
847.000000	0.019066
846.000000	0.018549
845.000000	0.017812
844.000000	0.017155
843.000000	0.016615
842.000000	0.016103
841.000000	0.015639
840.000000	0.015296
839.000000	0.015040
838.000000	0.014782
837.000000	0.014518
836.000000	0.014281
835.000000	0.014046
834.000000	0.013795
833.000000	0.013585
832.000000	0.013454
831.000000	0.013336
830.000000	0.013169
829.000000	0.012988
828.000000	0.012825
827.000000	0.012624
826.000000	0.012357
825.000000	0.012121
824.000000	0.011986
823.000000	0.011876
822.000000	0.011712
821.000000	0.011557
820.000000	0.011483
819.000000	0.011430
818.000000	0.011314
817.000000	0.011155
816.000000	0.011009
815.000000	0.010866
814.000000	0.010727
813.000000	0.010659
812.000000	0.010677
811.000000	0.010671
810.000000	0.010566
809.000000	0.010445
808.000000	0.010408
807.000000	0.010413
806.000000	0.010379
805.000000	0.010324
804.000000	0.010292
803.000000	0.010240
802.000000	0.010131
801.000000	0.010041
800.000000	0.010043
799.000000	0.010079
798.000000	0.010064
797.000000	0.010019
796.000000	0.009992
795.000000	0.009953
794.000000	0.009867
793.000000	0.009794
792.000000	0.009787
791.000000	0.009785
790.000000	0.009730
789.000000	0.009676
788.000000	0.009695
787.000000	0.009751
786.000000	0.009773
785.000000	0.009761
784.000000	0.009737
783.000000	0.009665
782.000000	0.009538
781.000000	0.009438
780.000000	0.009423
779.000000	0.009434
778.000000	0.009408
777.000000	0.009387
776.000000	0.009412
775.000000	0.009420
774.000000	0.009341
773.000000	0.009227
772.000000	0.009156
771.000000	0.009111
770.000000	0.009053
769.000000	0.009024
768.000000	0.009054
767.000000	0.009070
766.000000	0.008995
765.000000	0.008885
764.000000	0.008839
763.000000	0.008855
762.000000	0.008874
761.000000	0.008897
760.000000	0.008941
759.000000	0.008949
758.000000	0.008863
757.000000	0.008738
756.000000	0.008666
755.000000	0.008650
754.000000	0.008639
753.000000	0.008627
752.000000	0.008627
751.000000	0.008609
750.000000	0.008555
749.000000	0.008518
748.000000	0.008539
747.000000	0.008568
746.000000	0.008546
745.000000	0.008513
744.000000	0.008521
743.000000	0.008533
742.000000	0.008480
741.000000	0.008375
740.000000	0.008280
739.000000	0.008202
738.000000	0.008113
737.000000	0.008023
736.000000	0.007957
735.000000	0.007903
734.000000	0.007859
733.000000	0.007860
732.000000	0.007911
731.000000	0.007929
730.000000	0.007841
729.000000	0.007700
728.000000	0.007593
727.000000	0.007515
726.000000	0.007434
725.000000	0.007383
724.000000	0.007373
723.000000	0.007335
722.000000	0.007254
721.000000	0.007253
720.000000	0.007459
719.000000	0.007877
718.000000	0.008553
717.000000	0.009790
716.000000	0.012035
715.000000	0.015483
714.000000	0.019724
713.000000	0.023744
712.000000	0.026318
711.000000	0.026720
710.000000	0.025200
709.000000	0.022752
708.000000	0.020353
707.000000	0.018412
706.000000	0.016924
705.000000	0.015843
704.000000	0.015113
703.000000	0.014589
702.000000	0.014126
701.000000	0.013711
700.000000	0.013402
699.000000	0.013165
698.000000	0.012925
697.000000	0.012705
696.000000	0.012544
695.000000	0.012413
694.000000	0.012237
693.000000	0.012000
692.000000	0.011767
691.000000	0.011565
690.000000	0.011389
689.000000	0.011263
688.000000	0.011183
687.000000	0.011089
686.000000	0.010916
685.000000	0.010675
684.000000	0.010454
683.000000	0.010285
682.000000	0.010125
681.000000	0.009979
680.000000	0.009951
679.000000	0.010085
678.000000	0.010235
677.000000	0.010317
676.000000	0.010369
675.000000	0.010426
674.000000	0.010402
673.000000	0.010159
672.000000	0.009583
671.000000	0.008572
670.000000	0.007071
669.000000	0.005396
668.000000	0.004882
667.000000	0.006302
666.000000	0.007789
665.000000	0.008878
664.000000	0.009770
663.000000	0.010240
662.000000	0.010194
661.000000	0.009963
660.000000	0.009870
659.000000	0.009829
658.000000	0.009654
657.000000	0.009496
656.000000	0.009484
655.000000	0.009440
654.000000	0.009292
653.000000	0.009299
652.000000	0.009519
651.000000	0.009617
650.000000	0.009437
649.000000	0.009327
648.000000	0.009534
647.000000	0.009796
646.000000	0.009875
645.000000	0.009939
644.000000	0.010155
643.000000	0.010373
642.000000	0.010436
641.000000	0.010483
640.000000	0.010648
639.000000	0.010760
638.000000	0.010690
637.000000	0.010614
636.000000	0.010665
635.000000	0.010693
634.000000	0.010603
633.000000	0.010555
632.000000	0.010638
631.000000	0.010665
630.000000	0.010530
629.000000	0.010427
628.000000	0.010485
627.000000	0.010509
626.000000	0.010374
625.000000	0.010267
624.000000	0.010325
623.000000	0.010401
622.000000	0.010382
621.000000	0.010418
620.000000	0.010598
619.000000	0.010743
618.000000	0.010737
617.000000	0.010757
616.000000	0.010935
615.000000	0.011100
614.000000	0.011118
613.000000	0.011145
612.000000	0.011289
611.000000	0.011354
610.000000	0.011188
609.000000	0.010975
608.000000	0.010914
607.000000	0.010903
606.000000	0.010822
605.000000	0.010782
604.000000	0.010871
603.000000	0.010950
602.000000	0.010919
601.000000	0.010889
600.000000	0.010914
599.000000	0.010833
598.000000	0.010593
597.000000	0.010405
596.000000	0.010373
595.000000	0.010293
594.000000	0.010044
593.000000	0.009836
592.000000	0.009836
591.000000	0.009880
590.000000	0.009811
589.000000	0.009771
588.000000	0.009867
587.000000	0.009903
586.000000	0.009739
585.000000	0.009579
584.000000	0.009629
583.000000	0.009764
582.000000	0.009815
581.000000	0.009851
580.000000	0.009921
579.000000	0.009849
578.000000	0.009594
577.000000	0.009446
576.000000	0.009570
575.000000	0.009703
574.000000	0.009611
573.000000	0.009473
572.000000	0.009489
571.000000	0.009525
570.000000	0.009429
569.000000	0.009368
568.000000	0.009481
567.000000	0.009561
566.000000	0.009433
565.000000	0.009280
564.000000	0.009275
563.000000	0.009260
562.000000	0.009120
561.000000	0.009066
560.000000	0.009230
559.000000	0.009350
558.000000	0.009235
557.000000	0.009124
556.000000	0.009234
555.000000	0.009334
554.000000	0.009171
553.000000	0.008939
552.000000	0.008901
551.000000	0.008932
550.000000	0.008818
549.000000	0.008691
548.000000	0.008731
547.000000	0.008785
546.000000	0.008676
545.000000	0.008590
544.000000	0.008717
543.000000	0.008886
542.000000	0.008897
541.000000	0.008896
540.000000	0.009041
539.000000	0.009158
538.000000	0.009091
537.000000	0.009042
536.000000	0.009194
535.000000	0.009332
534.000000	0.009254
533.000000	0.009156
532.000000	0.009266
531.000000	0.009448
530.000000	0.009527
529.000000	0.009645
528.000000	0.009915
527.000000	0.010080
526.000000	0.009934
525.000000	0.009768
524.000000	0.009873
523.000000	0.010045
522.000000	0.010014
521.000000	0.009912
520.000000	0.009928
519.000000	0.009891
518.000000	0.009620
517.000000	0.009382
516.000000	0.009457
515.000000	0.009647
514.000000	0.009659
513.000000	0.009574
512.000000	0.009554
511.000000	0.009475
510.000000	0.009222
509.000000	0.008997
508.000000	0.008996
507.000000	0.009062
506.000000	0.009046
505.000000	0.009130
504.000000	0.009406
503.000000	0.009557
502.000000	0.009327
501.000000	0.008976
500.000000	0.008807
499.000000	0.008695
498.000000	0.008511
497.000000	0.008479
496.000000	0.008722
495.000000	0.008900
494.000000	0.008715
493.000000	0.008403
492.000000	0.008285
491.000000	0.008217
490.000000	0.007971
489.000000	0.007728
488.000000	0.007720
487.000000	0.007828
486.000000	0.007922
485.000000	0.008194
484.000000	0.008703
483.000000	0.009039
482.000000	0.008936
481.000000	0.008733
480.000000	0.008744
479.000000	0.008739
478.000000	0.008539
477.000000	0.008545
476.000000	0.009123
475.000000	0.009954
474.000000	0.010561
473.000000	0.010993
472.000000	0.011427
471.000000	0.011567
470.000000	0.011194
469.000000	0.010695
468.000000	0.010425
467.000000	0.010172
466.000000	0.009731
465.000000	0.009394
464.000000	0.009345
463.000000	0.009214
462.000000	0.008770
461.000000	0.008472
460.000000	0.008675
459.000000	0.008946
458.000000	0.008787
457.000000	0.008509
456.000000	0.008547
455.000000	0.008625
454.000000	0.008463
453.000000	0.008296
452.000000	0.008229
451.000000	0.007806
450.000000	0.007135
