PE IR       SUBTECH     SPECTRUM    ASCII       PEDS        4.00        
   -1
P8-Or034_1.ASC
23/06/13
15:55:02.00
23/06/13
16:11:22.00
uco
Sample 034 By uco Date Tuesday, June 13 2023
450.000000
#HDR
-1
-1
#GR
cm-1
A
1.0
0.0
4000.000000
-1.000000
3551
8
0.061184
0.016155
#DATA
4000.000000	0.018540
3999.000000	0.018567
3998.000000	0.018597
3997.000000	0.018618
3996.000000	0.018620
3995.000000	0.018607
3994.000000	0.018591
3993.000000	0.018580
3992.000000	0.018574
3991.000000	0.018567
3990.000000	0.018554
3989.000000	0.018541
3988.000000	0.018538
3987.000000	0.018552
3986.000000	0.018576
3985.000000	0.018597
3984.000000	0.018605
3983.000000	0.018602
3982.000000	0.018597
3981.000000	0.018600
3980.000000	0.018613
3979.000000	0.018628
3978.000000	0.018632
3977.000000	0.018621
3976.000000	0.018599
3975.000000	0.018581
3974.000000	0.018582
3973.000000	0.018605
3972.000000	0.018636
3971.000000	0.018655
3970.000000	0.018650
3969.000000	0.018628
3968.000000	0.018608
3967.000000	0.018606
3966.000000	0.018622
3965.000000	0.018641
3964.000000	0.018650
3963.000000	0.018646
3962.000000	0.018638
3961.000000	0.018634
3960.000000	0.018640
3959.000000	0.018655
3958.000000	0.018671
3957.000000	0.018679
3956.000000	0.018670
3955.000000	0.018648
3954.000000	0.018627
3953.000000	0.018619
3952.000000	0.018630
3951.000000	0.018652
3950.000000	0.018673
3949.000000	0.018687
3948.000000	0.018693
3947.000000	0.018689
3946.000000	0.018671
3945.000000	0.018635
3944.000000	0.018593
3943.000000	0.018565
3942.000000	0.018567
3941.000000	0.018589
3940.000000	0.018609
3939.000000	0.018618
3938.000000	0.018623
3937.000000	0.018639
3936.000000	0.018669
3935.000000	0.018701
3934.000000	0.018722
3933.000000	0.018721
3932.000000	0.018705
3931.000000	0.018685
3930.000000	0.018675
3929.000000	0.018677
3928.000000	0.018678
3927.000000	0.018665
3926.000000	0.018640
3925.000000	0.018621
3924.000000	0.018624
3923.000000	0.018646
3922.000000	0.018675
3921.000000	0.018704
3920.000000	0.018738
3919.000000	0.018779
3918.000000	0.018815
3917.000000	0.018833
3916.000000	0.018828
3915.000000	0.018803
3914.000000	0.018766
3913.000000	0.018724
3912.000000	0.018687
3911.000000	0.018663
3910.000000	0.018652
3909.000000	0.018652
3908.000000	0.018655
3907.000000	0.018664
3906.000000	0.018688
3905.000000	0.018749
3904.000000	0.018852
3903.000000	0.018966
3902.000000	0.019030
3901.000000	0.019016
3900.000000	0.018947
3899.000000	0.018874
3898.000000	0.018831
3897.000000	0.018819
3896.000000	0.018825
3895.000000	0.018837
3894.000000	0.018842
3893.000000	0.018834
3892.000000	0.018829
3891.000000	0.018853
3890.000000	0.018906
3889.000000	0.018959
3888.000000	0.018982
3887.000000	0.018973
3886.000000	0.018955
3885.000000	0.018951
3884.000000	0.018957
3883.000000	0.018944
3882.000000	0.018903
3881.000000	0.018858
3880.000000	0.018847
3879.000000	0.018875
3878.000000	0.018908
3877.000000	0.018913
3876.000000	0.018886
3875.000000	0.018857
3874.000000	0.018862
3873.000000	0.018901
3872.000000	0.018932
3871.000000	0.018927
3870.000000	0.018908
3869.000000	0.018906
3868.000000	0.018911
3867.000000	0.018903
3866.000000	0.018888
3865.000000	0.018883
3864.000000	0.018899
3863.000000	0.018923
3862.000000	0.018937
3861.000000	0.018939
3860.000000	0.018938
3859.000000	0.018944
3858.000000	0.018958
3857.000000	0.018970
3856.000000	0.018965
3855.000000	0.018924
3854.000000	0.018884
3853.000000	0.018902
3852.000000	0.018942
3851.000000	0.018943
3850.000000	0.018913
3849.000000	0.018883
3848.000000	0.018866
3847.000000	0.018859
3846.000000	0.018856
3845.000000	0.018855
3844.000000	0.018864
3843.000000	0.018888
3842.000000	0.018924
3841.000000	0.018956
3840.000000	0.018971
3839.000000	0.018969
3838.000000	0.018962
3837.000000	0.018952
3836.000000	0.018937
3835.000000	0.018916
3834.000000	0.018889
3833.000000	0.018861
3832.000000	0.018837
3831.000000	0.018824
3830.000000	0.018814
3829.000000	0.018792
3828.000000	0.018756
3827.000000	0.018737
3826.000000	0.018767
3825.000000	0.018844
3824.000000	0.018927
3823.000000	0.018967
3822.000000	0.018957
3821.000000	0.018950
3820.000000	0.018980
3819.000000	0.019009
3818.000000	0.018998
3817.000000	0.018954
3816.000000	0.018915
3815.000000	0.018901
3814.000000	0.018892
3813.000000	0.018869
3812.000000	0.018843
3811.000000	0.018835
3810.000000	0.018844
3809.000000	0.018849
3808.000000	0.018839
3807.000000	0.018837
3806.000000	0.018862
3805.000000	0.018890
3804.000000	0.018883
3803.000000	0.018832
3802.000000	0.018779
3801.000000	0.018776
3800.000000	0.018810
3799.000000	0.018830
3798.000000	0.018822
3797.000000	0.018809
3796.000000	0.018814
3795.000000	0.018827
3794.000000	0.018821
3793.000000	0.018783
3792.000000	0.018725
3791.000000	0.018668
3790.000000	0.018630
3789.000000	0.018615
3788.000000	0.018620
3787.000000	0.018641
3786.000000	0.018676
3785.000000	0.018723
3784.000000	0.018769
3783.000000	0.018800
3782.000000	0.018806
3781.000000	0.018790
3780.000000	0.018767
3779.000000	0.018757
3778.000000	0.018761
3777.000000	0.018767
3776.000000	0.018769
3775.000000	0.018777
3774.000000	0.018802
3773.000000	0.018836
3772.000000	0.018864
3771.000000	0.018882
3770.000000	0.018890
3769.000000	0.018884
3768.000000	0.018851
3767.000000	0.018795
3766.000000	0.018746
3765.000000	0.018738
3764.000000	0.018771
3763.000000	0.018815
3762.000000	0.018837
3761.000000	0.018827
3760.000000	0.018796
3759.000000	0.018771
3758.000000	0.018769
3757.000000	0.018793
3756.000000	0.018833
3755.000000	0.018879
3754.000000	0.018928
3753.000000	0.018985
3752.000000	0.019050
3751.000000	0.019127
3750.000000	0.019206
3749.000000	0.019265
3748.000000	0.019292
3747.000000	0.019292
3746.000000	0.019281
3745.000000	0.019283
3744.000000	0.019304
3743.000000	0.019290
3742.000000	0.019211
3741.000000	0.019109
3740.000000	0.019032
3739.000000	0.018996
3738.000000	0.018985
3737.000000	0.018972
3736.000000	0.018933
3735.000000	0.018854
3734.000000	0.018763
3733.000000	0.018705
3732.000000	0.018703
3731.000000	0.018748
3730.000000	0.018812
3729.000000	0.018878
3728.000000	0.018933
3727.000000	0.018966
3726.000000	0.018966
3725.000000	0.018936
3724.000000	0.018892
3723.000000	0.018854
3722.000000	0.018834
3721.000000	0.018828
3720.000000	0.018816
3719.000000	0.018787
3718.000000	0.018753
3717.000000	0.018737
3716.000000	0.018756
3715.000000	0.018811
3714.000000	0.018895
3713.000000	0.019005
3712.000000	0.019118
3711.000000	0.019191
3710.000000	0.019179
3709.000000	0.019081
3708.000000	0.018944
3707.000000	0.018824
3706.000000	0.018749
3705.000000	0.018698
3704.000000	0.018629
3703.000000	0.018531
3702.000000	0.018444
3701.000000	0.018422
3700.000000	0.018471
3699.000000	0.018549
3698.000000	0.018619
3697.000000	0.018677
3696.000000	0.018737
3695.000000	0.018814
3694.000000	0.018899
3693.000000	0.018955
3692.000000	0.018933
3691.000000	0.018816
3690.000000	0.018659
3689.000000	0.018569
3688.000000	0.018597
3687.000000	0.018694
3686.000000	0.018786
3685.000000	0.018836
3684.000000	0.018853
3683.000000	0.018860
3682.000000	0.018867
3681.000000	0.018877
3680.000000	0.018900
3679.000000	0.018941
3678.000000	0.018976
3677.000000	0.018969
3676.000000	0.018936
3675.000000	0.018949
3674.000000	0.019013
3673.000000	0.019060
3672.000000	0.019053
3671.000000	0.018998
3670.000000	0.018937
3669.000000	0.018904
3668.000000	0.018885
3667.000000	0.018859
3666.000000	0.018827
3665.000000	0.018797
3664.000000	0.018770
3663.000000	0.018747
3662.000000	0.018736
3661.000000	0.018749
3660.000000	0.018787
3659.000000	0.018831
3658.000000	0.018862
3657.000000	0.018883
3656.000000	0.018923
3655.000000	0.018990
3654.000000	0.019060
3653.000000	0.019106
3652.000000	0.019123
3651.000000	0.019124
3650.000000	0.019129
3649.000000	0.019136
3648.000000	0.019123
3647.000000	0.019086
3646.000000	0.019043
3645.000000	0.019004
3644.000000	0.018969
3643.000000	0.018942
3642.000000	0.018923
3641.000000	0.018907
3640.000000	0.018893
3639.000000	0.018886
3638.000000	0.018895
3637.000000	0.018918
3636.000000	0.018949
3635.000000	0.018995
3634.000000	0.019068
3633.000000	0.019168
3632.000000	0.019273
3631.000000	0.019358
3630.000000	0.019409
3629.000000	0.019433
3628.000000	0.019437
3627.000000	0.019406
3626.000000	0.019337
3625.000000	0.019252
3624.000000	0.019164
3623.000000	0.019060
3622.000000	0.018921
3621.000000	0.018761
3620.000000	0.018646
3619.000000	0.018668
3618.000000	0.018840
3617.000000	0.019075
3616.000000	0.019275
3615.000000	0.019398
3614.000000	0.019456
3613.000000	0.019489
3612.000000	0.019522
3611.000000	0.019553
3610.000000	0.019570
3609.000000	0.019563
3608.000000	0.019529
3607.000000	0.019474
3606.000000	0.019407
3605.000000	0.019344
3604.000000	0.019304
3603.000000	0.019298
3602.000000	0.019318
3601.000000	0.019343
3600.000000	0.019353
3599.000000	0.019349
3598.000000	0.019346
3597.000000	0.019358
3596.000000	0.019388
3595.000000	0.019429
3594.000000	0.019462
3593.000000	0.019472
3592.000000	0.019456
3591.000000	0.019431
3590.000000	0.019414
3589.000000	0.019414
3588.000000	0.019439
3587.000000	0.019492
3586.000000	0.019557
3585.000000	0.019606
3584.000000	0.019623
3583.000000	0.019617
3582.000000	0.019608
3581.000000	0.019612
3580.000000	0.019634
3579.000000	0.019669
3578.000000	0.019703
3577.000000	0.019724
3576.000000	0.019726
3575.000000	0.019715
3574.000000	0.019699
3573.000000	0.019686
3572.000000	0.019685
3571.000000	0.019700
3570.000000	0.019731
3569.000000	0.019770
3568.000000	0.019811
3567.000000	0.019852
3566.000000	0.019890
3565.000000	0.019911
3564.000000	0.019909
3563.000000	0.019888
3562.000000	0.019860
3561.000000	0.019841
3560.000000	0.019842
3559.000000	0.019868
3558.000000	0.019908
3557.000000	0.019950
3556.000000	0.019979
3555.000000	0.019988
3554.000000	0.019980
3553.000000	0.019968
3552.000000	0.019976
3551.000000	0.020010
3550.000000	0.020053
3549.000000	0.020088
3548.000000	0.020112
3547.000000	0.020136
3546.000000	0.020159
3545.000000	0.020172
3544.000000	0.020173
3543.000000	0.020172
3542.000000	0.020177
3541.000000	0.020182
3540.000000	0.020181
3539.000000	0.020179
3538.000000	0.020188
3537.000000	0.020215
3536.000000	0.020262
3535.000000	0.020316
3534.000000	0.020362
3533.000000	0.020388
3532.000000	0.020392
3531.000000	0.020383
3530.000000	0.020370
3529.000000	0.020358
3528.000000	0.020355
3527.000000	0.020363
3526.000000	0.020380
3525.000000	0.020397
3524.000000	0.020411
3523.000000	0.020426
3522.000000	0.020445
3521.000000	0.020466
3520.000000	0.020488
3519.000000	0.020512
3518.000000	0.020539
3517.000000	0.020566
3516.000000	0.020591
3515.000000	0.020613
3514.000000	0.020625
3513.000000	0.020620
3512.000000	0.020601
3511.000000	0.020584
3510.000000	0.020585
3509.000000	0.020605
3508.000000	0.020635
3507.000000	0.020666
3506.000000	0.020693
3505.000000	0.020714
3504.000000	0.020733
3503.000000	0.020757
3502.000000	0.020784
3501.000000	0.020804
3500.000000	0.020811
3499.000000	0.020808
3498.000000	0.020806
3497.000000	0.020819
3496.000000	0.020851
3495.000000	0.020898
3494.000000	0.020946
3493.000000	0.020975
3492.000000	0.020979
3491.000000	0.020971
3490.000000	0.020970
3489.000000	0.020982
3488.000000	0.021002
3487.000000	0.021020
3486.000000	0.021032
3485.000000	0.021040
3484.000000	0.021047
3483.000000	0.021063
3482.000000	0.021089
3481.000000	0.021118
3480.000000	0.021141
3479.000000	0.021152
3478.000000	0.021157
3477.000000	0.021165
3476.000000	0.021190
3475.000000	0.021236
3474.000000	0.021294
3473.000000	0.021343
3472.000000	0.021366
3471.000000	0.021367
3470.000000	0.021364
3469.000000	0.021366
3468.000000	0.021378
3467.000000	0.021395
3466.000000	0.021411
3465.000000	0.021418
3464.000000	0.021417
3463.000000	0.021414
3462.000000	0.021415
3461.000000	0.021421
3460.000000	0.021431
3459.000000	0.021449
3458.000000	0.021473
3457.000000	0.021497
3456.000000	0.021508
3455.000000	0.021503
3454.000000	0.021493
3453.000000	0.021490
3452.000000	0.021502
3451.000000	0.021527
3450.000000	0.021553
3449.000000	0.021573
3448.000000	0.021591
3447.000000	0.021622
3446.000000	0.021667
3445.000000	0.021709
3444.000000	0.021731
3443.000000	0.021735
3442.000000	0.021735
3441.000000	0.021740
3440.000000	0.021747
3439.000000	0.021753
3438.000000	0.021758
3437.000000	0.021765
3436.000000	0.021780
3435.000000	0.021802
3434.000000	0.021831
3433.000000	0.021868
3432.000000	0.021910
3431.000000	0.021952
3430.000000	0.021977
3429.000000	0.021976
3428.000000	0.021954
3427.000000	0.021934
3426.000000	0.021940
3425.000000	0.021974
3424.000000	0.022022
3423.000000	0.022065
3422.000000	0.022092
3421.000000	0.022107
3420.000000	0.022123
3419.000000	0.022148
3418.000000	0.022178
3417.000000	0.022199
3416.000000	0.022202
3415.000000	0.022189
3414.000000	0.022170
3413.000000	0.022156
3412.000000	0.022163
3411.000000	0.022196
3410.000000	0.022243
3409.000000	0.022284
3408.000000	0.022304
3407.000000	0.022302
3406.000000	0.022287
3405.000000	0.022269
3404.000000	0.022259
3403.000000	0.022267
3402.000000	0.022292
3401.000000	0.022323
3400.000000	0.022352
3399.000000	0.022374
3398.000000	0.022388
3397.000000	0.022391
3396.000000	0.022384
3395.000000	0.022375
3394.000000	0.022371
3393.000000	0.022376
3392.000000	0.022394
3391.000000	0.022425
3390.000000	0.022464
3389.000000	0.022505
3388.000000	0.022547
3387.000000	0.022592
3386.000000	0.022631
3385.000000	0.022649
3384.000000	0.022641
3383.000000	0.022621
3382.000000	0.022613
3381.000000	0.022623
3380.000000	0.022644
3379.000000	0.022661
3378.000000	0.022672
3377.000000	0.022682
3376.000000	0.022699
3375.000000	0.022727
3374.000000	0.022762
3373.000000	0.022793
3372.000000	0.022807
3371.000000	0.022805
3370.000000	0.022794
3369.000000	0.022784
3368.000000	0.022783
3367.000000	0.022795
3366.000000	0.022820
3365.000000	0.022851
3364.000000	0.022882
3363.000000	0.022914
3362.000000	0.022951
3361.000000	0.022991
3360.000000	0.023024
3359.000000	0.023043
3358.000000	0.023050
3357.000000	0.023054
3356.000000	0.023066
3355.000000	0.023094
3354.000000	0.023133
3353.000000	0.023173
3352.000000	0.023210
3351.000000	0.023248
3350.000000	0.023291
3349.000000	0.023333
3348.000000	0.023362
3347.000000	0.023375
3346.000000	0.023374
3345.000000	0.023372
3344.000000	0.023379
3343.000000	0.023402
3342.000000	0.023438
3341.000000	0.023475
3340.000000	0.023504
3339.000000	0.023525
3338.000000	0.023537
3337.000000	0.023539
3336.000000	0.023530
3335.000000	0.023521
3334.000000	0.023522
3333.000000	0.023537
3332.000000	0.023565
3331.000000	0.023603
3330.000000	0.023648
3329.000000	0.023684
3328.000000	0.023691
3327.000000	0.023666
3326.000000	0.023631
3325.000000	0.023622
3324.000000	0.023657
3323.000000	0.023729
3322.000000	0.023811
3321.000000	0.023882
3320.000000	0.023933
3319.000000	0.023966
3318.000000	0.023983
3317.000000	0.023978
3316.000000	0.023950
3315.000000	0.023910
3314.000000	0.023870
3313.000000	0.023841
3312.000000	0.023830
3311.000000	0.023835
3310.000000	0.023852
3309.000000	0.023878
3308.000000	0.023910
3307.000000	0.023945
3306.000000	0.023981
3305.000000	0.024012
3304.000000	0.024044
3303.000000	0.024079
3302.000000	0.024115
3301.000000	0.024140
3300.000000	0.024151
3299.000000	0.024155
3298.000000	0.024160
3297.000000	0.024168
3296.000000	0.024170
3295.000000	0.024167
3294.000000	0.024165
3293.000000	0.024178
3292.000000	0.024210
3291.000000	0.024253
3290.000000	0.024287
3289.000000	0.024296
3288.000000	0.024284
3287.000000	0.024264
3286.000000	0.024245
3285.000000	0.024225
3284.000000	0.024205
3283.000000	0.024192
3282.000000	0.024189
3281.000000	0.024190
3280.000000	0.024188
3279.000000	0.024188
3278.000000	0.024201
3277.000000	0.024229
3276.000000	0.024263
3275.000000	0.024281
3274.000000	0.024268
3273.000000	0.024225
3272.000000	0.024170
3271.000000	0.024129
3270.000000	0.024112
3269.000000	0.024111
3268.000000	0.024108
3267.000000	0.024096
3266.000000	0.024081
3265.000000	0.024073
3264.000000	0.024078
3263.000000	0.024091
3262.000000	0.024098
3261.000000	0.024089
3260.000000	0.024065
3259.000000	0.024035
3258.000000	0.024008
3257.000000	0.023982
3256.000000	0.023955
3255.000000	0.023928
3254.000000	0.023905
3253.000000	0.023885
3252.000000	0.023865
3251.000000	0.023842
3250.000000	0.023812
3249.000000	0.023772
3248.000000	0.023731
3247.000000	0.023705
3246.000000	0.023703
3245.000000	0.023718
3244.000000	0.023731
3243.000000	0.023730
3242.000000	0.023708
3241.000000	0.023668
3240.000000	0.023615
3239.000000	0.023562
3238.000000	0.023524
3237.000000	0.023506
3236.000000	0.023502
3235.000000	0.023507
3234.000000	0.023520
3233.000000	0.023538
3232.000000	0.023555
3231.000000	0.023562
3230.000000	0.023554
3229.000000	0.023533
3228.000000	0.023509
3227.000000	0.023497
3226.000000	0.023500
3225.000000	0.023509
3224.000000	0.023509
3223.000000	0.023493
3222.000000	0.023462
3221.000000	0.023421
3220.000000	0.023379
3219.000000	0.023348
3218.000000	0.023336
3217.000000	0.023338
3216.000000	0.023350
3215.000000	0.023367
3214.000000	0.023383
3213.000000	0.023391
3212.000000	0.023384
3211.000000	0.023365
3210.000000	0.023342
3209.000000	0.023323
3208.000000	0.023313
3207.000000	0.023311
3206.000000	0.023313
3205.000000	0.023311
3204.000000	0.023301
3203.000000	0.023290
3202.000000	0.023283
3201.000000	0.023275
3200.000000	0.023252
3199.000000	0.023209
3198.000000	0.023160
3197.000000	0.023124
3196.000000	0.023111
3195.000000	0.023114
3194.000000	0.023118
3193.000000	0.023111
3192.000000	0.023094
3191.000000	0.023077
3190.000000	0.023067
3189.000000	0.023058
3188.000000	0.023041
3187.000000	0.023016
3186.000000	0.022987
3185.000000	0.022958
3184.000000	0.022927
3183.000000	0.022899
3182.000000	0.022882
3181.000000	0.022876
3180.000000	0.022875
3179.000000	0.022875
3178.000000	0.022874
3177.000000	0.022873
3176.000000	0.022871
3175.000000	0.022860
3174.000000	0.022839
3173.000000	0.022810
3172.000000	0.022781
3171.000000	0.022758
3170.000000	0.022741
3169.000000	0.022719
3168.000000	0.022685
3167.000000	0.022643
3166.000000	0.022612
3165.000000	0.022601
3164.000000	0.022607
3163.000000	0.022613
3162.000000	0.022603
3161.000000	0.022577
3160.000000	0.022543
3159.000000	0.022510
3158.000000	0.022485
3157.000000	0.022468
3156.000000	0.022456
3155.000000	0.022449
3154.000000	0.022445
3153.000000	0.022443
3152.000000	0.022440
3151.000000	0.022432
3150.000000	0.022416
3149.000000	0.022394
3148.000000	0.022373
3147.000000	0.022357
3146.000000	0.022343
3145.000000	0.022323
3144.000000	0.022296
3143.000000	0.022265
3142.000000	0.022232
3141.000000	0.022195
3140.000000	0.022156
3139.000000	0.022130
3138.000000	0.022131
3137.000000	0.022159
3136.000000	0.022196
3135.000000	0.022219
3134.000000	0.022219
3133.000000	0.022197
3132.000000	0.022167
3131.000000	0.022140
3130.000000	0.022119
3129.000000	0.022100
3128.000000	0.022080
3127.000000	0.022057
3126.000000	0.022033
3125.000000	0.022016
3124.000000	0.022013
3123.000000	0.022028
3122.000000	0.022052
3121.000000	0.022070
3120.000000	0.022071
3119.000000	0.022057
3118.000000	0.022039
3117.000000	0.022031
3116.000000	0.022038
3115.000000	0.022056
3114.000000	0.022068
3113.000000	0.022063
3112.000000	0.022043
3111.000000	0.022028
3110.000000	0.022028
3109.000000	0.022037
3108.000000	0.022043
3107.000000	0.022043
3106.000000	0.022041
3105.000000	0.022036
3104.000000	0.022022
3103.000000	0.021995
3102.000000	0.021962
3101.000000	0.021937
3100.000000	0.021931
3099.000000	0.021946
3098.000000	0.021976
3097.000000	0.022005
3096.000000	0.022019
3095.000000	0.022013
3094.000000	0.021987
3093.000000	0.021949
3092.000000	0.021916
3091.000000	0.021906
3090.000000	0.021929
3089.000000	0.021972
3088.000000	0.022008
3087.000000	0.022022
3086.000000	0.022019
3085.000000	0.022014
3084.000000	0.022019
3083.000000	0.022035
3082.000000	0.022055
3081.000000	0.022070
3080.000000	0.022070
3079.000000	0.022059
3078.000000	0.022048
3077.000000	0.022051
3076.000000	0.022069
3075.000000	0.022088
3074.000000	0.022094
3073.000000	0.022078
3072.000000	0.022052
3071.000000	0.022034
3070.000000	0.022028
3069.000000	0.022030
3068.000000	0.022033
3067.000000	0.022039
3066.000000	0.022048
3065.000000	0.022056
3064.000000	0.022055
3063.000000	0.022046
3062.000000	0.022037
3061.000000	0.022037
3060.000000	0.022041
3059.000000	0.022041
3058.000000	0.022033
3057.000000	0.022024
3056.000000	0.022027
3055.000000	0.022046
3054.000000	0.022072
3053.000000	0.022085
3052.000000	0.022072
3051.000000	0.022035
3050.000000	0.021993
3049.000000	0.021961
3048.000000	0.021946
3047.000000	0.021941
3046.000000	0.021931
3045.000000	0.021913
3044.000000	0.021897
3043.000000	0.021898
3042.000000	0.021914
3041.000000	0.021923
3040.000000	0.021907
3039.000000	0.021871
3038.000000	0.021836
3037.000000	0.021818
3036.000000	0.021814
3035.000000	0.021814
3034.000000	0.021813
3033.000000	0.021810
3032.000000	0.021800
3031.000000	0.021784
3030.000000	0.021767
3029.000000	0.021757
3028.000000	0.021753
3027.000000	0.021747
3026.000000	0.021735
3025.000000	0.021718
3024.000000	0.021702
3023.000000	0.021691
3022.000000	0.021685
3021.000000	0.021686
3020.000000	0.021695
3019.000000	0.021713
3018.000000	0.021729
3017.000000	0.021732
3016.000000	0.021716
3015.000000	0.021690
3014.000000	0.021667
3013.000000	0.021652
3012.000000	0.021643
3011.000000	0.021636
3010.000000	0.021637
3009.000000	0.021653
3008.000000	0.021681
3007.000000	0.021713
3006.000000	0.021732
3005.000000	0.021729
3004.000000	0.021703
3003.000000	0.021664
3002.000000	0.021629
3001.000000	0.021613
3000.000000	0.021621
2999.000000	0.021647
2998.000000	0.021685
2997.000000	0.021730
2996.000000	0.021778
2995.000000	0.021821
2994.000000	0.021853
2993.000000	0.021882
2992.000000	0.021917
2991.000000	0.021966
2990.000000	0.022026
2989.000000	0.022091
2988.000000	0.022157
2987.000000	0.022225
2986.000000	0.022292
2985.000000	0.022355
2984.000000	0.022415
2983.000000	0.022474
2982.000000	0.022529
2981.000000	0.022577
2980.000000	0.022614
2979.000000	0.022647
2978.000000	0.022694
2977.000000	0.022766
2976.000000	0.022859
2975.000000	0.022958
2974.000000	0.023047
2973.000000	0.023124
2972.000000	0.023198
2971.000000	0.023282
2970.000000	0.023383
2969.000000	0.023501
2968.000000	0.023630
2967.000000	0.023754
2966.000000	0.023863
2965.000000	0.023956
2964.000000	0.024043
2963.000000	0.024130
2962.000000	0.024218
2961.000000	0.024298
2960.000000	0.024365
2959.000000	0.024414
2958.000000	0.024443
2957.000000	0.024455
2956.000000	0.024455
2955.000000	0.024441
2954.000000	0.024409
2953.000000	0.024361
2952.000000	0.024307
2951.000000	0.024262
2950.000000	0.024232
2949.000000	0.024214
2948.000000	0.024210
2947.000000	0.024229
2946.000000	0.024278
2945.000000	0.024350
2944.000000	0.024431
2943.000000	0.024509
2942.000000	0.024575
2941.000000	0.024630
2940.000000	0.024688
2939.000000	0.024769
2938.000000	0.024883
2937.000000	0.025019
2936.000000	0.025155
2935.000000	0.025275
2934.000000	0.025380
2933.000000	0.025475
2932.000000	0.025565
2931.000000	0.025649
2930.000000	0.025728
2929.000000	0.025800
2928.000000	0.025863
2927.000000	0.025914
2926.000000	0.025952
2925.000000	0.025976
2924.000000	0.025987
2923.000000	0.025986
2922.000000	0.025973
2921.000000	0.025953
2920.000000	0.025933
2919.000000	0.025912
2918.000000	0.025879
2917.000000	0.025819
2916.000000	0.025723
2915.000000	0.025594
2914.000000	0.025440
2913.000000	0.025275
2912.000000	0.025122
2911.000000	0.024999
2910.000000	0.024909
2909.000000	0.024835
2908.000000	0.024760
2907.000000	0.024677
2906.000000	0.024587
2905.000000	0.024493
2904.000000	0.024398
2903.000000	0.024311
2902.000000	0.024242
2901.000000	0.024186
2900.000000	0.024129
2899.000000	0.024056
2898.000000	0.023963
2897.000000	0.023856
2896.000000	0.023748
2895.000000	0.023652
2894.000000	0.023575
2893.000000	0.023513
2892.000000	0.023461
2891.000000	0.023417
2890.000000	0.023382
2889.000000	0.023357
2888.000000	0.023336
2887.000000	0.023319
2886.000000	0.023310
2885.000000	0.023313
2884.000000	0.023328
2883.000000	0.023350
2882.000000	0.023378
2881.000000	0.023414
2880.000000	0.023459
2879.000000	0.023511
2878.000000	0.023567
2877.000000	0.023624
2876.000000	0.023683
2875.000000	0.023745
2874.000000	0.023807
2873.000000	0.023855
2872.000000	0.023880
2871.000000	0.023886
2870.000000	0.023886
2869.000000	0.023889
2868.000000	0.023890
2867.000000	0.023890
2866.000000	0.023894
2865.000000	0.023911
2864.000000	0.023940
2863.000000	0.023975
2862.000000	0.024016
2861.000000	0.024061
2860.000000	0.024108
2859.000000	0.024153
2858.000000	0.024191
2857.000000	0.024220
2856.000000	0.024240
2855.000000	0.024253
2854.000000	0.024259
2853.000000	0.024253
2852.000000	0.024223
2851.000000	0.024164
2850.000000	0.024074
2849.000000	0.023958
2848.000000	0.023826
2847.000000	0.023688
2846.000000	0.023549
2845.000000	0.023411
2844.000000	0.023274
2843.000000	0.023138
2842.000000	0.023013
2841.000000	0.022908
2840.000000	0.022821
2839.000000	0.022740
2838.000000	0.022657
2837.000000	0.022572
2836.000000	0.022491
2835.000000	0.022422
2834.000000	0.022368
2833.000000	0.022327
2832.000000	0.022294
2831.000000	0.022262
2830.000000	0.022231
2829.000000	0.022203
2828.000000	0.022183
2827.000000	0.022168
2826.000000	0.022149
2825.000000	0.022123
2824.000000	0.022095
2823.000000	0.022070
2822.000000	0.022049
2821.000000	0.022029
2820.000000	0.022009
2819.000000	0.021998
2818.000000	0.021999
2817.000000	0.022007
2816.000000	0.022005
2815.000000	0.021987
2814.000000	0.021960
2813.000000	0.021940
2812.000000	0.021932
2811.000000	0.021929
2810.000000	0.021921
2809.000000	0.021905
2808.000000	0.021886
2807.000000	0.021868
2806.000000	0.021849
2805.000000	0.021824
2804.000000	0.021795
2803.000000	0.021771
2802.000000	0.021757
2801.000000	0.021750
2800.000000	0.021740
2799.000000	0.021722
2798.000000	0.021696
2797.000000	0.021668
2796.000000	0.021646
2795.000000	0.021637
2794.000000	0.021641
2793.000000	0.021647
2792.000000	0.021644
2791.000000	0.021631
2790.000000	0.021613
2789.000000	0.021603
2788.000000	0.021602
2787.000000	0.021609
2786.000000	0.021614
2785.000000	0.021611
2784.000000	0.021597
2783.000000	0.021578
2782.000000	0.021563
2781.000000	0.021558
2780.000000	0.021558
2779.000000	0.021560
2778.000000	0.021563
2777.000000	0.021567
2776.000000	0.021571
2775.000000	0.021571
2774.000000	0.021564
2773.000000	0.021550
2772.000000	0.021532
2771.000000	0.021514
2770.000000	0.021498
2769.000000	0.021490
2768.000000	0.021489
2767.000000	0.021495
2766.000000	0.021502
2765.000000	0.021500
2764.000000	0.021487
2763.000000	0.021467
2762.000000	0.021453
2761.000000	0.021449
2760.000000	0.021454
2759.000000	0.021466
2758.000000	0.021478
2757.000000	0.021488
2756.000000	0.021487
2755.000000	0.021474
2754.000000	0.021457
2753.000000	0.021444
2752.000000	0.021443
2751.000000	0.021455
2750.000000	0.021475
2749.000000	0.021491
2748.000000	0.021494
2747.000000	0.021485
2746.000000	0.021471
2745.000000	0.021460
2744.000000	0.021450
2743.000000	0.021437
2742.000000	0.021423
2741.000000	0.021410
2740.000000	0.021395
2739.000000	0.021374
2738.000000	0.021350
2737.000000	0.021334
2736.000000	0.021331
2735.000000	0.021334
2734.000000	0.021338
2733.000000	0.021341
2732.000000	0.021351
2731.000000	0.021371
2730.000000	0.021393
2729.000000	0.021408
2728.000000	0.021410
2727.000000	0.021407
2726.000000	0.021407
2725.000000	0.021407
2724.000000	0.021401
2723.000000	0.021387
2722.000000	0.021373
2721.000000	0.021363
2720.000000	0.021356
2719.000000	0.021350
2718.000000	0.021346
2717.000000	0.021344
2716.000000	0.021340
2715.000000	0.021331
2714.000000	0.021322
2713.000000	0.021318
2712.000000	0.021318
2711.000000	0.021316
2710.000000	0.021308
2709.000000	0.021295
2708.000000	0.021279
2707.000000	0.021265
2706.000000	0.021263
2705.000000	0.021275
2704.000000	0.021294
2703.000000	0.021308
2702.000000	0.021308
2701.000000	0.021299
2700.000000	0.021288
2699.000000	0.021279
2698.000000	0.021273
2697.000000	0.021267
2696.000000	0.021263
2695.000000	0.021264
2694.000000	0.021275
2693.000000	0.021293
2692.000000	0.021305
2691.000000	0.021303
2690.000000	0.021289
2689.000000	0.021275
2688.000000	0.021275
2687.000000	0.021289
2686.000000	0.021308
2685.000000	0.021318
2684.000000	0.021309
2683.000000	0.021284
2682.000000	0.021256
2681.000000	0.021239
2680.000000	0.021232
2679.000000	0.021229
2678.000000	0.021224
2677.000000	0.021218
2676.000000	0.021214
2675.000000	0.021217
2674.000000	0.021231
2673.000000	0.021248
2672.000000	0.021256
2671.000000	0.021250
2670.000000	0.021234
2669.000000	0.021219
2668.000000	0.021209
2667.000000	0.021206
2666.000000	0.021217
2665.000000	0.021244
2664.000000	0.021278
2663.000000	0.021301
2662.000000	0.021306
2661.000000	0.021297
2660.000000	0.021282
2659.000000	0.021268
2658.000000	0.021253
2657.000000	0.021238
2656.000000	0.021223
2655.000000	0.021201
2654.000000	0.021170
2653.000000	0.021132
2652.000000	0.021093
2651.000000	0.021065
2650.000000	0.021055
2649.000000	0.021059
2648.000000	0.021064
2647.000000	0.021056
2646.000000	0.021037
2645.000000	0.021021
2644.000000	0.021015
2643.000000	0.021020
2642.000000	0.021028
2641.000000	0.021029
2640.000000	0.021019
2639.000000	0.021001
2638.000000	0.020987
2637.000000	0.020984
2636.000000	0.020983
2635.000000	0.020967
2634.000000	0.020936
2633.000000	0.020907
2632.000000	0.020897
2631.000000	0.020902
2630.000000	0.020910
2629.000000	0.020911
2628.000000	0.020904
2627.000000	0.020891
2626.000000	0.020877
2625.000000	0.020863
2624.000000	0.020848
2623.000000	0.020827
2622.000000	0.020800
2621.000000	0.020776
2620.000000	0.020760
2619.000000	0.020751
2618.000000	0.020752
2617.000000	0.020766
2616.000000	0.020789
2615.000000	0.020805
2614.000000	0.020800
2613.000000	0.020776
2612.000000	0.020747
2611.000000	0.020728
2610.000000	0.020719
2609.000000	0.020709
2608.000000	0.020691
2607.000000	0.020668
2606.000000	0.020656
2605.000000	0.020665
2604.000000	0.020693
2603.000000	0.020728
2602.000000	0.020757
2601.000000	0.020771
2600.000000	0.020766
2599.000000	0.020743
2598.000000	0.020717
2597.000000	0.020701
2596.000000	0.020702
2595.000000	0.020716
2594.000000	0.020732
2593.000000	0.020742
2592.000000	0.020733
2591.000000	0.020705
2590.000000	0.020670
2589.000000	0.020644
2588.000000	0.020631
2587.000000	0.020628
2586.000000	0.020630
2585.000000	0.020633
2584.000000	0.020630
2583.000000	0.020621
2582.000000	0.020614
2581.000000	0.020618
2580.000000	0.020629
2579.000000	0.020630
2578.000000	0.020619
2577.000000	0.020604
2576.000000	0.020594
2575.000000	0.020589
2574.000000	0.020588
2573.000000	0.020587
2572.000000	0.020584
2571.000000	0.020581
2570.000000	0.020590
2569.000000	0.020619
2568.000000	0.020658
2567.000000	0.020686
2566.000000	0.020692
2565.000000	0.020679
2564.000000	0.020651
2563.000000	0.020615
2562.000000	0.020584
2561.000000	0.020571
2560.000000	0.020572
2559.000000	0.020577
2558.000000	0.020579
2557.000000	0.020579
2556.000000	0.020570
2555.000000	0.020548
2554.000000	0.020533
2553.000000	0.020550
2552.000000	0.020597
2551.000000	0.020640
2550.000000	0.020655
2549.000000	0.020653
2548.000000	0.020654
2547.000000	0.020658
2546.000000	0.020645
2545.000000	0.020609
2544.000000	0.020564
2543.000000	0.020530
2542.000000	0.020520
2541.000000	0.020538
2540.000000	0.020577
2539.000000	0.020624
2538.000000	0.020663
2537.000000	0.020690
2536.000000	0.020702
2535.000000	0.020697
2534.000000	0.020674
2533.000000	0.020645
2532.000000	0.020635
2531.000000	0.020669
2530.000000	0.020753
2529.000000	0.020867
2528.000000	0.020978
2527.000000	0.021060
2526.000000	0.021109
2525.000000	0.021133
2524.000000	0.021144
2523.000000	0.021157
2522.000000	0.021180
2521.000000	0.021211
2520.000000	0.021238
2519.000000	0.021259
2518.000000	0.021280
2517.000000	0.021308
2516.000000	0.021332
2515.000000	0.021343
2514.000000	0.021340
2513.000000	0.021332
2512.000000	0.021327
2511.000000	0.021331
2510.000000	0.021347
2509.000000	0.021366
2508.000000	0.021373
2507.000000	0.021360
2506.000000	0.021337
2505.000000	0.021313
2504.000000	0.021282
2503.000000	0.021234
2502.000000	0.021174
2501.000000	0.021115
2500.000000	0.021056
2499.000000	0.020998
2498.000000	0.020953
2497.000000	0.020935
2496.000000	0.020931
2495.000000	0.020912
2494.000000	0.020866
2493.000000	0.020810
2492.000000	0.020765
2491.000000	0.020737
2490.000000	0.020726
2489.000000	0.020725
2488.000000	0.020722
2487.000000	0.020702
2486.000000	0.020674
2485.000000	0.020662
2484.000000	0.020672
2483.000000	0.020687
2482.000000	0.020683
2481.000000	0.020654
2480.000000	0.020611
2479.000000	0.020568
2478.000000	0.020535
2477.000000	0.020517
2476.000000	0.020511
2475.000000	0.020509
2474.000000	0.020509
2473.000000	0.020510
2472.000000	0.020509
2471.000000	0.020504
2470.000000	0.020504
2469.000000	0.020519
2468.000000	0.020554
2467.000000	0.020603
2466.000000	0.020655
2465.000000	0.020691
2464.000000	0.020692
2463.000000	0.020654
2462.000000	0.020597
2461.000000	0.020549
2460.000000	0.020520
2459.000000	0.020507
2458.000000	0.020504
2457.000000	0.020509
2456.000000	0.020512
2455.000000	0.020507
2454.000000	0.020499
2453.000000	0.020495
2452.000000	0.020497
2451.000000	0.020505
2450.000000	0.020514
2449.000000	0.020506
2448.000000	0.020463
2447.000000	0.020399
2446.000000	0.020353
2445.000000	0.020356
2444.000000	0.020390
2443.000000	0.020421
2442.000000	0.020440
2441.000000	0.020459
2440.000000	0.020478
2439.000000	0.020487
2438.000000	0.020482
2437.000000	0.020478
2436.000000	0.020484
2435.000000	0.020496
2434.000000	0.020511
2433.000000	0.020517
2432.000000	0.020499
2431.000000	0.020460
2430.000000	0.020425
2429.000000	0.020418
2428.000000	0.020427
2427.000000	0.020428
2426.000000	0.020417
2425.000000	0.020409
2424.000000	0.020412
2423.000000	0.020422
2422.000000	0.020443
2421.000000	0.020473
2420.000000	0.020488
2419.000000	0.020468
2418.000000	0.020429
2417.000000	0.020412
2416.000000	0.020429
2415.000000	0.020452
2414.000000	0.020452
2413.000000	0.020437
2412.000000	0.020431
2411.000000	0.020443
2410.000000	0.020460
2409.000000	0.020465
2408.000000	0.020452
2407.000000	0.020433
2406.000000	0.020423
2405.000000	0.020427
2404.000000	0.020433
2403.000000	0.020434
2402.000000	0.020438
2401.000000	0.020449
2400.000000	0.020459
2399.000000	0.020461
2398.000000	0.020463
2397.000000	0.020472
2396.000000	0.020483
2395.000000	0.020492
2394.000000	0.020503
2393.000000	0.020516
2392.000000	0.020514
2391.000000	0.020493
2390.000000	0.020477
2389.000000	0.020487
2388.000000	0.020511
2387.000000	0.020525
2386.000000	0.020523
2385.000000	0.020505
2384.000000	0.020457
2383.000000	0.020366
2382.000000	0.020256
2381.000000	0.020167
2380.000000	0.020122
2379.000000	0.020138
2378.000000	0.020237
2377.000000	0.020408
2376.000000	0.020582
2375.000000	0.020684
2374.000000	0.020703
2373.000000	0.020665
2372.000000	0.020577
2371.000000	0.020453
2370.000000	0.020355
2369.000000	0.020318
2368.000000	0.020317
2367.000000	0.020333
2366.000000	0.020403
2365.000000	0.020543
2364.000000	0.020682
2363.000000	0.020780
2362.000000	0.020889
2361.000000	0.021012
2360.000000	0.021084
2359.000000	0.021052
2358.000000	0.020932
2357.000000	0.020803
2356.000000	0.020723
2355.000000	0.020786
2354.000000	0.020898
2353.000000	0.020842
2352.000000	0.020551
2351.000000	0.020233
2350.000000	0.020142
2349.000000	0.020341
2348.000000	0.020724
2347.000000	0.021056
2346.000000	0.021162
2345.000000	0.021147
2344.000000	0.021199
2343.000000	0.021366
2342.000000	0.021479
2341.000000	0.021415
2340.000000	0.021252
2339.000000	0.021136
2338.000000	0.021106
2337.000000	0.021095
2336.000000	0.021076
2335.000000	0.021032
2334.000000	0.020945
2333.000000	0.020768
2332.000000	0.020611
2331.000000	0.020564
2330.000000	0.020691
2329.000000	0.020872
2328.000000	0.021067
2327.000000	0.021217
2326.000000	0.021296
2325.000000	0.021275
2324.000000	0.021197
2323.000000	0.021132
2322.000000	0.021146
2321.000000	0.021257
2320.000000	0.021465
2319.000000	0.021681
2318.000000	0.021845
2317.000000	0.021892
2316.000000	0.021863
2315.000000	0.021756
2314.000000	0.021612
2313.000000	0.021442
2312.000000	0.021316
2311.000000	0.021227
2310.000000	0.021161
2309.000000	0.021072
2308.000000	0.020974
2307.000000	0.020870
2306.000000	0.020790
2305.000000	0.020746
2304.000000	0.020757
2303.000000	0.020790
2302.000000	0.020820
2301.000000	0.020831
2300.000000	0.020854
2299.000000	0.020889
2298.000000	0.020948
2297.000000	0.021011
2296.000000	0.021070
2295.000000	0.021086
2294.000000	0.021051
2293.000000	0.020987
2292.000000	0.020940
2291.000000	0.020928
2290.000000	0.020940
2289.000000	0.020971
2288.000000	0.021018
2287.000000	0.021063
2286.000000	0.021072
2285.000000	0.021035
2284.000000	0.020968
2283.000000	0.020901
2282.000000	0.020859
2281.000000	0.020861
2280.000000	0.020895
2279.000000	0.020916
2278.000000	0.020894
2277.000000	0.020841
2276.000000	0.020791
2275.000000	0.020746
2274.000000	0.020700
2273.000000	0.020657
2272.000000	0.020623
2271.000000	0.020576
2270.000000	0.020492
2269.000000	0.020390
2268.000000	0.020324
2267.000000	0.020320
2266.000000	0.020363
2265.000000	0.020420
2264.000000	0.020466
2263.000000	0.020485
2262.000000	0.020471
2261.000000	0.020440
2260.000000	0.020410
2259.000000	0.020378
2258.000000	0.020330
2257.000000	0.020262
2256.000000	0.020184
2255.000000	0.020119
2254.000000	0.020099
2253.000000	0.020143
2252.000000	0.020217
2251.000000	0.020259
2250.000000	0.020253
2249.000000	0.020239
2248.000000	0.020246
2247.000000	0.020246
2246.000000	0.020204
2245.000000	0.020138
2244.000000	0.020090
2243.000000	0.020075
2242.000000	0.020079
2241.000000	0.020088
2240.000000	0.020082
2239.000000	0.020038
2238.000000	0.019971
2237.000000	0.019944
2236.000000	0.019993
2235.000000	0.020075
2234.000000	0.020126
2233.000000	0.020125
2232.000000	0.020098
2231.000000	0.020066
2230.000000	0.020047
2229.000000	0.020057
2228.000000	0.020077
2227.000000	0.020040
2226.000000	0.019914
2225.000000	0.019750
2224.000000	0.019629
2223.000000	0.019569
2222.000000	0.019544
2221.000000	0.019536
2220.000000	0.019546
2219.000000	0.019569
2218.000000	0.019600
2217.000000	0.019641
2216.000000	0.019686
2215.000000	0.019722
2214.000000	0.019761
2213.000000	0.019822
2212.000000	0.019875
2211.000000	0.019849
2210.000000	0.019742
2209.000000	0.019641
2208.000000	0.019615
2207.000000	0.019638
2206.000000	0.019670
2205.000000	0.019723
2204.000000	0.019814
2203.000000	0.019898
2202.000000	0.019923
2201.000000	0.019904
2200.000000	0.019895
2199.000000	0.019907
2198.000000	0.019910
2197.000000	0.019881
2196.000000	0.019813
2195.000000	0.019714
2194.000000	0.019623
2193.000000	0.019580
2192.000000	0.019564
2191.000000	0.019511
2190.000000	0.019429
2189.000000	0.019416
2188.000000	0.019530
2187.000000	0.019712
2186.000000	0.019859
2185.000000	0.019920
2184.000000	0.019873
2183.000000	0.019695
2182.000000	0.019440
2181.000000	0.019251
2180.000000	0.019231
2179.000000	0.019330
2178.000000	0.019429
2177.000000	0.019452
2176.000000	0.019369
2175.000000	0.019181
2174.000000	0.018958
2173.000000	0.018828
2172.000000	0.018873
2171.000000	0.019081
2170.000000	0.019412
2169.000000	0.019805
2168.000000	0.020111
2167.000000	0.020156
2166.000000	0.019923
2165.000000	0.019596
2164.000000	0.019334
2163.000000	0.019112
2162.000000	0.018846
2161.000000	0.018576
2160.000000	0.018413
2159.000000	0.018402
2158.000000	0.018521
2157.000000	0.018720
2156.000000	0.018880
2155.000000	0.018895
2154.000000	0.018821
2153.000000	0.018826
2152.000000	0.018959
2151.000000	0.019075
2150.000000	0.019038
2149.000000	0.018881
2148.000000	0.018733
2147.000000	0.018684
2146.000000	0.018781
2145.000000	0.019032
2144.000000	0.019346
2143.000000	0.019555
2142.000000	0.019580
2141.000000	0.019505
2140.000000	0.019464
2139.000000	0.019512
2138.000000	0.019644
2137.000000	0.019842
2136.000000	0.020045
2135.000000	0.020155
2134.000000	0.020129
2133.000000	0.020030
2132.000000	0.019958
2131.000000	0.019962
2130.000000	0.020054
2129.000000	0.020221
2128.000000	0.020403
2127.000000	0.020507
2126.000000	0.020496
2125.000000	0.020428
2124.000000	0.020383
2123.000000	0.020388
2122.000000	0.020439
2121.000000	0.020546
2120.000000	0.020704
2119.000000	0.020865
2118.000000	0.020968
2117.000000	0.020989
2116.000000	0.020930
2115.000000	0.020807
2114.000000	0.020659
2113.000000	0.020553
2112.000000	0.020531
2111.000000	0.020560
2110.000000	0.020579
2109.000000	0.020564
2108.000000	0.020539
2107.000000	0.020539
2106.000000	0.020586
2105.000000	0.020673
2104.000000	0.020763
2103.000000	0.020807
2102.000000	0.020797
2101.000000	0.020769
2100.000000	0.020758
2099.000000	0.020767
2098.000000	0.020784
2097.000000	0.020789
2096.000000	0.020746
2095.000000	0.020646
2094.000000	0.020544
2093.000000	0.020516
2092.000000	0.020574
2091.000000	0.020664
2090.000000	0.020736
2089.000000	0.020780
2088.000000	0.020780
2087.000000	0.020723
2086.000000	0.020652
2085.000000	0.020639
2084.000000	0.020685
2083.000000	0.020711
2082.000000	0.020680
2081.000000	0.020645
2080.000000	0.020651
2079.000000	0.020655
2078.000000	0.020612
2077.000000	0.020561
2076.000000	0.020570
2075.000000	0.020648
2074.000000	0.020755
2073.000000	0.020849
2072.000000	0.020885
2071.000000	0.020818
2070.000000	0.020662
2069.000000	0.020507
2068.000000	0.020432
2067.000000	0.020434
2066.000000	0.020477
2065.000000	0.020539
2064.000000	0.020581
2063.000000	0.020534
2062.000000	0.020397
2061.000000	0.020264
2060.000000	0.020223
2059.000000	0.020261
2058.000000	0.020313
2057.000000	0.020343
2056.000000	0.020343
2055.000000	0.020317
2054.000000	0.020315
2053.000000	0.020410
2052.000000	0.020583
2051.000000	0.020691
2050.000000	0.020607
2049.000000	0.020358
2048.000000	0.020069
2047.000000	0.019819
2046.000000	0.019620
2045.000000	0.019458
2044.000000	0.019303
2043.000000	0.019137
2042.000000	0.019029
2041.000000	0.019093
2040.000000	0.019304
2039.000000	0.019481
2038.000000	0.019514
2037.000000	0.019476
2036.000000	0.019437
2035.000000	0.019317
2034.000000	0.019037
2033.000000	0.018699
2032.000000	0.018472
2031.000000	0.018391
2030.000000	0.018399
2029.000000	0.018459
2028.000000	0.018537
2027.000000	0.018575
2026.000000	0.018581
2025.000000	0.018629
2024.000000	0.018711
2023.000000	0.018729
2022.000000	0.018674
2021.000000	0.018682
2020.000000	0.018820
2019.000000	0.018975
2018.000000	0.019038
2017.000000	0.019052
2016.000000	0.019097
2015.000000	0.019156
2014.000000	0.019193
2013.000000	0.019231
2012.000000	0.019262
2011.000000	0.019206
2010.000000	0.019051
2009.000000	0.018915
2008.000000	0.018908
2007.000000	0.019016
2006.000000	0.019194
2005.000000	0.019427
2004.000000	0.019648
2003.000000	0.019730
2002.000000	0.019633
2001.000000	0.019448
2000.000000	0.019271
1999.000000	0.019118
1998.000000	0.019020
1997.000000	0.019058
1996.000000	0.019231
1995.000000	0.019403
1994.000000	0.019477
1993.000000	0.019511
1992.000000	0.019598
1991.000000	0.019717
1990.000000	0.019796
1989.000000	0.019830
1988.000000	0.019827
1987.000000	0.019747
1986.000000	0.019584
1985.000000	0.019436
1984.000000	0.019391
1983.000000	0.019422
1982.000000	0.019439
1981.000000	0.019394
1980.000000	0.019255
1979.000000	0.018975
1978.000000	0.018582
1977.000000	0.018242
1976.000000	0.018104
1975.000000	0.018167
1974.000000	0.018359
1973.000000	0.018630
1972.000000	0.018904
1971.000000	0.019075
1970.000000	0.019108
1969.000000	0.019048
1968.000000	0.018920
1967.000000	0.018733
1966.000000	0.018573
1965.000000	0.018551
1964.000000	0.018652
1963.000000	0.018764
1962.000000	0.018862
1961.000000	0.019006
1960.000000	0.019179
1959.000000	0.019267
1958.000000	0.019238
1957.000000	0.019191
1956.000000	0.019197
1955.000000	0.019229
1954.000000	0.019271
1953.000000	0.019364
1952.000000	0.019515
1951.000000	0.019651
1950.000000	0.019708
1949.000000	0.019689
1948.000000	0.019619
1947.000000	0.019525
1946.000000	0.019476
1945.000000	0.019540
1944.000000	0.019680
1943.000000	0.019770
1942.000000	0.019744
1941.000000	0.019655
1940.000000	0.019588
1939.000000	0.019577
1938.000000	0.019637
1937.000000	0.019765
1936.000000	0.019892
1935.000000	0.019941
1934.000000	0.019922
1933.000000	0.019908
1932.000000	0.019911
1931.000000	0.019895
1930.000000	0.019870
1929.000000	0.019889
1928.000000	0.019948
1927.000000	0.019974
1926.000000	0.019945
1925.000000	0.019915
1924.000000	0.019922
1923.000000	0.019939
1922.000000	0.019947
1921.000000	0.019961
1920.000000	0.019968
1919.000000	0.019922
1918.000000	0.019830
1917.000000	0.019776
1916.000000	0.019813
1915.000000	0.019905
1914.000000	0.019994
1913.000000	0.020052
1912.000000	0.020048
1911.000000	0.019957
1910.000000	0.019809
1909.000000	0.019692
1908.000000	0.019649
1907.000000	0.019644
1906.000000	0.019651
1905.000000	0.019694
1904.000000	0.019773
1903.000000	0.019832
1902.000000	0.019825
1901.000000	0.019781
1900.000000	0.019756
1899.000000	0.019759
1898.000000	0.019763
1897.000000	0.019752
1896.000000	0.019719
1895.000000	0.019665
1894.000000	0.019627
1893.000000	0.019646
1892.000000	0.019716
1891.000000	0.019773
1890.000000	0.019777
1889.000000	0.019749
1888.000000	0.019721
1887.000000	0.019687
1886.000000	0.019644
1885.000000	0.019610
1884.000000	0.019589
1883.000000	0.019549
1882.000000	0.019476
1881.000000	0.019410
1880.000000	0.019394
1879.000000	0.019416
1878.000000	0.019438
1877.000000	0.019446
1876.000000	0.019439
1875.000000	0.019419
1874.000000	0.019410
1873.000000	0.019445
1872.000000	0.019513
1871.000000	0.019563
1870.000000	0.019568
1869.000000	0.019563
1868.000000	0.019582
1867.000000	0.019601
1866.000000	0.019587
1865.000000	0.019550
1864.000000	0.019514
1863.000000	0.019478
1862.000000	0.019439
1861.000000	0.019416
1860.000000	0.019420
1859.000000	0.019428
1858.000000	0.019409
1857.000000	0.019366
1856.000000	0.019328
1855.000000	0.019314
1854.000000	0.019325
1853.000000	0.019347
1852.000000	0.019354
1851.000000	0.019318
1850.000000	0.019261
1849.000000	0.019244
1848.000000	0.019295
1847.000000	0.019359
1846.000000	0.019364
1845.000000	0.019303
1844.000000	0.019237
1843.000000	0.019205
1842.000000	0.019190
1841.000000	0.019168
1840.000000	0.019123
1839.000000	0.019049
1838.000000	0.018969
1837.000000	0.018921
1836.000000	0.018914
1835.000000	0.018937
1834.000000	0.018983
1833.000000	0.019049
1832.000000	0.019092
1831.000000	0.019058
1830.000000	0.018970
1829.000000	0.018923
1828.000000	0.018950
1827.000000	0.018995
1826.000000	0.019009
1825.000000	0.018994
1824.000000	0.018961
1823.000000	0.018913
1822.000000	0.018866
1821.000000	0.018848
1820.000000	0.018859
1819.000000	0.018863
1818.000000	0.018840
1817.000000	0.018798
1816.000000	0.018760
1815.000000	0.018747
1814.000000	0.018773
1813.000000	0.018833
1812.000000	0.018888
1811.000000	0.018913
1810.000000	0.018926
1809.000000	0.018946
1808.000000	0.018970
1807.000000	0.018997
1806.000000	0.019056
1805.000000	0.019179
1804.000000	0.019362
1803.000000	0.019569
1802.000000	0.019773
1801.000000	0.019970
1800.000000	0.020151
1799.000000	0.020305
1798.000000	0.020431
1797.000000	0.020528
1796.000000	0.020593
1795.000000	0.020617
1794.000000	0.020589
1793.000000	0.020499
1792.000000	0.020337
1791.000000	0.020115
1790.000000	0.019868
1789.000000	0.019637
1788.000000	0.019438
1787.000000	0.019270
1786.000000	0.019130
1785.000000	0.019016
1784.000000	0.018928
1783.000000	0.018854
1782.000000	0.018782
1781.000000	0.018720
1780.000000	0.018667
1779.000000	0.018614
1778.000000	0.018567
1777.000000	0.018557
1776.000000	0.018592
1775.000000	0.018620
1774.000000	0.018585
1773.000000	0.018508
1772.000000	0.018472
1771.000000	0.018508
1770.000000	0.018580
1769.000000	0.018637
1768.000000	0.018634
1767.000000	0.018561
1766.000000	0.018484
1765.000000	0.018470
1764.000000	0.018513
1763.000000	0.018553
1762.000000	0.018573
1761.000000	0.018620
1760.000000	0.018718
1759.000000	0.018843
1758.000000	0.018976
1757.000000	0.019141
1756.000000	0.019346
1755.000000	0.019555
1754.000000	0.019770
1753.000000	0.020046
1752.000000	0.020408
1751.000000	0.020783
1750.000000	0.021094
1749.000000	0.021370
1748.000000	0.021656
1747.000000	0.021915
1746.000000	0.022124
1745.000000	0.022316
1744.000000	0.022506
1743.000000	0.022656
1742.000000	0.022758
1741.000000	0.022846
1740.000000	0.022938
1739.000000	0.023013
1738.000000	0.023079
1737.000000	0.023151
1736.000000	0.023180
1735.000000	0.023065
1734.000000	0.022806
1733.000000	0.022553
1732.000000	0.022388
1731.000000	0.022238
1730.000000	0.022026
1729.000000	0.021776
1728.000000	0.021539
1727.000000	0.021319
1726.000000	0.021112
1725.000000	0.020945
1724.000000	0.020814
1723.000000	0.020686
1722.000000	0.020572
1721.000000	0.020500
1720.000000	0.020433
1719.000000	0.020284
1718.000000	0.020073
1717.000000	0.019919
1716.000000	0.019863
1715.000000	0.019852
1714.000000	0.019824
1713.000000	0.019769
1712.000000	0.019709
1711.000000	0.019656
1710.000000	0.019625
1709.000000	0.019647
1708.000000	0.019713
1707.000000	0.019772
1706.000000	0.019815
1705.000000	0.019891
1704.000000	0.020014
1703.000000	0.020145
1702.000000	0.020242
1701.000000	0.020319
1700.000000	0.020424
1699.000000	0.020542
1698.000000	0.020651
1697.000000	0.020757
1696.000000	0.020888
1695.000000	0.021059
1694.000000	0.021251
1693.000000	0.021460
1692.000000	0.021672
1691.000000	0.021879
1690.000000	0.022103
1689.000000	0.022350
1688.000000	0.022572
1687.000000	0.022714
1686.000000	0.022779
1685.000000	0.022871
1684.000000	0.023129
1683.000000	0.023448
1682.000000	0.023677
1681.000000	0.023862
1680.000000	0.024053
1679.000000	0.024236
1678.000000	0.024391
1677.000000	0.024533
1676.000000	0.024680
1675.000000	0.024823
1674.000000	0.024951
1673.000000	0.025116
1672.000000	0.025331
1671.000000	0.025546
1670.000000	0.025734
1669.000000	0.025936
1668.000000	0.026160
1667.000000	0.026360
1666.000000	0.026530
1665.000000	0.026708
1664.000000	0.026917
1663.000000	0.027145
1662.000000	0.027354
1661.000000	0.027541
1660.000000	0.027729
1659.000000	0.027911
1658.000000	0.028082
1657.000000	0.028271
1656.000000	0.028474
1655.000000	0.028608
1654.000000	0.028631
1653.000000	0.028692
1652.000000	0.028789
1651.000000	0.028870
1650.000000	0.028983
1649.000000	0.029075
1648.000000	0.029129
1647.000000	0.029160
1646.000000	0.029138
1645.000000	0.029054
1644.000000	0.028973
1643.000000	0.028911
1642.000000	0.028835
1641.000000	0.028749
1640.000000	0.028677
1639.000000	0.028603
1638.000000	0.028483
1637.000000	0.028314
1636.000000	0.028168
1635.000000	0.028050
1634.000000	0.027891
1633.000000	0.027713
1632.000000	0.027545
1631.000000	0.027373
1630.000000	0.027175
1629.000000	0.026964
1628.000000	0.026769
1627.000000	0.026587
1626.000000	0.026389
1625.000000	0.026172
1624.000000	0.025949
1623.000000	0.025729
1622.000000	0.025507
1621.000000	0.025299
1620.000000	0.025105
1619.000000	0.024871
1618.000000	0.024564
1617.000000	0.024262
1616.000000	0.024084
1615.000000	0.023996
1614.000000	0.023900
1613.000000	0.023767
1612.000000	0.023628
1611.000000	0.023497
1610.000000	0.023356
1609.000000	0.023201
1608.000000	0.023058
1607.000000	0.022933
1606.000000	0.022808
1605.000000	0.022694
1604.000000	0.022608
1603.000000	0.022530
1602.000000	0.022437
1601.000000	0.022347
1600.000000	0.022290
1599.000000	0.022252
1598.000000	0.022203
1597.000000	0.022143
1596.000000	0.022086
1595.000000	0.022025
1594.000000	0.021950
1593.000000	0.021882
1592.000000	0.021845
1591.000000	0.021824
1590.000000	0.021796
1589.000000	0.021766
1588.000000	0.021755
1587.000000	0.021754
1586.000000	0.021738
1585.000000	0.021708
1584.000000	0.021684
1583.000000	0.021660
1582.000000	0.021629
1581.000000	0.021622
1580.000000	0.021663
1579.000000	0.021701
1578.000000	0.021664
1577.000000	0.021579
1576.000000	0.021566
1575.000000	0.021637
1574.000000	0.021715
1573.000000	0.021779
1572.000000	0.021820
1571.000000	0.021835
1570.000000	0.021857
1569.000000	0.021934
1568.000000	0.022048
1567.000000	0.022139
1566.000000	0.022197
1565.000000	0.022260
1564.000000	0.022357
1563.000000	0.022460
1562.000000	0.022537
1561.000000	0.022612
1560.000000	0.022750
1559.000000	0.023063
1558.000000	0.023344
1557.000000	0.023434
1556.000000	0.023508
1555.000000	0.023609
1554.000000	0.023719
1553.000000	0.023865
1552.000000	0.024064
1551.000000	0.024292
1550.000000	0.024516
1549.000000	0.024720
1548.000000	0.024906
1547.000000	0.025101
1546.000000	0.025337
1545.000000	0.025616
1544.000000	0.025878
1543.000000	0.026044
1542.000000	0.026118
1541.000000	0.026205
1540.000000	0.026422
1539.000000	0.026654
1538.000000	0.026773
1537.000000	0.026873
1536.000000	0.027007
1535.000000	0.027170
1534.000000	0.027380
1533.000000	0.027621
1532.000000	0.027784
1531.000000	0.027851
1530.000000	0.027916
1529.000000	0.028055
1528.000000	0.028262
1527.000000	0.028473
1526.000000	0.028638
1525.000000	0.028755
1524.000000	0.028847
1523.000000	0.028946
1522.000000	0.029128
1521.000000	0.029417
1520.000000	0.029687
1519.000000	0.029877
1518.000000	0.030059
1517.000000	0.030300
1516.000000	0.030541
1515.000000	0.030671
1514.000000	0.030723
1513.000000	0.030814
1512.000000	0.030981
1511.000000	0.031183
1510.000000	0.031376
1509.000000	0.031546
1508.000000	0.031669
1507.000000	0.031765
1506.000000	0.031854
1505.000000	0.031904
1504.000000	0.031981
1503.000000	0.032100
1502.000000	0.032241
1501.000000	0.032420
1500.000000	0.032628
1499.000000	0.032817
1498.000000	0.032998
1497.000000	0.033236
1496.000000	0.033506
1495.000000	0.033732
1494.000000	0.033935
1493.000000	0.034178
1492.000000	0.034478
1491.000000	0.034806
1490.000000	0.035142
1489.000000	0.035447
1488.000000	0.035662
1487.000000	0.035805
1486.000000	0.035940
1485.000000	0.036110
1484.000000	0.036324
1483.000000	0.036563
1482.000000	0.036837
1481.000000	0.037154
1480.000000	0.037482
1479.000000	0.037793
1478.000000	0.038118
1477.000000	0.038497
1476.000000	0.038896
1475.000000	0.039263
1474.000000	0.039618
1473.000000	0.040024
1472.000000	0.040428
1471.000000	0.040722
1470.000000	0.040949
1469.000000	0.041210
1468.000000	0.041519
1467.000000	0.041847
1466.000000	0.042195
1465.000000	0.042576
1464.000000	0.042929
1463.000000	0.043182
1462.000000	0.043393
1461.000000	0.043656
1460.000000	0.043982
1459.000000	0.044323
1458.000000	0.044697
1457.000000	0.045146
1456.000000	0.045499
1455.000000	0.045653
1454.000000	0.045759
1453.000000	0.045919
1452.000000	0.046121
1451.000000	0.046314
1450.000000	0.046503
1449.000000	0.046733
1448.000000	0.046984
1447.000000	0.047176
1446.000000	0.047303
1445.000000	0.047445
1444.000000	0.047642
1443.000000	0.047854
1442.000000	0.048062
1441.000000	0.048298
1440.000000	0.048568
1439.000000	0.048836
1438.000000	0.049100
1437.000000	0.049390
1436.000000	0.049648
1435.000000	0.049778
1434.000000	0.049843
1433.000000	0.049948
1432.000000	0.050099
1431.000000	0.050246
1430.000000	0.050384
1429.000000	0.050556
1428.000000	0.050751
1427.000000	0.050924
1426.000000	0.051089
1425.000000	0.051309
1424.000000	0.051572
1423.000000	0.051780
1422.000000	0.051926
1421.000000	0.052119
1420.000000	0.052419
1419.000000	0.052733
1418.000000	0.052947
1417.000000	0.053076
1416.000000	0.053157
1415.000000	0.053195
1414.000000	0.053235
1413.000000	0.053347
1412.000000	0.053531
1411.000000	0.053709
1410.000000	0.053858
1409.000000	0.054028
1408.000000	0.054238
1407.000000	0.054454
1406.000000	0.054669
1405.000000	0.054911
1404.000000	0.055145
1403.000000	0.055293
1402.000000	0.055382
1401.000000	0.055503
1400.000000	0.055680
1399.000000	0.055840
1398.000000	0.055966
1397.000000	0.056130
1396.000000	0.056354
1395.000000	0.056562
1394.000000	0.056704
1393.000000	0.056835
1392.000000	0.056988
1391.000000	0.057132
1390.000000	0.057253
1389.000000	0.057373
1388.000000	0.057482
1387.000000	0.057511
1386.000000	0.057457
1385.000000	0.057410
1384.000000	0.057410
1383.000000	0.057416
1382.000000	0.057403
1381.000000	0.057398
1380.000000	0.057401
1379.000000	0.057362
1378.000000	0.057265
1377.000000	0.057159
1376.000000	0.057075
1375.000000	0.056974
1374.000000	0.056824
1373.000000	0.056653
1372.000000	0.056493
1371.000000	0.056336
1370.000000	0.056176
1369.000000	0.056031
1368.000000	0.055904
1367.000000	0.055771
1366.000000	0.055642
1365.000000	0.055556
1364.000000	0.055505
1363.000000	0.055425
1362.000000	0.055269
1361.000000	0.055064
1360.000000	0.054847
1359.000000	0.054626
1358.000000	0.054407
1357.000000	0.054215
1356.000000	0.054045
1355.000000	0.053869
1354.000000	0.053685
1353.000000	0.053526
1352.000000	0.053384
1351.000000	0.053222
1350.000000	0.053029
1349.000000	0.052845
1348.000000	0.052694
1347.000000	0.052557
1346.000000	0.052418
1345.000000	0.052294
1344.000000	0.052194
1343.000000	0.052104
1342.000000	0.052024
1341.000000	0.051974
1340.000000	0.051932
1339.000000	0.051842
1338.000000	0.051690
1337.000000	0.051528
1336.000000	0.051372
1335.000000	0.051187
1334.000000	0.050961
1333.000000	0.050728
1332.000000	0.050513
1331.000000	0.050301
1330.000000	0.050082
1329.000000	0.049876
1328.000000	0.049685
1327.000000	0.049488
1326.000000	0.049285
1325.000000	0.049112
1324.000000	0.048978
1323.000000	0.048847
1322.000000	0.048698
1321.000000	0.048552
1320.000000	0.048419
1319.000000	0.048274
1318.000000	0.048108
1317.000000	0.047949
1316.000000	0.047804
1315.000000	0.047642
1314.000000	0.047446
1313.000000	0.047238
1312.000000	0.047030
1311.000000	0.046817
1310.000000	0.046612
1309.000000	0.046443
1308.000000	0.046293
1307.000000	0.046108
1306.000000	0.045881
1305.000000	0.045663
1304.000000	0.045479
1303.000000	0.045295
1302.000000	0.045086
1301.000000	0.044873
1300.000000	0.044675
1299.000000	0.044473
1298.000000	0.044260
1297.000000	0.044058
1296.000000	0.043870
1295.000000	0.043673
1294.000000	0.043469
1293.000000	0.043297
1292.000000	0.043163
1291.000000	0.043023
1290.000000	0.042854
1289.000000	0.042677
1288.000000	0.042507
1287.000000	0.042323
1286.000000	0.042133
1285.000000	0.041976
1284.000000	0.041851
1283.000000	0.041706
1282.000000	0.041521
1281.000000	0.041347
1280.000000	0.041219
1279.000000	0.041109
1278.000000	0.040985
1277.000000	0.040866
1276.000000	0.040776
1275.000000	0.040698
1274.000000	0.040620
1273.000000	0.040564
1272.000000	0.040547
1271.000000	0.040543
1270.000000	0.040530
1269.000000	0.040525
1268.000000	0.040536
1267.000000	0.040535
1266.000000	0.040512
1265.000000	0.040506
1264.000000	0.040535
1263.000000	0.040563
1262.000000	0.040563
1261.000000	0.040560
1260.000000	0.040583
1259.000000	0.040613
1258.000000	0.040631
1257.000000	0.040645
1256.000000	0.040654
1255.000000	0.040628
1254.000000	0.040552
1253.000000	0.040459
1252.000000	0.040370
1251.000000	0.040273
1250.000000	0.040169
1249.000000	0.040095
1248.000000	0.040064
1247.000000	0.040039
1246.000000	0.039996
1245.000000	0.039964
1244.000000	0.039961
1243.000000	0.039961
1242.000000	0.039941
1241.000000	0.039914
1240.000000	0.039889
1239.000000	0.039833
1238.000000	0.039726
1237.000000	0.039590
1236.000000	0.039447
1235.000000	0.039289
1234.000000	0.039114
1233.000000	0.038955
1232.000000	0.038825
1231.000000	0.038695
1230.000000	0.038544
1229.000000	0.038388
1228.000000	0.038224
1227.000000	0.038021
1226.000000	0.037775
1225.000000	0.037535
1224.000000	0.037329
1223.000000	0.037129
1222.000000	0.036910
1221.000000	0.036689
1220.000000	0.036488
1219.000000	0.036293
1218.000000	0.036089
1217.000000	0.035898
1216.000000	0.035735
1215.000000	0.035578
1214.000000	0.035411
1213.000000	0.035255
1212.000000	0.035117
1211.000000	0.034975
1210.000000	0.034819
1209.000000	0.034679
1208.000000	0.034576
1207.000000	0.034494
1206.000000	0.034415
1205.000000	0.034347
1204.000000	0.034284
1203.000000	0.034198
1202.000000	0.034092
1201.000000	0.034006
1200.000000	0.033957
1199.000000	0.033913
1198.000000	0.033850
1197.000000	0.033785
1196.000000	0.033723
1195.000000	0.033641
1194.000000	0.033543
1193.000000	0.033476
1192.000000	0.033457
1191.000000	0.033446
1190.000000	0.033411
1189.000000	0.033380
1188.000000	0.033387
1187.000000	0.033420
1186.000000	0.033457
1185.000000	0.033502
1184.000000	0.033552
1183.000000	0.033585
1182.000000	0.033606
1181.000000	0.033654
1180.000000	0.033742
1179.000000	0.033826
1178.000000	0.033880
1177.000000	0.033936
1176.000000	0.034020
1175.000000	0.034111
1174.000000	0.034187
1173.000000	0.034261
1172.000000	0.034336
1171.000000	0.034388
1170.000000	0.034416
1169.000000	0.034461
1168.000000	0.034537
1167.000000	0.034607
1166.000000	0.034651
1165.000000	0.034699
1164.000000	0.034764
1163.000000	0.034804
1162.000000	0.034798
1161.000000	0.034776
1160.000000	0.034754
1159.000000	0.034690
1158.000000	0.034563
1157.000000	0.034416
1156.000000	0.034295
1155.000000	0.034184
1154.000000	0.034059
1153.000000	0.033929
1152.000000	0.033796
1151.000000	0.033623
1150.000000	0.033406
1149.000000	0.033192
1148.000000	0.032999
1147.000000	0.032785
1146.000000	0.032521
1145.000000	0.032252
1144.000000	0.032022
1143.000000	0.031813
1142.000000	0.031600
1141.000000	0.031402
1140.000000	0.031232
1139.000000	0.031061
1138.000000	0.030880
1137.000000	0.030726
1136.000000	0.030624
1135.000000	0.030533
1134.000000	0.030419
1133.000000	0.030308
1132.000000	0.030230
1131.000000	0.030167
1130.000000	0.030110
1129.000000	0.030089
1128.000000	0.030115
1127.000000	0.030133
1126.000000	0.030108
1125.000000	0.030075
1124.000000	0.030078
1123.000000	0.030101
1122.000000	0.030116
1121.000000	0.030133
1120.000000	0.030163
1119.000000	0.030182
1118.000000	0.030184
1117.000000	0.030212
1116.000000	0.030291
1115.000000	0.030387
1114.000000	0.030473
1113.000000	0.030576
1112.000000	0.030711
1111.000000	0.030837
1110.000000	0.030924
1109.000000	0.031003
1108.000000	0.031097
1107.000000	0.031164
1106.000000	0.031170
1105.000000	0.031147
1104.000000	0.031138
1103.000000	0.031135
1102.000000	0.031136
1101.000000	0.031172
1100.000000	0.031245
1099.000000	0.031299
1098.000000	0.031313
1097.000000	0.031339
1096.000000	0.031423
1095.000000	0.031532
1094.000000	0.031619
1093.000000	0.031686
1092.000000	0.031742
1091.000000	0.031761
1090.000000	0.031743
1089.000000	0.031736
1088.000000	0.031755
1087.000000	0.031752
1086.000000	0.031701
1085.000000	0.031649
1084.000000	0.031627
1083.000000	0.031598
1082.000000	0.031525
1081.000000	0.031432
1080.000000	0.031340
1079.000000	0.031230
1078.000000	0.031109
1077.000000	0.031032
1076.000000	0.031014
1075.000000	0.030998
1074.000000	0.030950
1073.000000	0.030900
1072.000000	0.030863
1071.000000	0.030795
1070.000000	0.030690
1069.000000	0.030623
1068.000000	0.030630
1067.000000	0.030657
1066.000000	0.030650
1065.000000	0.030638
1064.000000	0.030647
1063.000000	0.030641
1062.000000	0.030600
1061.000000	0.030571
1060.000000	0.030583
1059.000000	0.030595
1058.000000	0.030582
1057.000000	0.030594
1056.000000	0.030665
1055.000000	0.030744
1054.000000	0.030781
1053.000000	0.030806
1052.000000	0.030845
1051.000000	0.030870
1050.000000	0.030867
1049.000000	0.030892
1048.000000	0.030969
1047.000000	0.031038
1046.000000	0.031060
1045.000000	0.031089
1044.000000	0.031176
1043.000000	0.031289
1042.000000	0.031388
1041.000000	0.031482
1040.000000	0.031573
1039.000000	0.031616
1038.000000	0.031602
1037.000000	0.031596
1036.000000	0.031636
1035.000000	0.031676
1034.000000	0.031688
1033.000000	0.031723
1032.000000	0.031812
1031.000000	0.031890
1030.000000	0.031906
1029.000000	0.031897
1028.000000	0.031903
1027.000000	0.031886
1026.000000	0.031823
1025.000000	0.031775
1024.000000	0.031792
1023.000000	0.031818
1022.000000	0.031786
1021.000000	0.031716
1020.000000	0.031654
1019.000000	0.031583
1018.000000	0.031479
1017.000000	0.031379
1016.000000	0.031325
1015.000000	0.031292
1014.000000	0.031241
1013.000000	0.031187
1012.000000	0.031146
1011.000000	0.031082
1010.000000	0.030972
1009.000000	0.030845
1008.000000	0.030717
1007.000000	0.030554
1006.000000	0.030351
1005.000000	0.030173
1004.000000	0.030061
1003.000000	0.029970
1002.000000	0.029865
1001.000000	0.029772
1000.000000	0.029708
999.000000	0.029617
998.000000	0.029460
997.000000	0.029282
996.000000	0.029132
995.000000	0.028994
994.000000	0.028846
993.000000	0.028709
992.000000	0.028594
991.000000	0.028461
990.000000	0.028294
989.000000	0.028141
988.000000	0.028031
987.000000	0.027916
986.000000	0.027766
985.000000	0.027623
984.000000	0.027522
983.000000	0.027421
982.000000	0.027292
981.000000	0.027183
980.000000	0.027133
979.000000	0.027095
978.000000	0.027014
977.000000	0.026910
976.000000	0.026824
975.000000	0.026741
974.000000	0.026640
973.000000	0.026545
972.000000	0.026472
971.000000	0.026391
970.000000	0.026283
969.000000	0.026180
968.000000	0.026095
967.000000	0.025987
966.000000	0.025847
965.000000	0.025730
964.000000	0.025658
963.000000	0.025581
962.000000	0.025471
961.000000	0.025380
960.000000	0.025334
959.000000	0.025268
958.000000	0.025131
957.000000	0.024972
956.000000	0.024856
955.000000	0.024765
954.000000	0.024663
953.000000	0.024569
952.000000	0.024504
951.000000	0.024431
950.000000	0.024325
949.000000	0.024230
948.000000	0.024186
947.000000	0.024159
946.000000	0.024103
945.000000	0.024028
944.000000	0.023945
943.000000	0.023827
942.000000	0.023682
941.000000	0.023582
940.000000	0.023559
939.000000	0.023546
938.000000	0.023475
937.000000	0.023372
936.000000	0.023278
935.000000	0.023176
934.000000	0.023053
933.000000	0.022951
932.000000	0.022900
931.000000	0.022859
930.000000	0.022792
929.000000	0.022721
928.000000	0.022656
927.000000	0.022554
926.000000	0.022412
925.000000	0.022295
924.000000	0.022239
923.000000	0.022183
922.000000	0.022091
921.000000	0.022010
920.000000	0.021976
919.000000	0.021933
918.000000	0.021833
917.000000	0.021722
916.000000	0.021642
915.000000	0.021551
914.000000	0.021402
913.000000	0.021238
912.000000	0.021110
911.000000	0.020994
910.000000	0.020850
909.000000	0.020703
908.000000	0.020577
907.000000	0.020433
906.000000	0.020243
905.000000	0.020058
904.000000	0.019919
903.000000	0.019793
902.000000	0.019648
901.000000	0.019512
900.000000	0.019401
899.000000	0.019263
898.000000	0.019073
897.000000	0.018892
896.000000	0.018763
895.000000	0.018634
894.000000	0.018449
893.000000	0.018241
892.000000	0.018055
891.000000	0.017876
890.000000	0.017715
889.000000	0.017722
888.000000	0.018120
887.000000	0.019104
886.000000	0.020790
885.000000	0.023163
884.000000	0.025995
883.000000	0.028945
882.000000	0.031837
881.000000	0.034789
880.000000	0.037971
879.000000	0.041353
878.000000	0.044760
877.000000	0.048051
876.000000	0.051123
875.000000	0.053885
874.000000	0.056318
873.000000	0.058461
872.000000	0.060197
871.000000	0.061184
870.000000	0.061129
869.000000	0.060025
868.000000	0.058089
867.000000	0.055581
866.000000	0.052794
865.000000	0.050038
864.000000	0.047506
863.000000	0.045202
862.000000	0.043088
861.000000	0.041203
860.000000	0.039570
859.000000	0.038119
858.000000	0.036780
857.000000	0.035560
856.000000	0.034464
855.000000	0.033428
854.000000	0.032426
853.000000	0.031536
852.000000	0.030874
851.000000	0.030531
850.000000	0.030575
849.000000	0.030945
848.000000	0.031296
847.000000	0.031178
846.000000	0.030471
845.000000	0.029507
844.000000	0.028673
843.000000	0.028049
842.000000	0.027532
841.000000	0.027092
840.000000	0.026758
839.000000	0.026480
838.000000	0.026188
837.000000	0.025899
836.000000	0.025636
835.000000	0.025349
834.000000	0.025020
833.000000	0.024741
832.000000	0.024575
831.000000	0.024451
830.000000	0.024294
829.000000	0.024147
828.000000	0.024045
827.000000	0.023896
826.000000	0.023627
825.000000	0.023327
824.000000	0.023113
823.000000	0.022957
822.000000	0.022800
821.000000	0.022680
820.000000	0.022626
819.000000	0.022540
818.000000	0.022342
817.000000	0.022105
816.000000	0.021929
815.000000	0.021795
814.000000	0.021663
813.000000	0.021576
812.000000	0.021557
811.000000	0.021512
810.000000	0.021374
809.000000	0.021233
808.000000	0.021192
807.000000	0.021210
806.000000	0.021201
805.000000	0.021192
804.000000	0.021223
803.000000	0.021221
802.000000	0.021113
801.000000	0.020965
800.000000	0.020876
799.000000	0.020838
798.000000	0.020800
797.000000	0.020786
796.000000	0.020811
795.000000	0.020797
794.000000	0.020695
793.000000	0.020599
792.000000	0.020604
791.000000	0.020658
790.000000	0.020672
789.000000	0.020663
788.000000	0.020683
787.000000	0.020690
786.000000	0.020632
785.000000	0.020553
784.000000	0.020508
783.000000	0.020461
782.000000	0.020374
781.000000	0.020313
780.000000	0.020338
779.000000	0.020398
778.000000	0.020433
777.000000	0.020466
776.000000	0.020510
775.000000	0.020476
774.000000	0.020318
773.000000	0.020150
772.000000	0.020098
771.000000	0.020125
770.000000	0.020122
769.000000	0.020090
768.000000	0.020079
767.000000	0.020059
766.000000	0.019980
765.000000	0.019899
764.000000	0.019896
763.000000	0.019937
762.000000	0.019942
761.000000	0.019922
760.000000	0.019931
759.000000	0.019938
758.000000	0.019884
757.000000	0.019792
756.000000	0.019725
755.000000	0.019687
754.000000	0.019663
753.000000	0.019687
752.000000	0.019775
751.000000	0.019849
750.000000	0.019842
749.000000	0.019805
748.000000	0.019806
747.000000	0.019797
746.000000	0.019701
745.000000	0.019554
744.000000	0.019442
743.000000	0.019374
742.000000	0.019296
741.000000	0.019212
740.000000	0.019151
739.000000	0.019096
738.000000	0.019022
737.000000	0.018962
736.000000	0.018952
735.000000	0.018948
734.000000	0.018904
733.000000	0.018855
732.000000	0.018856
731.000000	0.018871
730.000000	0.018823
729.000000	0.018732
728.000000	0.018663
727.000000	0.018603
726.000000	0.018522
725.000000	0.018457
724.000000	0.018436
723.000000	0.018401
722.000000	0.018318
721.000000	0.018290
720.000000	0.018454
719.000000	0.018856
718.000000	0.019570
717.000000	0.020876
716.000000	0.023183
715.000000	0.026680
714.000000	0.030996
713.000000	0.035141
712.000000	0.037853
711.000000	0.038326
710.000000	0.036770
709.000000	0.034213
708.000000	0.031702
707.000000	0.029708
706.000000	0.028246
705.000000	0.027238
704.000000	0.026565
703.000000	0.026023
702.000000	0.025470
701.000000	0.024954
700.000000	0.024598
699.000000	0.024387
698.000000	0.024215
697.000000	0.024054
696.000000	0.023895
695.000000	0.023685
694.000000	0.023386
693.000000	0.023063
692.000000	0.022827
691.000000	0.022669
690.000000	0.022514
689.000000	0.022367
688.000000	0.022267
687.000000	0.022186
686.000000	0.022046
685.000000	0.021832
684.000000	0.021625
683.000000	0.021471
682.000000	0.021338
681.000000	0.021218
680.000000	0.021186
679.000000	0.021264
678.000000	0.021336
677.000000	0.021378
676.000000	0.021462
675.000000	0.021576
674.000000	0.021563
673.000000	0.021273
672.000000	0.020644
671.000000	0.019626
670.000000	0.018192
669.000000	0.016635
668.000000	0.016155
667.000000	0.017493
666.000000	0.018930
665.000000	0.019979
664.000000	0.020840
663.000000	0.021316
662.000000	0.021302
661.000000	0.021071
660.000000	0.020920
659.000000	0.020794
658.000000	0.020555
657.000000	0.020382
656.000000	0.020416
655.000000	0.020464
654.000000	0.020402
653.000000	0.020426
652.000000	0.020589
651.000000	0.020595
650.000000	0.020318
649.000000	0.020114
648.000000	0.020243
647.000000	0.020479
646.000000	0.020581
645.000000	0.020657
644.000000	0.020823
643.000000	0.020953
642.000000	0.020964
641.000000	0.021042
640.000000	0.021292
639.000000	0.021491
638.000000	0.021480
637.000000	0.021439
636.000000	0.021507
635.000000	0.021545
634.000000	0.021472
633.000000	0.021462
632.000000	0.021597
631.000000	0.021662
630.000000	0.021529
629.000000	0.021403
628.000000	0.021433
627.000000	0.021445
626.000000	0.021330
625.000000	0.021275
624.000000	0.021389
623.000000	0.021461
622.000000	0.021335
621.000000	0.021189
620.000000	0.021203
619.000000	0.021277
618.000000	0.021312
617.000000	0.021432
616.000000	0.021700
615.000000	0.021904
614.000000	0.021922
613.000000	0.021943
612.000000	0.022095
611.000000	0.022170
610.000000	0.022000
609.000000	0.021777
608.000000	0.021732
607.000000	0.021783
606.000000	0.021793
605.000000	0.021821
604.000000	0.021889
603.000000	0.021824
602.000000	0.021569
601.000000	0.021355
600.000000	0.021332
599.000000	0.021338
598.000000	0.021237
597.000000	0.021179
596.000000	0.021265
595.000000	0.021306
594.000000	0.021153
593.000000	0.020981
592.000000	0.020961
591.000000	0.020971
590.000000	0.020886
589.000000	0.020827
588.000000	0.020863
587.000000	0.020787
586.000000	0.020492
585.000000	0.020224
584.000000	0.020203
583.000000	0.020292
582.000000	0.020309
581.000000	0.020330
580.000000	0.020426
579.000000	0.020447
578.000000	0.020350
577.000000	0.020384
576.000000	0.020640
575.000000	0.020798
574.000000	0.020624
573.000000	0.020365
572.000000	0.020296
571.000000	0.020316
570.000000	0.020258
569.000000	0.020241
568.000000	0.020361
567.000000	0.020400
566.000000	0.020205
565.000000	0.019983
564.000000	0.019915
563.000000	0.019839
562.000000	0.019652
561.000000	0.019599
560.000000	0.019838
559.000000	0.020092
558.000000	0.020107
557.000000	0.020045
556.000000	0.020095
555.000000	0.020092
554.000000	0.019899
553.000000	0.019756
552.000000	0.019850
551.000000	0.019947
550.000000	0.019823
549.000000	0.019704
548.000000	0.019834
547.000000	0.020025
546.000000	0.020025
545.000000	0.019963
544.000000	0.020025
543.000000	0.020071
542.000000	0.019979
541.000000	0.019964
540.000000	0.020157
539.000000	0.020269
538.000000	0.020066
537.000000	0.019798
536.000000	0.019756
535.000000	0.019802
534.000000	0.019745
533.000000	0.019746
532.000000	0.019947
531.000000	0.020102
530.000000	0.020009
529.000000	0.019913
528.000000	0.020065
527.000000	0.020269
526.000000	0.020281
525.000000	0.020303
524.000000	0.020556
523.000000	0.020806
522.000000	0.020798
521.000000	0.020700
520.000000	0.020714
519.000000	0.020649
518.000000	0.020317
517.000000	0.020002
516.000000	0.020007
515.000000	0.020159
514.000000	0.020218
513.000000	0.020292
512.000000	0.020454
511.000000	0.020425
510.000000	0.020060
509.000000	0.019711
508.000000	0.019711
507.000000	0.019869
506.000000	0.019909
505.000000	0.019963
504.000000	0.020159
503.000000	0.020223
502.000000	0.019947
501.000000	0.019635
500.000000	0.019554
499.000000	0.019458
498.000000	0.019161
497.000000	0.018990
496.000000	0.019216
495.000000	0.019525
494.000000	0.019544
493.000000	0.019459
492.000000	0.019594
491.000000	0.019790
490.000000	0.019779
489.000000	0.019695
488.000000	0.019702
487.000000	0.019593
486.000000	0.019250
485.000000	0.019036
484.000000	0.019203
483.000000	0.019379
482.000000	0.019244
481.000000	0.019144
480.000000	0.019432
479.000000	0.019793
478.000000	0.019812
477.000000	0.019694
476.000000	0.019794
475.000000	0.019967
474.000000	0.020022
473.000000	0.020268
472.000000	0.020873
471.000000	0.021249
470.000000	0.020992
469.000000	0.020630
468.000000	0.020671
467.000000	0.020778
466.000000	0.020501
465.000000	0.020193
464.000000	0.020339
463.000000	0.020674
462.000000	0.020726
461.000000	0.020690
460.000000	0.020892
459.000000	0.020949
458.000000	0.020371
457.000000	0.019593
456.000000	0.019245
455.000000	0.019073
454.000000	0.018720
453.000000	0.018520
452.000000	0.018778
451.000000	0.018966
450.000000	0.018608
