PE IR       SUBTECH     SPECTRUM    ASCII       PEDS        4.00        
   -1
P8-Or046_1.ASC
23/06/13
16:07:11.00
23/06/13
16:11:22.00
uco
Sample 046 By uco Date Tuesday, June 13 2023
450.000000
#HDR
-1
-1
#GR
cm-1
A
1.0
0.0
4000.000000
-1.000000
3551
8
0.040780
0.007296
#DATA
4000.000000	0.010809
3999.000000	0.010851
3998.000000	0.010901
3997.000000	0.010933
3996.000000	0.010936
3995.000000	0.010919
3994.000000	0.010902
3993.000000	0.010897
3992.000000	0.010899
3991.000000	0.010895
3990.000000	0.010886
3989.000000	0.010882
3988.000000	0.010894
3987.000000	0.010927
3986.000000	0.010967
3985.000000	0.011001
3984.000000	0.011017
3983.000000	0.011014
3982.000000	0.011001
3981.000000	0.010989
3980.000000	0.010986
3979.000000	0.010990
3978.000000	0.010996
3977.000000	0.011001
3976.000000	0.011007
3975.000000	0.011020
3974.000000	0.011044
3973.000000	0.011073
3972.000000	0.011096
3971.000000	0.011103
3970.000000	0.011094
3969.000000	0.011076
3968.000000	0.011063
3967.000000	0.011060
3966.000000	0.011068
3965.000000	0.011082
3964.000000	0.011094
3963.000000	0.011097
3962.000000	0.011085
3961.000000	0.011060
3960.000000	0.011033
3959.000000	0.011017
3958.000000	0.011017
3957.000000	0.011023
3956.000000	0.011024
3955.000000	0.011019
3954.000000	0.011013
3953.000000	0.011018
3952.000000	0.011036
3951.000000	0.011065
3950.000000	0.011098
3949.000000	0.011133
3948.000000	0.011169
3947.000000	0.011195
3946.000000	0.011201
3945.000000	0.011180
3944.000000	0.011144
3943.000000	0.011118
3942.000000	0.011116
3941.000000	0.011127
3940.000000	0.011132
3939.000000	0.011125
3938.000000	0.011119
3937.000000	0.011126
3936.000000	0.011145
3935.000000	0.011165
3934.000000	0.011175
3933.000000	0.011169
3932.000000	0.011153
3931.000000	0.011134
3930.000000	0.011122
3929.000000	0.011117
3928.000000	0.011109
3927.000000	0.011085
3926.000000	0.011050
3925.000000	0.011026
3924.000000	0.011032
3923.000000	0.011066
3922.000000	0.011107
3921.000000	0.011143
3920.000000	0.011173
3919.000000	0.011198
3918.000000	0.011215
3917.000000	0.011214
3916.000000	0.011193
3915.000000	0.011159
3914.000000	0.011122
3913.000000	0.011090
3912.000000	0.011069
3911.000000	0.011066
3910.000000	0.011085
3909.000000	0.011119
3908.000000	0.011156
3907.000000	0.011177
3906.000000	0.011178
3905.000000	0.011181
3904.000000	0.011215
3903.000000	0.011279
3902.000000	0.011329
3901.000000	0.011327
3900.000000	0.011277
3899.000000	0.011217
3898.000000	0.011179
3897.000000	0.011165
3896.000000	0.011164
3895.000000	0.011168
3894.000000	0.011168
3893.000000	0.011159
3892.000000	0.011156
3891.000000	0.011186
3890.000000	0.011248
3889.000000	0.011307
3888.000000	0.011325
3887.000000	0.011294
3886.000000	0.011236
3885.000000	0.011194
3884.000000	0.011176
3883.000000	0.011166
3882.000000	0.011148
3881.000000	0.011133
3880.000000	0.011141
3879.000000	0.011167
3878.000000	0.011190
3877.000000	0.011190
3876.000000	0.011171
3875.000000	0.011157
3874.000000	0.011175
3873.000000	0.011221
3872.000000	0.011256
3871.000000	0.011255
3870.000000	0.011233
3869.000000	0.011222
3868.000000	0.011219
3867.000000	0.011206
3866.000000	0.011188
3865.000000	0.011182
3864.000000	0.011199
3863.000000	0.011230
3862.000000	0.011252
3861.000000	0.011263
3860.000000	0.011270
3859.000000	0.011286
3858.000000	0.011314
3857.000000	0.011339
3856.000000	0.011341
3855.000000	0.011309
3854.000000	0.011280
3853.000000	0.011307
3852.000000	0.011354
3851.000000	0.011363
3850.000000	0.011340
3849.000000	0.011312
3848.000000	0.011293
3847.000000	0.011284
3846.000000	0.011277
3845.000000	0.011265
3844.000000	0.011249
3843.000000	0.011239
3842.000000	0.011245
3841.000000	0.011267
3840.000000	0.011298
3839.000000	0.011333
3838.000000	0.011364
3837.000000	0.011376
3836.000000	0.011364
3835.000000	0.011334
3834.000000	0.011301
3833.000000	0.011275
3832.000000	0.011262
3831.000000	0.011259
3830.000000	0.011251
3829.000000	0.011226
3828.000000	0.011183
3827.000000	0.011151
3826.000000	0.011160
3825.000000	0.011207
3824.000000	0.011263
3823.000000	0.011295
3822.000000	0.011309
3821.000000	0.011348
3820.000000	0.011419
3819.000000	0.011468
3818.000000	0.011447
3817.000000	0.011363
3816.000000	0.011268
3815.000000	0.011209
3814.000000	0.011187
3813.000000	0.011182
3812.000000	0.011192
3811.000000	0.011221
3810.000000	0.011259
3809.000000	0.011284
3808.000000	0.011289
3807.000000	0.011306
3806.000000	0.011357
3805.000000	0.011418
3804.000000	0.011439
3803.000000	0.011393
3802.000000	0.011309
3801.000000	0.011249
3800.000000	0.011235
3799.000000	0.011232
3798.000000	0.011217
3797.000000	0.011197
3796.000000	0.011187
3795.000000	0.011185
3794.000000	0.011169
3793.000000	0.011127
3792.000000	0.011073
3791.000000	0.011029
3790.000000	0.011010
3789.000000	0.011018
3788.000000	0.011041
3787.000000	0.011071
3786.000000	0.011104
3785.000000	0.011139
3784.000000	0.011174
3783.000000	0.011200
3782.000000	0.011209
3781.000000	0.011197
3780.000000	0.011171
3779.000000	0.011147
3778.000000	0.011127
3777.000000	0.011104
3776.000000	0.011082
3775.000000	0.011079
3774.000000	0.011107
3773.000000	0.011151
3772.000000	0.011187
3771.000000	0.011204
3770.000000	0.011213
3769.000000	0.011219
3768.000000	0.011213
3767.000000	0.011191
3766.000000	0.011170
3765.000000	0.011171
3764.000000	0.011196
3763.000000	0.011227
3762.000000	0.011242
3761.000000	0.011235
3760.000000	0.011213
3759.000000	0.011195
3758.000000	0.011194
3757.000000	0.011209
3756.000000	0.011238
3755.000000	0.011275
3754.000000	0.011319
3753.000000	0.011370
3752.000000	0.011423
3751.000000	0.011475
3750.000000	0.011524
3749.000000	0.011565
3748.000000	0.011588
3747.000000	0.011587
3746.000000	0.011571
3745.000000	0.011566
3744.000000	0.011579
3743.000000	0.011559
3742.000000	0.011475
3741.000000	0.011359
3740.000000	0.011257
3739.000000	0.011203
3738.000000	0.011212
3737.000000	0.011270
3736.000000	0.011323
3735.000000	0.011294
3734.000000	0.011175
3733.000000	0.011042
3732.000000	0.010970
3731.000000	0.010978
3730.000000	0.011038
3729.000000	0.011114
3728.000000	0.011180
3727.000000	0.011222
3726.000000	0.011235
3725.000000	0.011225
3724.000000	0.011205
3723.000000	0.011185
3722.000000	0.011174
3721.000000	0.011168
3720.000000	0.011153
3719.000000	0.011129
3718.000000	0.011109
3717.000000	0.011110
3716.000000	0.011135
3715.000000	0.011175
3714.000000	0.011233
3713.000000	0.011326
3712.000000	0.011444
3711.000000	0.011539
3710.000000	0.011547
3709.000000	0.011458
3708.000000	0.011317
3707.000000	0.011188
3706.000000	0.011106
3705.000000	0.011053
3704.000000	0.010984
3703.000000	0.010879
3702.000000	0.010770
3701.000000	0.010710
3700.000000	0.010717
3699.000000	0.010763
3698.000000	0.010823
3697.000000	0.010892
3696.000000	0.010983
3695.000000	0.011103
3694.000000	0.011236
3693.000000	0.011336
3692.000000	0.011346
3691.000000	0.011239
3690.000000	0.011065
3689.000000	0.010937
3688.000000	0.010927
3687.000000	0.011008
3686.000000	0.011109
3685.000000	0.011185
3684.000000	0.011228
3683.000000	0.011254
3682.000000	0.011272
3681.000000	0.011283
3680.000000	0.011302
3679.000000	0.011342
3678.000000	0.011391
3677.000000	0.011418
3676.000000	0.011414
3675.000000	0.011419
3674.000000	0.011450
3673.000000	0.011470
3672.000000	0.011452
3671.000000	0.011399
3670.000000	0.011337
3669.000000	0.011293
3668.000000	0.011259
3667.000000	0.011221
3666.000000	0.011179
3665.000000	0.011138
3664.000000	0.011100
3663.000000	0.011066
3662.000000	0.011042
3661.000000	0.011037
3660.000000	0.011055
3659.000000	0.011093
3658.000000	0.011145
3657.000000	0.011214
3656.000000	0.011306
3655.000000	0.011410
3654.000000	0.011502
3653.000000	0.011568
3652.000000	0.011610
3651.000000	0.011641
3650.000000	0.011661
3649.000000	0.011659
3648.000000	0.011623
3647.000000	0.011566
3646.000000	0.011511
3645.000000	0.011468
3644.000000	0.011434
3643.000000	0.011408
3642.000000	0.011386
3641.000000	0.011358
3640.000000	0.011323
3639.000000	0.011294
3638.000000	0.011284
3637.000000	0.011297
3636.000000	0.011323
3635.000000	0.011362
3634.000000	0.011418
3633.000000	0.011492
3632.000000	0.011573
3631.000000	0.011649
3630.000000	0.011706
3629.000000	0.011737
3628.000000	0.011736
3627.000000	0.011704
3626.000000	0.011650
3625.000000	0.011587
3624.000000	0.011517
3623.000000	0.011420
3622.000000	0.011280
3621.000000	0.011115
3620.000000	0.010999
3619.000000	0.011024
3618.000000	0.011191
3617.000000	0.011400
3616.000000	0.011562
3615.000000	0.011658
3614.000000	0.011722
3613.000000	0.011790
3612.000000	0.011857
3611.000000	0.011896
3610.000000	0.011897
3609.000000	0.011865
3608.000000	0.011804
3607.000000	0.011721
3606.000000	0.011624
3605.000000	0.011530
3604.000000	0.011465
3603.000000	0.011448
3602.000000	0.011482
3601.000000	0.011541
3600.000000	0.011592
3599.000000	0.011615
3598.000000	0.011619
3597.000000	0.011622
3596.000000	0.011643
3595.000000	0.011687
3594.000000	0.011741
3593.000000	0.011779
3592.000000	0.011787
3591.000000	0.011768
3590.000000	0.011733
3589.000000	0.011695
3588.000000	0.011681
3587.000000	0.011719
3586.000000	0.011802
3585.000000	0.011889
3584.000000	0.011940
3583.000000	0.011945
3582.000000	0.011921
3581.000000	0.011894
3580.000000	0.011884
3579.000000	0.011895
3578.000000	0.011916
3577.000000	0.011932
3576.000000	0.011935
3575.000000	0.011930
3574.000000	0.011923
3573.000000	0.011924
3572.000000	0.011938
3571.000000	0.011968
3570.000000	0.012008
3569.000000	0.012054
3568.000000	0.012102
3567.000000	0.012154
3566.000000	0.012200
3565.000000	0.012220
3564.000000	0.012208
3563.000000	0.012178
3562.000000	0.012153
3561.000000	0.012144
3560.000000	0.012149
3559.000000	0.012162
3558.000000	0.012175
3557.000000	0.012189
3556.000000	0.012202
3555.000000	0.012213
3554.000000	0.012218
3553.000000	0.012221
3552.000000	0.012236
3551.000000	0.012268
3550.000000	0.012310
3549.000000	0.012345
3548.000000	0.012365
3547.000000	0.012374
3546.000000	0.012383
3545.000000	0.012398
3544.000000	0.012424
3543.000000	0.012458
3542.000000	0.012486
3541.000000	0.012495
3540.000000	0.012481
3539.000000	0.012461
3538.000000	0.012460
3537.000000	0.012487
3536.000000	0.012531
3535.000000	0.012573
3534.000000	0.012598
3533.000000	0.012608
3532.000000	0.012612
3531.000000	0.012620
3530.000000	0.012636
3529.000000	0.012659
3528.000000	0.012689
3527.000000	0.012721
3526.000000	0.012746
3525.000000	0.012753
3524.000000	0.012746
3523.000000	0.012737
3522.000000	0.012740
3521.000000	0.012759
3520.000000	0.012789
3519.000000	0.012818
3518.000000	0.012834
3517.000000	0.012835
3516.000000	0.012829
3515.000000	0.012823
3514.000000	0.012817
3513.000000	0.012800
3512.000000	0.012773
3511.000000	0.012752
3510.000000	0.012754
3509.000000	0.012780
3508.000000	0.012818
3507.000000	0.012858
3506.000000	0.012889
3505.000000	0.012909
3504.000000	0.012923
3503.000000	0.012939
3502.000000	0.012957
3501.000000	0.012967
3500.000000	0.012965
3499.000000	0.012958
3498.000000	0.012962
3497.000000	0.012986
3496.000000	0.013026
3495.000000	0.013065
3494.000000	0.013090
3493.000000	0.013092
3492.000000	0.013083
3491.000000	0.013078
3490.000000	0.013087
3489.000000	0.013106
3488.000000	0.013130
3487.000000	0.013151
3486.000000	0.013167
3485.000000	0.013177
3484.000000	0.013184
3483.000000	0.013196
3482.000000	0.013216
3481.000000	0.013238
3480.000000	0.013255
3479.000000	0.013269
3478.000000	0.013280
3477.000000	0.013286
3476.000000	0.013292
3475.000000	0.013305
3474.000000	0.013331
3473.000000	0.013361
3472.000000	0.013381
3471.000000	0.013384
3470.000000	0.013374
3469.000000	0.013366
3468.000000	0.013372
3467.000000	0.013400
3466.000000	0.013438
3465.000000	0.013464
3464.000000	0.013465
3463.000000	0.013444
3462.000000	0.013423
3461.000000	0.013416
3460.000000	0.013428
3459.000000	0.013457
3458.000000	0.013495
3457.000000	0.013530
3456.000000	0.013558
3455.000000	0.013581
3454.000000	0.013602
3453.000000	0.013619
3452.000000	0.013629
3451.000000	0.013633
3450.000000	0.013635
3449.000000	0.013640
3448.000000	0.013655
3447.000000	0.013685
3446.000000	0.013720
3445.000000	0.013744
3444.000000	0.013749
3443.000000	0.013746
3442.000000	0.013756
3441.000000	0.013783
3440.000000	0.013816
3439.000000	0.013846
3438.000000	0.013874
3437.000000	0.013899
3436.000000	0.013918
3435.000000	0.013925
3434.000000	0.013923
3433.000000	0.013919
3432.000000	0.013929
3431.000000	0.013958
3430.000000	0.013998
3429.000000	0.014032
3428.000000	0.014052
3427.000000	0.014059
3426.000000	0.014064
3425.000000	0.014075
3424.000000	0.014095
3423.000000	0.014122
3422.000000	0.014149
3421.000000	0.014172
3420.000000	0.014188
3419.000000	0.014200
3418.000000	0.014209
3417.000000	0.014217
3416.000000	0.014223
3415.000000	0.014223
3414.000000	0.014216
3413.000000	0.014207
3412.000000	0.014210
3411.000000	0.014232
3410.000000	0.014271
3409.000000	0.014313
3408.000000	0.014346
3407.000000	0.014367
3406.000000	0.014374
3405.000000	0.014371
3404.000000	0.014368
3403.000000	0.014382
3402.000000	0.014414
3401.000000	0.014449
3400.000000	0.014471
3399.000000	0.014475
3398.000000	0.014472
3397.000000	0.014475
3396.000000	0.014488
3395.000000	0.014509
3394.000000	0.014530
3393.000000	0.014548
3392.000000	0.014563
3391.000000	0.014580
3390.000000	0.014594
3389.000000	0.014602
3388.000000	0.014606
3387.000000	0.014615
3386.000000	0.014629
3385.000000	0.014640
3384.000000	0.014642
3383.000000	0.014639
3382.000000	0.014638
3381.000000	0.014645
3380.000000	0.014662
3379.000000	0.014691
3378.000000	0.014729
3377.000000	0.014768
3376.000000	0.014805
3375.000000	0.014836
3374.000000	0.014863
3373.000000	0.014881
3372.000000	0.014891
3371.000000	0.014899
3370.000000	0.014909
3369.000000	0.014921
3368.000000	0.014928
3367.000000	0.014927
3366.000000	0.014923
3365.000000	0.014921
3364.000000	0.014925
3363.000000	0.014938
3362.000000	0.014962
3361.000000	0.014992
3360.000000	0.015021
3359.000000	0.015047
3358.000000	0.015071
3357.000000	0.015097
3356.000000	0.015126
3355.000000	0.015156
3354.000000	0.015182
3353.000000	0.015202
3352.000000	0.015221
3351.000000	0.015249
3350.000000	0.015287
3349.000000	0.015325
3348.000000	0.015346
3347.000000	0.015341
3346.000000	0.015310
3345.000000	0.015268
3344.000000	0.015238
3343.000000	0.015242
3342.000000	0.015279
3341.000000	0.015331
3340.000000	0.015372
3339.000000	0.015396
3338.000000	0.015408
3337.000000	0.015414
3336.000000	0.015418
3335.000000	0.015424
3334.000000	0.015436
3333.000000	0.015455
3332.000000	0.015477
3331.000000	0.015503
3330.000000	0.015534
3329.000000	0.015568
3328.000000	0.015594
3327.000000	0.015605
3326.000000	0.015603
3325.000000	0.015602
3324.000000	0.015614
3323.000000	0.015644
3322.000000	0.015683
3321.000000	0.015718
3320.000000	0.015745
3319.000000	0.015766
3318.000000	0.015782
3317.000000	0.015787
3316.000000	0.015772
3315.000000	0.015741
3314.000000	0.015705
3313.000000	0.015680
3312.000000	0.015676
3311.000000	0.015692
3310.000000	0.015725
3309.000000	0.015766
3308.000000	0.015810
3307.000000	0.015852
3306.000000	0.015886
3305.000000	0.015911
3304.000000	0.015931
3303.000000	0.015954
3302.000000	0.015981
3301.000000	0.016005
3300.000000	0.016015
3299.000000	0.016012
3298.000000	0.016006
3297.000000	0.016005
3296.000000	0.016012
3295.000000	0.016025
3294.000000	0.016047
3293.000000	0.016082
3292.000000	0.016126
3291.000000	0.016167
3290.000000	0.016186
3289.000000	0.016175
3288.000000	0.016149
3287.000000	0.016125
3286.000000	0.016108
3285.000000	0.016089
3284.000000	0.016065
3283.000000	0.016042
3282.000000	0.016033
3281.000000	0.016039
3280.000000	0.016055
3279.000000	0.016077
3278.000000	0.016103
3277.000000	0.016125
3276.000000	0.016134
3275.000000	0.016120
3274.000000	0.016079
3273.000000	0.016027
3272.000000	0.015989
3271.000000	0.015986
3270.000000	0.016011
3269.000000	0.016033
3268.000000	0.016025
3267.000000	0.015989
3266.000000	0.015948
3265.000000	0.015926
3264.000000	0.015924
3263.000000	0.015934
3262.000000	0.015946
3261.000000	0.015953
3260.000000	0.015953
3259.000000	0.015946
3258.000000	0.015933
3257.000000	0.015922
3256.000000	0.015920
3255.000000	0.015925
3254.000000	0.015920
3253.000000	0.015890
3252.000000	0.015838
3251.000000	0.015782
3250.000000	0.015742
3249.000000	0.015715
3248.000000	0.015693
3247.000000	0.015677
3246.000000	0.015676
3245.000000	0.015688
3244.000000	0.015695
3243.000000	0.015678
3242.000000	0.015635
3241.000000	0.015585
3240.000000	0.015552
3239.000000	0.015546
3238.000000	0.015559
3237.000000	0.015574
3236.000000	0.015571
3235.000000	0.015550
3234.000000	0.015521
3233.000000	0.015501
3232.000000	0.015496
3231.000000	0.015497
3230.000000	0.015489
3229.000000	0.015467
3228.000000	0.015442
3227.000000	0.015432
3226.000000	0.015437
3225.000000	0.015444
3224.000000	0.015438
3223.000000	0.015418
3222.000000	0.015394
3221.000000	0.015380
3220.000000	0.015385
3219.000000	0.015406
3218.000000	0.015428
3217.000000	0.015432
3216.000000	0.015413
3215.000000	0.015378
3214.000000	0.015342
3213.000000	0.015312
3212.000000	0.015289
3211.000000	0.015273
3210.000000	0.015267
3209.000000	0.015265
3208.000000	0.015265
3207.000000	0.015266
3206.000000	0.015264
3205.000000	0.015253
3204.000000	0.015230
3203.000000	0.015204
3202.000000	0.015186
3201.000000	0.015176
3200.000000	0.015166
3199.000000	0.015156
3198.000000	0.015147
3197.000000	0.015142
3196.000000	0.015136
3195.000000	0.015125
3194.000000	0.015110
3193.000000	0.015091
3192.000000	0.015068
3191.000000	0.015044
3190.000000	0.015024
3189.000000	0.015011
3188.000000	0.015000
3187.000000	0.014985
3186.000000	0.014961
3185.000000	0.014931
3184.000000	0.014897
3183.000000	0.014863
3182.000000	0.014831
3181.000000	0.014800
3180.000000	0.014769
3179.000000	0.014742
3178.000000	0.014724
3177.000000	0.014722
3176.000000	0.014733
3175.000000	0.014750
3174.000000	0.014762
3173.000000	0.014759
3172.000000	0.014740
3171.000000	0.014710
3170.000000	0.014674
3169.000000	0.014638
3168.000000	0.014605
3167.000000	0.014578
3166.000000	0.014562
3165.000000	0.014553
3164.000000	0.014546
3163.000000	0.014538
3162.000000	0.014531
3161.000000	0.014524
3160.000000	0.014514
3159.000000	0.014499
3158.000000	0.014479
3157.000000	0.014464
3156.000000	0.014462
3155.000000	0.014471
3154.000000	0.014476
3153.000000	0.014460
3152.000000	0.014418
3151.000000	0.014365
3150.000000	0.014319
3149.000000	0.014287
3148.000000	0.014266
3147.000000	0.014253
3146.000000	0.014245
3145.000000	0.014240
3144.000000	0.014234
3143.000000	0.014222
3142.000000	0.014202
3141.000000	0.014176
3140.000000	0.014150
3139.000000	0.014131
3138.000000	0.014125
3137.000000	0.014129
3136.000000	0.014138
3135.000000	0.014150
3134.000000	0.014159
3133.000000	0.014161
3132.000000	0.014155
3131.000000	0.014145
3130.000000	0.014137
3129.000000	0.014129
3128.000000	0.014123
3127.000000	0.014116
3126.000000	0.014109
3125.000000	0.014102
3124.000000	0.014098
3123.000000	0.014102
3122.000000	0.014112
3121.000000	0.014123
3120.000000	0.014134
3119.000000	0.014147
3118.000000	0.014156
3117.000000	0.014149
3116.000000	0.014120
3115.000000	0.014084
3114.000000	0.014056
3113.000000	0.014041
3112.000000	0.014035
3111.000000	0.014038
3110.000000	0.014048
3109.000000	0.014062
3108.000000	0.014075
3107.000000	0.014082
3106.000000	0.014083
3105.000000	0.014076
3104.000000	0.014059
3103.000000	0.014041
3102.000000	0.014027
3101.000000	0.014019
3100.000000	0.014019
3099.000000	0.014032
3098.000000	0.014057
3097.000000	0.014082
3096.000000	0.014094
3095.000000	0.014090
3094.000000	0.014081
3093.000000	0.014081
3092.000000	0.014090
3091.000000	0.014103
3090.000000	0.014113
3089.000000	0.014119
3088.000000	0.014123
3087.000000	0.014125
3086.000000	0.014120
3085.000000	0.014111
3084.000000	0.014103
3083.000000	0.014107
3082.000000	0.014128
3081.000000	0.014155
3080.000000	0.014173
3079.000000	0.014177
3078.000000	0.014172
3077.000000	0.014169
3076.000000	0.014177
3075.000000	0.014193
3074.000000	0.014207
3073.000000	0.014207
3072.000000	0.014193
3071.000000	0.014176
3070.000000	0.014170
3069.000000	0.014176
3068.000000	0.014185
3067.000000	0.014190
3066.000000	0.014189
3065.000000	0.014180
3064.000000	0.014164
3063.000000	0.014145
3062.000000	0.014125
3061.000000	0.014104
3060.000000	0.014080
3059.000000	0.014055
3058.000000	0.014036
3057.000000	0.014024
3056.000000	0.014020
3055.000000	0.014029
3054.000000	0.014055
3053.000000	0.014092
3052.000000	0.014118
3051.000000	0.014109
3050.000000	0.014063
3049.000000	0.014000
3048.000000	0.013945
3047.000000	0.013912
3046.000000	0.013901
3045.000000	0.013907
3044.000000	0.013925
3043.000000	0.013943
3042.000000	0.013940
3041.000000	0.013906
3040.000000	0.013854
3039.000000	0.013808
3038.000000	0.013789
3037.000000	0.013793
3036.000000	0.013804
3035.000000	0.013811
3034.000000	0.013815
3033.000000	0.013824
3032.000000	0.013839
3031.000000	0.013855
3030.000000	0.013862
3029.000000	0.013852
3028.000000	0.013826
3027.000000	0.013792
3026.000000	0.013758
3025.000000	0.013733
3024.000000	0.013719
3023.000000	0.013718
3022.000000	0.013727
3021.000000	0.013735
3020.000000	0.013732
3019.000000	0.013718
3018.000000	0.013701
3017.000000	0.013689
3016.000000	0.013687
3015.000000	0.013697
3014.000000	0.013717
3013.000000	0.013736
3012.000000	0.013737
3011.000000	0.013717
3010.000000	0.013686
3009.000000	0.013665
3008.000000	0.013666
3007.000000	0.013688
3006.000000	0.013715
3005.000000	0.013728
3004.000000	0.013716
3003.000000	0.013684
3002.000000	0.013654
3001.000000	0.013649
3000.000000	0.013678
2999.000000	0.013728
2998.000000	0.013778
2997.000000	0.013812
2996.000000	0.013828
2995.000000	0.013831
2994.000000	0.013832
2993.000000	0.013844
2992.000000	0.013877
2991.000000	0.013932
2990.000000	0.014003
2989.000000	0.014080
2988.000000	0.014156
2987.000000	0.014223
2986.000000	0.014275
2985.000000	0.014314
2984.000000	0.014353
2983.000000	0.014404
2982.000000	0.014467
2981.000000	0.014528
2980.000000	0.014572
2979.000000	0.014602
2978.000000	0.014633
2977.000000	0.014682
2976.000000	0.014755
2975.000000	0.014842
2974.000000	0.014925
2973.000000	0.014996
2972.000000	0.015054
2971.000000	0.015110
2970.000000	0.015171
2969.000000	0.015238
2968.000000	0.015308
2967.000000	0.015379
2966.000000	0.015451
2965.000000	0.015522
2964.000000	0.015586
2963.000000	0.015643
2962.000000	0.015694
2961.000000	0.015744
2960.000000	0.015797
2959.000000	0.015850
2958.000000	0.015894
2957.000000	0.015919
2956.000000	0.015919
2955.000000	0.015900
2954.000000	0.015865
2953.000000	0.015825
2952.000000	0.015790
2951.000000	0.015773
2950.000000	0.015774
2949.000000	0.015784
2948.000000	0.015793
2947.000000	0.015804
2946.000000	0.015823
2945.000000	0.015853
2944.000000	0.015892
2943.000000	0.015940
2942.000000	0.015998
2941.000000	0.016061
2940.000000	0.016127
2939.000000	0.016198
2938.000000	0.016281
2937.000000	0.016374
2936.000000	0.016465
2935.000000	0.016549
2934.000000	0.016629
2933.000000	0.016713
2932.000000	0.016800
2931.000000	0.016878
2930.000000	0.016937
2929.000000	0.016979
2928.000000	0.017019
2927.000000	0.017066
2926.000000	0.017117
2925.000000	0.017163
2924.000000	0.017202
2923.000000	0.017234
2922.000000	0.017256
2921.000000	0.017263
2920.000000	0.017258
2919.000000	0.017248
2918.000000	0.017229
2917.000000	0.017182
2916.000000	0.017090
2915.000000	0.016962
2914.000000	0.016827
2913.000000	0.016709
2912.000000	0.016616
2911.000000	0.016538
2910.000000	0.016465
2909.000000	0.016392
2908.000000	0.016319
2907.000000	0.016245
2906.000000	0.016173
2905.000000	0.016099
2904.000000	0.016018
2903.000000	0.015929
2902.000000	0.015842
2901.000000	0.015763
2900.000000	0.015696
2899.000000	0.015636
2898.000000	0.015574
2897.000000	0.015501
2896.000000	0.015418
2895.000000	0.015333
2894.000000	0.015257
2893.000000	0.015192
2892.000000	0.015136
2891.000000	0.015091
2890.000000	0.015057
2889.000000	0.015035
2888.000000	0.015017
2887.000000	0.015001
2886.000000	0.014993
2885.000000	0.014997
2884.000000	0.015010
2883.000000	0.015025
2882.000000	0.015038
2881.000000	0.015052
2880.000000	0.015073
2879.000000	0.015100
2878.000000	0.015128
2877.000000	0.015153
2876.000000	0.015177
2875.000000	0.015204
2874.000000	0.015235
2873.000000	0.015265
2872.000000	0.015288
2871.000000	0.015299
2870.000000	0.015298
2869.000000	0.015286
2868.000000	0.015272
2867.000000	0.015265
2866.000000	0.015275
2865.000000	0.015303
2864.000000	0.015342
2863.000000	0.015380
2862.000000	0.015410
2861.000000	0.015435
2860.000000	0.015461
2859.000000	0.015493
2858.000000	0.015528
2857.000000	0.015560
2856.000000	0.015584
2855.000000	0.015606
2854.000000	0.015632
2853.000000	0.015659
2852.000000	0.015672
2851.000000	0.015654
2850.000000	0.015598
2849.000000	0.015512
2848.000000	0.015410
2847.000000	0.015301
2846.000000	0.015192
2845.000000	0.015084
2844.000000	0.014973
2843.000000	0.014861
2842.000000	0.014753
2841.000000	0.014664
2840.000000	0.014598
2839.000000	0.014545
2838.000000	0.014487
2837.000000	0.014413
2836.000000	0.014333
2835.000000	0.014269
2834.000000	0.014229
2833.000000	0.014203
2832.000000	0.014175
2831.000000	0.014141
2830.000000	0.014105
2829.000000	0.014077
2828.000000	0.014059
2827.000000	0.014048
2826.000000	0.014038
2825.000000	0.014026
2824.000000	0.014013
2823.000000	0.014003
2822.000000	0.013995
2821.000000	0.013984
2820.000000	0.013973
2819.000000	0.013970
2818.000000	0.013983
2817.000000	0.014007
2816.000000	0.014022
2815.000000	0.014014
2814.000000	0.013986
2813.000000	0.013953
2812.000000	0.013935
2811.000000	0.013934
2810.000000	0.013939
2809.000000	0.013938
2808.000000	0.013923
2807.000000	0.013894
2806.000000	0.013854
2805.000000	0.013814
2804.000000	0.013788
2803.000000	0.013786
2802.000000	0.013800
2801.000000	0.013810
2800.000000	0.013802
2799.000000	0.013775
2798.000000	0.013739
2797.000000	0.013705
2796.000000	0.013684
2795.000000	0.013685
2794.000000	0.013703
2793.000000	0.013718
2792.000000	0.013715
2791.000000	0.013691
2790.000000	0.013664
2789.000000	0.013645
2788.000000	0.013635
2787.000000	0.013630
2786.000000	0.013627
2785.000000	0.013625
2784.000000	0.013621
2783.000000	0.013615
2782.000000	0.013609
2781.000000	0.013602
2780.000000	0.013591
2779.000000	0.013580
2778.000000	0.013576
2777.000000	0.013583
2776.000000	0.013598
2775.000000	0.013612
2774.000000	0.013618
2773.000000	0.013617
2772.000000	0.013612
2771.000000	0.013602
2770.000000	0.013587
2769.000000	0.013569
2768.000000	0.013551
2767.000000	0.013537
2766.000000	0.013527
2765.000000	0.013517
2764.000000	0.013499
2763.000000	0.013473
2762.000000	0.013446
2761.000000	0.013426
2760.000000	0.013420
2759.000000	0.013430
2758.000000	0.013451
2757.000000	0.013473
2756.000000	0.013486
2755.000000	0.013488
2754.000000	0.013487
2753.000000	0.013485
2752.000000	0.013483
2751.000000	0.013478
2750.000000	0.013471
2749.000000	0.013462
2748.000000	0.013453
2747.000000	0.013445
2746.000000	0.013443
2745.000000	0.013444
2744.000000	0.013438
2743.000000	0.013420
2742.000000	0.013396
2741.000000	0.013378
2740.000000	0.013373
2739.000000	0.013374
2738.000000	0.013373
2737.000000	0.013363
2736.000000	0.013347
2735.000000	0.013332
2734.000000	0.013322
2733.000000	0.013317
2732.000000	0.013317
2731.000000	0.013318
2730.000000	0.013320
2729.000000	0.013319
2728.000000	0.013317
2727.000000	0.013315
2726.000000	0.013318
2725.000000	0.013320
2724.000000	0.013318
2723.000000	0.013312
2722.000000	0.013312
2721.000000	0.013320
2720.000000	0.013324
2719.000000	0.013316
2718.000000	0.013297
2717.000000	0.013281
2716.000000	0.013275
2715.000000	0.013281
2714.000000	0.013294
2713.000000	0.013306
2712.000000	0.013309
2711.000000	0.013299
2710.000000	0.013283
2709.000000	0.013269
2708.000000	0.013262
2707.000000	0.013258
2706.000000	0.013256
2705.000000	0.013256
2704.000000	0.013256
2703.000000	0.013254
2702.000000	0.013253
2701.000000	0.013259
2700.000000	0.013271
2699.000000	0.013289
2698.000000	0.013306
2697.000000	0.013316
2696.000000	0.013320
2695.000000	0.013322
2694.000000	0.013336
2693.000000	0.013361
2692.000000	0.013383
2691.000000	0.013382
2690.000000	0.013358
2689.000000	0.013327
2688.000000	0.013307
2687.000000	0.013305
2686.000000	0.013314
2685.000000	0.013329
2684.000000	0.013341
2683.000000	0.013343
2682.000000	0.013333
2681.000000	0.013315
2680.000000	0.013298
2679.000000	0.013289
2678.000000	0.013288
2677.000000	0.013291
2676.000000	0.013297
2675.000000	0.013308
2674.000000	0.013325
2673.000000	0.013341
2672.000000	0.013345
2671.000000	0.013335
2670.000000	0.013319
2669.000000	0.013302
2668.000000	0.013284
2667.000000	0.013266
2666.000000	0.013259
2665.000000	0.013272
2664.000000	0.013298
2663.000000	0.013321
2662.000000	0.013328
2661.000000	0.013324
2660.000000	0.013314
2659.000000	0.013301
2658.000000	0.013281
2657.000000	0.013256
2656.000000	0.013231
2655.000000	0.013211
2654.000000	0.013197
2653.000000	0.013186
2652.000000	0.013172
2651.000000	0.013156
2650.000000	0.013139
2649.000000	0.013124
2648.000000	0.013108
2647.000000	0.013090
2646.000000	0.013076
2645.000000	0.013073
2644.000000	0.013078
2643.000000	0.013080
2642.000000	0.013071
2641.000000	0.013049
2640.000000	0.013018
2639.000000	0.012984
2638.000000	0.012960
2637.000000	0.012951
2636.000000	0.012946
2635.000000	0.012925
2634.000000	0.012882
2633.000000	0.012841
2632.000000	0.012823
2631.000000	0.012828
2630.000000	0.012835
2629.000000	0.012827
2628.000000	0.012805
2627.000000	0.012778
2626.000000	0.012757
2625.000000	0.012748
2624.000000	0.012753
2623.000000	0.012763
2622.000000	0.012767
2621.000000	0.012758
2620.000000	0.012740
2619.000000	0.012722
2618.000000	0.012715
2617.000000	0.012720
2616.000000	0.012729
2615.000000	0.012737
2614.000000	0.012745
2613.000000	0.012758
2612.000000	0.012772
2611.000000	0.012773
2610.000000	0.012753
2609.000000	0.012721
2608.000000	0.012695
2607.000000	0.012681
2606.000000	0.012674
2605.000000	0.012665
2604.000000	0.012657
2603.000000	0.012659
2602.000000	0.012674
2601.000000	0.012688
2600.000000	0.012686
2599.000000	0.012660
2598.000000	0.012623
2597.000000	0.012596
2596.000000	0.012593
2595.000000	0.012612
2594.000000	0.012637
2593.000000	0.012648
2592.000000	0.012639
2591.000000	0.012618
2590.000000	0.012597
2589.000000	0.012575
2588.000000	0.012552
2587.000000	0.012535
2586.000000	0.012542
2585.000000	0.012576
2584.000000	0.012623
2583.000000	0.012668
2582.000000	0.012704
2581.000000	0.012725
2580.000000	0.012721
2579.000000	0.012694
2578.000000	0.012657
2577.000000	0.012619
2576.000000	0.012577
2575.000000	0.012524
2574.000000	0.012468
2573.000000	0.012427
2572.000000	0.012408
2571.000000	0.012410
2570.000000	0.012432
2569.000000	0.012470
2568.000000	0.012509
2567.000000	0.012530
2566.000000	0.012533
2565.000000	0.012532
2564.000000	0.012537
2563.000000	0.012545
2562.000000	0.012552
2561.000000	0.012558
2560.000000	0.012558
2559.000000	0.012543
2558.000000	0.012516
2557.000000	0.012490
2556.000000	0.012476
2555.000000	0.012477
2554.000000	0.012494
2553.000000	0.012532
2552.000000	0.012581
2551.000000	0.012608
2550.000000	0.012588
2549.000000	0.012533
2548.000000	0.012482
2547.000000	0.012462
2546.000000	0.012466
2545.000000	0.012471
2544.000000	0.012473
2543.000000	0.012484
2542.000000	0.012513
2541.000000	0.012549
2540.000000	0.012575
2539.000000	0.012594
2538.000000	0.012628
2537.000000	0.012683
2536.000000	0.012738
2535.000000	0.012761
2534.000000	0.012745
2533.000000	0.012708
2532.000000	0.012678
2531.000000	0.012668
2530.000000	0.012680
2529.000000	0.012712
2528.000000	0.012761
2527.000000	0.012827
2526.000000	0.012901
2525.000000	0.012964
2524.000000	0.013001
2523.000000	0.013015
2522.000000	0.013014
2521.000000	0.012996
2520.000000	0.012959
2519.000000	0.012922
2518.000000	0.012921
2517.000000	0.012970
2516.000000	0.013045
2515.000000	0.013110
2514.000000	0.013147
2513.000000	0.013155
2512.000000	0.013145
2511.000000	0.013130
2510.000000	0.013126
2509.000000	0.013132
2508.000000	0.013135
2507.000000	0.013129
2506.000000	0.013125
2505.000000	0.013128
2504.000000	0.013114
2503.000000	0.013057
2502.000000	0.012962
2501.000000	0.012865
2500.000000	0.012796
2499.000000	0.012758
2498.000000	0.012747
2497.000000	0.012763
2496.000000	0.012802
2495.000000	0.012851
2494.000000	0.012887
2493.000000	0.012889
2492.000000	0.012850
2491.000000	0.012779
2490.000000	0.012704
2489.000000	0.012651
2488.000000	0.012624
2487.000000	0.012613
2486.000000	0.012608
2485.000000	0.012606
2484.000000	0.012602
2483.000000	0.012587
2482.000000	0.012559
2481.000000	0.012522
2480.000000	0.012489
2479.000000	0.012476
2478.000000	0.012491
2477.000000	0.012524
2476.000000	0.012541
2475.000000	0.012517
2474.000000	0.012465
2473.000000	0.012415
2472.000000	0.012386
2471.000000	0.012370
2470.000000	0.012360
2469.000000	0.012369
2468.000000	0.012416
2467.000000	0.012498
2466.000000	0.012585
2465.000000	0.012633
2464.000000	0.012618
2463.000000	0.012554
2462.000000	0.012479
2461.000000	0.012427
2460.000000	0.012406
2459.000000	0.012412
2458.000000	0.012432
2457.000000	0.012454
2456.000000	0.012465
2455.000000	0.012467
2454.000000	0.012473
2453.000000	0.012495
2452.000000	0.012523
2451.000000	0.012536
2450.000000	0.012514
2449.000000	0.012450
2448.000000	0.012361
2447.000000	0.012286
2446.000000	0.012260
2445.000000	0.012285
2444.000000	0.012330
2443.000000	0.012369
2442.000000	0.012400
2441.000000	0.012417
2440.000000	0.012411
2439.000000	0.012392
2438.000000	0.012397
2437.000000	0.012448
2436.000000	0.012514
2435.000000	0.012545
2434.000000	0.012530
2433.000000	0.012494
2432.000000	0.012468
2431.000000	0.012458
2430.000000	0.012459
2429.000000	0.012453
2428.000000	0.012422
2427.000000	0.012374
2426.000000	0.012343
2425.000000	0.012355
2424.000000	0.012392
2423.000000	0.012422
2422.000000	0.012436
2421.000000	0.012447
2420.000000	0.012457
2419.000000	0.012454
2418.000000	0.012450
2417.000000	0.012467
2416.000000	0.012507
2415.000000	0.012536
2414.000000	0.012525
2413.000000	0.012488
2412.000000	0.012459
2411.000000	0.012462
2410.000000	0.012488
2409.000000	0.012500
2408.000000	0.012469
2407.000000	0.012400
2406.000000	0.012334
2405.000000	0.012304
2404.000000	0.012314
2403.000000	0.012350
2402.000000	0.012400
2401.000000	0.012443
2400.000000	0.012450
2399.000000	0.012419
2398.000000	0.012384
2397.000000	0.012381
2396.000000	0.012408
2395.000000	0.012446
2394.000000	0.012493
2393.000000	0.012546
2392.000000	0.012583
2391.000000	0.012583
2390.000000	0.012561
2389.000000	0.012558
2388.000000	0.012587
2387.000000	0.012631
2386.000000	0.012665
2385.000000	0.012665
2384.000000	0.012616
2383.000000	0.012509
2382.000000	0.012370
2381.000000	0.012245
2380.000000	0.012172
2379.000000	0.012189
2378.000000	0.012321
2377.000000	0.012531
2376.000000	0.012718
2375.000000	0.012801
2374.000000	0.012784
2373.000000	0.012716
2372.000000	0.012609
2371.000000	0.012470
2370.000000	0.012344
2369.000000	0.012265
2368.000000	0.012229
2367.000000	0.012239
2366.000000	0.012331
2365.000000	0.012497
2364.000000	0.012646
2363.000000	0.012735
2362.000000	0.012817
2361.000000	0.012912
2360.000000	0.012975
2359.000000	0.012963
2358.000000	0.012884
2357.000000	0.012774
2356.000000	0.012702
2355.000000	0.012794
2354.000000	0.012966
2353.000000	0.012992
2352.000000	0.012804
2351.000000	0.012595
2350.000000	0.012546
2349.000000	0.012675
2348.000000	0.012876
2347.000000	0.012976
2346.000000	0.012902
2345.000000	0.012820
2344.000000	0.012891
2343.000000	0.013069
2342.000000	0.013171
2341.000000	0.013122
2340.000000	0.013033
2339.000000	0.013033
2338.000000	0.013108
2337.000000	0.013146
2336.000000	0.013122
2335.000000	0.013065
2334.000000	0.012978
2333.000000	0.012812
2332.000000	0.012661
2331.000000	0.012636
2330.000000	0.012787
2329.000000	0.012999
2328.000000	0.013208
2327.000000	0.013360
2326.000000	0.013418
2325.000000	0.013352
2324.000000	0.013214
2323.000000	0.013108
2322.000000	0.013129
2321.000000	0.013303
2320.000000	0.013597
2319.000000	0.013891
2318.000000	0.014085
2317.000000	0.014117
2316.000000	0.014041
2315.000000	0.013896
2314.000000	0.013733
2313.000000	0.013562
2312.000000	0.013429
2311.000000	0.013329
2310.000000	0.013253
2309.000000	0.013168
2308.000000	0.013085
2307.000000	0.012999
2306.000000	0.012925
2305.000000	0.012867
2304.000000	0.012836
2303.000000	0.012813
2302.000000	0.012789
2301.000000	0.012770
2300.000000	0.012787
2299.000000	0.012829
2298.000000	0.012884
2297.000000	0.012926
2296.000000	0.012952
2295.000000	0.012939
2294.000000	0.012876
2293.000000	0.012781
2292.000000	0.012700
2291.000000	0.012660
2290.000000	0.012656
2289.000000	0.012681
2288.000000	0.012735
2287.000000	0.012802
2286.000000	0.012843
2285.000000	0.012827
2284.000000	0.012764
2283.000000	0.012696
2282.000000	0.012652
2281.000000	0.012637
2280.000000	0.012626
2279.000000	0.012603
2278.000000	0.012578
2277.000000	0.012574
2276.000000	0.012592
2275.000000	0.012598
2274.000000	0.012570
2273.000000	0.012515
2272.000000	0.012460
2271.000000	0.012410
2270.000000	0.012359
2269.000000	0.012314
2268.000000	0.012290
2267.000000	0.012286
2266.000000	0.012285
2265.000000	0.012280
2264.000000	0.012277
2263.000000	0.012284
2262.000000	0.012300
2261.000000	0.012314
2260.000000	0.012314
2259.000000	0.012290
2258.000000	0.012246
2257.000000	0.012198
2256.000000	0.012154
2255.000000	0.012129
2254.000000	0.012149
2253.000000	0.012217
2252.000000	0.012286
2251.000000	0.012295
2250.000000	0.012257
2249.000000	0.012249
2248.000000	0.012306
2247.000000	0.012359
2246.000000	0.012320
2245.000000	0.012191
2244.000000	0.012062
2243.000000	0.012014
2242.000000	0.012063
2241.000000	0.012166
2240.000000	0.012258
2239.000000	0.012301
2238.000000	0.012312
2237.000000	0.012336
2236.000000	0.012371
2235.000000	0.012365
2234.000000	0.012297
2233.000000	0.012218
2232.000000	0.012187
2231.000000	0.012199
2230.000000	0.012209
2229.000000	0.012195
2228.000000	0.012156
2227.000000	0.012082
2226.000000	0.011968
2225.000000	0.011837
2224.000000	0.011730
2223.000000	0.011663
2222.000000	0.011635
2221.000000	0.011642
2220.000000	0.011686
2219.000000	0.011767
2218.000000	0.011883
2217.000000	0.012003
2216.000000	0.012054
2215.000000	0.011976
2214.000000	0.011801
2213.000000	0.011637
2212.000000	0.011543
2211.000000	0.011489
2210.000000	0.011429
2209.000000	0.011376
2208.000000	0.011374
2207.000000	0.011452
2206.000000	0.011605
2205.000000	0.011799
2204.000000	0.011961
2203.000000	0.012025
2202.000000	0.012004
2201.000000	0.011964
2200.000000	0.011921
2199.000000	0.011814
2198.000000	0.011624
2197.000000	0.011433
2196.000000	0.011348
2195.000000	0.011394
2194.000000	0.011518
2193.000000	0.011630
2192.000000	0.011632
2191.000000	0.011481
2190.000000	0.011261
2189.000000	0.011125
2188.000000	0.011130
2187.000000	0.011191
2186.000000	0.011237
2185.000000	0.011297
2184.000000	0.011396
2183.000000	0.011462
2182.000000	0.011429
2181.000000	0.011370
2180.000000	0.011408
2179.000000	0.011556
2178.000000	0.011706
2177.000000	0.011750
2176.000000	0.011644
2175.000000	0.011430
2174.000000	0.011223
2173.000000	0.011158
2172.000000	0.011281
2171.000000	0.011537
2170.000000	0.011849
2169.000000	0.012143
2168.000000	0.012302
2167.000000	0.012216
2166.000000	0.011920
2165.000000	0.011611
2164.000000	0.011441
2163.000000	0.011376
2162.000000	0.011293
2161.000000	0.011138
2160.000000	0.010931
2159.000000	0.010748
2158.000000	0.010729
2157.000000	0.010954
2156.000000	0.011272
2155.000000	0.011429
2154.000000	0.011378
2153.000000	0.011318
2152.000000	0.011410
2151.000000	0.011576
2150.000000	0.011610
2149.000000	0.011414
2148.000000	0.011084
2147.000000	0.010836
2146.000000	0.010870
2145.000000	0.011223
2144.000000	0.011698
2143.000000	0.012018
2142.000000	0.012078
2141.000000	0.011999
2140.000000	0.011938
2139.000000	0.011933
2138.000000	0.011956
2137.000000	0.011997
2136.000000	0.012049
2135.000000	0.012072
2134.000000	0.012059
2133.000000	0.012059
2132.000000	0.012112
2131.000000	0.012200
2130.000000	0.012291
2129.000000	0.012378
2128.000000	0.012435
2127.000000	0.012414
2126.000000	0.012318
2125.000000	0.012232
2124.000000	0.012230
2123.000000	0.012298
2122.000000	0.012381
2121.000000	0.012468
2120.000000	0.012581
2119.000000	0.012699
2118.000000	0.012753
2117.000000	0.012700
2116.000000	0.012565
2115.000000	0.012417
2114.000000	0.012332
2113.000000	0.012348
2112.000000	0.012429
2111.000000	0.012487
2110.000000	0.012457
2109.000000	0.012366
2108.000000	0.012307
2107.000000	0.012351
2106.000000	0.012489
2105.000000	0.012648
2104.000000	0.012744
2103.000000	0.012748
2102.000000	0.012701
2101.000000	0.012674
2100.000000	0.012689
2099.000000	0.012721
2098.000000	0.012728
2097.000000	0.012689
2096.000000	0.012605
2095.000000	0.012516
2094.000000	0.012485
2093.000000	0.012536
2092.000000	0.012613
2091.000000	0.012645
2090.000000	0.012643
2089.000000	0.012667
2088.000000	0.012714
2087.000000	0.012728
2086.000000	0.012697
2085.000000	0.012681
2084.000000	0.012711
2083.000000	0.012744
2082.000000	0.012736
2081.000000	0.012702
2080.000000	0.012650
2079.000000	0.012538
2078.000000	0.012347
2077.000000	0.012145
2076.000000	0.012029
2075.000000	0.012041
2074.000000	0.012168
2073.000000	0.012364
2072.000000	0.012541
2071.000000	0.012602
2070.000000	0.012542
2069.000000	0.012461
2068.000000	0.012443
2067.000000	0.012470
2066.000000	0.012500
2065.000000	0.012541
2064.000000	0.012594
2063.000000	0.012597
2062.000000	0.012518
2061.000000	0.012439
2060.000000	0.012465
2059.000000	0.012578
2058.000000	0.012657
2057.000000	0.012627
2056.000000	0.012524
2055.000000	0.012421
2054.000000	0.012356
2053.000000	0.012323
2052.000000	0.012285
2051.000000	0.012197
2050.000000	0.012060
2049.000000	0.011934
2048.000000	0.011876
2047.000000	0.011885
2046.000000	0.011931
2045.000000	0.011984
2044.000000	0.012000
2043.000000	0.011967
2042.000000	0.011959
2041.000000	0.012060
2040.000000	0.012216
2039.000000	0.012260
2038.000000	0.012128
2037.000000	0.011925
2036.000000	0.011750
2035.000000	0.011576
2034.000000	0.011365
2033.000000	0.011180
2032.000000	0.011075
2031.000000	0.011018
2030.000000	0.010994
2029.000000	0.011060
2028.000000	0.011202
2027.000000	0.011302
2026.000000	0.011306
2025.000000	0.011296
2024.000000	0.011303
2023.000000	0.011229
2022.000000	0.011034
2021.000000	0.010865
2020.000000	0.010845
2019.000000	0.010894
2018.000000	0.010875
2017.000000	0.010805
2016.000000	0.010780
2015.000000	0.010790
2014.000000	0.010771
2013.000000	0.010749
2012.000000	0.010812
2011.000000	0.010981
2010.000000	0.011193
2009.000000	0.011370
2008.000000	0.011452
2007.000000	0.011432
2006.000000	0.011420
2005.000000	0.011570
2004.000000	0.011873
2003.000000	0.012125
2002.000000	0.012140
2001.000000	0.011925
2000.000000	0.011624
1999.000000	0.011370
1998.000000	0.011247
1997.000000	0.011302
1996.000000	0.011500
1995.000000	0.011712
1994.000000	0.011848
1993.000000	0.011934
1992.000000	0.012022
1991.000000	0.012076
1990.000000	0.012034
1989.000000	0.011929
1988.000000	0.011863
1987.000000	0.011890
1986.000000	0.011976
1985.000000	0.012055
1984.000000	0.012069
1983.000000	0.011987
1982.000000	0.011824
1981.000000	0.011618
1980.000000	0.011372
1979.000000	0.011058
1978.000000	0.010717
1977.000000	0.010472
1976.000000	0.010400
1975.000000	0.010470
1974.000000	0.010655
1973.000000	0.010967
1972.000000	0.011346
1971.000000	0.011639
1970.000000	0.011743
1969.000000	0.011693
1968.000000	0.011582
1967.000000	0.011473
1966.000000	0.011400
1965.000000	0.011389
1964.000000	0.011428
1963.000000	0.011481
1962.000000	0.011542
1961.000000	0.011613
1960.000000	0.011650
1959.000000	0.011608
1958.000000	0.011541
1957.000000	0.011554
1956.000000	0.011669
1955.000000	0.011817
1954.000000	0.011947
1953.000000	0.012061
1952.000000	0.012138
1951.000000	0.012127
1950.000000	0.012032
1949.000000	0.011931
1948.000000	0.011892
1947.000000	0.011919
1946.000000	0.011990
1945.000000	0.012093
1944.000000	0.012196
1943.000000	0.012250
1942.000000	0.012241
1941.000000	0.012205
1940.000000	0.012180
1939.000000	0.012180
1938.000000	0.012216
1937.000000	0.012290
1936.000000	0.012361
1935.000000	0.012381
1934.000000	0.012337
1933.000000	0.012242
1932.000000	0.012106
1931.000000	0.011965
1930.000000	0.011898
1929.000000	0.011946
1928.000000	0.012054
1927.000000	0.012135
1926.000000	0.012179
1925.000000	0.012227
1924.000000	0.012276
1923.000000	0.012285
1922.000000	0.012238
1921.000000	0.012159
1920.000000	0.012052
1919.000000	0.011921
1918.000000	0.011832
1917.000000	0.011865
1916.000000	0.012002
1915.000000	0.012148
1914.000000	0.012236
1913.000000	0.012252
1912.000000	0.012192
1911.000000	0.012063
1910.000000	0.011914
1909.000000	0.011825
1908.000000	0.011823
1907.000000	0.011873
1906.000000	0.011940
1905.000000	0.012011
1904.000000	0.012062
1903.000000	0.012067
1902.000000	0.012039
1901.000000	0.012025
1900.000000	0.012037
1899.000000	0.012035
1898.000000	0.011986
1897.000000	0.011900
1896.000000	0.011807
1895.000000	0.011741
1894.000000	0.011742
1893.000000	0.011820
1892.000000	0.011917
1891.000000	0.011952
1890.000000	0.011914
1889.000000	0.011867
1888.000000	0.011868
1887.000000	0.011905
1886.000000	0.011951
1885.000000	0.012001
1884.000000	0.012037
1883.000000	0.012015
1882.000000	0.011914
1881.000000	0.011777
1880.000000	0.011672
1879.000000	0.011626
1878.000000	0.011624
1877.000000	0.011642
1876.000000	0.011655
1875.000000	0.011652
1874.000000	0.011647
1873.000000	0.011653
1872.000000	0.011658
1871.000000	0.011644
1870.000000	0.011631
1869.000000	0.011657
1868.000000	0.011717
1867.000000	0.011767
1866.000000	0.011780
1865.000000	0.011770
1864.000000	0.011748
1863.000000	0.011707
1862.000000	0.011656
1861.000000	0.011621
1860.000000	0.011612
1859.000000	0.011613
1858.000000	0.011602
1857.000000	0.011579
1856.000000	0.011549
1855.000000	0.011514
1854.000000	0.011489
1853.000000	0.011495
1852.000000	0.011521
1851.000000	0.011527
1850.000000	0.011499
1849.000000	0.011481
1848.000000	0.011514
1847.000000	0.011566
1846.000000	0.011560
1845.000000	0.011462
1844.000000	0.011333
1843.000000	0.011271
1842.000000	0.011302
1841.000000	0.011369
1840.000000	0.011404
1839.000000	0.011381
1838.000000	0.011332
1837.000000	0.011304
1836.000000	0.011303
1835.000000	0.011311
1834.000000	0.011331
1833.000000	0.011377
1832.000000	0.011419
1831.000000	0.011388
1830.000000	0.011289
1829.000000	0.011219
1828.000000	0.011237
1827.000000	0.011295
1826.000000	0.011335
1825.000000	0.011341
1824.000000	0.011322
1823.000000	0.011283
1822.000000	0.011240
1821.000000	0.011213
1820.000000	0.011205
1819.000000	0.011200
1818.000000	0.011189
1817.000000	0.011172
1816.000000	0.011147
1815.000000	0.011131
1814.000000	0.011149
1813.000000	0.011196
1812.000000	0.011219
1811.000000	0.011190
1810.000000	0.011157
1809.000000	0.011162
1808.000000	0.011196
1807.000000	0.011238
1806.000000	0.011293
1805.000000	0.011368
1804.000000	0.011448
1803.000000	0.011521
1802.000000	0.011613
1801.000000	0.011760
1800.000000	0.011941
1799.000000	0.012102
1798.000000	0.012209
1797.000000	0.012255
1796.000000	0.012257
1795.000000	0.012239
1794.000000	0.012224
1793.000000	0.012211
1792.000000	0.012149
1791.000000	0.012015
1790.000000	0.011853
1789.000000	0.011704
1788.000000	0.011572
1787.000000	0.011440
1786.000000	0.011308
1785.000000	0.011194
1784.000000	0.011113
1783.000000	0.011059
1782.000000	0.011009
1781.000000	0.010960
1780.000000	0.010920
1779.000000	0.010894
1778.000000	0.010887
1777.000000	0.010911
1776.000000	0.010960
1775.000000	0.010988
1774.000000	0.010959
1773.000000	0.010902
1772.000000	0.010874
1771.000000	0.010879
1770.000000	0.010886
1769.000000	0.010870
1768.000000	0.010823
1767.000000	0.010769
1766.000000	0.010754
1765.000000	0.010797
1764.000000	0.010853
1763.000000	0.010865
1762.000000	0.010838
1761.000000	0.010855
1760.000000	0.010946
1759.000000	0.011063
1758.000000	0.011159
1757.000000	0.011249
1756.000000	0.011361
1755.000000	0.011477
1754.000000	0.011590
1753.000000	0.011744
1752.000000	0.011975
1751.000000	0.012239
1750.000000	0.012473
1749.000000	0.012698
1748.000000	0.012940
1747.000000	0.013165
1746.000000	0.013355
1745.000000	0.013557
1744.000000	0.013784
1743.000000	0.013994
1742.000000	0.014162
1741.000000	0.014317
1740.000000	0.014472
1739.000000	0.014614
1738.000000	0.014741
1737.000000	0.014855
1736.000000	0.014916
1735.000000	0.014861
1734.000000	0.014683
1733.000000	0.014508
1732.000000	0.014421
1731.000000	0.014327
1730.000000	0.014145
1729.000000	0.013918
1728.000000	0.013710
1727.000000	0.013515
1726.000000	0.013310
1725.000000	0.013115
1724.000000	0.012937
1723.000000	0.012761
1722.000000	0.012607
1721.000000	0.012508
1720.000000	0.012428
1719.000000	0.012291
1718.000000	0.012105
1717.000000	0.011960
1716.000000	0.011900
1715.000000	0.011889
1714.000000	0.011875
1713.000000	0.011845
1712.000000	0.011817
1711.000000	0.011798
1710.000000	0.011802
1709.000000	0.011853
1708.000000	0.011939
1707.000000	0.012013
1706.000000	0.012069
1705.000000	0.012144
1704.000000	0.012252
1703.000000	0.012364
1702.000000	0.012476
1701.000000	0.012611
1700.000000	0.012733
1699.000000	0.012806
1698.000000	0.012883
1697.000000	0.012973
1696.000000	0.013094
1695.000000	0.013275
1694.000000	0.013508
1693.000000	0.013756
1692.000000	0.013970
1691.000000	0.014142
1690.000000	0.014308
1689.000000	0.014490
1688.000000	0.014656
1687.000000	0.014750
1686.000000	0.014802
1685.000000	0.014913
1684.000000	0.015162
1683.000000	0.015457
1682.000000	0.015690
1681.000000	0.015873
1680.000000	0.016048
1679.000000	0.016210
1678.000000	0.016335
1677.000000	0.016448
1676.000000	0.016597
1675.000000	0.016787
1674.000000	0.016978
1673.000000	0.017188
1672.000000	0.017423
1671.000000	0.017648
1670.000000	0.017831
1669.000000	0.017996
1668.000000	0.018175
1667.000000	0.018344
1666.000000	0.018492
1665.000000	0.018655
1664.000000	0.018864
1663.000000	0.019105
1662.000000	0.019317
1661.000000	0.019485
1660.000000	0.019644
1659.000000	0.019801
1658.000000	0.019948
1657.000000	0.020094
1656.000000	0.020229
1655.000000	0.020337
1654.000000	0.020422
1653.000000	0.020535
1652.000000	0.020651
1651.000000	0.020778
1650.000000	0.020922
1649.000000	0.021037
1648.000000	0.021116
1647.000000	0.021159
1646.000000	0.021143
1645.000000	0.021086
1644.000000	0.021040
1643.000000	0.021002
1642.000000	0.020943
1641.000000	0.020877
1640.000000	0.020829
1639.000000	0.020786
1638.000000	0.020721
1637.000000	0.020646
1636.000000	0.020592
1635.000000	0.020509
1634.000000	0.020347
1633.000000	0.020159
1632.000000	0.019980
1631.000000	0.019807
1630.000000	0.019630
1629.000000	0.019456
1628.000000	0.019292
1627.000000	0.019128
1626.000000	0.018949
1625.000000	0.018766
1624.000000	0.018594
1623.000000	0.018420
1622.000000	0.018226
1621.000000	0.018039
1620.000000	0.017873
1619.000000	0.017691
1618.000000	0.017461
1617.000000	0.017213
1616.000000	0.017019
1615.000000	0.016881
1614.000000	0.016742
1613.000000	0.016579
1612.000000	0.016417
1611.000000	0.016277
1610.000000	0.016137
1609.000000	0.015986
1608.000000	0.015847
1607.000000	0.015729
1606.000000	0.015608
1605.000000	0.015489
1604.000000	0.015384
1603.000000	0.015276
1602.000000	0.015148
1601.000000	0.015033
1600.000000	0.014962
1599.000000	0.014914
1598.000000	0.014847
1597.000000	0.014766
1596.000000	0.014696
1595.000000	0.014635
1594.000000	0.014565
1593.000000	0.014494
1592.000000	0.014447
1591.000000	0.014415
1590.000000	0.014371
1589.000000	0.014316
1588.000000	0.014278
1587.000000	0.014261
1586.000000	0.014239
1585.000000	0.014208
1584.000000	0.014190
1583.000000	0.014185
1582.000000	0.014178
1581.000000	0.014183
1580.000000	0.014218
1579.000000	0.014244
1578.000000	0.014210
1577.000000	0.014139
1576.000000	0.014114
1575.000000	0.014148
1574.000000	0.014195
1573.000000	0.014247
1572.000000	0.014305
1571.000000	0.014374
1570.000000	0.014441
1569.000000	0.014502
1568.000000	0.014574
1567.000000	0.014640
1566.000000	0.014688
1565.000000	0.014735
1564.000000	0.014799
1563.000000	0.014850
1562.000000	0.014868
1561.000000	0.014936
1560.000000	0.015200
1559.000000	0.015606
1558.000000	0.015850
1557.000000	0.015915
1556.000000	0.015967
1555.000000	0.016041
1554.000000	0.016144
1553.000000	0.016300
1552.000000	0.016499
1551.000000	0.016701
1550.000000	0.016903
1549.000000	0.017112
1548.000000	0.017312
1547.000000	0.017487
1546.000000	0.017651
1545.000000	0.017829
1544.000000	0.018015
1543.000000	0.018181
1542.000000	0.018344
1541.000000	0.018540
1540.000000	0.018758
1539.000000	0.018914
1538.000000	0.018994
1537.000000	0.019088
1536.000000	0.019208
1535.000000	0.019343
1534.000000	0.019507
1533.000000	0.019693
1532.000000	0.019834
1531.000000	0.019912
1530.000000	0.019968
1529.000000	0.020039
1528.000000	0.020134
1527.000000	0.020254
1526.000000	0.020399
1525.000000	0.020544
1524.000000	0.020642
1523.000000	0.020695
1522.000000	0.020792
1521.000000	0.021000
1520.000000	0.021238
1519.000000	0.021424
1518.000000	0.021568
1517.000000	0.021715
1516.000000	0.021851
1515.000000	0.021925
1514.000000	0.021955
1513.000000	0.022013
1512.000000	0.022110
1511.000000	0.022206
1510.000000	0.022283
1509.000000	0.022367
1508.000000	0.022465
1507.000000	0.022548
1506.000000	0.022637
1505.000000	0.022746
1504.000000	0.022872
1503.000000	0.022984
1502.000000	0.023058
1501.000000	0.023124
1500.000000	0.023194
1499.000000	0.023241
1498.000000	0.023297
1497.000000	0.023428
1496.000000	0.023598
1495.000000	0.023738
1494.000000	0.023865
1493.000000	0.024025
1492.000000	0.024218
1491.000000	0.024415
1490.000000	0.024604
1489.000000	0.024788
1488.000000	0.024941
1487.000000	0.025062
1486.000000	0.025175
1485.000000	0.025300
1484.000000	0.025453
1483.000000	0.025625
1482.000000	0.025825
1481.000000	0.026061
1480.000000	0.026304
1479.000000	0.026529
1478.000000	0.026763
1477.000000	0.027037
1476.000000	0.027324
1475.000000	0.027595
1474.000000	0.027894
1473.000000	0.028276
1472.000000	0.028669
1471.000000	0.028963
1470.000000	0.029185
1469.000000	0.029408
1468.000000	0.029646
1467.000000	0.029896
1466.000000	0.030185
1465.000000	0.030529
1464.000000	0.030855
1463.000000	0.031090
1462.000000	0.031275
1461.000000	0.031479
1460.000000	0.031695
1459.000000	0.031889
1458.000000	0.032124
1457.000000	0.032501
1456.000000	0.032894
1455.000000	0.033157
1454.000000	0.033352
1453.000000	0.033555
1452.000000	0.033766
1451.000000	0.033944
1450.000000	0.034097
1449.000000	0.034276
1448.000000	0.034481
1447.000000	0.034654
1446.000000	0.034785
1445.000000	0.034931
1444.000000	0.035111
1443.000000	0.035290
1442.000000	0.035458
1441.000000	0.035644
1440.000000	0.035839
1439.000000	0.036000
1438.000000	0.036170
1437.000000	0.036440
1436.000000	0.036752
1435.000000	0.036950
1434.000000	0.037045
1433.000000	0.037136
1432.000000	0.037259
1431.000000	0.037379
1430.000000	0.037496
1429.000000	0.037662
1428.000000	0.037877
1427.000000	0.038078
1426.000000	0.038244
1425.000000	0.038422
1424.000000	0.038609
1423.000000	0.038722
1422.000000	0.038759
1421.000000	0.038828
1420.000000	0.039001
1419.000000	0.039192
1418.000000	0.039316
1417.000000	0.039420
1416.000000	0.039522
1415.000000	0.039584
1414.000000	0.039614
1413.000000	0.039663
1412.000000	0.039728
1411.000000	0.039751
1410.000000	0.039743
1409.000000	0.039771
1408.000000	0.039839
1407.000000	0.039884
1406.000000	0.039893
1405.000000	0.039924
1404.000000	0.039987
1403.000000	0.040014
1402.000000	0.039993
1401.000000	0.039981
1400.000000	0.040002
1399.000000	0.040002
1398.000000	0.039964
1397.000000	0.039952
1396.000000	0.039995
1395.000000	0.040043
1394.000000	0.040061
1393.000000	0.040086
1392.000000	0.040126
1391.000000	0.040136
1390.000000	0.040106
1389.000000	0.040078
1388.000000	0.040057
1387.000000	0.039991
1386.000000	0.039869
1385.000000	0.039755
1384.000000	0.039680
1383.000000	0.039604
1382.000000	0.039503
1381.000000	0.039389
1380.000000	0.039268
1379.000000	0.039123
1378.000000	0.038955
1377.000000	0.038788
1376.000000	0.038631
1375.000000	0.038463
1374.000000	0.038287
1373.000000	0.038136
1372.000000	0.038005
1371.000000	0.037856
1370.000000	0.037676
1369.000000	0.037500
1368.000000	0.037344
1367.000000	0.037183
1366.000000	0.037010
1365.000000	0.036856
1364.000000	0.036731
1363.000000	0.036610
1362.000000	0.036469
1361.000000	0.036327
1360.000000	0.036192
1359.000000	0.036048
1358.000000	0.035891
1357.000000	0.035741
1356.000000	0.035594
1355.000000	0.035427
1354.000000	0.035250
1353.000000	0.035100
1352.000000	0.034976
1351.000000	0.034837
1350.000000	0.034657
1349.000000	0.034471
1348.000000	0.034317
1347.000000	0.034196
1346.000000	0.034101
1345.000000	0.034039
1344.000000	0.034002
1343.000000	0.033959
1342.000000	0.033897
1341.000000	0.033836
1340.000000	0.033783
1339.000000	0.033714
1338.000000	0.033630
1337.000000	0.033563
1336.000000	0.033505
1335.000000	0.033404
1334.000000	0.033245
1333.000000	0.033072
1332.000000	0.032918
1331.000000	0.032768
1330.000000	0.032603
1329.000000	0.032439
1328.000000	0.032291
1327.000000	0.032146
1326.000000	0.031997
1325.000000	0.031873
1324.000000	0.031779
1323.000000	0.031668
1322.000000	0.031513
1321.000000	0.031346
1320.000000	0.031210
1319.000000	0.031098
1318.000000	0.030987
1317.000000	0.030878
1316.000000	0.030768
1315.000000	0.030625
1314.000000	0.030442
1313.000000	0.030254
1312.000000	0.030092
1311.000000	0.029944
1310.000000	0.029793
1309.000000	0.029648
1308.000000	0.029513
1307.000000	0.029368
1306.000000	0.029206
1305.000000	0.029054
1304.000000	0.028930
1303.000000	0.028815
1302.000000	0.028691
1301.000000	0.028561
1300.000000	0.028422
1299.000000	0.028257
1298.000000	0.028077
1297.000000	0.027921
1296.000000	0.027790
1295.000000	0.027648
1294.000000	0.027481
1293.000000	0.027332
1292.000000	0.027231
1291.000000	0.027153
1290.000000	0.027070
1289.000000	0.026982
1288.000000	0.026884
1287.000000	0.026753
1286.000000	0.026598
1285.000000	0.026469
1284.000000	0.026384
1283.000000	0.026297
1282.000000	0.026179
1281.000000	0.026060
1280.000000	0.025976
1279.000000	0.025913
1278.000000	0.025851
1277.000000	0.025804
1276.000000	0.025782
1275.000000	0.025761
1274.000000	0.025723
1273.000000	0.025689
1272.000000	0.025682
1271.000000	0.025690
1270.000000	0.025708
1269.000000	0.025765
1268.000000	0.025874
1267.000000	0.025995
1266.000000	0.026094
1265.000000	0.026178
1264.000000	0.026255
1263.000000	0.026304
1262.000000	0.026323
1261.000000	0.026361
1260.000000	0.026448
1259.000000	0.026552
1258.000000	0.026629
1257.000000	0.026684
1256.000000	0.026726
1255.000000	0.026730
1254.000000	0.026681
1253.000000	0.026607
1252.000000	0.026539
1251.000000	0.026481
1250.000000	0.026431
1249.000000	0.026407
1248.000000	0.026403
1247.000000	0.026383
1246.000000	0.026342
1245.000000	0.026321
1244.000000	0.026344
1243.000000	0.026373
1242.000000	0.026375
1241.000000	0.026371
1240.000000	0.026383
1239.000000	0.026384
1238.000000	0.026335
1237.000000	0.026237
1236.000000	0.026110
1235.000000	0.025961
1234.000000	0.025798
1233.000000	0.025650
1232.000000	0.025528
1231.000000	0.025404
1230.000000	0.025261
1229.000000	0.025114
1228.000000	0.024970
1227.000000	0.024805
1226.000000	0.024609
1225.000000	0.024409
1224.000000	0.024217
1223.000000	0.024016
1222.000000	0.023807
1221.000000	0.023624
1220.000000	0.023472
1219.000000	0.023309
1218.000000	0.023117
1217.000000	0.022937
1216.000000	0.022800
1215.000000	0.022686
1214.000000	0.022562
1213.000000	0.022442
1212.000000	0.022341
1211.000000	0.022248
1210.000000	0.022151
1209.000000	0.022067
1208.000000	0.022001
1207.000000	0.021928
1206.000000	0.021843
1205.000000	0.021776
1204.000000	0.021736
1203.000000	0.021689
1202.000000	0.021617
1201.000000	0.021551
1200.000000	0.021512
1199.000000	0.021478
1198.000000	0.021427
1197.000000	0.021374
1196.000000	0.021324
1195.000000	0.021258
1194.000000	0.021183
1193.000000	0.021137
1192.000000	0.021130
1191.000000	0.021110
1190.000000	0.021048
1189.000000	0.020981
1188.000000	0.020950
1187.000000	0.020946
1186.000000	0.020946
1185.000000	0.020962
1184.000000	0.021001
1183.000000	0.021034
1182.000000	0.021054
1181.000000	0.021097
1180.000000	0.021181
1179.000000	0.021269
1178.000000	0.021330
1177.000000	0.021392
1176.000000	0.021479
1175.000000	0.021569
1174.000000	0.021641
1173.000000	0.021707
1172.000000	0.021770
1171.000000	0.021802
1170.000000	0.021808
1169.000000	0.021840
1168.000000	0.021912
1167.000000	0.021975
1166.000000	0.021998
1165.000000	0.022026
1164.000000	0.022098
1163.000000	0.022175
1162.000000	0.022204
1161.000000	0.022196
1160.000000	0.022177
1159.000000	0.022128
1158.000000	0.022031
1157.000000	0.021920
1156.000000	0.021833
1155.000000	0.021754
1154.000000	0.021645
1153.000000	0.021510
1152.000000	0.021357
1151.000000	0.021175
1150.000000	0.020976
1149.000000	0.020813
1148.000000	0.020701
1147.000000	0.020581
1146.000000	0.020403
1145.000000	0.020199
1144.000000	0.020018
1143.000000	0.019846
1142.000000	0.019654
1141.000000	0.019454
1140.000000	0.019277
1139.000000	0.019120
1138.000000	0.018970
1137.000000	0.018847
1136.000000	0.018763
1135.000000	0.018687
1134.000000	0.018595
1133.000000	0.018505
1132.000000	0.018446
1131.000000	0.018411
1130.000000	0.018398
1129.000000	0.018414
1128.000000	0.018438
1127.000000	0.018412
1126.000000	0.018329
1125.000000	0.018263
1124.000000	0.018264
1123.000000	0.018304
1122.000000	0.018338
1121.000000	0.018374
1120.000000	0.018428
1119.000000	0.018477
1118.000000	0.018505
1117.000000	0.018544
1116.000000	0.018607
1115.000000	0.018666
1114.000000	0.018714
1113.000000	0.018798
1112.000000	0.018937
1111.000000	0.019074
1110.000000	0.019162
1109.000000	0.019231
1108.000000	0.019316
1107.000000	0.019385
1106.000000	0.019406
1105.000000	0.019412
1104.000000	0.019442
1103.000000	0.019482
1102.000000	0.019514
1101.000000	0.019557
1100.000000	0.019607
1099.000000	0.019616
1098.000000	0.019569
1097.000000	0.019535
1096.000000	0.019572
1095.000000	0.019645
1094.000000	0.019703
1093.000000	0.019754
1092.000000	0.019820
1091.000000	0.019879
1090.000000	0.019903
1089.000000	0.019902
1088.000000	0.019878
1087.000000	0.019805
1086.000000	0.019695
1085.000000	0.019615
1084.000000	0.019590
1083.000000	0.019557
1082.000000	0.019467
1081.000000	0.019358
1080.000000	0.019277
1079.000000	0.019206
1078.000000	0.019123
1077.000000	0.019060
1076.000000	0.019030
1075.000000	0.018994
1074.000000	0.018933
1073.000000	0.018895
1072.000000	0.018900
1071.000000	0.018896
1070.000000	0.018846
1069.000000	0.018799
1068.000000	0.018800
1067.000000	0.018815
1066.000000	0.018799
1065.000000	0.018772
1064.000000	0.018757
1063.000000	0.018726
1062.000000	0.018669
1061.000000	0.018638
1060.000000	0.018672
1059.000000	0.018721
1058.000000	0.018731
1057.000000	0.018714
1056.000000	0.018700
1055.000000	0.018677
1054.000000	0.018647
1053.000000	0.018665
1052.000000	0.018760
1051.000000	0.018876
1050.000000	0.018951
1049.000000	0.018992
1048.000000	0.019017
1047.000000	0.019014
1046.000000	0.019004
1045.000000	0.019058
1044.000000	0.019189
1043.000000	0.019318
1042.000000	0.019386
1041.000000	0.019432
1040.000000	0.019498
1039.000000	0.019552
1038.000000	0.019568
1037.000000	0.019591
1036.000000	0.019653
1035.000000	0.019702
1034.000000	0.019699
1033.000000	0.019683
1032.000000	0.019698
1031.000000	0.019719
1030.000000	0.019722
1029.000000	0.019743
1028.000000	0.019787
1027.000000	0.019787
1026.000000	0.019710
1025.000000	0.019638
1024.000000	0.019648
1023.000000	0.019701
1022.000000	0.019716
1021.000000	0.019690
1020.000000	0.019657
1019.000000	0.019613
1018.000000	0.019550
1017.000000	0.019506
1016.000000	0.019506
1015.000000	0.019504
1014.000000	0.019454
1013.000000	0.019385
1012.000000	0.019331
1011.000000	0.019270
1010.000000	0.019186
1009.000000	0.019111
1008.000000	0.019063
1007.000000	0.018998
1006.000000	0.018887
1005.000000	0.018773
1004.000000	0.018693
1003.000000	0.018616
1002.000000	0.018517
1001.000000	0.018428
1000.000000	0.018368
999.000000	0.018293
998.000000	0.018172
997.000000	0.018049
996.000000	0.017962
995.000000	0.017889
994.000000	0.017809
993.000000	0.017751
992.000000	0.017726
991.000000	0.017677
990.000000	0.017569
989.000000	0.017448
988.000000	0.017356
987.000000	0.017267
986.000000	0.017164
985.000000	0.017085
984.000000	0.017048
983.000000	0.017003
982.000000	0.016924
981.000000	0.016863
980.000000	0.016859
979.000000	0.016865
978.000000	0.016833
977.000000	0.016791
976.000000	0.016778
975.000000	0.016760
974.000000	0.016706
973.000000	0.016654
972.000000	0.016638
971.000000	0.016618
970.000000	0.016560
969.000000	0.016509
968.000000	0.016505
967.000000	0.016506
966.000000	0.016459
965.000000	0.016390
964.000000	0.016342
963.000000	0.016295
962.000000	0.016220
961.000000	0.016143
960.000000	0.016088
959.000000	0.016019
958.000000	0.015910
957.000000	0.015813
956.000000	0.015782
955.000000	0.015788
954.000000	0.015775
953.000000	0.015736
952.000000	0.015688
951.000000	0.015604
950.000000	0.015464
949.000000	0.015310
948.000000	0.015190
947.000000	0.015105
946.000000	0.015041
945.000000	0.015010
944.000000	0.015005
943.000000	0.014975
942.000000	0.014892
941.000000	0.014793
940.000000	0.014713
939.000000	0.014639
938.000000	0.014567
937.000000	0.014528
936.000000	0.014523
935.000000	0.014497
934.000000	0.014429
933.000000	0.014369
932.000000	0.014347
931.000000	0.014313
930.000000	0.014238
929.000000	0.014160
928.000000	0.014106
927.000000	0.014039
926.000000	0.013938
925.000000	0.013848
924.000000	0.013795
923.000000	0.013737
922.000000	0.013649
921.000000	0.013581
920.000000	0.013566
919.000000	0.013550
918.000000	0.013483
917.000000	0.013388
916.000000	0.013289
915.000000	0.013151
914.000000	0.012968
913.000000	0.012817
912.000000	0.012759
911.000000	0.012751
910.000000	0.012719
909.000000	0.012647
908.000000	0.012541
907.000000	0.012386
906.000000	0.012206
905.000000	0.012076
904.000000	0.012020
903.000000	0.011967
902.000000	0.011867
901.000000	0.011754
900.000000	0.011657
899.000000	0.011529
898.000000	0.011343
897.000000	0.011155
896.000000	0.011009
895.000000	0.010872
894.000000	0.010710
893.000000	0.010554
892.000000	0.010414
891.000000	0.010249
890.000000	0.010078
889.000000	0.010057
888.000000	0.010368
887.000000	0.011116
886.000000	0.012352
885.000000	0.014071
884.000000	0.016127
883.000000	0.018263
882.000000	0.020351
881.000000	0.022501
880.000000	0.024865
879.000000	0.027410
878.000000	0.029980
877.000000	0.032452
876.000000	0.034724
875.000000	0.036683
874.000000	0.038281
873.000000	0.039558
872.000000	0.040461
871.000000	0.040780
870.000000	0.040361
869.000000	0.039278
868.000000	0.037727
867.000000	0.035874
866.000000	0.033890
865.000000	0.031987
864.000000	0.030291
863.000000	0.028776
862.000000	0.027375
861.000000	0.026101
860.000000	0.024972
859.000000	0.023943
858.000000	0.022983
857.000000	0.022126
856.000000	0.021390
855.000000	0.020721
854.000000	0.020094
853.000000	0.019555
852.000000	0.019134
851.000000	0.018839
850.000000	0.018739
849.000000	0.018897
848.000000	0.019157
847.000000	0.019176
846.000000	0.018789
845.000000	0.018186
844.000000	0.017637
843.000000	0.017211
842.000000	0.016851
841.000000	0.016565
840.000000	0.016372
839.000000	0.016205
838.000000	0.015995
837.000000	0.015781
836.000000	0.015610
835.000000	0.015434
834.000000	0.015215
833.000000	0.015013
832.000000	0.014885
831.000000	0.014779
830.000000	0.014647
829.000000	0.014532
828.000000	0.014457
827.000000	0.014341
826.000000	0.014149
825.000000	0.013975
824.000000	0.013883
823.000000	0.013792
822.000000	0.013645
821.000000	0.013535
820.000000	0.013520
819.000000	0.013487
818.000000	0.013330
817.000000	0.013124
816.000000	0.012985
815.000000	0.012898
814.000000	0.012800
813.000000	0.012715
812.000000	0.012670
811.000000	0.012608
810.000000	0.012492
809.000000	0.012408
808.000000	0.012417
807.000000	0.012427
806.000000	0.012342
805.000000	0.012221
804.000000	0.012168
803.000000	0.012161
802.000000	0.012139
801.000000	0.012130
800.000000	0.012165
799.000000	0.012178
798.000000	0.012113
797.000000	0.012033
796.000000	0.012010
795.000000	0.011995
794.000000	0.011926
793.000000	0.011860
792.000000	0.011864
791.000000	0.011888
790.000000	0.011866
789.000000	0.011832
788.000000	0.011842
787.000000	0.011858
786.000000	0.011836
785.000000	0.011815
784.000000	0.011825
783.000000	0.011800
782.000000	0.011700
781.000000	0.011611
780.000000	0.011617
779.000000	0.011674
778.000000	0.011701
777.000000	0.011723
776.000000	0.011783
775.000000	0.011834
774.000000	0.011819
773.000000	0.011779
772.000000	0.011762
771.000000	0.011735
770.000000	0.011674
769.000000	0.011653
768.000000	0.011714
767.000000	0.011765
766.000000	0.011714
765.000000	0.011622
764.000000	0.011595
763.000000	0.011617
762.000000	0.011607
761.000000	0.011559
760.000000	0.011516
759.000000	0.011462
758.000000	0.011387
757.000000	0.011356
756.000000	0.011420
755.000000	0.011500
754.000000	0.011499
753.000000	0.011443
752.000000	0.011414
751.000000	0.011413
750.000000	0.011399
749.000000	0.011393
748.000000	0.011429
747.000000	0.011470
746.000000	0.011463
745.000000	0.011429
744.000000	0.011404
743.000000	0.011353
742.000000	0.011247
741.000000	0.011154
740.000000	0.011147
739.000000	0.011185
738.000000	0.011182
737.000000	0.011127
736.000000	0.011071
735.000000	0.011031
734.000000	0.011011
733.000000	0.011049
732.000000	0.011161
731.000000	0.011273
730.000000	0.011294
729.000000	0.011235
728.000000	0.011140
727.000000	0.010996
726.000000	0.010810
725.000000	0.010668
724.000000	0.010615
723.000000	0.010577
722.000000	0.010507
721.000000	0.010492
720.000000	0.010620
719.000000	0.010872
718.000000	0.011285
717.000000	0.012110
716.000000	0.013682
715.000000	0.016102
714.000000	0.019059
713.000000	0.021887
712.000000	0.023785
711.000000	0.024211
710.000000	0.023259
709.000000	0.021596
708.000000	0.019947
707.000000	0.018637
706.000000	0.017675
705.000000	0.017030
704.000000	0.016632
703.000000	0.016318
702.000000	0.015968
701.000000	0.015628
700.000000	0.015404
699.000000	0.015261
698.000000	0.015095
697.000000	0.014913
696.000000	0.014756
695.000000	0.014605
694.000000	0.014395
693.000000	0.014137
692.000000	0.013938
691.000000	0.013845
690.000000	0.013836
689.000000	0.013868
688.000000	0.013876
687.000000	0.013799
686.000000	0.013627
685.000000	0.013423
684.000000	0.013285
683.000000	0.013221
682.000000	0.013159
681.000000	0.013074
680.000000	0.013038
679.000000	0.013092
678.000000	0.013135
677.000000	0.013137
676.000000	0.013149
675.000000	0.013177
674.000000	0.013116
673.000000	0.012838
672.000000	0.012217
671.000000	0.011120
670.000000	0.009497
669.000000	0.007744
668.000000	0.007296
667.000000	0.008874
666.000000	0.010462
665.000000	0.011589
664.000000	0.012525
663.000000	0.013055
662.000000	0.013030
661.000000	0.012753
660.000000	0.012577
659.000000	0.012457
658.000000	0.012219
657.000000	0.012034
656.000000	0.012052
655.000000	0.012082
654.000000	0.011999
653.000000	0.012033
652.000000	0.012278
651.000000	0.012441
650.000000	0.012355
649.000000	0.012320
648.000000	0.012556
647.000000	0.012807
646.000000	0.012851
645.000000	0.012854
644.000000	0.012982
643.000000	0.013112
642.000000	0.013145
641.000000	0.013265
640.000000	0.013583
639.000000	0.013848
638.000000	0.013856
637.000000	0.013778
636.000000	0.013787
635.000000	0.013764
634.000000	0.013610
633.000000	0.013478
632.000000	0.013469
631.000000	0.013426
630.000000	0.013276
629.000000	0.013242
628.000000	0.013438
627.000000	0.013611
626.000000	0.013569
625.000000	0.013468
624.000000	0.013468
623.000000	0.013470
622.000000	0.013386
621.000000	0.013358
620.000000	0.013461
619.000000	0.013528
618.000000	0.013467
617.000000	0.013451
616.000000	0.013564
615.000000	0.013604
614.000000	0.013481
613.000000	0.013439
612.000000	0.013637
611.000000	0.013856
610.000000	0.013882
609.000000	0.013839
608.000000	0.013893
607.000000	0.013927
606.000000	0.013839
605.000000	0.013762
604.000000	0.013777
603.000000	0.013727
602.000000	0.013529
601.000000	0.013366
600.000000	0.013350
599.000000	0.013314
598.000000	0.013142
597.000000	0.012986
596.000000	0.012922
595.000000	0.012770
594.000000	0.012447
593.000000	0.012185
592.000000	0.012137
591.000000	0.012138
590.000000	0.012070
589.000000	0.012086
588.000000	0.012213
587.000000	0.012163
586.000000	0.011824
585.000000	0.011556
584.000000	0.011662
583.000000	0.011949
582.000000	0.012105
581.000000	0.012139
580.000000	0.012139
579.000000	0.011985
578.000000	0.011666
577.000000	0.011491
576.000000	0.011637
575.000000	0.011829
574.000000	0.011808
573.000000	0.011741
572.000000	0.011808
571.000000	0.011840
570.000000	0.011699
569.000000	0.011629
568.000000	0.011819
567.000000	0.011998
566.000000	0.011881
565.000000	0.011636
564.000000	0.011531
563.000000	0.011489
562.000000	0.011381
561.000000	0.011354
560.000000	0.011505
559.000000	0.011584
558.000000	0.011424
557.000000	0.011278
556.000000	0.011379
555.000000	0.011518
554.000000	0.011455
553.000000	0.011352
552.000000	0.011410
551.000000	0.011460
550.000000	0.011325
549.000000	0.011206
548.000000	0.011297
547.000000	0.011395
546.000000	0.011295
545.000000	0.011196
544.000000	0.011314
543.000000	0.011477
542.000000	0.011496
541.000000	0.011522
540.000000	0.011676
539.000000	0.011735
538.000000	0.011571
537.000000	0.011476
536.000000	0.011655
535.000000	0.011808
534.000000	0.011663
533.000000	0.011458
532.000000	0.011482
531.000000	0.011571
530.000000	0.011482
529.000000	0.011371
528.000000	0.011437
527.000000	0.011495
526.000000	0.011365
525.000000	0.011316
524.000000	0.011581
523.000000	0.011881
522.000000	0.011916
521.000000	0.011854
520.000000	0.011904
519.000000	0.011847
518.000000	0.011463
517.000000	0.011069
516.000000	0.011047
515.000000	0.011243
514.000000	0.011363
513.000000	0.011463
512.000000	0.011649
511.000000	0.011696
510.000000	0.011446
509.000000	0.011171
508.000000	0.011168
507.000000	0.011297
506.000000	0.011349
505.000000	0.011460
504.000000	0.011723
503.000000	0.011839
502.000000	0.011600
501.000000	0.011323
500.000000	0.011281
499.000000	0.011231
498.000000	0.010961
497.000000	0.010745
496.000000	0.010827
495.000000	0.010961
494.000000	0.010891
493.000000	0.010846
492.000000	0.011052
491.000000	0.011227
490.000000	0.011129
489.000000	0.011064
488.000000	0.011301
487.000000	0.011510
486.000000	0.011308
485.000000	0.010918
484.000000	0.010744
483.000000	0.010708
482.000000	0.010626
481.000000	0.010716
480.000000	0.011081
479.000000	0.011245
478.000000	0.010857
477.000000	0.010371
476.000000	0.010366
475.000000	0.010701
474.000000	0.011002
473.000000	0.011411
472.000000	0.012167
471.000000	0.012858
470.000000	0.013060
469.000000	0.013032
468.000000	0.013031
467.000000	0.012699
466.000000	0.011835
465.000000	0.011072
464.000000	0.011048
463.000000	0.011512
462.000000	0.011878
461.000000	0.012130
460.000000	0.012433
459.000000	0.012420
458.000000	0.011761
457.000000	0.011003
456.000000	0.010739
455.000000	0.010629
454.000000	0.010294
453.000000	0.010100
452.000000	0.010421
451.000000	0.010807
450.000000	0.010749
