PE IR       SUBTECH     SPECTRUM    ASCII       PEDS        4.00        
   -1
P8-Or013_1.ASC
23/06/13
15:28:31.00
23/06/13
16:11:22.00
uco
Sample 013 By uco Date Tuesday, June 13 2023
450.000000
#HDR
-1
-1
#GR
cm-1
A
1.0
0.0
4000.000000
-1.000000
3551
8
0.014330
0.000258
#DATA
4000.000000	0.002575
3999.000000	0.002604
3998.000000	0.002641
3997.000000	0.002670
3996.000000	0.002681
3995.000000	0.002677
3994.000000	0.002666
3993.000000	0.002657
3992.000000	0.002652
3991.000000	0.002644
3990.000000	0.002629
3989.000000	0.002609
3988.000000	0.002592
3987.000000	0.002584
3986.000000	0.002588
3985.000000	0.002600
3984.000000	0.002615
3983.000000	0.002627
3982.000000	0.002639
3981.000000	0.002653
3980.000000	0.002672
3979.000000	0.002692
3978.000000	0.002703
3977.000000	0.002696
3976.000000	0.002673
3975.000000	0.002644
3974.000000	0.002627
3973.000000	0.002629
3972.000000	0.002648
3971.000000	0.002668
3970.000000	0.002675
3969.000000	0.002673
3968.000000	0.002673
3967.000000	0.002690
3966.000000	0.002725
3965.000000	0.002763
3964.000000	0.002790
3963.000000	0.002799
3962.000000	0.002791
3961.000000	0.002778
3960.000000	0.002768
3959.000000	0.002766
3958.000000	0.002770
3957.000000	0.002770
3956.000000	0.002758
3955.000000	0.002733
3954.000000	0.002706
3953.000000	0.002693
3952.000000	0.002705
3951.000000	0.002735
3950.000000	0.002768
3949.000000	0.002789
3948.000000	0.002794
3947.000000	0.002789
3946.000000	0.002780
3945.000000	0.002767
3944.000000	0.002751
3943.000000	0.002734
3942.000000	0.002721
3941.000000	0.002713
3940.000000	0.002709
3939.000000	0.002709
3938.000000	0.002711
3937.000000	0.002716
3936.000000	0.002723
3935.000000	0.002730
3934.000000	0.002735
3933.000000	0.002737
3932.000000	0.002734
3931.000000	0.002729
3930.000000	0.002730
3929.000000	0.002737
3928.000000	0.002743
3927.000000	0.002742
3926.000000	0.002733
3925.000000	0.002727
3924.000000	0.002731
3923.000000	0.002744
3922.000000	0.002760
3921.000000	0.002781
3920.000000	0.002808
3919.000000	0.002834
3918.000000	0.002845
3917.000000	0.002836
3916.000000	0.002814
3915.000000	0.002789
3914.000000	0.002763
3913.000000	0.002737
3912.000000	0.002716
3911.000000	0.002705
3910.000000	0.002706
3909.000000	0.002715
3908.000000	0.002722
3907.000000	0.002728
3906.000000	0.002744
3905.000000	0.002784
3904.000000	0.002847
3903.000000	0.002901
3902.000000	0.002906
3901.000000	0.002861
3900.000000	0.002803
3899.000000	0.002778
3898.000000	0.002797
3897.000000	0.002835
3896.000000	0.002869
3895.000000	0.002886
3894.000000	0.002878
3893.000000	0.002848
3892.000000	0.002813
3891.000000	0.002808
3890.000000	0.002844
3889.000000	0.002896
3888.000000	0.002924
3887.000000	0.002911
3886.000000	0.002876
3885.000000	0.002850
3884.000000	0.002842
3883.000000	0.002830
3882.000000	0.002799
3881.000000	0.002761
3880.000000	0.002751
3879.000000	0.002780
3878.000000	0.002824
3877.000000	0.002848
3876.000000	0.002842
3875.000000	0.002829
3874.000000	0.002839
3873.000000	0.002868
3872.000000	0.002884
3871.000000	0.002870
3870.000000	0.002847
3869.000000	0.002846
3868.000000	0.002859
3867.000000	0.002865
3866.000000	0.002860
3865.000000	0.002857
3864.000000	0.002866
3863.000000	0.002880
3862.000000	0.002885
3861.000000	0.002879
3860.000000	0.002867
3859.000000	0.002861
3858.000000	0.002866
3857.000000	0.002879
3856.000000	0.002887
3855.000000	0.002883
3854.000000	0.002892
3853.000000	0.002935
3852.000000	0.002978
3851.000000	0.002989
3850.000000	0.002976
3849.000000	0.002957
3848.000000	0.002936
3847.000000	0.002908
3846.000000	0.002870
3845.000000	0.002828
3844.000000	0.002798
3843.000000	0.002793
3842.000000	0.002815
3841.000000	0.002851
3840.000000	0.002882
3839.000000	0.002902
3838.000000	0.002909
3837.000000	0.002902
3836.000000	0.002881
3835.000000	0.002852
3834.000000	0.002822
3833.000000	0.002798
3832.000000	0.002783
3831.000000	0.002783
3830.000000	0.002785
3829.000000	0.002772
3828.000000	0.002741
3827.000000	0.002716
3826.000000	0.002729
3825.000000	0.002777
3824.000000	0.002828
3823.000000	0.002844
3822.000000	0.002824
3821.000000	0.002811
3820.000000	0.002833
3819.000000	0.002869
3818.000000	0.002882
3817.000000	0.002868
3816.000000	0.002854
3815.000000	0.002857
3814.000000	0.002862
3813.000000	0.002857
3812.000000	0.002849
3811.000000	0.002846
3810.000000	0.002842
3809.000000	0.002823
3808.000000	0.002799
3807.000000	0.002807
3806.000000	0.002861
3805.000000	0.002919
3804.000000	0.002931
3803.000000	0.002881
3802.000000	0.002808
3801.000000	0.002770
3800.000000	0.002778
3799.000000	0.002792
3798.000000	0.002792
3797.000000	0.002791
3796.000000	0.002803
3795.000000	0.002820
3794.000000	0.002818
3793.000000	0.002787
3792.000000	0.002743
3791.000000	0.002712
3790.000000	0.002707
3789.000000	0.002722
3788.000000	0.002742
3787.000000	0.002754
3786.000000	0.002759
3785.000000	0.002765
3784.000000	0.002780
3783.000000	0.002803
3782.000000	0.002819
3781.000000	0.002814
3780.000000	0.002786
3779.000000	0.002753
3778.000000	0.002731
3777.000000	0.002723
3776.000000	0.002729
3775.000000	0.002750
3774.000000	0.002781
3773.000000	0.002807
3772.000000	0.002817
3771.000000	0.002813
3770.000000	0.002808
3769.000000	0.002801
3768.000000	0.002774
3767.000000	0.002723
3766.000000	0.002671
3765.000000	0.002651
3764.000000	0.002669
3763.000000	0.002703
3762.000000	0.002725
3761.000000	0.002724
3760.000000	0.002710
3759.000000	0.002704
3758.000000	0.002713
3757.000000	0.002733
3756.000000	0.002755
3755.000000	0.002775
3754.000000	0.002797
3753.000000	0.002829
3752.000000	0.002876
3751.000000	0.002936
3750.000000	0.003000
3749.000000	0.003054
3748.000000	0.003087
3747.000000	0.003089
3746.000000	0.003065
3745.000000	0.003038
3744.000000	0.003030
3743.000000	0.003018
3742.000000	0.002973
3741.000000	0.002909
3740.000000	0.002859
3739.000000	0.002841
3738.000000	0.002846
3737.000000	0.002858
3736.000000	0.002856
3735.000000	0.002825
3734.000000	0.002772
3733.000000	0.002734
3732.000000	0.002740
3731.000000	0.002789
3730.000000	0.002853
3729.000000	0.002901
3728.000000	0.002918
3727.000000	0.002903
3726.000000	0.002869
3725.000000	0.002822
3724.000000	0.002774
3723.000000	0.002741
3722.000000	0.002736
3721.000000	0.002750
3720.000000	0.002757
3719.000000	0.002744
3718.000000	0.002723
3717.000000	0.002716
3716.000000	0.002734
3715.000000	0.002767
3714.000000	0.002809
3713.000000	0.002862
3712.000000	0.002924
3711.000000	0.002977
3710.000000	0.002990
3709.000000	0.002949
3708.000000	0.002875
3707.000000	0.002806
3706.000000	0.002765
3705.000000	0.002744
3704.000000	0.002714
3703.000000	0.002659
3702.000000	0.002597
3701.000000	0.002557
3700.000000	0.002552
3699.000000	0.002565
3698.000000	0.002579
3697.000000	0.002592
3696.000000	0.002613
3695.000000	0.002647
3694.000000	0.002686
3693.000000	0.002712
3692.000000	0.002707
3691.000000	0.002673
3690.000000	0.002635
3689.000000	0.002639
3688.000000	0.002697
3687.000000	0.002778
3686.000000	0.002833
3685.000000	0.002840
3684.000000	0.002811
3683.000000	0.002775
3682.000000	0.002750
3681.000000	0.002743
3680.000000	0.002756
3679.000000	0.002786
3678.000000	0.002812
3677.000000	0.002809
3676.000000	0.002793
3675.000000	0.002815
3674.000000	0.002876
3673.000000	0.002916
3672.000000	0.002900
3671.000000	0.002845
3670.000000	0.002807
3669.000000	0.002817
3668.000000	0.002850
3667.000000	0.002868
3666.000000	0.002863
3665.000000	0.002843
3664.000000	0.002818
3663.000000	0.002795
3662.000000	0.002778
3661.000000	0.002774
3660.000000	0.002784
3659.000000	0.002804
3658.000000	0.002822
3657.000000	0.002833
3656.000000	0.002844
3655.000000	0.002863
3654.000000	0.002882
3653.000000	0.002893
3652.000000	0.002896
3651.000000	0.002903
3650.000000	0.002912
3649.000000	0.002904
3648.000000	0.002871
3647.000000	0.002835
3646.000000	0.002821
3645.000000	0.002829
3644.000000	0.002847
3643.000000	0.002867
3642.000000	0.002880
3641.000000	0.002880
3640.000000	0.002866
3639.000000	0.002846
3638.000000	0.002833
3637.000000	0.002828
3636.000000	0.002824
3635.000000	0.002830
3634.000000	0.002857
3633.000000	0.002909
3632.000000	0.002964
3631.000000	0.003000
3630.000000	0.003014
3629.000000	0.003023
3628.000000	0.003044
3627.000000	0.003063
3626.000000	0.003060
3625.000000	0.003032
3624.000000	0.002988
3623.000000	0.002927
3622.000000	0.002841
3621.000000	0.002737
3620.000000	0.002654
3619.000000	0.002646
3618.000000	0.002724
3617.000000	0.002847
3616.000000	0.002966
3615.000000	0.003058
3614.000000	0.003123
3613.000000	0.003160
3612.000000	0.003172
3611.000000	0.003159
3610.000000	0.003133
3609.000000	0.003097
3608.000000	0.003051
3607.000000	0.002998
3606.000000	0.002946
3605.000000	0.002903
3604.000000	0.002884
3603.000000	0.002895
3602.000000	0.002934
3601.000000	0.002982
3600.000000	0.003020
3599.000000	0.003039
3598.000000	0.003045
3597.000000	0.003046
3596.000000	0.003053
3595.000000	0.003070
3594.000000	0.003089
3593.000000	0.003096
3592.000000	0.003089
3591.000000	0.003079
3590.000000	0.003074
3589.000000	0.003076
3588.000000	0.003089
3587.000000	0.003117
3586.000000	0.003157
3585.000000	0.003191
3584.000000	0.003206
3583.000000	0.003203
3582.000000	0.003193
3581.000000	0.003182
3580.000000	0.003174
3579.000000	0.003175
3578.000000	0.003189
3577.000000	0.003210
3576.000000	0.003229
3575.000000	0.003239
3574.000000	0.003234
3573.000000	0.003213
3572.000000	0.003187
3571.000000	0.003180
3570.000000	0.003206
3569.000000	0.003262
3568.000000	0.003329
3567.000000	0.003377
3566.000000	0.003392
3565.000000	0.003374
3564.000000	0.003334
3563.000000	0.003292
3562.000000	0.003266
3561.000000	0.003263
3560.000000	0.003276
3559.000000	0.003295
3558.000000	0.003311
3557.000000	0.003324
3556.000000	0.003339
3555.000000	0.003355
3554.000000	0.003367
3553.000000	0.003372
3552.000000	0.003376
3551.000000	0.003390
3550.000000	0.003418
3549.000000	0.003450
3548.000000	0.003478
3547.000000	0.003500
3546.000000	0.003512
3545.000000	0.003516
3544.000000	0.003520
3543.000000	0.003535
3542.000000	0.003557
3541.000000	0.003576
3540.000000	0.003582
3539.000000	0.003586
3538.000000	0.003597
3537.000000	0.003621
3536.000000	0.003650
3535.000000	0.003677
3534.000000	0.003696
3533.000000	0.003700
3532.000000	0.003689
3531.000000	0.003670
3530.000000	0.003651
3529.000000	0.003642
3528.000000	0.003647
3527.000000	0.003665
3526.000000	0.003685
3525.000000	0.003697
3524.000000	0.003701
3523.000000	0.003705
3522.000000	0.003717
3521.000000	0.003734
3520.000000	0.003748
3519.000000	0.003755
3518.000000	0.003755
3517.000000	0.003751
3516.000000	0.003749
3515.000000	0.003751
3514.000000	0.003752
3513.000000	0.003740
3512.000000	0.003714
3511.000000	0.003688
3510.000000	0.003681
3509.000000	0.003697
3508.000000	0.003730
3507.000000	0.003765
3506.000000	0.003786
3505.000000	0.003787
3504.000000	0.003778
3503.000000	0.003777
3502.000000	0.003792
3501.000000	0.003809
3500.000000	0.003818
3499.000000	0.003819
3498.000000	0.003825
3497.000000	0.003845
3496.000000	0.003874
3495.000000	0.003903
3494.000000	0.003920
3493.000000	0.003917
3492.000000	0.003901
3491.000000	0.003888
3490.000000	0.003889
3489.000000	0.003901
3488.000000	0.003915
3487.000000	0.003928
3486.000000	0.003940
3485.000000	0.003949
3484.000000	0.003954
3483.000000	0.003957
3482.000000	0.003960
3481.000000	0.003960
3480.000000	0.003954
3479.000000	0.003946
3478.000000	0.003941
3477.000000	0.003939
3476.000000	0.003941
3475.000000	0.003949
3474.000000	0.003968
3473.000000	0.003996
3472.000000	0.004023
3471.000000	0.004043
3470.000000	0.004053
3469.000000	0.004053
3468.000000	0.004049
3467.000000	0.004053
3466.000000	0.004067
3465.000000	0.004080
3464.000000	0.004079
3463.000000	0.004067
3462.000000	0.004058
3461.000000	0.004064
3460.000000	0.004081
3459.000000	0.004102
3458.000000	0.004120
3457.000000	0.004129
3456.000000	0.004127
3455.000000	0.004119
3454.000000	0.004113
3453.000000	0.004110
3452.000000	0.004111
3451.000000	0.004111
3450.000000	0.004112
3449.000000	0.004119
3448.000000	0.004141
3447.000000	0.004178
3446.000000	0.004215
3445.000000	0.004235
3444.000000	0.004236
3443.000000	0.004236
3442.000000	0.004249
3441.000000	0.004274
3440.000000	0.004300
3439.000000	0.004324
3438.000000	0.004350
3437.000000	0.004385
3436.000000	0.004428
3435.000000	0.004470
3434.000000	0.004497
3433.000000	0.004508
3432.000000	0.004510
3431.000000	0.004519
3430.000000	0.004539
3429.000000	0.004565
3428.000000	0.004592
3427.000000	0.004620
3426.000000	0.004641
3425.000000	0.004648
3424.000000	0.004642
3423.000000	0.004639
3422.000000	0.004650
3421.000000	0.004672
3420.000000	0.004694
3419.000000	0.004712
3418.000000	0.004726
3417.000000	0.004734
3416.000000	0.004738
3415.000000	0.004738
3414.000000	0.004738
3413.000000	0.004742
3412.000000	0.004753
3411.000000	0.004776
3410.000000	0.004807
3409.000000	0.004834
3408.000000	0.004849
3407.000000	0.004851
3406.000000	0.004844
3405.000000	0.004832
3404.000000	0.004819
3403.000000	0.004813
3402.000000	0.004816
3401.000000	0.004824
3400.000000	0.004834
3399.000000	0.004847
3398.000000	0.004862
3397.000000	0.004877
3396.000000	0.004893
3395.000000	0.004913
3394.000000	0.004935
3393.000000	0.004952
3392.000000	0.004957
3391.000000	0.004949
3390.000000	0.004935
3389.000000	0.004921
3388.000000	0.004920
3387.000000	0.004941
3386.000000	0.004976
3385.000000	0.005006
3384.000000	0.005012
3383.000000	0.004997
3382.000000	0.004972
3381.000000	0.004947
3380.000000	0.004928
3379.000000	0.004922
3378.000000	0.004935
3377.000000	0.004960
3376.000000	0.004988
3375.000000	0.005014
3374.000000	0.005036
3373.000000	0.005050
3372.000000	0.005053
3371.000000	0.005047
3370.000000	0.005042
3369.000000	0.005045
3368.000000	0.005056
3367.000000	0.005073
3366.000000	0.005093
3365.000000	0.005114
3364.000000	0.005137
3363.000000	0.005165
3362.000000	0.005196
3361.000000	0.005225
3360.000000	0.005248
3359.000000	0.005266
3358.000000	0.005279
3357.000000	0.005287
3356.000000	0.005289
3355.000000	0.005293
3354.000000	0.005300
3353.000000	0.005307
3352.000000	0.005313
3351.000000	0.005322
3350.000000	0.005340
3349.000000	0.005365
3348.000000	0.005387
3347.000000	0.005397
3346.000000	0.005394
3345.000000	0.005381
3344.000000	0.005376
3343.000000	0.005395
3342.000000	0.005444
3341.000000	0.005506
3340.000000	0.005554
3339.000000	0.005570
3338.000000	0.005556
3337.000000	0.005526
3336.000000	0.005499
3335.000000	0.005486
3334.000000	0.005486
3333.000000	0.005493
3332.000000	0.005510
3331.000000	0.005542
3330.000000	0.005588
3329.000000	0.005628
3328.000000	0.005640
3327.000000	0.005626
3326.000000	0.005609
3325.000000	0.005612
3324.000000	0.005643
3323.000000	0.005691
3322.000000	0.005732
3321.000000	0.005754
3320.000000	0.005759
3319.000000	0.005762
3318.000000	0.005768
3317.000000	0.005771
3316.000000	0.005765
3315.000000	0.005750
3314.000000	0.005733
3313.000000	0.005717
3312.000000	0.005704
3311.000000	0.005698
3310.000000	0.005698
3309.000000	0.005707
3308.000000	0.005723
3307.000000	0.005752
3306.000000	0.005791
3305.000000	0.005832
3304.000000	0.005863
3303.000000	0.005876
3302.000000	0.005871
3301.000000	0.005853
3300.000000	0.005834
3299.000000	0.005831
3298.000000	0.005846
3297.000000	0.005867
3296.000000	0.005880
3295.000000	0.005881
3294.000000	0.005878
3293.000000	0.005883
3292.000000	0.005899
3291.000000	0.005919
3290.000000	0.005930
3289.000000	0.005921
3288.000000	0.005897
3287.000000	0.005875
3286.000000	0.005865
3285.000000	0.005860
3284.000000	0.005851
3283.000000	0.005839
3282.000000	0.005828
3281.000000	0.005827
3280.000000	0.005834
3279.000000	0.005851
3278.000000	0.005877
3277.000000	0.005907
3276.000000	0.005932
3275.000000	0.005940
3274.000000	0.005927
3273.000000	0.005895
3272.000000	0.005859
3271.000000	0.005837
3270.000000	0.005833
3269.000000	0.005837
3268.000000	0.005837
3267.000000	0.005833
3266.000000	0.005832
3265.000000	0.005841
3264.000000	0.005855
3263.000000	0.005864
3262.000000	0.005863
3261.000000	0.005852
3260.000000	0.005842
3259.000000	0.005843
3258.000000	0.005852
3257.000000	0.005863
3256.000000	0.005871
3255.000000	0.005875
3254.000000	0.005875
3253.000000	0.005868
3252.000000	0.005859
3251.000000	0.005854
3250.000000	0.005848
3249.000000	0.005826
3248.000000	0.005784
3247.000000	0.005733
3246.000000	0.005695
3245.000000	0.005682
3244.000000	0.005692
3243.000000	0.005711
3242.000000	0.005718
3241.000000	0.005699
3240.000000	0.005658
3239.000000	0.005616
3238.000000	0.005588
3237.000000	0.005575
3236.000000	0.005572
3235.000000	0.005575
3234.000000	0.005584
3233.000000	0.005596
3232.000000	0.005607
3231.000000	0.005612
3230.000000	0.005616
3229.000000	0.005617
3228.000000	0.005618
3227.000000	0.005618
3226.000000	0.005615
3225.000000	0.005609
3224.000000	0.005599
3223.000000	0.005592
3222.000000	0.005588
3221.000000	0.005582
3220.000000	0.005575
3219.000000	0.005573
3218.000000	0.005580
3217.000000	0.005591
3216.000000	0.005604
3215.000000	0.005620
3214.000000	0.005634
3213.000000	0.005637
3212.000000	0.005619
3211.000000	0.005583
3210.000000	0.005547
3209.000000	0.005523
3208.000000	0.005512
3207.000000	0.005512
3206.000000	0.005516
3205.000000	0.005519
3204.000000	0.005521
3203.000000	0.005528
3202.000000	0.005543
3201.000000	0.005554
3200.000000	0.005548
3199.000000	0.005524
3198.000000	0.005496
3197.000000	0.005481
3196.000000	0.005481
3195.000000	0.005491
3194.000000	0.005498
3193.000000	0.005496
3192.000000	0.005484
3191.000000	0.005465
3190.000000	0.005444
3189.000000	0.005420
3188.000000	0.005397
3187.000000	0.005381
3186.000000	0.005374
3185.000000	0.005370
3184.000000	0.005355
3183.000000	0.005328
3182.000000	0.005297
3181.000000	0.005275
3180.000000	0.005265
3179.000000	0.005262
3178.000000	0.005265
3177.000000	0.005275
3176.000000	0.005291
3175.000000	0.005303
3174.000000	0.005299
3173.000000	0.005273
3172.000000	0.005238
3171.000000	0.005217
3170.000000	0.005218
3169.000000	0.005232
3168.000000	0.005242
3167.000000	0.005239
3166.000000	0.005225
3165.000000	0.005208
3164.000000	0.005195
3163.000000	0.005189
3162.000000	0.005186
3161.000000	0.005179
3160.000000	0.005170
3159.000000	0.005165
3158.000000	0.005160
3157.000000	0.005147
3156.000000	0.005125
3155.000000	0.005108
3154.000000	0.005105
3153.000000	0.005113
3152.000000	0.005122
3151.000000	0.005125
3150.000000	0.005119
3149.000000	0.005109
3148.000000	0.005099
3147.000000	0.005096
3146.000000	0.005097
3145.000000	0.005094
3144.000000	0.005082
3143.000000	0.005067
3142.000000	0.005053
3141.000000	0.005033
3140.000000	0.005002
3139.000000	0.004972
3138.000000	0.004960
3137.000000	0.004973
3136.000000	0.004998
3135.000000	0.005016
3134.000000	0.005017
3133.000000	0.005002
3132.000000	0.004977
3131.000000	0.004951
3130.000000	0.004931
3129.000000	0.004917
3128.000000	0.004908
3127.000000	0.004904
3126.000000	0.004904
3125.000000	0.004910
3124.000000	0.004925
3123.000000	0.004950
3122.000000	0.004976
3121.000000	0.004985
3120.000000	0.004972
3119.000000	0.004951
3118.000000	0.004943
3117.000000	0.004954
3116.000000	0.004970
3115.000000	0.004982
3114.000000	0.004982
3113.000000	0.004975
3112.000000	0.004968
3111.000000	0.004969
3110.000000	0.004981
3109.000000	0.004997
3108.000000	0.005002
3107.000000	0.004994
3106.000000	0.004980
3105.000000	0.004971
3104.000000	0.004971
3103.000000	0.004976
3102.000000	0.004976
3101.000000	0.004969
3100.000000	0.004961
3099.000000	0.004968
3098.000000	0.004994
3097.000000	0.005025
3096.000000	0.005042
3095.000000	0.005043
3094.000000	0.005037
3093.000000	0.005032
3092.000000	0.005031
3091.000000	0.005034
3090.000000	0.005041
3089.000000	0.005051
3088.000000	0.005063
3087.000000	0.005070
3086.000000	0.005069
3085.000000	0.005060
3084.000000	0.005051
3083.000000	0.005049
3082.000000	0.005058
3081.000000	0.005073
3080.000000	0.005090
3079.000000	0.005105
3078.000000	0.005115
3077.000000	0.005118
3076.000000	0.005115
3075.000000	0.005113
3074.000000	0.005113
3073.000000	0.005110
3072.000000	0.005101
3071.000000	0.005092
3070.000000	0.005091
3069.000000	0.005092
3068.000000	0.005090
3067.000000	0.005082
3066.000000	0.005074
3065.000000	0.005070
3064.000000	0.005070
3063.000000	0.005070
3062.000000	0.005068
3061.000000	0.005061
3060.000000	0.005048
3059.000000	0.005032
3058.000000	0.005019
3057.000000	0.005009
3056.000000	0.004999
3055.000000	0.004993
3054.000000	0.004996
3053.000000	0.005010
3052.000000	0.005021
3051.000000	0.005017
3050.000000	0.004996
3049.000000	0.004969
3048.000000	0.004944
3047.000000	0.004923
3046.000000	0.004899
3045.000000	0.004878
3044.000000	0.004872
3043.000000	0.004888
3042.000000	0.004914
3041.000000	0.004926
3040.000000	0.004912
3039.000000	0.004881
3038.000000	0.004855
3037.000000	0.004848
3036.000000	0.004858
3035.000000	0.004868
3034.000000	0.004867
3033.000000	0.004854
3032.000000	0.004833
3031.000000	0.004808
3030.000000	0.004781
3029.000000	0.004752
3028.000000	0.004727
3027.000000	0.004710
3026.000000	0.004698
3025.000000	0.004691
3024.000000	0.004691
3023.000000	0.004701
3022.000000	0.004720
3021.000000	0.004736
3020.000000	0.004745
3019.000000	0.004750
3018.000000	0.004750
3017.000000	0.004743
3016.000000	0.004725
3015.000000	0.004705
3014.000000	0.004692
3013.000000	0.004687
3012.000000	0.004681
3011.000000	0.004668
3010.000000	0.004653
3009.000000	0.004644
3008.000000	0.004647
3007.000000	0.004663
3006.000000	0.004687
3005.000000	0.004717
3004.000000	0.004747
3003.000000	0.004763
3002.000000	0.004755
3001.000000	0.004720
3000.000000	0.004674
2999.000000	0.004640
2998.000000	0.004626
2997.000000	0.004622
2996.000000	0.004617
2995.000000	0.004607
2994.000000	0.004596
2993.000000	0.004591
2992.000000	0.004595
2991.000000	0.004609
2990.000000	0.004628
2989.000000	0.004644
2988.000000	0.004655
2987.000000	0.004660
2986.000000	0.004662
2985.000000	0.004662
2984.000000	0.004670
2983.000000	0.004688
2982.000000	0.004709
2981.000000	0.004712
2980.000000	0.004687
2979.000000	0.004647
2978.000000	0.004616
2977.000000	0.004610
2976.000000	0.004617
2975.000000	0.004616
2974.000000	0.004593
2973.000000	0.004559
2972.000000	0.004532
2971.000000	0.004523
2970.000000	0.004526
2969.000000	0.004527
2968.000000	0.004515
2967.000000	0.004488
2966.000000	0.004455
2965.000000	0.004428
2964.000000	0.004418
2963.000000	0.004424
2962.000000	0.004437
2961.000000	0.004451
2960.000000	0.004468
2959.000000	0.004491
2958.000000	0.004521
2957.000000	0.004550
2956.000000	0.004577
2955.000000	0.004601
2954.000000	0.004618
2953.000000	0.004622
2952.000000	0.004621
2951.000000	0.004629
2950.000000	0.004649
2949.000000	0.004669
2948.000000	0.004676
2947.000000	0.004675
2946.000000	0.004684
2945.000000	0.004709
2944.000000	0.004738
2943.000000	0.004752
2942.000000	0.004742
2941.000000	0.004712
2940.000000	0.004677
2939.000000	0.004650
2938.000000	0.004638
2937.000000	0.004635
2936.000000	0.004626
2935.000000	0.004602
2934.000000	0.004569
2933.000000	0.004544
2932.000000	0.004540
2931.000000	0.004557
2930.000000	0.004581
2929.000000	0.004596
2928.000000	0.004596
2927.000000	0.004591
2926.000000	0.004597
2925.000000	0.004626
2924.000000	0.004678
2923.000000	0.004743
2922.000000	0.004811
2921.000000	0.004871
2920.000000	0.004921
2919.000000	0.004960
2918.000000	0.004987
2917.000000	0.004998
2916.000000	0.004996
2915.000000	0.004986
2914.000000	0.004974
2913.000000	0.004957
2912.000000	0.004937
2911.000000	0.004921
2910.000000	0.004915
2909.000000	0.004916
2908.000000	0.004921
2907.000000	0.004928
2906.000000	0.004936
2905.000000	0.004940
2904.000000	0.004934
2903.000000	0.004919
2902.000000	0.004906
2901.000000	0.004901
2900.000000	0.004902
2899.000000	0.004896
2898.000000	0.004875
2897.000000	0.004841
2896.000000	0.004806
2895.000000	0.004779
2894.000000	0.004763
2893.000000	0.004754
2892.000000	0.004751
2891.000000	0.004755
2890.000000	0.004771
2889.000000	0.004797
2888.000000	0.004823
2887.000000	0.004841
2886.000000	0.004847
2885.000000	0.004843
2884.000000	0.004837
2883.000000	0.004831
2882.000000	0.004825
2881.000000	0.004810
2880.000000	0.004784
2879.000000	0.004753
2878.000000	0.004723
2877.000000	0.004700
2876.000000	0.004688
2875.000000	0.004690
2874.000000	0.004705
2873.000000	0.004731
2872.000000	0.004760
2871.000000	0.004788
2870.000000	0.004807
2869.000000	0.004812
2868.000000	0.004803
2867.000000	0.004791
2866.000000	0.004786
2865.000000	0.004790
2864.000000	0.004794
2863.000000	0.004785
2862.000000	0.004764
2861.000000	0.004739
2860.000000	0.004719
2859.000000	0.004704
2858.000000	0.004694
2857.000000	0.004689
2856.000000	0.004694
2855.000000	0.004711
2854.000000	0.004734
2853.000000	0.004752
2852.000000	0.004760
2851.000000	0.004763
2850.000000	0.004773
2849.000000	0.004797
2848.000000	0.004829
2847.000000	0.004854
2846.000000	0.004865
2845.000000	0.004859
2844.000000	0.004840
2843.000000	0.004813
2842.000000	0.004785
2841.000000	0.004764
2840.000000	0.004759
2839.000000	0.004768
2838.000000	0.004782
2837.000000	0.004793
2836.000000	0.004796
2835.000000	0.004794
2834.000000	0.004788
2833.000000	0.004780
2832.000000	0.004769
2831.000000	0.004759
2830.000000	0.004750
2829.000000	0.004744
2828.000000	0.004744
2827.000000	0.004752
2826.000000	0.004768
2825.000000	0.004787
2824.000000	0.004805
2823.000000	0.004818
2822.000000	0.004822
2821.000000	0.004812
2820.000000	0.004791
2819.000000	0.004766
2818.000000	0.004746
2817.000000	0.004736
2816.000000	0.004730
2815.000000	0.004722
2814.000000	0.004712
2813.000000	0.004705
2812.000000	0.004707
2811.000000	0.004720
2810.000000	0.004734
2809.000000	0.004740
2808.000000	0.004737
2807.000000	0.004726
2806.000000	0.004713
2805.000000	0.004704
2804.000000	0.004702
2803.000000	0.004708
2802.000000	0.004714
2801.000000	0.004708
2800.000000	0.004689
2799.000000	0.004664
2798.000000	0.004644
2797.000000	0.004637
2796.000000	0.004643
2795.000000	0.004657
2794.000000	0.004670
2793.000000	0.004676
2792.000000	0.004671
2791.000000	0.004663
2790.000000	0.004656
2789.000000	0.004652
2788.000000	0.004652
2787.000000	0.004656
2786.000000	0.004662
2785.000000	0.004668
2784.000000	0.004673
2783.000000	0.004677
2782.000000	0.004678
2781.000000	0.004669
2780.000000	0.004646
2779.000000	0.004616
2778.000000	0.004594
2777.000000	0.004591
2776.000000	0.004605
2775.000000	0.004628
2774.000000	0.004651
2773.000000	0.004663
2772.000000	0.004661
2771.000000	0.004645
2770.000000	0.004621
2769.000000	0.004600
2768.000000	0.004590
2767.000000	0.004595
2766.000000	0.004607
2765.000000	0.004613
2764.000000	0.004608
2763.000000	0.004597
2762.000000	0.004588
2761.000000	0.004583
2760.000000	0.004585
2759.000000	0.004595
2758.000000	0.004611
2757.000000	0.004624
2756.000000	0.004623
2755.000000	0.004611
2754.000000	0.004598
2753.000000	0.004590
2752.000000	0.004586
2751.000000	0.004583
2750.000000	0.004581
2749.000000	0.004579
2748.000000	0.004577
2747.000000	0.004573
2746.000000	0.004567
2745.000000	0.004559
2744.000000	0.004548
2743.000000	0.004537
2742.000000	0.004535
2741.000000	0.004542
2740.000000	0.004548
2739.000000	0.004540
2738.000000	0.004518
2737.000000	0.004493
2736.000000	0.004473
2735.000000	0.004460
2734.000000	0.004453
2733.000000	0.004454
2732.000000	0.004470
2731.000000	0.004499
2730.000000	0.004527
2729.000000	0.004541
2728.000000	0.004537
2727.000000	0.004526
2726.000000	0.004517
2725.000000	0.004513
2724.000000	0.004511
2723.000000	0.004511
2722.000000	0.004516
2721.000000	0.004519
2720.000000	0.004512
2719.000000	0.004494
2718.000000	0.004475
2717.000000	0.004472
2716.000000	0.004485
2715.000000	0.004506
2714.000000	0.004520
2713.000000	0.004515
2712.000000	0.004493
2711.000000	0.004469
2710.000000	0.004455
2709.000000	0.004455
2708.000000	0.004458
2707.000000	0.004457
2706.000000	0.004458
2705.000000	0.004466
2704.000000	0.004481
2703.000000	0.004495
2702.000000	0.004501
2701.000000	0.004498
2700.000000	0.004492
2699.000000	0.004492
2698.000000	0.004501
2697.000000	0.004514
2696.000000	0.004518
2695.000000	0.004512
2694.000000	0.004505
2693.000000	0.004505
2692.000000	0.004508
2691.000000	0.004504
2690.000000	0.004495
2689.000000	0.004491
2688.000000	0.004496
2687.000000	0.004506
2686.000000	0.004512
2685.000000	0.004506
2684.000000	0.004491
2683.000000	0.004472
2682.000000	0.004456
2681.000000	0.004451
2680.000000	0.004456
2679.000000	0.004465
2678.000000	0.004470
2677.000000	0.004471
2676.000000	0.004468
2675.000000	0.004466
2674.000000	0.004466
2673.000000	0.004464
2672.000000	0.004459
2671.000000	0.004452
2670.000000	0.004450
2669.000000	0.004452
2668.000000	0.004456
2667.000000	0.004463
2666.000000	0.004480
2665.000000	0.004507
2664.000000	0.004531
2663.000000	0.004537
2662.000000	0.004525
2661.000000	0.004512
2660.000000	0.004509
2659.000000	0.004512
2658.000000	0.004510
2657.000000	0.004500
2656.000000	0.004490
2655.000000	0.004484
2654.000000	0.004475
2653.000000	0.004452
2652.000000	0.004414
2651.000000	0.004376
2650.000000	0.004356
2649.000000	0.004358
2648.000000	0.004368
2647.000000	0.004368
2646.000000	0.004355
2645.000000	0.004337
2644.000000	0.004330
2643.000000	0.004338
2642.000000	0.004353
2641.000000	0.004361
2640.000000	0.004352
2639.000000	0.004327
2638.000000	0.004303
2637.000000	0.004287
2636.000000	0.004274
2635.000000	0.004247
2634.000000	0.004209
2633.000000	0.004177
2632.000000	0.004169
2631.000000	0.004184
2630.000000	0.004213
2629.000000	0.004243
2628.000000	0.004262
2627.000000	0.004261
2626.000000	0.004240
2625.000000	0.004212
2624.000000	0.004191
2623.000000	0.004177
2622.000000	0.004160
2621.000000	0.004134
2620.000000	0.004101
2619.000000	0.004068
2618.000000	0.004044
2617.000000	0.004036
2616.000000	0.004046
2615.000000	0.004067
2614.000000	0.004085
2613.000000	0.004092
2612.000000	0.004089
2611.000000	0.004083
2610.000000	0.004081
2609.000000	0.004080
2608.000000	0.004076
2607.000000	0.004065
2606.000000	0.004054
2605.000000	0.004052
2604.000000	0.004059
2603.000000	0.004072
2602.000000	0.004085
2601.000000	0.004089
2600.000000	0.004077
2599.000000	0.004047
2598.000000	0.004010
2597.000000	0.003992
2596.000000	0.004007
2595.000000	0.004047
2594.000000	0.004088
2593.000000	0.004113
2592.000000	0.004117
2591.000000	0.004104
2590.000000	0.004080
2589.000000	0.004051
2588.000000	0.004031
2587.000000	0.004026
2586.000000	0.004030
2585.000000	0.004030
2584.000000	0.004020
2583.000000	0.004012
2582.000000	0.004022
2581.000000	0.004056
2580.000000	0.004097
2579.000000	0.004119
2578.000000	0.004106
2577.000000	0.004057
2576.000000	0.003987
2575.000000	0.003915
2574.000000	0.003865
2573.000000	0.003850
2572.000000	0.003863
2571.000000	0.003885
2570.000000	0.003906
2569.000000	0.003923
2568.000000	0.003934
2567.000000	0.003938
2566.000000	0.003939
2565.000000	0.003940
2564.000000	0.003936
2563.000000	0.003923
2562.000000	0.003913
2561.000000	0.003925
2560.000000	0.003961
2559.000000	0.003998
2558.000000	0.004012
2557.000000	0.004000
2556.000000	0.003973
2555.000000	0.003946
2554.000000	0.003934
2553.000000	0.003947
2552.000000	0.003976
2551.000000	0.003998
2550.000000	0.003997
2549.000000	0.003979
2548.000000	0.003962
2547.000000	0.003950
2546.000000	0.003936
2545.000000	0.003922
2544.000000	0.003919
2543.000000	0.003935
2542.000000	0.003963
2541.000000	0.003990
2540.000000	0.004009
2539.000000	0.004017
2538.000000	0.004019
2537.000000	0.004020
2536.000000	0.004019
2535.000000	0.004004
2534.000000	0.003965
2533.000000	0.003903
2532.000000	0.003843
2531.000000	0.003811
2530.000000	0.003820
2529.000000	0.003865
2528.000000	0.003927
2527.000000	0.003984
2526.000000	0.004021
2525.000000	0.004038
2524.000000	0.004041
2523.000000	0.004033
2522.000000	0.004014
2521.000000	0.003983
2520.000000	0.003950
2519.000000	0.003930
2518.000000	0.003933
2517.000000	0.003954
2516.000000	0.003979
2515.000000	0.003994
2514.000000	0.003992
2513.000000	0.003972
2512.000000	0.003939
2511.000000	0.003915
2510.000000	0.003920
2509.000000	0.003955
2508.000000	0.003992
2507.000000	0.004010
2506.000000	0.004006
2505.000000	0.003987
2504.000000	0.003952
2503.000000	0.003900
2502.000000	0.003854
2501.000000	0.003837
2500.000000	0.003851
2499.000000	0.003869
2498.000000	0.003875
2497.000000	0.003878
2496.000000	0.003893
2495.000000	0.003921
2494.000000	0.003950
2493.000000	0.003974
2492.000000	0.003990
2491.000000	0.003993
2490.000000	0.003984
2489.000000	0.003967
2488.000000	0.003948
2487.000000	0.003935
2486.000000	0.003938
2485.000000	0.003960
2484.000000	0.003986
2483.000000	0.003995
2482.000000	0.003974
2481.000000	0.003936
2480.000000	0.003901
2479.000000	0.003878
2478.000000	0.003867
2477.000000	0.003870
2476.000000	0.003888
2475.000000	0.003911
2474.000000	0.003923
2473.000000	0.003916
2472.000000	0.003893
2471.000000	0.003869
2470.000000	0.003852
2469.000000	0.003849
2468.000000	0.003862
2467.000000	0.003893
2466.000000	0.003936
2465.000000	0.003974
2464.000000	0.003989
2463.000000	0.003974
2462.000000	0.003943
2461.000000	0.003915
2460.000000	0.003901
2459.000000	0.003897
2458.000000	0.003892
2457.000000	0.003882
2456.000000	0.003871
2455.000000	0.003867
2454.000000	0.003878
2453.000000	0.003897
2452.000000	0.003910
2451.000000	0.003913
2450.000000	0.003911
2449.000000	0.003902
2448.000000	0.003878
2447.000000	0.003836
2446.000000	0.003801
2445.000000	0.003800
2444.000000	0.003835
2443.000000	0.003878
2442.000000	0.003903
2441.000000	0.003900
2440.000000	0.003872
2439.000000	0.003835
2438.000000	0.003818
2437.000000	0.003839
2436.000000	0.003889
2435.000000	0.003934
2434.000000	0.003956
2433.000000	0.003953
2432.000000	0.003934
2431.000000	0.003907
2430.000000	0.003884
2429.000000	0.003877
2428.000000	0.003883
2427.000000	0.003885
2426.000000	0.003872
2425.000000	0.003856
2424.000000	0.003852
2423.000000	0.003863
2422.000000	0.003884
2421.000000	0.003908
2420.000000	0.003923
2419.000000	0.003923
2418.000000	0.003914
2417.000000	0.003908
2416.000000	0.003909
2415.000000	0.003907
2414.000000	0.003896
2413.000000	0.003887
2412.000000	0.003892
2411.000000	0.003904
2410.000000	0.003907
2409.000000	0.003886
2408.000000	0.003843
2407.000000	0.003798
2406.000000	0.003771
2405.000000	0.003773
2404.000000	0.003799
2403.000000	0.003839
2402.000000	0.003880
2401.000000	0.003908
2400.000000	0.003906
2399.000000	0.003872
2398.000000	0.003830
2397.000000	0.003814
2396.000000	0.003836
2395.000000	0.003875
2394.000000	0.003902
2393.000000	0.003901
2392.000000	0.003877
2391.000000	0.003845
2390.000000	0.003821
2389.000000	0.003820
2388.000000	0.003845
2387.000000	0.003886
2386.000000	0.003924
2385.000000	0.003932
2384.000000	0.003887
2383.000000	0.003786
2382.000000	0.003653
2381.000000	0.003527
2380.000000	0.003445
2379.000000	0.003446
2378.000000	0.003549
2377.000000	0.003719
2376.000000	0.003880
2375.000000	0.003972
2374.000000	0.003995
2373.000000	0.003977
2372.000000	0.003932
2371.000000	0.003875
2370.000000	0.003833
2369.000000	0.003808
2368.000000	0.003784
2367.000000	0.003766
2366.000000	0.003791
2365.000000	0.003867
2364.000000	0.003949
2363.000000	0.004020
2362.000000	0.004101
2361.000000	0.004190
2360.000000	0.004244
2359.000000	0.004233
2358.000000	0.004168
2357.000000	0.004075
2356.000000	0.004007
2355.000000	0.004023
2354.000000	0.004057
2353.000000	0.003987
2352.000000	0.003836
2351.000000	0.003766
2350.000000	0.003857
2349.000000	0.004043
2348.000000	0.004192
2347.000000	0.004194
2346.000000	0.004071
2345.000000	0.003997
2344.000000	0.004078
2343.000000	0.004222
2342.000000	0.004290
2341.000000	0.004246
2340.000000	0.004163
2339.000000	0.004114
2338.000000	0.004101
2337.000000	0.004095
2336.000000	0.004104
2335.000000	0.004128
2334.000000	0.004121
2333.000000	0.004027
2332.000000	0.003900
2331.000000	0.003833
2330.000000	0.003870
2329.000000	0.003970
2328.000000	0.004095
2327.000000	0.004203
2326.000000	0.004252
2325.000000	0.004219
2324.000000	0.004141
2323.000000	0.004074
2322.000000	0.004066
2321.000000	0.004135
2320.000000	0.004280
2319.000000	0.004452
2318.000000	0.004582
2317.000000	0.004622
2316.000000	0.004576
2315.000000	0.004470
2314.000000	0.004344
2313.000000	0.004227
2312.000000	0.004148
2311.000000	0.004092
2310.000000	0.004035
2309.000000	0.003980
2308.000000	0.003954
2307.000000	0.003959
2306.000000	0.003967
2305.000000	0.003953
2304.000000	0.003922
2303.000000	0.003885
2302.000000	0.003854
2301.000000	0.003843
2300.000000	0.003867
2299.000000	0.003920
2298.000000	0.003984
2297.000000	0.004037
2296.000000	0.004068
2295.000000	0.004061
2294.000000	0.004020
2293.000000	0.003976
2292.000000	0.003968
2291.000000	0.004004
2290.000000	0.004058
2289.000000	0.004112
2288.000000	0.004170
2287.000000	0.004231
2286.000000	0.004268
2285.000000	0.004255
2284.000000	0.004202
2283.000000	0.004149
2282.000000	0.004127
2281.000000	0.004137
2280.000000	0.004145
2279.000000	0.004120
2278.000000	0.004066
2277.000000	0.004015
2276.000000	0.003994
2275.000000	0.003992
2274.000000	0.003982
2273.000000	0.003955
2272.000000	0.003914
2271.000000	0.003861
2270.000000	0.003802
2269.000000	0.003774
2268.000000	0.003812
2267.000000	0.003901
2266.000000	0.003983
2265.000000	0.004005
2264.000000	0.003965
2263.000000	0.003899
2262.000000	0.003846
2261.000000	0.003829
2260.000000	0.003844
2259.000000	0.003865
2258.000000	0.003869
2257.000000	0.003860
2256.000000	0.003858
2255.000000	0.003870
2254.000000	0.003894
2253.000000	0.003923
2252.000000	0.003944
2251.000000	0.003933
2250.000000	0.003886
2249.000000	0.003826
2248.000000	0.003779
2247.000000	0.003748
2246.000000	0.003734
2245.000000	0.003749
2244.000000	0.003794
2243.000000	0.003840
2242.000000	0.003869
2241.000000	0.003900
2240.000000	0.003945
2239.000000	0.003964
2238.000000	0.003910
2237.000000	0.003811
2236.000000	0.003744
2235.000000	0.003747
2234.000000	0.003787
2233.000000	0.003812
2232.000000	0.003806
2231.000000	0.003776
2230.000000	0.003737
2229.000000	0.003703
2228.000000	0.003674
2227.000000	0.003623
2226.000000	0.003526
2225.000000	0.003404
2224.000000	0.003308
2223.000000	0.003279
2222.000000	0.003319
2221.000000	0.003408
2220.000000	0.003500
2219.000000	0.003538
2218.000000	0.003502
2217.000000	0.003431
2216.000000	0.003383
2215.000000	0.003377
2214.000000	0.003400
2213.000000	0.003449
2212.000000	0.003518
2211.000000	0.003578
2210.000000	0.003598
2209.000000	0.003585
2208.000000	0.003571
2207.000000	0.003572
2206.000000	0.003597
2205.000000	0.003676
2204.000000	0.003822
2203.000000	0.003977
2202.000000	0.004045
2201.000000	0.003985
2200.000000	0.003842
2199.000000	0.003695
2198.000000	0.003600
2197.000000	0.003577
2196.000000	0.003616
2195.000000	0.003684
2194.000000	0.003738
2193.000000	0.003751
2192.000000	0.003701
2191.000000	0.003577
2190.000000	0.003406
2189.000000	0.003254
2188.000000	0.003177
2187.000000	0.003188
2186.000000	0.003278
2185.000000	0.003427
2184.000000	0.003560
2183.000000	0.003575
2182.000000	0.003468
2181.000000	0.003386
2180.000000	0.003459
2179.000000	0.003622
2178.000000	0.003701
2177.000000	0.003630
2176.000000	0.003513
2175.000000	0.003462
2174.000000	0.003475
2173.000000	0.003481
2172.000000	0.003463
2171.000000	0.003466
2170.000000	0.003522
2169.000000	0.003607
2168.000000	0.003661
2167.000000	0.003659
2166.000000	0.003642
2165.000000	0.003658
2164.000000	0.003689
2163.000000	0.003653
2162.000000	0.003501
2161.000000	0.003273
2160.000000	0.003059
2159.000000	0.002963
2158.000000	0.003065
2157.000000	0.003328
2156.000000	0.003559
2155.000000	0.003588
2154.000000	0.003456
2153.000000	0.003355
2152.000000	0.003385
2151.000000	0.003457
2150.000000	0.003442
2149.000000	0.003322
2148.000000	0.003162
2147.000000	0.003021
2146.000000	0.002966
2145.000000	0.003063
2144.000000	0.003275
2143.000000	0.003451
2142.000000	0.003477
2141.000000	0.003419
2140.000000	0.003433
2139.000000	0.003567
2138.000000	0.003720
2137.000000	0.003779
2136.000000	0.003733
2135.000000	0.003649
2134.000000	0.003591
2133.000000	0.003581
2132.000000	0.003598
2131.000000	0.003608
2130.000000	0.003593
2129.000000	0.003563
2128.000000	0.003528
2127.000000	0.003489
2126.000000	0.003444
2125.000000	0.003403
2124.000000	0.003369
2123.000000	0.003336
2122.000000	0.003309
2121.000000	0.003329
2120.000000	0.003431
2119.000000	0.003590
2118.000000	0.003729
2117.000000	0.003774
2116.000000	0.003708
2115.000000	0.003578
2114.000000	0.003468
2113.000000	0.003441
2112.000000	0.003503
2111.000000	0.003601
2110.000000	0.003678
2109.000000	0.003707
2108.000000	0.003701
2107.000000	0.003697
2106.000000	0.003733
2105.000000	0.003818
2104.000000	0.003919
2103.000000	0.003989
2102.000000	0.004014
2101.000000	0.004015
2100.000000	0.004010
2099.000000	0.003996
2098.000000	0.003977
2097.000000	0.003961
2096.000000	0.003940
2095.000000	0.003894
2094.000000	0.003824
2093.000000	0.003757
2092.000000	0.003710
2091.000000	0.003681
2090.000000	0.003676
2089.000000	0.003698
2088.000000	0.003719
2087.000000	0.003711
2086.000000	0.003697
2085.000000	0.003737
2084.000000	0.003831
2083.000000	0.003902
2082.000000	0.003886
2081.000000	0.003813
2080.000000	0.003748
2079.000000	0.003711
2078.000000	0.003687
2077.000000	0.003685
2076.000000	0.003731
2075.000000	0.003819
2074.000000	0.003904
2073.000000	0.003940
2072.000000	0.003894
2071.000000	0.003771
2070.000000	0.003645
2069.000000	0.003625
2068.000000	0.003750
2067.000000	0.003933
2066.000000	0.004049
2065.000000	0.004047
2064.000000	0.003951
2063.000000	0.003802
2062.000000	0.003651
2061.000000	0.003571
2060.000000	0.003607
2059.000000	0.003727
2058.000000	0.003848
2057.000000	0.003914
2056.000000	0.003906
2055.000000	0.003825
2054.000000	0.003708
2053.000000	0.003622
2052.000000	0.003582
2051.000000	0.003520
2050.000000	0.003374
2049.000000	0.003194
2048.000000	0.003100
2047.000000	0.003132
2046.000000	0.003233
2045.000000	0.003340
2044.000000	0.003436
2043.000000	0.003507
2042.000000	0.003552
2041.000000	0.003590
2040.000000	0.003631
2039.000000	0.003632
2038.000000	0.003552
2037.000000	0.003419
2036.000000	0.003307
2035.000000	0.003246
2034.000000	0.003219
2033.000000	0.003205
2032.000000	0.003180
2031.000000	0.003111
2030.000000	0.003018
2029.000000	0.002991
2028.000000	0.003089
2027.000000	0.003252
2026.000000	0.003372
2025.000000	0.003387
2024.000000	0.003290
2023.000000	0.003098
2022.000000	0.002885
2021.000000	0.002771
2020.000000	0.002814
2019.000000	0.002927
2018.000000	0.002978
2017.000000	0.002940
2016.000000	0.002890
2015.000000	0.002896
2014.000000	0.002956
2013.000000	0.003027
2012.000000	0.003080
2011.000000	0.003118
2010.000000	0.003165
2009.000000	0.003224
2008.000000	0.003260
2007.000000	0.003260
2006.000000	0.003269
2005.000000	0.003314
2004.000000	0.003335
2003.000000	0.003275
2002.000000	0.003187
2001.000000	0.003180
2000.000000	0.003270
1999.000000	0.003381
1998.000000	0.003469
1997.000000	0.003553
1996.000000	0.003621
1995.000000	0.003623
1994.000000	0.003581
1993.000000	0.003593
1992.000000	0.003682
1991.000000	0.003756
1990.000000	0.003760
1989.000000	0.003752
1988.000000	0.003773
1987.000000	0.003760
1986.000000	0.003654
1985.000000	0.003519
1984.000000	0.003450
1983.000000	0.003464
1982.000000	0.003523
1981.000000	0.003600
1980.000000	0.003638
1979.000000	0.003531
1978.000000	0.003252
1977.000000	0.002943
1976.000000	0.002770
1975.000000	0.002745
1974.000000	0.002789
1973.000000	0.002858
1972.000000	0.002918
1971.000000	0.002902
1970.000000	0.002777
1969.000000	0.002608
1968.000000	0.002485
1967.000000	0.002441
1966.000000	0.002470
1965.000000	0.002547
1964.000000	0.002617
1963.000000	0.002644
1962.000000	0.002689
1961.000000	0.002855
1960.000000	0.003119
1959.000000	0.003333
1958.000000	0.003416
1957.000000	0.003438
1956.000000	0.003485
1955.000000	0.003550
1954.000000	0.003596
1953.000000	0.003637
1952.000000	0.003684
1951.000000	0.003696
1950.000000	0.003634
1949.000000	0.003527
1948.000000	0.003428
1947.000000	0.003367
1946.000000	0.003363
1945.000000	0.003442
1944.000000	0.003598
1943.000000	0.003754
1942.000000	0.003823
1941.000000	0.003787
1940.000000	0.003687
1939.000000	0.003575
1938.000000	0.003506
1937.000000	0.003514
1936.000000	0.003572
1935.000000	0.003609
1934.000000	0.003589
1933.000000	0.003536
1932.000000	0.003487
1931.000000	0.003457
1930.000000	0.003462
1929.000000	0.003514
1928.000000	0.003580
1927.000000	0.003613
1926.000000	0.003620
1925.000000	0.003652
1924.000000	0.003719
1923.000000	0.003754
1922.000000	0.003707
1921.000000	0.003606
1920.000000	0.003501
1919.000000	0.003411
1918.000000	0.003340
1917.000000	0.003319
1916.000000	0.003369
1915.000000	0.003484
1914.000000	0.003643
1913.000000	0.003811
1912.000000	0.003920
1911.000000	0.003904
1910.000000	0.003773
1909.000000	0.003617
1908.000000	0.003508
1907.000000	0.003440
1906.000000	0.003399
1905.000000	0.003409
1904.000000	0.003486
1903.000000	0.003588
1902.000000	0.003659
1901.000000	0.003697
1900.000000	0.003724
1899.000000	0.003737
1898.000000	0.003717
1897.000000	0.003673
1896.000000	0.003629
1895.000000	0.003588
1894.000000	0.003549
1893.000000	0.003531
1892.000000	0.003541
1891.000000	0.003557
1890.000000	0.003552
1889.000000	0.003536
1888.000000	0.003534
1887.000000	0.003538
1886.000000	0.003524
1885.000000	0.003503
1884.000000	0.003513
1883.000000	0.003561
1882.000000	0.003619
1881.000000	0.003665
1880.000000	0.003698
1879.000000	0.003720
1878.000000	0.003724
1877.000000	0.003702
1876.000000	0.003659
1875.000000	0.003609
1874.000000	0.003573
1873.000000	0.003571
1872.000000	0.003596
1871.000000	0.003622
1870.000000	0.003646
1869.000000	0.003692
1868.000000	0.003758
1867.000000	0.003811
1866.000000	0.003823
1865.000000	0.003802
1864.000000	0.003770
1863.000000	0.003738
1862.000000	0.003707
1861.000000	0.003687
1860.000000	0.003694
1859.000000	0.003721
1858.000000	0.003748
1857.000000	0.003759
1856.000000	0.003753
1855.000000	0.003736
1854.000000	0.003722
1853.000000	0.003729
1852.000000	0.003762
1851.000000	0.003804
1850.000000	0.003839
1849.000000	0.003859
1848.000000	0.003861
1847.000000	0.003830
1846.000000	0.003761
1845.000000	0.003688
1844.000000	0.003653
1843.000000	0.003658
1842.000000	0.003672
1841.000000	0.003677
1840.000000	0.003667
1839.000000	0.003637
1838.000000	0.003596
1837.000000	0.003567
1836.000000	0.003561
1835.000000	0.003573
1834.000000	0.003600
1833.000000	0.003636
1832.000000	0.003654
1831.000000	0.003623
1830.000000	0.003553
1829.000000	0.003504
1828.000000	0.003516
1827.000000	0.003559
1826.000000	0.003595
1825.000000	0.003618
1824.000000	0.003639
1823.000000	0.003658
1822.000000	0.003674
1821.000000	0.003691
1820.000000	0.003709
1819.000000	0.003710
1818.000000	0.003680
1817.000000	0.003627
1816.000000	0.003580
1815.000000	0.003570
1814.000000	0.003602
1813.000000	0.003647
1812.000000	0.003660
1811.000000	0.003627
1810.000000	0.003582
1809.000000	0.003562
1808.000000	0.003569
1807.000000	0.003587
1806.000000	0.003603
1805.000000	0.003617
1804.000000	0.003619
1803.000000	0.003599
1802.000000	0.003564
1801.000000	0.003542
1800.000000	0.003561
1799.000000	0.003628
1798.000000	0.003720
1797.000000	0.003797
1796.000000	0.003826
1795.000000	0.003793
1794.000000	0.003708
1793.000000	0.003616
1792.000000	0.003571
1791.000000	0.003592
1790.000000	0.003654
1789.000000	0.003712
1788.000000	0.003739
1787.000000	0.003726
1786.000000	0.003688
1785.000000	0.003647
1784.000000	0.003611
1783.000000	0.003581
1782.000000	0.003557
1781.000000	0.003538
1780.000000	0.003523
1779.000000	0.003508
1778.000000	0.003497
1777.000000	0.003505
1776.000000	0.003530
1775.000000	0.003541
1774.000000	0.003497
1773.000000	0.003407
1772.000000	0.003329
1771.000000	0.003313
1770.000000	0.003368
1769.000000	0.003450
1768.000000	0.003489
1767.000000	0.003457
1766.000000	0.003405
1765.000000	0.003378
1764.000000	0.003365
1763.000000	0.003320
1762.000000	0.003249
1761.000000	0.003205
1760.000000	0.003209
1759.000000	0.003221
1758.000000	0.003195
1757.000000	0.003126
1756.000000	0.003043
1755.000000	0.002982
1754.000000	0.002962
1753.000000	0.002968
1752.000000	0.002956
1751.000000	0.002877
1750.000000	0.002738
1749.000000	0.002614
1748.000000	0.002546
1747.000000	0.002514
1746.000000	0.002502
1745.000000	0.002520
1744.000000	0.002560
1743.000000	0.002588
1742.000000	0.002600
1741.000000	0.002645
1740.000000	0.002756
1739.000000	0.002912
1738.000000	0.003092
1737.000000	0.003297
1736.000000	0.003494
1735.000000	0.003616
1734.000000	0.003639
1733.000000	0.003633
1732.000000	0.003675
1731.000000	0.003746
1730.000000	0.003796
1729.000000	0.003815
1728.000000	0.003823
1727.000000	0.003825
1726.000000	0.003820
1725.000000	0.003821
1724.000000	0.003837
1723.000000	0.003846
1722.000000	0.003840
1721.000000	0.003838
1720.000000	0.003847
1719.000000	0.003848
1718.000000	0.003833
1717.000000	0.003807
1716.000000	0.003786
1715.000000	0.003789
1714.000000	0.003814
1713.000000	0.003861
1712.000000	0.003928
1711.000000	0.003996
1710.000000	0.004052
1709.000000	0.004098
1708.000000	0.004134
1707.000000	0.004151
1706.000000	0.004154
1705.000000	0.004168
1704.000000	0.004226
1703.000000	0.004318
1702.000000	0.004374
1701.000000	0.004365
1700.000000	0.004388
1699.000000	0.004536
1698.000000	0.004792
1697.000000	0.005062
1696.000000	0.005245
1695.000000	0.005338
1694.000000	0.005420
1693.000000	0.005539
1692.000000	0.005687
1691.000000	0.005824
1690.000000	0.005938
1689.000000	0.006061
1688.000000	0.006213
1687.000000	0.006360
1686.000000	0.006431
1685.000000	0.006434
1684.000000	0.006469
1683.000000	0.006582
1682.000000	0.006793
1681.000000	0.007072
1680.000000	0.007336
1679.000000	0.007517
1678.000000	0.007620
1677.000000	0.007704
1676.000000	0.007823
1675.000000	0.007976
1674.000000	0.008143
1673.000000	0.008332
1672.000000	0.008549
1671.000000	0.008767
1670.000000	0.008969
1669.000000	0.009176
1668.000000	0.009403
1667.000000	0.009619
1666.000000	0.009805
1665.000000	0.009979
1664.000000	0.010164
1663.000000	0.010358
1662.000000	0.010548
1661.000000	0.010748
1660.000000	0.010968
1659.000000	0.011158
1658.000000	0.011272
1657.000000	0.011331
1656.000000	0.011386
1655.000000	0.011419
1654.000000	0.011429
1653.000000	0.011517
1652.000000	0.011672
1651.000000	0.011780
1650.000000	0.011825
1649.000000	0.011885
1648.000000	0.012005
1647.000000	0.012155
1646.000000	0.012264
1645.000000	0.012336
1644.000000	0.012399
1643.000000	0.012446
1642.000000	0.012467
1641.000000	0.012468
1640.000000	0.012460
1639.000000	0.012443
1638.000000	0.012409
1637.000000	0.012375
1636.000000	0.012391
1635.000000	0.012444
1634.000000	0.012494
1633.000000	0.012542
1632.000000	0.012576
1631.000000	0.012562
1630.000000	0.012481
1629.000000	0.012372
1628.000000	0.012288
1627.000000	0.012220
1626.000000	0.012120
1625.000000	0.011980
1624.000000	0.011833
1623.000000	0.011701
1622.000000	0.011571
1621.000000	0.011442
1620.000000	0.011320
1619.000000	0.011176
1618.000000	0.010973
1617.000000	0.010731
1616.000000	0.010521
1615.000000	0.010355
1614.000000	0.010200
1613.000000	0.010048
1612.000000	0.009898
1611.000000	0.009739
1610.000000	0.009570
1609.000000	0.009414
1608.000000	0.009288
1607.000000	0.009172
1606.000000	0.009044
1605.000000	0.008912
1604.000000	0.008793
1603.000000	0.008669
1602.000000	0.008511
1601.000000	0.008341
1600.000000	0.008203
1599.000000	0.008104
1598.000000	0.008019
1597.000000	0.007938
1596.000000	0.007867
1595.000000	0.007803
1594.000000	0.007736
1593.000000	0.007673
1592.000000	0.007628
1591.000000	0.007593
1590.000000	0.007547
1589.000000	0.007503
1588.000000	0.007488
1587.000000	0.007500
1586.000000	0.007511
1585.000000	0.007512
1584.000000	0.007518
1583.000000	0.007534
1582.000000	0.007544
1581.000000	0.007548
1580.000000	0.007572
1579.000000	0.007625
1578.000000	0.007682
1577.000000	0.007723
1576.000000	0.007762
1575.000000	0.007799
1574.000000	0.007830
1573.000000	0.007874
1572.000000	0.007924
1571.000000	0.007964
1570.000000	0.008020
1569.000000	0.008133
1568.000000	0.008304
1567.000000	0.008478
1566.000000	0.008619
1565.000000	0.008739
1564.000000	0.008856
1563.000000	0.008965
1562.000000	0.009031
1561.000000	0.009017
1560.000000	0.009021
1559.000000	0.009194
1558.000000	0.009347
1557.000000	0.009525
1556.000000	0.009781
1555.000000	0.010034
1554.000000	0.010227
1553.000000	0.010375
1552.000000	0.010519
1551.000000	0.010664
1550.000000	0.010780
1549.000000	0.010859
1548.000000	0.010917
1547.000000	0.010967
1546.000000	0.011008
1545.000000	0.011045
1544.000000	0.011070
1543.000000	0.011077
1542.000000	0.011090
1541.000000	0.011158
1540.000000	0.011265
1539.000000	0.011325
1538.000000	0.011338
1537.000000	0.011340
1536.000000	0.011348
1535.000000	0.011350
1534.000000	0.011344
1533.000000	0.011335
1532.000000	0.011325
1531.000000	0.011320
1530.000000	0.011307
1529.000000	0.011288
1528.000000	0.011270
1527.000000	0.011234
1526.000000	0.011159
1525.000000	0.011065
1524.000000	0.010991
1523.000000	0.010940
1522.000000	0.010884
1521.000000	0.010797
1520.000000	0.010687
1519.000000	0.010589
1518.000000	0.010529
1517.000000	0.010516
1516.000000	0.010520
1515.000000	0.010505
1514.000000	0.010465
1513.000000	0.010411
1512.000000	0.010352
1511.000000	0.010293
1510.000000	0.010244
1509.000000	0.010203
1508.000000	0.010115
1507.000000	0.009884
1506.000000	0.009575
1505.000000	0.009429
1504.000000	0.009433
1503.000000	0.009462
1502.000000	0.009451
1501.000000	0.009377
1500.000000	0.009251
1499.000000	0.009107
1498.000000	0.008998
1497.000000	0.008950
1496.000000	0.008921
1495.000000	0.008861
1494.000000	0.008784
1493.000000	0.008725
1492.000000	0.008695
1491.000000	0.008677
1490.000000	0.008649
1489.000000	0.008598
1488.000000	0.008539
1487.000000	0.008505
1486.000000	0.008505
1485.000000	0.008536
1484.000000	0.008588
1483.000000	0.008636
1482.000000	0.008675
1481.000000	0.008720
1480.000000	0.008777
1479.000000	0.008828
1478.000000	0.008865
1477.000000	0.008915
1476.000000	0.008997
1475.000000	0.009108
1474.000000	0.009235
1473.000000	0.009376
1472.000000	0.009508
1471.000000	0.009622
1470.000000	0.009747
1469.000000	0.009893
1468.000000	0.010036
1467.000000	0.010159
1466.000000	0.010284
1465.000000	0.010450
1464.000000	0.010647
1463.000000	0.010823
1462.000000	0.010955
1461.000000	0.011060
1460.000000	0.011158
1459.000000	0.011254
1458.000000	0.011362
1457.000000	0.011508
1456.000000	0.011655
1455.000000	0.011776
1454.000000	0.011894
1453.000000	0.012036
1452.000000	0.012181
1451.000000	0.012288
1450.000000	0.012366
1449.000000	0.012452
1448.000000	0.012546
1447.000000	0.012612
1446.000000	0.012660
1445.000000	0.012723
1444.000000	0.012806
1443.000000	0.012881
1442.000000	0.012941
1441.000000	0.013004
1440.000000	0.013071
1439.000000	0.013107
1438.000000	0.013111
1437.000000	0.013140
1436.000000	0.013213
1435.000000	0.013277
1434.000000	0.013321
1433.000000	0.013361
1432.000000	0.013388
1431.000000	0.013383
1430.000000	0.013364
1429.000000	0.013379
1428.000000	0.013431
1427.000000	0.013483
1426.000000	0.013528
1425.000000	0.013593
1424.000000	0.013675
1423.000000	0.013726
1422.000000	0.013742
1421.000000	0.013765
1420.000000	0.013822
1419.000000	0.013889
1418.000000	0.013937
1417.000000	0.013987
1416.000000	0.014035
1415.000000	0.014051
1414.000000	0.014049
1413.000000	0.014082
1412.000000	0.014159
1411.000000	0.014226
1410.000000	0.014256
1409.000000	0.014280
1408.000000	0.014307
1407.000000	0.014314
1406.000000	0.014300
1405.000000	0.014306
1404.000000	0.014330
1403.000000	0.014330
1402.000000	0.014297
1401.000000	0.014267
1400.000000	0.014258
1399.000000	0.014240
1398.000000	0.014201
1397.000000	0.014179
1396.000000	0.014177
1395.000000	0.014145
1394.000000	0.014073
1393.000000	0.014025
1392.000000	0.014022
1391.000000	0.014016
1390.000000	0.013979
1389.000000	0.013931
1388.000000	0.013885
1387.000000	0.013814
1386.000000	0.013714
1385.000000	0.013632
1384.000000	0.013587
1383.000000	0.013546
1382.000000	0.013491
1381.000000	0.013441
1380.000000	0.013405
1379.000000	0.013350
1378.000000	0.013256
1377.000000	0.013153
1376.000000	0.013077
1375.000000	0.013018
1374.000000	0.012946
1373.000000	0.012869
1372.000000	0.012807
1371.000000	0.012747
1370.000000	0.012662
1369.000000	0.012563
1368.000000	0.012459
1367.000000	0.012340
1366.000000	0.012201
1365.000000	0.012071
1364.000000	0.011973
1363.000000	0.011889
1362.000000	0.011785
1361.000000	0.011673
1360.000000	0.011580
1359.000000	0.011502
1358.000000	0.011427
1357.000000	0.011361
1356.000000	0.011304
1355.000000	0.011239
1354.000000	0.011160
1353.000000	0.011090
1352.000000	0.011049
1351.000000	0.011021
1350.000000	0.010989
1349.000000	0.010966
1348.000000	0.010969
1347.000000	0.010986
1346.000000	0.010999
1345.000000	0.011018
1344.000000	0.011055
1343.000000	0.011106
1342.000000	0.011160
1341.000000	0.011217
1340.000000	0.011263
1339.000000	0.011264
1338.000000	0.011219
1337.000000	0.011176
1336.000000	0.011157
1335.000000	0.011135
1334.000000	0.011080
1333.000000	0.011008
1332.000000	0.010946
1331.000000	0.010889
1330.000000	0.010819
1329.000000	0.010740
1328.000000	0.010662
1327.000000	0.010585
1326.000000	0.010512
1325.000000	0.010463
1324.000000	0.010442
1323.000000	0.010417
1322.000000	0.010368
1321.000000	0.010312
1320.000000	0.010268
1319.000000	0.010225
1318.000000	0.010173
1317.000000	0.010130
1316.000000	0.010107
1315.000000	0.010075
1314.000000	0.010000
1313.000000	0.009892
1312.000000	0.009780
1311.000000	0.009681
1310.000000	0.009599
1309.000000	0.009534
1308.000000	0.009472
1307.000000	0.009390
1306.000000	0.009294
1305.000000	0.009222
1304.000000	0.009184
1303.000000	0.009148
1302.000000	0.009094
1301.000000	0.009044
1300.000000	0.009010
1299.000000	0.008965
1298.000000	0.008889
1297.000000	0.008806
1296.000000	0.008748
1295.000000	0.008709
1294.000000	0.008679
1293.000000	0.008667
1292.000000	0.008677
1291.000000	0.008683
1290.000000	0.008671
1289.000000	0.008664
1288.000000	0.008672
1287.000000	0.008672
1286.000000	0.008650
1285.000000	0.008630
1284.000000	0.008632
1283.000000	0.008634
1282.000000	0.008611
1281.000000	0.008580
1280.000000	0.008566
1279.000000	0.008561
1278.000000	0.008544
1277.000000	0.008518
1276.000000	0.008492
1275.000000	0.008459
1274.000000	0.008424
1273.000000	0.008412
1272.000000	0.008425
1271.000000	0.008430
1270.000000	0.008409
1269.000000	0.008393
1268.000000	0.008403
1267.000000	0.008423
1266.000000	0.008430
1265.000000	0.008435
1264.000000	0.008443
1263.000000	0.008428
1262.000000	0.008381
1261.000000	0.008344
1260.000000	0.008358
1259.000000	0.008414
1258.000000	0.008488
1257.000000	0.008575
1256.000000	0.008663
1255.000000	0.008719
1254.000000	0.008738
1253.000000	0.008760
1252.000000	0.008806
1251.000000	0.008850
1250.000000	0.008867
1249.000000	0.008881
1248.000000	0.008913
1247.000000	0.008942
1246.000000	0.008958
1245.000000	0.008992
1244.000000	0.009072
1243.000000	0.009181
1242.000000	0.009289
1241.000000	0.009394
1240.000000	0.009489
1239.000000	0.009542
1238.000000	0.009545
1237.000000	0.009538
1236.000000	0.009550
1235.000000	0.009559
1234.000000	0.009539
1233.000000	0.009510
1232.000000	0.009493
1231.000000	0.009470
1230.000000	0.009419
1229.000000	0.009359
1228.000000	0.009311
1227.000000	0.009257
1226.000000	0.009175
1225.000000	0.009077
1224.000000	0.008978
1223.000000	0.008866
1222.000000	0.008732
1221.000000	0.008597
1220.000000	0.008476
1219.000000	0.008356
1218.000000	0.008236
1217.000000	0.008143
1216.000000	0.008087
1215.000000	0.008034
1214.000000	0.007965
1213.000000	0.007908
1212.000000	0.007888
1211.000000	0.007883
1210.000000	0.007873
1209.000000	0.007880
1208.000000	0.007916
1207.000000	0.007953
1206.000000	0.007964
1205.000000	0.007969
1204.000000	0.007989
1203.000000	0.008006
1202.000000	0.007997
1201.000000	0.007972
1200.000000	0.007934
1199.000000	0.007864
1198.000000	0.007757
1197.000000	0.007652
1196.000000	0.007573
1195.000000	0.007498
1194.000000	0.007407
1193.000000	0.007323
1192.000000	0.007262
1191.000000	0.007192
1190.000000	0.007089
1189.000000	0.006977
1188.000000	0.006890
1187.000000	0.006818
1186.000000	0.006746
1185.000000	0.006689
1184.000000	0.006663
1183.000000	0.006640
1182.000000	0.006593
1181.000000	0.006536
1180.000000	0.006491
1179.000000	0.006449
1178.000000	0.006407
1177.000000	0.006388
1176.000000	0.006399
1175.000000	0.006405
1174.000000	0.006385
1173.000000	0.006372
1172.000000	0.006396
1171.000000	0.006435
1170.000000	0.006459
1169.000000	0.006478
1168.000000	0.006500
1167.000000	0.006501
1166.000000	0.006473
1165.000000	0.006454
1164.000000	0.006474
1163.000000	0.006511
1162.000000	0.006544
1161.000000	0.006585
1160.000000	0.006638
1159.000000	0.006661
1158.000000	0.006637
1157.000000	0.006611
1156.000000	0.006626
1155.000000	0.006657
1154.000000	0.006668
1153.000000	0.006662
1152.000000	0.006652
1151.000000	0.006621
1150.000000	0.006565
1149.000000	0.006526
1148.000000	0.006519
1147.000000	0.006504
1146.000000	0.006452
1145.000000	0.006398
1144.000000	0.006371
1143.000000	0.006334
1142.000000	0.006252
1141.000000	0.006162
1140.000000	0.006115
1139.000000	0.006099
1138.000000	0.006080
1137.000000	0.006057
1136.000000	0.006037
1135.000000	0.006000
1134.000000	0.005939
1133.000000	0.005890
1132.000000	0.005871
1131.000000	0.005849
1130.000000	0.005800
1129.000000	0.005761
1128.000000	0.005765
1127.000000	0.005781
1126.000000	0.005774
1125.000000	0.005764
1124.000000	0.005772
1123.000000	0.005770
1122.000000	0.005732
1121.000000	0.005688
1120.000000	0.005668
1119.000000	0.005650
1118.000000	0.005617
1117.000000	0.005598
1116.000000	0.005617
1115.000000	0.005644
1114.000000	0.005653
1113.000000	0.005679
1112.000000	0.005739
1111.000000	0.005791
1110.000000	0.005804
1109.000000	0.005823
1108.000000	0.005889
1107.000000	0.005963
1106.000000	0.005994
1105.000000	0.005996
1104.000000	0.006005
1103.000000	0.006013
1102.000000	0.006007
1101.000000	0.006022
1100.000000	0.006069
1099.000000	0.006101
1098.000000	0.006088
1097.000000	0.006087
1096.000000	0.006153
1095.000000	0.006253
1094.000000	0.006319
1093.000000	0.006353
1092.000000	0.006394
1091.000000	0.006449
1090.000000	0.006511
1089.000000	0.006606
1088.000000	0.006737
1087.000000	0.006852
1086.000000	0.006918
1085.000000	0.006972
1084.000000	0.007049
1083.000000	0.007110
1082.000000	0.007114
1081.000000	0.007098
1080.000000	0.007111
1079.000000	0.007134
1078.000000	0.007123
1077.000000	0.007089
1076.000000	0.007061
1075.000000	0.007017
1074.000000	0.006940
1073.000000	0.006868
1072.000000	0.006833
1071.000000	0.006809
1070.000000	0.006763
1069.000000	0.006723
1068.000000	0.006722
1067.000000	0.006741
1066.000000	0.006747
1065.000000	0.006749
1064.000000	0.006760
1063.000000	0.006758
1062.000000	0.006741
1061.000000	0.006751
1060.000000	0.006800
1059.000000	0.006829
1058.000000	0.006808
1057.000000	0.006786
1056.000000	0.006801
1055.000000	0.006807
1054.000000	0.006762
1053.000000	0.006708
1052.000000	0.006701
1051.000000	0.006718
1050.000000	0.006715
1049.000000	0.006711
1048.000000	0.006734
1047.000000	0.006761
1046.000000	0.006768
1045.000000	0.006791
1044.000000	0.006859
1043.000000	0.006933
1042.000000	0.006970
1041.000000	0.006995
1040.000000	0.007046
1039.000000	0.007109
1038.000000	0.007164
1037.000000	0.007234
1036.000000	0.007319
1035.000000	0.007363
1034.000000	0.007344
1033.000000	0.007324
1032.000000	0.007359
1031.000000	0.007414
1030.000000	0.007432
1029.000000	0.007423
1028.000000	0.007411
1027.000000	0.007372
1026.000000	0.007293
1025.000000	0.007225
1024.000000	0.007208
1023.000000	0.007202
1022.000000	0.007158
1021.000000	0.007095
1020.000000	0.007046
1019.000000	0.006996
1018.000000	0.006927
1017.000000	0.006876
1016.000000	0.006872
1015.000000	0.006883
1014.000000	0.006872
1013.000000	0.006857
1012.000000	0.006847
1011.000000	0.006805
1010.000000	0.006715
1009.000000	0.006622
1008.000000	0.006554
1007.000000	0.006471
1006.000000	0.006354
1005.000000	0.006259
1004.000000	0.006230
1003.000000	0.006221
1002.000000	0.006173
1001.000000	0.006100
1000.000000	0.006039
999.000000	0.005981
998.000000	0.005907
997.000000	0.005843
996.000000	0.005798
995.000000	0.005734
994.000000	0.005631
993.000000	0.005537
992.000000	0.005486
991.000000	0.005440
990.000000	0.005368
989.000000	0.005299
988.000000	0.005263
987.000000	0.005228
986.000000	0.005169
985.000000	0.005122
984.000000	0.005114
983.000000	0.005104
982.000000	0.005065
981.000000	0.005033
980.000000	0.005039
979.000000	0.005047
978.000000	0.005030
977.000000	0.005030
976.000000	0.005081
975.000000	0.005133
974.000000	0.005140
973.000000	0.005133
972.000000	0.005153
971.000000	0.005170
970.000000	0.005145
969.000000	0.005103
968.000000	0.005088
967.000000	0.005093
966.000000	0.005098
965.000000	0.005122
964.000000	0.005168
963.000000	0.005189
962.000000	0.005158
961.000000	0.005116
960.000000	0.005098
959.000000	0.005070
958.000000	0.005011
957.000000	0.004969
956.000000	0.004989
955.000000	0.005029
954.000000	0.005037
953.000000	0.005034
952.000000	0.005056
951.000000	0.005086
950.000000	0.005087
949.000000	0.005069
948.000000	0.005053
947.000000	0.005031
946.000000	0.005004
945.000000	0.005000
944.000000	0.005013
943.000000	0.004990
942.000000	0.004920
941.000000	0.004866
940.000000	0.004858
939.000000	0.004850
938.000000	0.004812
937.000000	0.004786
936.000000	0.004794
935.000000	0.004778
934.000000	0.004694
933.000000	0.004593
932.000000	0.004534
931.000000	0.004496
930.000000	0.004444
929.000000	0.004395
928.000000	0.004360
927.000000	0.004300
926.000000	0.004201
925.000000	0.004122
924.000000	0.004104
923.000000	0.004098
922.000000	0.004061
921.000000	0.004030
920.000000	0.004038
919.000000	0.004041
918.000000	0.003988
917.000000	0.003913
916.000000	0.003862
915.000000	0.003820
914.000000	0.003755
913.000000	0.003686
912.000000	0.003630
911.000000	0.003563
910.000000	0.003484
909.000000	0.003439
908.000000	0.003431
907.000000	0.003389
906.000000	0.003280
905.000000	0.003168
904.000000	0.003103
903.000000	0.003053
902.000000	0.002991
901.000000	0.002959
900.000000	0.002971
899.000000	0.002951
898.000000	0.002849
897.000000	0.002727
896.000000	0.002660
895.000000	0.002629
894.000000	0.002595
893.000000	0.002577
892.000000	0.002583
891.000000	0.002559
890.000000	0.002478
889.000000	0.002405
888.000000	0.002408
887.000000	0.002472
886.000000	0.002582
885.000000	0.002778
884.000000	0.003062
883.000000	0.003355
882.000000	0.003631
881.000000	0.003992
880.000000	0.004532
879.000000	0.005199
878.000000	0.005886
877.000000	0.006544
876.000000	0.007131
875.000000	0.007546
874.000000	0.007730
873.000000	0.007731
872.000000	0.007583
871.000000	0.007234
870.000000	0.006679
869.000000	0.006054
868.000000	0.005500
867.000000	0.005037
866.000000	0.004641
865.000000	0.004337
864.000000	0.004132
863.000000	0.003948
862.000000	0.003735
861.000000	0.003543
860.000000	0.003420
859.000000	0.003319
858.000000	0.003201
857.000000	0.003114
856.000000	0.003080
855.000000	0.003031
854.000000	0.002930
853.000000	0.002853
852.000000	0.002861
851.000000	0.002902
850.000000	0.002918
849.000000	0.002946
848.000000	0.003009
847.000000	0.003040
846.000000	0.003002
845.000000	0.002980
844.000000	0.003037
843.000000	0.003104
842.000000	0.003108
841.000000	0.003104
840.000000	0.003169
839.000000	0.003256
838.000000	0.003290
837.000000	0.003285
836.000000	0.003279
835.000000	0.003241
834.000000	0.003158
833.000000	0.003105
832.000000	0.003131
831.000000	0.003171
830.000000	0.003169
829.000000	0.003179
828.000000	0.003238
827.000000	0.003261
826.000000	0.003185
825.000000	0.003097
824.000000	0.003084
823.000000	0.003086
822.000000	0.003036
821.000000	0.003006
820.000000	0.003075
819.000000	0.003182
818.000000	0.003229
817.000000	0.003246
816.000000	0.003301
815.000000	0.003376
814.000000	0.003427
813.000000	0.003477
812.000000	0.003540
811.000000	0.003544
810.000000	0.003456
809.000000	0.003372
808.000000	0.003379
807.000000	0.003418
806.000000	0.003403
805.000000	0.003356
804.000000	0.003329
803.000000	0.003281
802.000000	0.003172
801.000000	0.003069
800.000000	0.003047
799.000000	0.003069
798.000000	0.003077
797.000000	0.003090
796.000000	0.003131
795.000000	0.003147
794.000000	0.003116
793.000000	0.003108
792.000000	0.003153
791.000000	0.003157
790.000000	0.003063
789.000000	0.002960
788.000000	0.002936
787.000000	0.002930
786.000000	0.002856
785.000000	0.002758
784.000000	0.002713
783.000000	0.002695
782.000000	0.002643
781.000000	0.002583
780.000000	0.002567
779.000000	0.002562
778.000000	0.002533
777.000000	0.002527
776.000000	0.002584
775.000000	0.002645
774.000000	0.002652
773.000000	0.002652
772.000000	0.002697
771.000000	0.002748
770.000000	0.002767
769.000000	0.002803
768.000000	0.002891
767.000000	0.002961
766.000000	0.002953
765.000000	0.002921
764.000000	0.002927
763.000000	0.002922
762.000000	0.002851
761.000000	0.002773
760.000000	0.002763
759.000000	0.002783
758.000000	0.002762
757.000000	0.002719
756.000000	0.002695
755.000000	0.002660
754.000000	0.002585
753.000000	0.002526
752.000000	0.002527
751.000000	0.002540
750.000000	0.002525
749.000000	0.002548
748.000000	0.002657
747.000000	0.002780
746.000000	0.002830
745.000000	0.002840
744.000000	0.002873
743.000000	0.002905
742.000000	0.002886
741.000000	0.002853
740.000000	0.002861
739.000000	0.002878
738.000000	0.002849
737.000000	0.002799
736.000000	0.002765
735.000000	0.002728
734.000000	0.002679
733.000000	0.002678
732.000000	0.002752
731.000000	0.002813
730.000000	0.002776
729.000000	0.002690
728.000000	0.002638
727.000000	0.002600
726.000000	0.002543
725.000000	0.002518
724.000000	0.002568
723.000000	0.002627
722.000000	0.002623
721.000000	0.002594
720.000000	0.002589
719.000000	0.002578
718.000000	0.002563
717.000000	0.002656
716.000000	0.002957
715.000000	0.003421
714.000000	0.003924
713.000000	0.004371
712.000000	0.004653
711.000000	0.004637
710.000000	0.004334
709.000000	0.003958
708.000000	0.003707
707.000000	0.003556
706.000000	0.003410
705.000000	0.003301
704.000000	0.003292
703.000000	0.003322
702.000000	0.003294
701.000000	0.003219
700.000000	0.003163
699.000000	0.003114
698.000000	0.003048
697.000000	0.003029
696.000000	0.003093
695.000000	0.003153
694.000000	0.003107
693.000000	0.002978
692.000000	0.002867
691.000000	0.002797
690.000000	0.002740
689.000000	0.002722
688.000000	0.002756
687.000000	0.002784
686.000000	0.002747
685.000000	0.002677
684.000000	0.002648
683.000000	0.002645
682.000000	0.002606
681.000000	0.002550
680.000000	0.002571
679.000000	0.002682
678.000000	0.002781
677.000000	0.002832
676.000000	0.002869
675.000000	0.002872
674.000000	0.002778
673.000000	0.002587
672.000000	0.002310
671.000000	0.001864
670.000000	0.001174
669.000000	0.000414
668.000000	0.000258
667.000000	0.000998
666.000000	0.001683
665.000000	0.002235
664.000000	0.002791
663.000000	0.003130
662.000000	0.003120
661.000000	0.002976
660.000000	0.002956
659.000000	0.003006
658.000000	0.002960
657.000000	0.002893
656.000000	0.002909
655.000000	0.002880
654.000000	0.002723
653.000000	0.002616
652.000000	0.002646
651.000000	0.002622
650.000000	0.002441
649.000000	0.002346
648.000000	0.002505
647.000000	0.002719
646.000000	0.002779
645.000000	0.002788
644.000000	0.002886
643.000000	0.002992
642.000000	0.003008
641.000000	0.003031
640.000000	0.003141
639.000000	0.003201
638.000000	0.003122
637.000000	0.003048
636.000000	0.003078
635.000000	0.003094
634.000000	0.003028
633.000000	0.003017
632.000000	0.003116
631.000000	0.003147
630.000000	0.003027
629.000000	0.002954
628.000000	0.003056
627.000000	0.003151
626.000000	0.003090
625.000000	0.003011
624.000000	0.003058
623.000000	0.003121
622.000000	0.003078
621.000000	0.003029
620.000000	0.003059
619.000000	0.003042
618.000000	0.002899
617.000000	0.002805
616.000000	0.002907
615.000000	0.003085
614.000000	0.003199
613.000000	0.003322
612.000000	0.003503
611.000000	0.003574
610.000000	0.003426
609.000000	0.003239
608.000000	0.003194
607.000000	0.003192
606.000000	0.003103
605.000000	0.003011
604.000000	0.003004
603.000000	0.002986
602.000000	0.002883
601.000000	0.002817
600.000000	0.002882
599.000000	0.002976
598.000000	0.003038
597.000000	0.003184
596.000000	0.003419
595.000000	0.003520
594.000000	0.003367
593.000000	0.003148
592.000000	0.003037
591.000000	0.002961
590.000000	0.002859
589.000000	0.002853
588.000000	0.002944
587.000000	0.002888
586.000000	0.002604
585.000000	0.002371
584.000000	0.002406
583.000000	0.002546
582.000000	0.002593
581.000000	0.002625
580.000000	0.002722
579.000000	0.002734
578.000000	0.002605
577.000000	0.002565
576.000000	0.002733
575.000000	0.002873
574.000000	0.002813
573.000000	0.002760
572.000000	0.002878
571.000000	0.002975
570.000000	0.002876
569.000000	0.002773
568.000000	0.002858
567.000000	0.002954
566.000000	0.002859
565.000000	0.002709
564.000000	0.002674
563.000000	0.002649
562.000000	0.002549
561.000000	0.002563
560.000000	0.002799
559.000000	0.003017
558.000000	0.003031
557.000000	0.003030
556.000000	0.003185
555.000000	0.003297
554.000000	0.003168
553.000000	0.002966
552.000000	0.002881
551.000000	0.002794
550.000000	0.002621
549.000000	0.002598
548.000000	0.002865
547.000000	0.003135
546.000000	0.003131
545.000000	0.003017
544.000000	0.003017
543.000000	0.003001
542.000000	0.002829
541.000000	0.002706
540.000000	0.002814
539.000000	0.002949
538.000000	0.002900
537.000000	0.002840
536.000000	0.002969
535.000000	0.003111
534.000000	0.003063
533.000000	0.002974
532.000000	0.003035
531.000000	0.003112
530.000000	0.003059
529.000000	0.003040
528.000000	0.003188
527.000000	0.003283
526.000000	0.003141
525.000000	0.003001
524.000000	0.003105
523.000000	0.003283
522.000000	0.003327
521.000000	0.003333
520.000000	0.003362
519.000000	0.003175
518.000000	0.002693
517.000000	0.002332
516.000000	0.002399
515.000000	0.002634
514.000000	0.002728
513.000000	0.002787
512.000000	0.002936
511.000000	0.002934
510.000000	0.002608
509.000000	0.002247
508.000000	0.002193
507.000000	0.002359
506.000000	0.002543
505.000000	0.002799
504.000000	0.003128
503.000000	0.003221
502.000000	0.002941
501.000000	0.002666
500.000000	0.002670
499.000000	0.002708
498.000000	0.002596
497.000000	0.002633
496.000000	0.003019
495.000000	0.003369
494.000000	0.003285
493.000000	0.003000
492.000000	0.002941
491.000000	0.003048
490.000000	0.003063
489.000000	0.003054
488.000000	0.003151
487.000000	0.003163
486.000000	0.002958
485.000000	0.002813
484.000000	0.002931
483.000000	0.003022
482.000000	0.002867
481.000000	0.002770
480.000000	0.002944
479.000000	0.002993
478.000000	0.002575
477.000000	0.002064
476.000000	0.001966
475.000000	0.002190
474.000000	0.002427
473.000000	0.002758
472.000000	0.003255
471.000000	0.003474
470.000000	0.003142
469.000000	0.002680
468.000000	0.002486
467.000000	0.002350
466.000000	0.002057
465.000000	0.001941
464.000000	0.002241
463.000000	0.002538
462.000000	0.002455
461.000000	0.002374
460.000000	0.002742
459.000000	0.003270
458.000000	0.003458
457.000000	0.003444
456.000000	0.003522
455.000000	0.003449
454.000000	0.003093
453.000000	0.002888
452.000000	0.003054
451.000000	0.003017
450.000000	0.002432
