PE IR       SUBTECH     SPECTRUM    ASCII       PEDS        4.00        
   -1
P8-Or044_1.ASC
23/06/13
16:04:40.00
23/06/13
16:11:22.00
uco
Sample 044 By uco Date Tuesday, June 13 2023
450.000000
#HDR
-1
-1
#GR
cm-1
A
1.0
0.0
4000.000000
-1.000000
3551
8
0.058190
0.009471
#DATA
4000.000000	0.010533
3999.000000	0.010569
3998.000000	0.010601
3997.000000	0.010616
3996.000000	0.010606
3995.000000	0.010581
3994.000000	0.010555
3993.000000	0.010538
3992.000000	0.010533
3991.000000	0.010535
3990.000000	0.010544
3989.000000	0.010558
3988.000000	0.010578
3987.000000	0.010602
3986.000000	0.010625
3985.000000	0.010643
3984.000000	0.010654
3983.000000	0.010657
3982.000000	0.010657
3981.000000	0.010662
3980.000000	0.010674
3979.000000	0.010687
3978.000000	0.010689
3977.000000	0.010675
3976.000000	0.010653
3975.000000	0.010641
3974.000000	0.010649
3973.000000	0.010676
3972.000000	0.010708
3971.000000	0.010728
3970.000000	0.010733
3969.000000	0.010730
3968.000000	0.010732
3967.000000	0.010742
3966.000000	0.010752
3965.000000	0.010753
3964.000000	0.010740
3963.000000	0.010719
3962.000000	0.010700
3961.000000	0.010688
3960.000000	0.010680
3959.000000	0.010676
3958.000000	0.010675
3957.000000	0.010676
3956.000000	0.010679
3955.000000	0.010686
3954.000000	0.010698
3953.000000	0.010718
3952.000000	0.010747
3951.000000	0.010779
3950.000000	0.010809
3949.000000	0.010830
3948.000000	0.010837
3947.000000	0.010835
3946.000000	0.010826
3945.000000	0.010810
3944.000000	0.010786
3943.000000	0.010759
3942.000000	0.010737
3941.000000	0.010726
3940.000000	0.010722
3939.000000	0.010723
3938.000000	0.010730
3937.000000	0.010749
3936.000000	0.010782
3935.000000	0.010823
3934.000000	0.010857
3933.000000	0.010868
3932.000000	0.010848
3931.000000	0.010809
3930.000000	0.010768
3929.000000	0.010735
3928.000000	0.010704
3927.000000	0.010667
3926.000000	0.010627
3925.000000	0.010605
3924.000000	0.010618
3923.000000	0.010669
3922.000000	0.010742
3921.000000	0.010821
3920.000000	0.010896
3919.000000	0.010951
3918.000000	0.010968
3917.000000	0.010946
3916.000000	0.010900
3915.000000	0.010854
3914.000000	0.010822
3913.000000	0.010804
3912.000000	0.010795
3911.000000	0.010791
3910.000000	0.010786
3909.000000	0.010776
3908.000000	0.010763
3907.000000	0.010752
3906.000000	0.010756
3905.000000	0.010786
3904.000000	0.010845
3903.000000	0.010907
3902.000000	0.010934
3901.000000	0.010911
3900.000000	0.010860
3899.000000	0.010822
3898.000000	0.010818
3897.000000	0.010837
3896.000000	0.010863
3895.000000	0.010892
3894.000000	0.010921
3893.000000	0.010948
3892.000000	0.010976
3891.000000	0.011016
3890.000000	0.011057
3889.000000	0.011072
3888.000000	0.011052
3887.000000	0.011008
3886.000000	0.010961
3885.000000	0.010934
3884.000000	0.010923
3883.000000	0.010904
3882.000000	0.010865
3881.000000	0.010819
3880.000000	0.010798
3879.000000	0.010817
3878.000000	0.010850
3877.000000	0.010866
3876.000000	0.010855
3875.000000	0.010829
3874.000000	0.010824
3873.000000	0.010853
3872.000000	0.010886
3871.000000	0.010889
3870.000000	0.010869
3869.000000	0.010865
3868.000000	0.010886
3867.000000	0.010913
3866.000000	0.010934
3865.000000	0.010943
3864.000000	0.010944
3863.000000	0.010947
3862.000000	0.010954
3861.000000	0.010967
3860.000000	0.010974
3859.000000	0.010968
3858.000000	0.010951
3857.000000	0.010942
3856.000000	0.010953
3855.000000	0.010978
3854.000000	0.011008
3853.000000	0.011063
3852.000000	0.011123
3851.000000	0.011139
3850.000000	0.011115
3849.000000	0.011077
3848.000000	0.011040
3847.000000	0.011001
3846.000000	0.010954
3845.000000	0.010901
3844.000000	0.010854
3843.000000	0.010831
3842.000000	0.010840
3841.000000	0.010868
3840.000000	0.010893
3839.000000	0.010909
3838.000000	0.010921
3837.000000	0.010927
3836.000000	0.010917
3835.000000	0.010889
3834.000000	0.010851
3833.000000	0.010818
3832.000000	0.010803
3831.000000	0.010809
3830.000000	0.010823
3829.000000	0.010822
3828.000000	0.010801
3827.000000	0.010781
3826.000000	0.010797
3825.000000	0.010857
3824.000000	0.010933
3823.000000	0.010979
3822.000000	0.010963
3821.000000	0.010916
3820.000000	0.010893
3819.000000	0.010891
3818.000000	0.010881
3817.000000	0.010862
3816.000000	0.010852
3815.000000	0.010863
3814.000000	0.010878
3813.000000	0.010879
3812.000000	0.010881
3811.000000	0.010902
3810.000000	0.010938
3809.000000	0.010962
3808.000000	0.010956
3807.000000	0.010940
3806.000000	0.010949
3805.000000	0.010977
3804.000000	0.010990
3803.000000	0.010959
3802.000000	0.010892
3801.000000	0.010837
3800.000000	0.010819
3799.000000	0.010806
3798.000000	0.010787
3797.000000	0.010780
3796.000000	0.010804
3795.000000	0.010845
3794.000000	0.010871
3793.000000	0.010864
3792.000000	0.010829
3791.000000	0.010787
3790.000000	0.010750
3789.000000	0.010724
3788.000000	0.010710
3787.000000	0.010711
3786.000000	0.010729
3785.000000	0.010763
3784.000000	0.010810
3783.000000	0.010854
3782.000000	0.010875
3781.000000	0.010863
3780.000000	0.010830
3779.000000	0.010802
3778.000000	0.010793
3777.000000	0.010789
3776.000000	0.010783
3775.000000	0.010792
3774.000000	0.010835
3773.000000	0.010903
3772.000000	0.010958
3771.000000	0.010966
3770.000000	0.010928
3769.000000	0.010877
3768.000000	0.010837
3767.000000	0.010813
3766.000000	0.010812
3765.000000	0.010837
3764.000000	0.010880
3763.000000	0.010913
3762.000000	0.010915
3761.000000	0.010880
3760.000000	0.010832
3759.000000	0.010809
3758.000000	0.010823
3757.000000	0.010856
3756.000000	0.010883
3755.000000	0.010899
3754.000000	0.010914
3753.000000	0.010941
3752.000000	0.010984
3751.000000	0.011043
3750.000000	0.011109
3749.000000	0.011154
3748.000000	0.011163
3747.000000	0.011151
3746.000000	0.011145
3745.000000	0.011152
3744.000000	0.011164
3743.000000	0.011141
3742.000000	0.011054
3741.000000	0.010943
3740.000000	0.010867
3739.000000	0.010861
3738.000000	0.010909
3737.000000	0.010952
3736.000000	0.010915
3735.000000	0.010779
3734.000000	0.010629
3733.000000	0.010563
3732.000000	0.010601
3731.000000	0.010696
3730.000000	0.010795
3729.000000	0.010880
3728.000000	0.010945
3727.000000	0.010970
3726.000000	0.010937
3725.000000	0.010861
3724.000000	0.010779
3723.000000	0.010732
3722.000000	0.010733
3721.000000	0.010763
3720.000000	0.010787
3719.000000	0.010797
3718.000000	0.010814
3717.000000	0.010860
3716.000000	0.010933
3715.000000	0.011010
3714.000000	0.011078
3713.000000	0.011136
3712.000000	0.011183
3711.000000	0.011200
3710.000000	0.011162
3709.000000	0.011060
3708.000000	0.010924
3707.000000	0.010804
3706.000000	0.010732
3705.000000	0.010692
3704.000000	0.010640
3703.000000	0.010550
3702.000000	0.010452
3701.000000	0.010410
3700.000000	0.010445
3699.000000	0.010524
3698.000000	0.010601
3697.000000	0.010656
3696.000000	0.010705
3695.000000	0.010774
3694.000000	0.010863
3693.000000	0.010928
3692.000000	0.010907
3691.000000	0.010774
3690.000000	0.010604
3689.000000	0.010527
3688.000000	0.010588
3687.000000	0.010710
3686.000000	0.010798
3685.000000	0.010832
3684.000000	0.010843
3683.000000	0.010865
3682.000000	0.010900
3681.000000	0.010930
3680.000000	0.010953
3679.000000	0.010985
3678.000000	0.011028
3677.000000	0.011044
3676.000000	0.011014
3675.000000	0.010990
3674.000000	0.011012
3673.000000	0.011034
3672.000000	0.011020
3671.000000	0.010972
3670.000000	0.010926
3669.000000	0.010924
3668.000000	0.010949
3667.000000	0.010953
3666.000000	0.010932
3665.000000	0.010904
3664.000000	0.010888
3663.000000	0.010890
3662.000000	0.010908
3661.000000	0.010934
3660.000000	0.010964
3659.000000	0.010990
3658.000000	0.011009
3657.000000	0.011020
3656.000000	0.011035
3655.000000	0.011061
3654.000000	0.011095
3653.000000	0.011139
3652.000000	0.011202
3651.000000	0.011272
3650.000000	0.011320
3649.000000	0.011335
3648.000000	0.011325
3647.000000	0.011306
3646.000000	0.011285
3645.000000	0.011266
3644.000000	0.011250
3643.000000	0.011238
3642.000000	0.011228
3641.000000	0.011216
3640.000000	0.011207
3639.000000	0.011213
3638.000000	0.011243
3637.000000	0.011285
3636.000000	0.011315
3635.000000	0.011329
3634.000000	0.011344
3633.000000	0.011387
3632.000000	0.011458
3631.000000	0.011529
3630.000000	0.011562
3629.000000	0.011562
3628.000000	0.011587
3627.000000	0.011645
3626.000000	0.011683
3625.000000	0.011679
3624.000000	0.011633
3623.000000	0.011546
3622.000000	0.011427
3621.000000	0.011299
3620.000000	0.011219
3619.000000	0.011252
3618.000000	0.011398
3617.000000	0.011582
3616.000000	0.011734
3615.000000	0.011833
3614.000000	0.011894
3613.000000	0.011942
3612.000000	0.011996
3611.000000	0.012053
3610.000000	0.012106
3609.000000	0.012135
3608.000000	0.012118
3607.000000	0.012055
3606.000000	0.011970
3605.000000	0.011895
3604.000000	0.011856
3603.000000	0.011862
3602.000000	0.011898
3601.000000	0.011937
3600.000000	0.011966
3599.000000	0.011993
3598.000000	0.012027
3597.000000	0.012069
3596.000000	0.012115
3595.000000	0.012171
3594.000000	0.012237
3593.000000	0.012300
3592.000000	0.012339
3591.000000	0.012348
3590.000000	0.012333
3589.000000	0.012302
3588.000000	0.012274
3587.000000	0.012283
3586.000000	0.012343
3585.000000	0.012428
3584.000000	0.012511
3583.000000	0.012579
3582.000000	0.012630
3581.000000	0.012659
3580.000000	0.012674
3579.000000	0.012685
3578.000000	0.012696
3577.000000	0.012703
3576.000000	0.012707
3575.000000	0.012719
3574.000000	0.012744
3573.000000	0.012779
3572.000000	0.012817
3571.000000	0.012862
3570.000000	0.012919
3569.000000	0.012980
3568.000000	0.013031
3567.000000	0.013071
3566.000000	0.013113
3565.000000	0.013155
3564.000000	0.013179
3563.000000	0.013181
3562.000000	0.013176
3561.000000	0.013182
3560.000000	0.013213
3559.000000	0.013272
3558.000000	0.013346
3557.000000	0.013418
3556.000000	0.013470
3555.000000	0.013500
3554.000000	0.013511
3553.000000	0.013520
3552.000000	0.013547
3551.000000	0.013598
3550.000000	0.013663
3549.000000	0.013720
3548.000000	0.013757
3547.000000	0.013775
3546.000000	0.013786
3545.000000	0.013803
3544.000000	0.013835
3543.000000	0.013878
3542.000000	0.013915
3541.000000	0.013930
3540.000000	0.013932
3539.000000	0.013950
3538.000000	0.014006
3537.000000	0.014089
3536.000000	0.014175
3535.000000	0.014239
3534.000000	0.014271
3533.000000	0.014269
3532.000000	0.014242
3531.000000	0.014207
3530.000000	0.014182
3529.000000	0.014176
3528.000000	0.014189
3527.000000	0.014222
3526.000000	0.014270
3525.000000	0.014321
3524.000000	0.014367
3523.000000	0.014409
3522.000000	0.014454
3521.000000	0.014501
3520.000000	0.014541
3519.000000	0.014564
3518.000000	0.014569
3517.000000	0.014569
3516.000000	0.014580
3515.000000	0.014609
3514.000000	0.014641
3513.000000	0.014654
3512.000000	0.014647
3511.000000	0.014643
3510.000000	0.014668
3509.000000	0.014725
3508.000000	0.014800
3507.000000	0.014886
3506.000000	0.014983
3505.000000	0.015081
3504.000000	0.015159
3503.000000	0.015199
3502.000000	0.015201
3501.000000	0.015177
3500.000000	0.015145
3499.000000	0.015127
3498.000000	0.015138
3497.000000	0.015183
3496.000000	0.015248
3495.000000	0.015310
3494.000000	0.015356
3493.000000	0.015389
3492.000000	0.015425
3491.000000	0.015479
3490.000000	0.015544
3489.000000	0.015596
3488.000000	0.015616
3487.000000	0.015612
3486.000000	0.015608
3485.000000	0.015618
3484.000000	0.015640
3483.000000	0.015663
3482.000000	0.015686
3481.000000	0.015712
3480.000000	0.015742
3479.000000	0.015773
3478.000000	0.015799
3477.000000	0.015816
3476.000000	0.015830
3475.000000	0.015851
3474.000000	0.015882
3473.000000	0.015916
3472.000000	0.015945
3471.000000	0.015972
3470.000000	0.016005
3469.000000	0.016046
3468.000000	0.016093
3467.000000	0.016135
3466.000000	0.016166
3465.000000	0.016179
3464.000000	0.016176
3463.000000	0.016174
3462.000000	0.016189
3461.000000	0.016227
3460.000000	0.016282
3459.000000	0.016343
3458.000000	0.016404
3457.000000	0.016458
3456.000000	0.016499
3455.000000	0.016522
3454.000000	0.016535
3453.000000	0.016547
3452.000000	0.016563
3451.000000	0.016582
3450.000000	0.016596
3449.000000	0.016603
3448.000000	0.016610
3447.000000	0.016628
3446.000000	0.016662
3445.000000	0.016707
3444.000000	0.016756
3443.000000	0.016811
3442.000000	0.016878
3441.000000	0.016959
3440.000000	0.017049
3439.000000	0.017138
3438.000000	0.017209
3437.000000	0.017249
3436.000000	0.017254
3435.000000	0.017239
3434.000000	0.017229
3433.000000	0.017239
3432.000000	0.017269
3431.000000	0.017313
3430.000000	0.017358
3429.000000	0.017395
3428.000000	0.017417
3427.000000	0.017427
3426.000000	0.017434
3425.000000	0.017451
3424.000000	0.017484
3423.000000	0.017528
3422.000000	0.017570
3421.000000	0.017603
3420.000000	0.017631
3419.000000	0.017666
3418.000000	0.017710
3417.000000	0.017755
3416.000000	0.017792
3415.000000	0.017815
3414.000000	0.017825
3413.000000	0.017837
3412.000000	0.017867
3411.000000	0.017919
3410.000000	0.017980
3409.000000	0.018039
3408.000000	0.018090
3407.000000	0.018136
3406.000000	0.018174
3405.000000	0.018197
3404.000000	0.018206
3403.000000	0.018207
3402.000000	0.018202
3401.000000	0.018193
3400.000000	0.018186
3399.000000	0.018191
3398.000000	0.018212
3397.000000	0.018249
3396.000000	0.018295
3395.000000	0.018347
3394.000000	0.018396
3393.000000	0.018435
3392.000000	0.018462
3391.000000	0.018477
3390.000000	0.018475
3389.000000	0.018457
3388.000000	0.018438
3387.000000	0.018447
3386.000000	0.018496
3385.000000	0.018567
3384.000000	0.018632
3383.000000	0.018673
3382.000000	0.018687
3381.000000	0.018678
3380.000000	0.018654
3379.000000	0.018636
3378.000000	0.018645
3377.000000	0.018689
3376.000000	0.018758
3375.000000	0.018829
3374.000000	0.018881
3373.000000	0.018907
3372.000000	0.018914
3371.000000	0.018920
3370.000000	0.018938
3369.000000	0.018962
3368.000000	0.018984
3367.000000	0.019003
3366.000000	0.019025
3365.000000	0.019055
3364.000000	0.019090
3363.000000	0.019125
3362.000000	0.019159
3361.000000	0.019185
3360.000000	0.019204
3359.000000	0.019218
3358.000000	0.019235
3357.000000	0.019257
3356.000000	0.019287
3355.000000	0.019331
3354.000000	0.019392
3353.000000	0.019464
3352.000000	0.019528
3351.000000	0.019572
3350.000000	0.019590
3349.000000	0.019591
3348.000000	0.019591
3347.000000	0.019606
3346.000000	0.019636
3345.000000	0.019670
3344.000000	0.019694
3343.000000	0.019711
3342.000000	0.019731
3341.000000	0.019758
3340.000000	0.019781
3339.000000	0.019792
3338.000000	0.019796
3337.000000	0.019804
3336.000000	0.019821
3335.000000	0.019840
3334.000000	0.019852
3333.000000	0.019858
3332.000000	0.019875
3331.000000	0.019919
3330.000000	0.019982
3329.000000	0.020042
3328.000000	0.020077
3327.000000	0.020085
3326.000000	0.020076
3325.000000	0.020059
3324.000000	0.020047
3323.000000	0.020054
3322.000000	0.020091
3321.000000	0.020153
3320.000000	0.020223
3319.000000	0.020282
3318.000000	0.020318
3317.000000	0.020331
3316.000000	0.020326
3315.000000	0.020316
3314.000000	0.020313
3313.000000	0.020320
3312.000000	0.020337
3311.000000	0.020356
3310.000000	0.020371
3309.000000	0.020380
3308.000000	0.020388
3307.000000	0.020402
3306.000000	0.020424
3305.000000	0.020453
3304.000000	0.020488
3303.000000	0.020530
3302.000000	0.020571
3301.000000	0.020604
3300.000000	0.020629
3299.000000	0.020654
3298.000000	0.020682
3297.000000	0.020710
3296.000000	0.020729
3295.000000	0.020734
3294.000000	0.020726
3293.000000	0.020714
3292.000000	0.020706
3291.000000	0.020709
3290.000000	0.020720
3289.000000	0.020726
3288.000000	0.020724
3287.000000	0.020717
3286.000000	0.020707
3285.000000	0.020692
3284.000000	0.020673
3283.000000	0.020659
3282.000000	0.020663
3281.000000	0.020687
3280.000000	0.020720
3279.000000	0.020746
3278.000000	0.020758
3277.000000	0.020761
3276.000000	0.020773
3275.000000	0.020808
3274.000000	0.020856
3273.000000	0.020893
3272.000000	0.020897
3271.000000	0.020870
3270.000000	0.020827
3269.000000	0.020778
3268.000000	0.020728
3267.000000	0.020680
3266.000000	0.020639
3265.000000	0.020610
3264.000000	0.020592
3263.000000	0.020577
3262.000000	0.020557
3261.000000	0.020532
3260.000000	0.020515
3259.000000	0.020514
3258.000000	0.020526
3257.000000	0.020526
3256.000000	0.020501
3255.000000	0.020453
3254.000000	0.020400
3253.000000	0.020362
3252.000000	0.020348
3251.000000	0.020358
3250.000000	0.020377
3249.000000	0.020381
3248.000000	0.020354
3247.000000	0.020304
3246.000000	0.020249
3245.000000	0.020208
3244.000000	0.020183
3243.000000	0.020164
3242.000000	0.020137
3241.000000	0.020090
3240.000000	0.020033
3239.000000	0.019987
3238.000000	0.019968
3237.000000	0.019970
3236.000000	0.019972
3235.000000	0.019962
3234.000000	0.019941
3233.000000	0.019917
3232.000000	0.019895
3231.000000	0.019880
3230.000000	0.019873
3229.000000	0.019868
3228.000000	0.019858
3227.000000	0.019843
3226.000000	0.019823
3225.000000	0.019806
3224.000000	0.019800
3223.000000	0.019811
3222.000000	0.019829
3221.000000	0.019836
3220.000000	0.019817
3219.000000	0.019773
3218.000000	0.019721
3217.000000	0.019677
3216.000000	0.019651
3215.000000	0.019647
3214.000000	0.019658
3213.000000	0.019670
3212.000000	0.019670
3211.000000	0.019664
3210.000000	0.019659
3209.000000	0.019659
3208.000000	0.019656
3207.000000	0.019644
3206.000000	0.019620
3205.000000	0.019586
3204.000000	0.019551
3203.000000	0.019525
3202.000000	0.019511
3201.000000	0.019495
3200.000000	0.019462
3199.000000	0.019408
3198.000000	0.019339
3197.000000	0.019273
3196.000000	0.019233
3195.000000	0.019230
3194.000000	0.019253
3193.000000	0.019271
3192.000000	0.019263
3191.000000	0.019235
3190.000000	0.019210
3189.000000	0.019191
3188.000000	0.019167
3187.000000	0.019132
3186.000000	0.019087
3185.000000	0.019039
3184.000000	0.018989
3183.000000	0.018943
3182.000000	0.018913
3181.000000	0.018908
3180.000000	0.018922
3179.000000	0.018941
3178.000000	0.018953
3177.000000	0.018953
3176.000000	0.018945
3175.000000	0.018928
3174.000000	0.018897
3173.000000	0.018849
3172.000000	0.018790
3171.000000	0.018735
3170.000000	0.018687
3169.000000	0.018639
3168.000000	0.018585
3167.000000	0.018538
3166.000000	0.018515
3165.000000	0.018520
3164.000000	0.018542
3163.000000	0.018562
3162.000000	0.018566
3161.000000	0.018548
3160.000000	0.018508
3159.000000	0.018458
3158.000000	0.018407
3157.000000	0.018358
3156.000000	0.018309
3155.000000	0.018269
3154.000000	0.018245
3153.000000	0.018241
3152.000000	0.018244
3151.000000	0.018235
3150.000000	0.018202
3149.000000	0.018139
3148.000000	0.018064
3147.000000	0.017997
3146.000000	0.017955
3145.000000	0.017934
3144.000000	0.017924
3143.000000	0.017918
3142.000000	0.017911
3141.000000	0.017894
3140.000000	0.017862
3139.000000	0.017825
3138.000000	0.017795
3137.000000	0.017779
3136.000000	0.017769
3135.000000	0.017756
3134.000000	0.017739
3133.000000	0.017725
3132.000000	0.017718
3131.000000	0.017714
3130.000000	0.017708
3129.000000	0.017697
3128.000000	0.017686
3127.000000	0.017682
3126.000000	0.017682
3125.000000	0.017681
3124.000000	0.017679
3123.000000	0.017687
3122.000000	0.017703
3121.000000	0.017699
3120.000000	0.017650
3119.000000	0.017565
3118.000000	0.017476
3117.000000	0.017414
3116.000000	0.017386
3115.000000	0.017385
3114.000000	0.017403
3113.000000	0.017433
3112.000000	0.017469
3111.000000	0.017502
3110.000000	0.017519
3109.000000	0.017509
3108.000000	0.017472
3107.000000	0.017427
3106.000000	0.017393
3105.000000	0.017382
3104.000000	0.017390
3103.000000	0.017401
3102.000000	0.017401
3101.000000	0.017383
3100.000000	0.017352
3099.000000	0.017323
3098.000000	0.017307
3097.000000	0.017309
3096.000000	0.017323
3095.000000	0.017343
3094.000000	0.017357
3093.000000	0.017358
3092.000000	0.017351
3091.000000	0.017350
3090.000000	0.017363
3089.000000	0.017379
3088.000000	0.017381
3087.000000	0.017357
3086.000000	0.017316
3085.000000	0.017273
3084.000000	0.017248
3083.000000	0.017250
3082.000000	0.017265
3081.000000	0.017268
3080.000000	0.017248
3079.000000	0.017221
3078.000000	0.017215
3077.000000	0.017234
3076.000000	0.017262
3075.000000	0.017283
3074.000000	0.017291
3073.000000	0.017288
3072.000000	0.017284
3071.000000	0.017289
3070.000000	0.017303
3069.000000	0.017313
3068.000000	0.017301
3067.000000	0.017267
3066.000000	0.017226
3065.000000	0.017191
3064.000000	0.017166
3063.000000	0.017150
3062.000000	0.017145
3061.000000	0.017145
3060.000000	0.017140
3059.000000	0.017126
3058.000000	0.017109
3057.000000	0.017099
3056.000000	0.017097
3055.000000	0.017093
3054.000000	0.017080
3053.000000	0.017052
3052.000000	0.017010
3051.000000	0.016968
3050.000000	0.016944
3049.000000	0.016943
3048.000000	0.016954
3047.000000	0.016962
3046.000000	0.016964
3045.000000	0.016974
3044.000000	0.017003
3043.000000	0.017045
3042.000000	0.017077
3041.000000	0.017066
3040.000000	0.017006
3039.000000	0.016922
3038.000000	0.016850
3037.000000	0.016807
3036.000000	0.016781
3035.000000	0.016749
3034.000000	0.016704
3033.000000	0.016654
3032.000000	0.016611
3031.000000	0.016584
3030.000000	0.016573
3029.000000	0.016566
3028.000000	0.016550
3027.000000	0.016517
3026.000000	0.016478
3025.000000	0.016452
3024.000000	0.016452
3023.000000	0.016476
3022.000000	0.016511
3021.000000	0.016543
3020.000000	0.016561
3019.000000	0.016561
3018.000000	0.016539
3017.000000	0.016502
3016.000000	0.016465
3015.000000	0.016443
3014.000000	0.016438
3013.000000	0.016434
3012.000000	0.016414
3011.000000	0.016378
3010.000000	0.016343
3009.000000	0.016331
3008.000000	0.016350
3007.000000	0.016385
3006.000000	0.016406
3005.000000	0.016385
3004.000000	0.016318
3003.000000	0.016238
3002.000000	0.016187
3001.000000	0.016183
3000.000000	0.016213
2999.000000	0.016263
2998.000000	0.016326
2997.000000	0.016397
2996.000000	0.016462
2995.000000	0.016505
2994.000000	0.016531
2993.000000	0.016555
2992.000000	0.016584
2991.000000	0.016617
2990.000000	0.016657
2989.000000	0.016710
2988.000000	0.016773
2987.000000	0.016840
2986.000000	0.016906
2985.000000	0.016974
2984.000000	0.017049
2983.000000	0.017123
2982.000000	0.017184
2981.000000	0.017225
2980.000000	0.017257
2979.000000	0.017306
2978.000000	0.017389
2977.000000	0.017500
2976.000000	0.017605
2975.000000	0.017677
2974.000000	0.017719
2973.000000	0.017759
2972.000000	0.017824
2971.000000	0.017916
2970.000000	0.018018
2969.000000	0.018113
2968.000000	0.018201
2967.000000	0.018297
2966.000000	0.018415
2965.000000	0.018554
2964.000000	0.018691
2963.000000	0.018791
2962.000000	0.018841
2961.000000	0.018857
2960.000000	0.018873
2959.000000	0.018909
2958.000000	0.018958
2957.000000	0.018999
2956.000000	0.019017
2955.000000	0.019009
2954.000000	0.018981
2953.000000	0.018948
2952.000000	0.018922
2951.000000	0.018911
2950.000000	0.018915
2949.000000	0.018935
2948.000000	0.018976
2947.000000	0.019042
2946.000000	0.019129
2945.000000	0.019222
2944.000000	0.019306
2943.000000	0.019379
2942.000000	0.019445
2941.000000	0.019511
2940.000000	0.019585
2939.000000	0.019671
2938.000000	0.019774
2937.000000	0.019889
2936.000000	0.020015
2935.000000	0.020148
2934.000000	0.020279
2933.000000	0.020396
2932.000000	0.020487
2931.000000	0.020553
2930.000000	0.020600
2929.000000	0.020626
2928.000000	0.020629
2927.000000	0.020623
2926.000000	0.020643
2925.000000	0.020713
2924.000000	0.020827
2923.000000	0.020951
2922.000000	0.021056
2921.000000	0.021137
2920.000000	0.021198
2919.000000	0.021231
2918.000000	0.021220
2917.000000	0.021152
2916.000000	0.021028
2915.000000	0.020863
2914.000000	0.020671
2913.000000	0.020473
2912.000000	0.020287
2911.000000	0.020132
2910.000000	0.020013
2909.000000	0.019920
2908.000000	0.019839
2907.000000	0.019758
2906.000000	0.019665
2905.000000	0.019562
2904.000000	0.019462
2903.000000	0.019388
2902.000000	0.019348
2901.000000	0.019319
2900.000000	0.019268
2899.000000	0.019181
2898.000000	0.019074
2897.000000	0.018970
2896.000000	0.018876
2895.000000	0.018785
2894.000000	0.018690
2893.000000	0.018598
2892.000000	0.018522
2891.000000	0.018473
2890.000000	0.018453
2889.000000	0.018457
2888.000000	0.018465
2887.000000	0.018461
2886.000000	0.018433
2885.000000	0.018386
2884.000000	0.018333
2883.000000	0.018291
2882.000000	0.018269
2881.000000	0.018268
2880.000000	0.018287
2879.000000	0.018328
2878.000000	0.018391
2877.000000	0.018470
2876.000000	0.018554
2875.000000	0.018635
2874.000000	0.018705
2873.000000	0.018748
2872.000000	0.018751
2871.000000	0.018721
2870.000000	0.018687
2869.000000	0.018675
2868.000000	0.018684
2867.000000	0.018695
2866.000000	0.018695
2865.000000	0.018687
2864.000000	0.018683
2863.000000	0.018694
2862.000000	0.018725
2861.000000	0.018774
2860.000000	0.018829
2859.000000	0.018872
2858.000000	0.018895
2857.000000	0.018910
2856.000000	0.018937
2855.000000	0.018987
2854.000000	0.019053
2853.000000	0.019109
2852.000000	0.019119
2851.000000	0.019063
2850.000000	0.018947
2849.000000	0.018798
2848.000000	0.018641
2847.000000	0.018488
2846.000000	0.018339
2845.000000	0.018188
2844.000000	0.018032
2843.000000	0.017873
2842.000000	0.017720
2841.000000	0.017586
2840.000000	0.017480
2839.000000	0.017398
2838.000000	0.017333
2837.000000	0.017276
2836.000000	0.017223
2835.000000	0.017170
2834.000000	0.017117
2833.000000	0.017065
2832.000000	0.017011
2831.000000	0.016950
2830.000000	0.016877
2829.000000	0.016802
2828.000000	0.016740
2827.000000	0.016705
2826.000000	0.016693
2825.000000	0.016690
2824.000000	0.016678
2823.000000	0.016646
2822.000000	0.016597
2821.000000	0.016548
2820.000000	0.016517
2819.000000	0.016511
2818.000000	0.016520
2817.000000	0.016523
2816.000000	0.016511
2815.000000	0.016483
2814.000000	0.016447
2813.000000	0.016410
2812.000000	0.016375
2811.000000	0.016345
2810.000000	0.016322
2809.000000	0.016310
2808.000000	0.016306
2807.000000	0.016307
2806.000000	0.016304
2805.000000	0.016292
2804.000000	0.016268
2803.000000	0.016228
2802.000000	0.016175
2801.000000	0.016116
2800.000000	0.016063
2799.000000	0.016025
2798.000000	0.016004
2797.000000	0.015999
2796.000000	0.016008
2795.000000	0.016025
2794.000000	0.016048
2793.000000	0.016070
2792.000000	0.016084
2791.000000	0.016089
2790.000000	0.016079
2789.000000	0.016053
2788.000000	0.016015
2787.000000	0.015973
2786.000000	0.015938
2785.000000	0.015909
2784.000000	0.015884
2783.000000	0.015861
2782.000000	0.015844
2781.000000	0.015836
2780.000000	0.015840
2779.000000	0.015854
2778.000000	0.015874
2777.000000	0.015895
2776.000000	0.015910
2775.000000	0.015917
2774.000000	0.015918
2773.000000	0.015915
2772.000000	0.015900
2771.000000	0.015868
2770.000000	0.015826
2769.000000	0.015795
2768.000000	0.015785
2767.000000	0.015790
2766.000000	0.015792
2765.000000	0.015775
2764.000000	0.015741
2763.000000	0.015701
2762.000000	0.015672
2761.000000	0.015663
2760.000000	0.015668
2759.000000	0.015675
2758.000000	0.015674
2757.000000	0.015667
2756.000000	0.015659
2755.000000	0.015656
2754.000000	0.015660
2753.000000	0.015672
2752.000000	0.015693
2751.000000	0.015719
2750.000000	0.015743
2749.000000	0.015758
2748.000000	0.015761
2747.000000	0.015755
2746.000000	0.015739
2745.000000	0.015714
2744.000000	0.015680
2743.000000	0.015641
2742.000000	0.015604
2741.000000	0.015574
2740.000000	0.015550
2739.000000	0.015528
2738.000000	0.015504
2737.000000	0.015480
2736.000000	0.015465
2735.000000	0.015468
2734.000000	0.015491
2733.000000	0.015523
2732.000000	0.015554
2731.000000	0.015573
2730.000000	0.015576
2729.000000	0.015566
2728.000000	0.015544
2727.000000	0.015518
2726.000000	0.015491
2725.000000	0.015467
2724.000000	0.015451
2723.000000	0.015447
2722.000000	0.015461
2721.000000	0.015490
2720.000000	0.015519
2719.000000	0.015532
2718.000000	0.015524
2717.000000	0.015509
2716.000000	0.015503
2715.000000	0.015512
2714.000000	0.015525
2713.000000	0.015526
2712.000000	0.015510
2711.000000	0.015480
2710.000000	0.015451
2709.000000	0.015433
2708.000000	0.015422
2707.000000	0.015412
2706.000000	0.015406
2705.000000	0.015416
2704.000000	0.015445
2703.000000	0.015480
2702.000000	0.015493
2701.000000	0.015466
2700.000000	0.015404
2699.000000	0.015328
2698.000000	0.015267
2697.000000	0.015240
2696.000000	0.015249
2695.000000	0.015285
2694.000000	0.015332
2693.000000	0.015377
2692.000000	0.015411
2691.000000	0.015425
2690.000000	0.015415
2689.000000	0.015381
2688.000000	0.015333
2687.000000	0.015286
2686.000000	0.015257
2685.000000	0.015259
2684.000000	0.015288
2683.000000	0.015323
2682.000000	0.015343
2681.000000	0.015339
2680.000000	0.015321
2679.000000	0.015303
2678.000000	0.015290
2677.000000	0.015283
2676.000000	0.015281
2675.000000	0.015285
2674.000000	0.015289
2673.000000	0.015284
2672.000000	0.015263
2671.000000	0.015237
2670.000000	0.015219
2669.000000	0.015215
2668.000000	0.015224
2667.000000	0.015246
2666.000000	0.015276
2665.000000	0.015299
2664.000000	0.015296
2663.000000	0.015261
2662.000000	0.015214
2661.000000	0.015182
2660.000000	0.015172
2659.000000	0.015173
2658.000000	0.015172
2657.000000	0.015168
2656.000000	0.015170
2655.000000	0.015178
2654.000000	0.015184
2653.000000	0.015178
2652.000000	0.015154
2651.000000	0.015115
2650.000000	0.015075
2649.000000	0.015045
2648.000000	0.015029
2647.000000	0.015021
2646.000000	0.015013
2645.000000	0.015004
2644.000000	0.015003
2643.000000	0.015012
2642.000000	0.015025
2641.000000	0.015020
2640.000000	0.014982
2639.000000	0.014922
2638.000000	0.014873
2637.000000	0.014863
2636.000000	0.014887
2635.000000	0.014911
2634.000000	0.014899
2633.000000	0.014844
2632.000000	0.014769
2631.000000	0.014712
2630.000000	0.014706
2629.000000	0.014749
2628.000000	0.014806
2627.000000	0.014837
2626.000000	0.014821
2625.000000	0.014770
2624.000000	0.014704
2623.000000	0.014638
2622.000000	0.014582
2621.000000	0.014536
2620.000000	0.014488
2619.000000	0.014423
2618.000000	0.014356
2617.000000	0.014328
2616.000000	0.014365
2615.000000	0.014451
2614.000000	0.014540
2613.000000	0.014605
2612.000000	0.014642
2611.000000	0.014656
2610.000000	0.014649
2609.000000	0.014632
2608.000000	0.014621
2607.000000	0.014623
2606.000000	0.014632
2605.000000	0.014642
2604.000000	0.014658
2603.000000	0.014693
2602.000000	0.014743
2601.000000	0.014788
2600.000000	0.014798
2599.000000	0.014761
2598.000000	0.014686
2597.000000	0.014599
2596.000000	0.014531
2595.000000	0.014495
2594.000000	0.014490
2593.000000	0.014503
2592.000000	0.014519
2591.000000	0.014525
2590.000000	0.014518
2589.000000	0.014505
2588.000000	0.014503
2587.000000	0.014520
2586.000000	0.014550
2585.000000	0.014573
2584.000000	0.014573
2583.000000	0.014551
2582.000000	0.014524
2581.000000	0.014502
2580.000000	0.014482
2579.000000	0.014450
2578.000000	0.014398
2577.000000	0.014330
2576.000000	0.014265
2575.000000	0.014226
2574.000000	0.014222
2573.000000	0.014236
2572.000000	0.014240
2571.000000	0.014224
2570.000000	0.014205
2569.000000	0.014211
2568.000000	0.014254
2567.000000	0.014323
2566.000000	0.014395
2565.000000	0.014445
2564.000000	0.014453
2563.000000	0.014418
2562.000000	0.014368
2561.000000	0.014336
2560.000000	0.014332
2559.000000	0.014331
2558.000000	0.014303
2557.000000	0.014240
2556.000000	0.014167
2555.000000	0.014123
2554.000000	0.014142
2553.000000	0.014223
2552.000000	0.014331
2551.000000	0.014415
2550.000000	0.014452
2549.000000	0.014448
2548.000000	0.014416
2547.000000	0.014361
2546.000000	0.014285
2545.000000	0.014202
2544.000000	0.014118
2543.000000	0.014024
2542.000000	0.013922
2541.000000	0.013844
2540.000000	0.013841
2539.000000	0.013935
2538.000000	0.014100
2537.000000	0.014283
2536.000000	0.014440
2535.000000	0.014548
2534.000000	0.014608
2533.000000	0.014633
2532.000000	0.014642
2531.000000	0.014646
2530.000000	0.014650
2529.000000	0.014656
2528.000000	0.014666
2527.000000	0.014676
2526.000000	0.014683
2525.000000	0.014696
2524.000000	0.014729
2523.000000	0.014781
2522.000000	0.014837
2521.000000	0.014886
2520.000000	0.014941
2519.000000	0.015012
2518.000000	0.015083
2517.000000	0.015126
2516.000000	0.015137
2515.000000	0.015133
2514.000000	0.015124
2513.000000	0.015101
2512.000000	0.015059
2511.000000	0.015015
2510.000000	0.014988
2509.000000	0.014983
2508.000000	0.014995
2507.000000	0.015021
2506.000000	0.015056
2505.000000	0.015074
2504.000000	0.015060
2503.000000	0.015028
2502.000000	0.014999
2501.000000	0.014963
2500.000000	0.014881
2499.000000	0.014743
2498.000000	0.014591
2497.000000	0.014471
2496.000000	0.014386
2495.000000	0.014320
2494.000000	0.014282
2493.000000	0.014300
2492.000000	0.014364
2491.000000	0.014424
2490.000000	0.014442
2489.000000	0.014430
2488.000000	0.014411
2487.000000	0.014383
2486.000000	0.014334
2485.000000	0.014273
2484.000000	0.014231
2483.000000	0.014219
2482.000000	0.014219
2481.000000	0.014207
2480.000000	0.014177
2479.000000	0.014136
2478.000000	0.014093
2477.000000	0.014061
2476.000000	0.014055
2475.000000	0.014075
2474.000000	0.014097
2473.000000	0.014092
2472.000000	0.014059
2471.000000	0.014018
2470.000000	0.013994
2469.000000	0.013993
2468.000000	0.014008
2467.000000	0.014021
2466.000000	0.014007
2465.000000	0.013952
2464.000000	0.013880
2463.000000	0.013841
2462.000000	0.013861
2461.000000	0.013914
2460.000000	0.013953
2459.000000	0.013961
2458.000000	0.013958
2457.000000	0.013971
2456.000000	0.014011
2455.000000	0.014075
2454.000000	0.014148
2453.000000	0.014196
2452.000000	0.014190
2451.000000	0.014133
2450.000000	0.014057
2449.000000	0.013990
2448.000000	0.013939
2447.000000	0.013905
2446.000000	0.013893
2445.000000	0.013900
2444.000000	0.013917
2443.000000	0.013942
2442.000000	0.013980
2441.000000	0.014022
2440.000000	0.014041
2439.000000	0.014019
2438.000000	0.013971
2437.000000	0.013918
2436.000000	0.013876
2435.000000	0.013855
2434.000000	0.013857
2433.000000	0.013869
2432.000000	0.013858
2431.000000	0.013802
2430.000000	0.013711
2429.000000	0.013620
2428.000000	0.013573
2427.000000	0.013611
2426.000000	0.013735
2425.000000	0.013885
2424.000000	0.013975
2423.000000	0.013978
2422.000000	0.013943
2421.000000	0.013928
2420.000000	0.013934
2419.000000	0.013934
2418.000000	0.013930
2417.000000	0.013937
2416.000000	0.013941
2415.000000	0.013906
2414.000000	0.013825
2413.000000	0.013739
2412.000000	0.013699
2411.000000	0.013717
2410.000000	0.013768
2409.000000	0.013815
2408.000000	0.013834
2407.000000	0.013833
2406.000000	0.013837
2405.000000	0.013847
2404.000000	0.013845
2403.000000	0.013817
2402.000000	0.013782
2401.000000	0.013756
2400.000000	0.013737
2399.000000	0.013722
2398.000000	0.013726
2397.000000	0.013758
2396.000000	0.013801
2395.000000	0.013821
2394.000000	0.013812
2393.000000	0.013791
2392.000000	0.013771
2391.000000	0.013742
2390.000000	0.013693
2389.000000	0.013636
2388.000000	0.013608
2387.000000	0.013654
2386.000000	0.013773
2385.000000	0.013887
2384.000000	0.013897
2383.000000	0.013773
2382.000000	0.013594
2381.000000	0.013462
2380.000000	0.013420
2379.000000	0.013462
2378.000000	0.013576
2377.000000	0.013721
2376.000000	0.013824
2375.000000	0.013846
2374.000000	0.013829
2373.000000	0.013826
2372.000000	0.013817
2371.000000	0.013762
2370.000000	0.013686
2369.000000	0.013623
2368.000000	0.013565
2367.000000	0.013513
2366.000000	0.013523
2365.000000	0.013632
2364.000000	0.013787
2363.000000	0.013933
2362.000000	0.014088
2361.000000	0.014243
2360.000000	0.014337
2359.000000	0.014316
2358.000000	0.014194
2357.000000	0.014035
2356.000000	0.013929
2355.000000	0.013971
2354.000000	0.014045
2353.000000	0.013960
2352.000000	0.013737
2351.000000	0.013602
2350.000000	0.013674
2349.000000	0.013891
2348.000000	0.014108
2347.000000	0.014182
2346.000000	0.014105
2345.000000	0.014069
2344.000000	0.014203
2343.000000	0.014407
2342.000000	0.014496
2341.000000	0.014423
2340.000000	0.014312
2339.000000	0.014302
2338.000000	0.014381
2337.000000	0.014429
2336.000000	0.014403
2335.000000	0.014317
2334.000000	0.014166
2333.000000	0.013927
2332.000000	0.013719
2331.000000	0.013684
2330.000000	0.013863
2329.000000	0.014126
2328.000000	0.014384
2327.000000	0.014586
2326.000000	0.014708
2325.000000	0.014720
2324.000000	0.014650
2323.000000	0.014561
2322.000000	0.014522
2321.000000	0.014581
2320.000000	0.014761
2319.000000	0.015004
2318.000000	0.015221
2317.000000	0.015321
2316.000000	0.015306
2315.000000	0.015204
2314.000000	0.015078
2313.000000	0.014945
2312.000000	0.014815
2311.000000	0.014665
2310.000000	0.014514
2309.000000	0.014392
2308.000000	0.014327
2307.000000	0.014287
2306.000000	0.014241
2305.000000	0.014180
2304.000000	0.014123
2303.000000	0.014064
2302.000000	0.014015
2301.000000	0.014001
2300.000000	0.014051
2299.000000	0.014143
2298.000000	0.014248
2297.000000	0.014352
2296.000000	0.014457
2295.000000	0.014526
2294.000000	0.014530
2293.000000	0.014494
2292.000000	0.014480
2291.000000	0.014505
2290.000000	0.014530
2289.000000	0.014523
2288.000000	0.014505
2287.000000	0.014499
2286.000000	0.014484
2285.000000	0.014423
2284.000000	0.014305
2283.000000	0.014170
2282.000000	0.014061
2281.000000	0.013985
2280.000000	0.013910
2279.000000	0.013815
2278.000000	0.013733
2277.000000	0.013724
2276.000000	0.013798
2275.000000	0.013903
2274.000000	0.013985
2273.000000	0.014022
2272.000000	0.013994
2271.000000	0.013874
2270.000000	0.013686
2269.000000	0.013525
2268.000000	0.013464
2267.000000	0.013470
2266.000000	0.013454
2265.000000	0.013389
2264.000000	0.013324
2263.000000	0.013310
2262.000000	0.013355
2261.000000	0.013438
2260.000000	0.013520
2259.000000	0.013549
2258.000000	0.013517
2257.000000	0.013485
2256.000000	0.013515
2255.000000	0.013586
2254.000000	0.013620
2253.000000	0.013577
2252.000000	0.013480
2251.000000	0.013353
2250.000000	0.013209
2249.000000	0.013086
2248.000000	0.013038
2247.000000	0.013071
2246.000000	0.013128
2245.000000	0.013157
2244.000000	0.013158
2243.000000	0.013161
2242.000000	0.013182
2241.000000	0.013206
2240.000000	0.013203
2239.000000	0.013149
2238.000000	0.013053
2237.000000	0.012965
2236.000000	0.012936
2235.000000	0.012991
2234.000000	0.013128
2233.000000	0.013307
2232.000000	0.013441
2231.000000	0.013458
2230.000000	0.013394
2229.000000	0.013383
2228.000000	0.013492
2227.000000	0.013623
2226.000000	0.013621
2225.000000	0.013442
2224.000000	0.013160
2223.000000	0.012863
2222.000000	0.012609
2221.000000	0.012455
2220.000000	0.012435
2219.000000	0.012517
2218.000000	0.012636
2217.000000	0.012769
2216.000000	0.012923
2215.000000	0.013076
2214.000000	0.013189
2213.000000	0.013251
2212.000000	0.013268
2211.000000	0.013209
2210.000000	0.013046
2209.000000	0.012814
2208.000000	0.012599
2207.000000	0.012457
2206.000000	0.012414
2205.000000	0.012515
2204.000000	0.012773
2203.000000	0.013086
2202.000000	0.013291
2201.000000	0.013304
2200.000000	0.013162
2199.000000	0.012935
2198.000000	0.012688
2197.000000	0.012520
2196.000000	0.012541
2195.000000	0.012734
2194.000000	0.012920
2193.000000	0.012909
2192.000000	0.012686
2191.000000	0.012403
2190.000000	0.012222
2189.000000	0.012202
2188.000000	0.012309
2187.000000	0.012491
2186.000000	0.012726
2185.000000	0.012982
2184.000000	0.013175
2183.000000	0.013206
2182.000000	0.013067
2181.000000	0.012862
2180.000000	0.012707
2179.000000	0.012606
2178.000000	0.012492
2177.000000	0.012330
2176.000000	0.012148
2175.000000	0.011992
2174.000000	0.011907
2173.000000	0.011939
2172.000000	0.012104
2171.000000	0.012357
2170.000000	0.012636
2169.000000	0.012918
2168.000000	0.013209
2167.000000	0.013469
2166.000000	0.013611
2165.000000	0.013571
2164.000000	0.013368
2163.000000	0.013068
2162.000000	0.012681
2161.000000	0.012137
2160.000000	0.011386
2159.000000	0.010575
2158.000000	0.010050
2157.000000	0.010070
2156.000000	0.010544
2155.000000	0.011178
2154.000000	0.011767
2153.000000	0.012256
2152.000000	0.012614
2151.000000	0.012788
2150.000000	0.012759
2149.000000	0.012591
2148.000000	0.012386
2147.000000	0.012231
2146.000000	0.012191
2145.000000	0.012272
2144.000000	0.012379
2143.000000	0.012381
2142.000000	0.012258
2141.000000	0.012141
2140.000000	0.012167
2139.000000	0.012349
2138.000000	0.012592
2137.000000	0.012800
2136.000000	0.012925
2135.000000	0.012961
2134.000000	0.012939
2133.000000	0.012917
2132.000000	0.012939
2131.000000	0.013013
2130.000000	0.013137
2129.000000	0.013314
2128.000000	0.013510
2127.000000	0.013627
2126.000000	0.013561
2125.000000	0.013300
2124.000000	0.012971
2123.000000	0.012754
2122.000000	0.012748
2121.000000	0.012919
2120.000000	0.013155
2119.000000	0.013364
2118.000000	0.013521
2117.000000	0.013624
2116.000000	0.013656
2115.000000	0.013609
2114.000000	0.013517
2113.000000	0.013437
2112.000000	0.013389
2111.000000	0.013341
2110.000000	0.013259
2109.000000	0.013151
2108.000000	0.013079
2107.000000	0.013112
2106.000000	0.013270
2105.000000	0.013476
2104.000000	0.013601
2103.000000	0.013572
2102.000000	0.013437
2101.000000	0.013296
2100.000000	0.013205
2099.000000	0.013162
2098.000000	0.013152
2097.000000	0.013149
2096.000000	0.013101
2095.000000	0.012972
2094.000000	0.012813
2093.000000	0.012735
2092.000000	0.012794
2091.000000	0.012949
2090.000000	0.013111
2089.000000	0.013216
2088.000000	0.013260
2087.000000	0.013293
2086.000000	0.013368
2085.000000	0.013480
2084.000000	0.013557
2083.000000	0.013540
2082.000000	0.013447
2081.000000	0.013317
2080.000000	0.013126
2079.000000	0.012826
2078.000000	0.012462
2077.000000	0.012186
2076.000000	0.012124
2075.000000	0.012292
2074.000000	0.012609
2073.000000	0.012940
2072.000000	0.013155
2071.000000	0.013211
2070.000000	0.013204
2069.000000	0.013261
2068.000000	0.013389
2067.000000	0.013494
2066.000000	0.013515
2065.000000	0.013462
2064.000000	0.013346
2063.000000	0.013175
2062.000000	0.013013
2061.000000	0.012944
2060.000000	0.012958
2059.000000	0.012973
2058.000000	0.012978
2057.000000	0.013046
2056.000000	0.013174
2055.000000	0.013230
2054.000000	0.013112
2053.000000	0.012855
2052.000000	0.012530
2051.000000	0.012162
2050.000000	0.011808
2049.000000	0.011607
2048.000000	0.011629
2047.000000	0.011772
2046.000000	0.011919
2045.000000	0.012092
2044.000000	0.012352
2043.000000	0.012672
2042.000000	0.012984
2041.000000	0.013248
2040.000000	0.013395
2039.000000	0.013323
2038.000000	0.013027
2037.000000	0.012649
2036.000000	0.012312
2035.000000	0.012013
2034.000000	0.011765
2033.000000	0.011682
2032.000000	0.011791
2031.000000	0.011915
2030.000000	0.011893
2029.000000	0.011781
2028.000000	0.011695
2027.000000	0.011589
2026.000000	0.011358
2025.000000	0.011040
2024.000000	0.010768
2023.000000	0.010579
2022.000000	0.010430
2021.000000	0.010332
2020.000000	0.010350
2019.000000	0.010471
2018.000000	0.010591
2017.000000	0.010609
2016.000000	0.010530
2015.000000	0.010484
2014.000000	0.010649
2013.000000	0.011086
2012.000000	0.011639
2011.000000	0.012041
2010.000000	0.012154
2009.000000	0.012026
2008.000000	0.011764
2007.000000	0.011442
2006.000000	0.011129
2005.000000	0.010906
2004.000000	0.010806
2003.000000	0.010805
2002.000000	0.010879
2001.000000	0.011004
2000.000000	0.011123
1999.000000	0.011197
1998.000000	0.011270
1997.000000	0.011375
1996.000000	0.011434
1995.000000	0.011385
1994.000000	0.011358
1993.000000	0.011551
1992.000000	0.011913
1991.000000	0.012145
1990.000000	0.012094
1989.000000	0.011939
1988.000000	0.011916
1987.000000	0.012040
1986.000000	0.012186
1985.000000	0.012288
1984.000000	0.012351
1983.000000	0.012350
1982.000000	0.012237
1981.000000	0.011994
1980.000000	0.011627
1979.000000	0.011163
1978.000000	0.010702
1977.000000	0.010382
1976.000000	0.010235
1975.000000	0.010213
1974.000000	0.010332
1973.000000	0.010604
1972.000000	0.010863
1971.000000	0.010875
1970.000000	0.010637
1969.000000	0.010379
1968.000000	0.010290
1967.000000	0.010402
1966.000000	0.010725
1965.000000	0.011257
1964.000000	0.011806
1963.000000	0.012053
1962.000000	0.011894
1961.000000	0.011567
1960.000000	0.011360
1959.000000	0.011323
1958.000000	0.011353
1957.000000	0.011401
1956.000000	0.011475
1955.000000	0.011554
1954.000000	0.011610
1953.000000	0.011648
1952.000000	0.011672
1951.000000	0.011662
1950.000000	0.011620
1949.000000	0.011576
1948.000000	0.011529
1947.000000	0.011456
1946.000000	0.011383
1945.000000	0.011391
1944.000000	0.011514
1943.000000	0.011699
1942.000000	0.011856
1941.000000	0.011939
1940.000000	0.011956
1939.000000	0.011946
1938.000000	0.011960
1937.000000	0.012002
1936.000000	0.011999
1935.000000	0.011887
1934.000000	0.011734
1933.000000	0.011673
1932.000000	0.011755
1931.000000	0.011922
1930.000000	0.012101
1929.000000	0.012240
1928.000000	0.012286
1927.000000	0.012218
1926.000000	0.012105
1925.000000	0.012046
1924.000000	0.012043
1923.000000	0.012017
1922.000000	0.011927
1921.000000	0.011821
1920.000000	0.011734
1919.000000	0.011663
1918.000000	0.011636
1917.000000	0.011714
1916.000000	0.011878
1915.000000	0.012031
1914.000000	0.012106
1913.000000	0.012115
1912.000000	0.012102
1911.000000	0.012088
1910.000000	0.012091
1909.000000	0.012130
1908.000000	0.012181
1907.000000	0.012179
1906.000000	0.012098
1905.000000	0.011984
1904.000000	0.011895
1903.000000	0.011851
1902.000000	0.011850
1901.000000	0.011882
1900.000000	0.011916
1899.000000	0.011911
1898.000000	0.011880
1897.000000	0.011877
1896.000000	0.011916
1895.000000	0.011951
1894.000000	0.011948
1893.000000	0.011928
1892.000000	0.011905
1891.000000	0.011852
1890.000000	0.011768
1889.000000	0.011712
1888.000000	0.011724
1887.000000	0.011758
1886.000000	0.011750
1885.000000	0.011681
1884.000000	0.011569
1883.000000	0.011436
1882.000000	0.011312
1881.000000	0.011245
1880.000000	0.011254
1879.000000	0.011315
1878.000000	0.011408
1877.000000	0.011544
1876.000000	0.011699
1875.000000	0.011804
1874.000000	0.011824
1873.000000	0.011796
1872.000000	0.011760
1871.000000	0.011690
1870.000000	0.011548
1869.000000	0.011375
1868.000000	0.011258
1867.000000	0.011222
1866.000000	0.011226
1865.000000	0.011250
1864.000000	0.011293
1863.000000	0.011334
1862.000000	0.011345
1861.000000	0.011335
1860.000000	0.011338
1859.000000	0.011372
1858.000000	0.011426
1857.000000	0.011493
1856.000000	0.011562
1855.000000	0.011604
1854.000000	0.011589
1853.000000	0.011525
1852.000000	0.011455
1851.000000	0.011410
1850.000000	0.011396
1849.000000	0.011426
1848.000000	0.011510
1847.000000	0.011615
1846.000000	0.011673
1845.000000	0.011628
1844.000000	0.011493
1843.000000	0.011348
1842.000000	0.011264
1841.000000	0.011250
1840.000000	0.011258
1839.000000	0.011235
1838.000000	0.011173
1837.000000	0.011094
1836.000000	0.011024
1835.000000	0.010986
1834.000000	0.011011
1833.000000	0.011100
1832.000000	0.011175
1831.000000	0.011145
1830.000000	0.011051
1829.000000	0.011024
1828.000000	0.011087
1827.000000	0.011138
1826.000000	0.011113
1825.000000	0.011051
1824.000000	0.011019
1823.000000	0.011022
1822.000000	0.011030
1821.000000	0.011033
1820.000000	0.011031
1819.000000	0.011015
1818.000000	0.010985
1817.000000	0.010943
1816.000000	0.010902
1815.000000	0.010881
1814.000000	0.010891
1813.000000	0.010915
1812.000000	0.010910
1811.000000	0.010875
1810.000000	0.010872
1809.000000	0.010936
1808.000000	0.011043
1807.000000	0.011152
1806.000000	0.011251
1805.000000	0.011353
1804.000000	0.011456
1803.000000	0.011555
1802.000000	0.011677
1801.000000	0.011859
1800.000000	0.012088
1799.000000	0.012301
1798.000000	0.012444
1797.000000	0.012516
1796.000000	0.012553
1795.000000	0.012567
1794.000000	0.012518
1793.000000	0.012358
1792.000000	0.012096
1791.000000	0.011815
1790.000000	0.011589
1789.000000	0.011425
1788.000000	0.011298
1787.000000	0.011182
1786.000000	0.011083
1785.000000	0.011023
1784.000000	0.010999
1783.000000	0.010970
1782.000000	0.010898
1781.000000	0.010807
1780.000000	0.010743
1779.000000	0.010706
1778.000000	0.010671
1777.000000	0.010649
1776.000000	0.010673
1775.000000	0.010724
1774.000000	0.010732
1773.000000	0.010668
1772.000000	0.010587
1771.000000	0.010550
1770.000000	0.010555
1769.000000	0.010558
1768.000000	0.010527
1767.000000	0.010480
1766.000000	0.010474
1765.000000	0.010530
1764.000000	0.010587
1763.000000	0.010577
1762.000000	0.010525
1761.000000	0.010530
1760.000000	0.010607
1759.000000	0.010698
1758.000000	0.010770
1757.000000	0.010879
1756.000000	0.011072
1755.000000	0.011296
1754.000000	0.011480
1753.000000	0.011620
1752.000000	0.011750
1751.000000	0.011892
1750.000000	0.012066
1749.000000	0.012296
1748.000000	0.012556
1747.000000	0.012778
1746.000000	0.012944
1745.000000	0.013108
1744.000000	0.013305
1743.000000	0.013533
1742.000000	0.013782
1741.000000	0.014033
1740.000000	0.014233
1739.000000	0.014364
1738.000000	0.014489
1737.000000	0.014646
1736.000000	0.014744
1735.000000	0.014623
1734.000000	0.014278
1733.000000	0.013947
1732.000000	0.013769
1731.000000	0.013659
1730.000000	0.013530
1729.000000	0.013415
1728.000000	0.013343
1727.000000	0.013263
1726.000000	0.013134
1725.000000	0.012978
1724.000000	0.012818
1723.000000	0.012666
1722.000000	0.012563
1721.000000	0.012531
1720.000000	0.012491
1719.000000	0.012311
1718.000000	0.012020
1717.000000	0.011800
1716.000000	0.011730
1715.000000	0.011738
1714.000000	0.011747
1713.000000	0.011758
1712.000000	0.011808
1711.000000	0.011891
1710.000000	0.011991
1709.000000	0.012117
1708.000000	0.012259
1707.000000	0.012361
1706.000000	0.012417
1705.000000	0.012516
1704.000000	0.012730
1703.000000	0.013025
1702.000000	0.013303
1701.000000	0.013458
1700.000000	0.013477
1699.000000	0.013492
1698.000000	0.013595
1697.000000	0.013784
1696.000000	0.014063
1695.000000	0.014415
1694.000000	0.014774
1693.000000	0.015106
1692.000000	0.015370
1691.000000	0.015559
1690.000000	0.015741
1689.000000	0.016003
1688.000000	0.016337
1687.000000	0.016648
1686.000000	0.016864
1685.000000	0.017007
1684.000000	0.017221
1683.000000	0.017504
1682.000000	0.017737
1681.000000	0.017975
1680.000000	0.018279
1679.000000	0.018643
1678.000000	0.019019
1677.000000	0.019381
1676.000000	0.019718
1675.000000	0.020000
1674.000000	0.020233
1673.000000	0.020493
1672.000000	0.020806
1671.000000	0.021115
1670.000000	0.021375
1669.000000	0.021613
1668.000000	0.021847
1667.000000	0.022075
1666.000000	0.022323
1665.000000	0.022614
1664.000000	0.022924
1663.000000	0.023216
1662.000000	0.023482
1661.000000	0.023749
1660.000000	0.024022
1659.000000	0.024265
1658.000000	0.024486
1657.000000	0.024736
1656.000000	0.025027
1655.000000	0.025260
1654.000000	0.025368
1653.000000	0.025477
1652.000000	0.025586
1651.000000	0.025657
1650.000000	0.025792
1649.000000	0.025925
1648.000000	0.026020
1647.000000	0.026083
1646.000000	0.026090
1645.000000	0.026032
1644.000000	0.025981
1643.000000	0.025954
1642.000000	0.025911
1641.000000	0.025855
1640.000000	0.025816
1639.000000	0.025792
1638.000000	0.025757
1637.000000	0.025710
1636.000000	0.025688
1635.000000	0.025614
1634.000000	0.025396
1633.000000	0.025121
1632.000000	0.024878
1631.000000	0.024665
1630.000000	0.024455
1629.000000	0.024236
1628.000000	0.024023
1627.000000	0.023823
1626.000000	0.023630
1625.000000	0.023444
1624.000000	0.023253
1623.000000	0.023043
1622.000000	0.022827
1621.000000	0.022646
1620.000000	0.022499
1619.000000	0.022310
1618.000000	0.022030
1617.000000	0.021739
1616.000000	0.021560
1615.000000	0.021461
1614.000000	0.021351
1613.000000	0.021208
1612.000000	0.021040
1611.000000	0.020844
1610.000000	0.020618
1609.000000	0.020403
1608.000000	0.020247
1607.000000	0.020132
1606.000000	0.020019
1605.000000	0.019924
1604.000000	0.019871
1603.000000	0.019830
1602.000000	0.019758
1601.000000	0.019663
1600.000000	0.019568
1599.000000	0.019463
1598.000000	0.019339
1597.000000	0.019222
1596.000000	0.019140
1595.000000	0.019084
1594.000000	0.019030
1593.000000	0.018987
1592.000000	0.018967
1591.000000	0.018943
1590.000000	0.018888
1589.000000	0.018825
1588.000000	0.018786
1587.000000	0.018766
1586.000000	0.018737
1585.000000	0.018709
1584.000000	0.018710
1583.000000	0.018725
1582.000000	0.018728
1581.000000	0.018736
1580.000000	0.018778
1579.000000	0.018824
1578.000000	0.018813
1577.000000	0.018750
1576.000000	0.018703
1575.000000	0.018693
1574.000000	0.018714
1573.000000	0.018783
1572.000000	0.018854
1571.000000	0.018862
1570.000000	0.018812
1569.000000	0.018812
1568.000000	0.018904
1567.000000	0.019015
1566.000000	0.019102
1565.000000	0.019185
1564.000000	0.019290
1563.000000	0.019397
1562.000000	0.019488
1561.000000	0.019577
1560.000000	0.019639
1559.000000	0.019776
1558.000000	0.019990
1557.000000	0.020106
1556.000000	0.020216
1555.000000	0.020348
1554.000000	0.020487
1553.000000	0.020638
1552.000000	0.020790
1551.000000	0.020946
1550.000000	0.021155
1549.000000	0.021452
1548.000000	0.021777
1547.000000	0.022054
1546.000000	0.022280
1545.000000	0.022516
1544.000000	0.022798
1543.000000	0.023069
1542.000000	0.023259
1541.000000	0.023380
1540.000000	0.023559
1539.000000	0.023762
1538.000000	0.023879
1537.000000	0.023996
1536.000000	0.024133
1535.000000	0.024229
1534.000000	0.024286
1533.000000	0.024373
1532.000000	0.024481
1531.000000	0.024571
1530.000000	0.024655
1529.000000	0.024753
1528.000000	0.024873
1527.000000	0.025020
1526.000000	0.025194
1525.000000	0.025367
1524.000000	0.025493
1523.000000	0.025567
1522.000000	0.025685
1521.000000	0.025926
1520.000000	0.026178
1519.000000	0.026342
1518.000000	0.026465
1517.000000	0.026642
1516.000000	0.026872
1515.000000	0.027048
1514.000000	0.027150
1513.000000	0.027244
1512.000000	0.027348
1511.000000	0.027431
1510.000000	0.027480
1509.000000	0.027526
1508.000000	0.027631
1507.000000	0.027933
1506.000000	0.028333
1505.000000	0.028510
1504.000000	0.028535
1503.000000	0.028574
1502.000000	0.028687
1501.000000	0.028882
1500.000000	0.029087
1499.000000	0.029211
1498.000000	0.029325
1497.000000	0.029583
1496.000000	0.029949
1495.000000	0.030257
1494.000000	0.030477
1493.000000	0.030667
1492.000000	0.030837
1491.000000	0.030988
1490.000000	0.031199
1489.000000	0.031526
1488.000000	0.031886
1487.000000	0.032204
1486.000000	0.032479
1485.000000	0.032746
1484.000000	0.033024
1483.000000	0.033319
1482.000000	0.033672
1481.000000	0.034091
1480.000000	0.034500
1479.000000	0.034835
1478.000000	0.035148
1477.000000	0.035521
1476.000000	0.035933
1475.000000	0.036329
1474.000000	0.036778
1473.000000	0.037422
1472.000000	0.038164
1471.000000	0.038723
1470.000000	0.039070
1469.000000	0.039360
1468.000000	0.039684
1467.000000	0.040080
1466.000000	0.040605
1465.000000	0.041272
1464.000000	0.041895
1463.000000	0.042268
1462.000000	0.042442
1461.000000	0.042578
1460.000000	0.042740
1459.000000	0.042944
1458.000000	0.043356
1457.000000	0.044147
1456.000000	0.044952
1455.000000	0.045401
1454.000000	0.045650
1453.000000	0.045899
1452.000000	0.046181
1451.000000	0.046446
1450.000000	0.046711
1449.000000	0.047060
1448.000000	0.047482
1447.000000	0.047856
1446.000000	0.048128
1445.000000	0.048383
1444.000000	0.048679
1443.000000	0.048990
1442.000000	0.049288
1441.000000	0.049574
1440.000000	0.049822
1439.000000	0.050026
1438.000000	0.050318
1437.000000	0.050870
1436.000000	0.051526
1435.000000	0.051913
1434.000000	0.052029
1433.000000	0.052108
1432.000000	0.052281
1431.000000	0.052539
1430.000000	0.052856
1429.000000	0.053226
1428.000000	0.053565
1427.000000	0.053794
1426.000000	0.053975
1425.000000	0.054262
1424.000000	0.054651
1423.000000	0.054933
1422.000000	0.055034
1421.000000	0.055143
1420.000000	0.055459
1419.000000	0.055945
1418.000000	0.056382
1417.000000	0.056660
1416.000000	0.056805
1415.000000	0.056859
1414.000000	0.056889
1413.000000	0.056981
1412.000000	0.057139
1411.000000	0.057280
1410.000000	0.057369
1409.000000	0.057437
1408.000000	0.057467
1407.000000	0.057426
1406.000000	0.057372
1405.000000	0.057428
1404.000000	0.057561
1403.000000	0.057606
1402.000000	0.057532
1401.000000	0.057470
1400.000000	0.057506
1399.000000	0.057562
1398.000000	0.057546
1397.000000	0.057504
1396.000000	0.057528
1395.000000	0.057620
1394.000000	0.057709
1393.000000	0.057751
1392.000000	0.057715
1391.000000	0.057580
1390.000000	0.057397
1389.000000	0.057285
1388.000000	0.057305
1387.000000	0.057369
1386.000000	0.057341
1385.000000	0.057197
1384.000000	0.056987
1383.000000	0.056748
1382.000000	0.056516
1381.000000	0.056318
1380.000000	0.056139
1379.000000	0.055937
1378.000000	0.055697
1377.000000	0.055446
1376.000000	0.055212
1375.000000	0.055016
1374.000000	0.054879
1373.000000	0.054783
1372.000000	0.054657
1371.000000	0.054461
1370.000000	0.054230
1369.000000	0.054033
1368.000000	0.053859
1367.000000	0.053622
1366.000000	0.053294
1365.000000	0.052947
1364.000000	0.052660
1363.000000	0.052461
1362.000000	0.052325
1361.000000	0.052204
1360.000000	0.052051
1359.000000	0.051841
1358.000000	0.051589
1357.000000	0.051336
1356.000000	0.051097
1355.000000	0.050858
1354.000000	0.050621
1353.000000	0.050399
1352.000000	0.050183
1351.000000	0.049955
1350.000000	0.049723
1349.000000	0.049524
1348.000000	0.049361
1347.000000	0.049207
1346.000000	0.049055
1345.000000	0.048928
1344.000000	0.048810
1343.000000	0.048652
1342.000000	0.048448
1341.000000	0.048253
1340.000000	0.048113
1339.000000	0.048007
1338.000000	0.047907
1337.000000	0.047821
1336.000000	0.047742
1335.000000	0.047627
1334.000000	0.047455
1333.000000	0.047258
1332.000000	0.047065
1331.000000	0.046869
1330.000000	0.046655
1329.000000	0.046440
1328.000000	0.046239
1327.000000	0.046046
1326.000000	0.045858
1325.000000	0.045697
1324.000000	0.045555
1323.000000	0.045393
1322.000000	0.045199
1321.000000	0.045016
1320.000000	0.044869
1319.000000	0.044729
1318.000000	0.044553
1317.000000	0.044341
1316.000000	0.044109
1315.000000	0.043873
1314.000000	0.043652
1313.000000	0.043463
1312.000000	0.043284
1311.000000	0.043080
1310.000000	0.042859
1309.000000	0.042664
1308.000000	0.042490
1307.000000	0.042291
1306.000000	0.042047
1305.000000	0.041795
1304.000000	0.041559
1303.000000	0.041323
1302.000000	0.041081
1301.000000	0.040859
1300.000000	0.040652
1299.000000	0.040419
1298.000000	0.040149
1297.000000	0.039882
1296.000000	0.039650
1295.000000	0.039434
1294.000000	0.039219
1293.000000	0.039017
1292.000000	0.038829
1291.000000	0.038631
1290.000000	0.038414
1289.000000	0.038207
1288.000000	0.038019
1287.000000	0.037826
1286.000000	0.037623
1285.000000	0.037441
1284.000000	0.037281
1283.000000	0.037104
1282.000000	0.036896
1281.000000	0.036692
1280.000000	0.036521
1279.000000	0.036371
1278.000000	0.036229
1277.000000	0.036112
1276.000000	0.036018
1275.000000	0.035915
1274.000000	0.035794
1273.000000	0.035687
1272.000000	0.035607
1271.000000	0.035530
1270.000000	0.035452
1269.000000	0.035416
1268.000000	0.035440
1267.000000	0.035487
1266.000000	0.035526
1265.000000	0.035568
1264.000000	0.035610
1263.000000	0.035607
1262.000000	0.035543
1261.000000	0.035472
1260.000000	0.035452
1259.000000	0.035471
1258.000000	0.035504
1257.000000	0.035553
1256.000000	0.035611
1255.000000	0.035628
1254.000000	0.035571
1253.000000	0.035472
1252.000000	0.035379
1251.000000	0.035301
1250.000000	0.035221
1249.000000	0.035142
1248.000000	0.035056
1247.000000	0.034938
1246.000000	0.034787
1245.000000	0.034653
1244.000000	0.034585
1243.000000	0.034575
1242.000000	0.034583
1241.000000	0.034570
1240.000000	0.034507
1239.000000	0.034379
1238.000000	0.034213
1237.000000	0.034056
1236.000000	0.033921
1235.000000	0.033777
1234.000000	0.033616
1233.000000	0.033464
1232.000000	0.033326
1231.000000	0.033167
1230.000000	0.032977
1229.000000	0.032782
1228.000000	0.032585
1227.000000	0.032351
1226.000000	0.032077
1225.000000	0.031807
1224.000000	0.031560
1223.000000	0.031302
1222.000000	0.031018
1221.000000	0.030744
1220.000000	0.030505
1219.000000	0.030273
1218.000000	0.030031
1217.000000	0.029805
1216.000000	0.029616
1215.000000	0.029430
1214.000000	0.029223
1213.000000	0.029018
1212.000000	0.028843
1211.000000	0.028682
1210.000000	0.028525
1209.000000	0.028393
1208.000000	0.028291
1207.000000	0.028187
1206.000000	0.028062
1205.000000	0.027940
1204.000000	0.027826
1203.000000	0.027689
1202.000000	0.027518
1201.000000	0.027357
1200.000000	0.027238
1199.000000	0.027125
1198.000000	0.026991
1197.000000	0.026873
1196.000000	0.026809
1195.000000	0.026759
1194.000000	0.026658
1193.000000	0.026505
1192.000000	0.026354
1191.000000	0.026245
1190.000000	0.026183
1189.000000	0.026164
1188.000000	0.026175
1187.000000	0.026189
1186.000000	0.026193
1185.000000	0.026208
1184.000000	0.026245
1183.000000	0.026281
1182.000000	0.026310
1181.000000	0.026370
1180.000000	0.026493
1179.000000	0.026653
1178.000000	0.026802
1177.000000	0.026926
1176.000000	0.027036
1175.000000	0.027136
1174.000000	0.027237
1173.000000	0.027363
1172.000000	0.027518
1171.000000	0.027669
1170.000000	0.027805
1169.000000	0.027955
1168.000000	0.028132
1167.000000	0.028299
1166.000000	0.028430
1165.000000	0.028546
1164.000000	0.028672
1163.000000	0.028797
1162.000000	0.028912
1161.000000	0.029029
1160.000000	0.029138
1159.000000	0.029195
1158.000000	0.029191
1157.000000	0.029190
1156.000000	0.029237
1155.000000	0.029296
1154.000000	0.029305
1153.000000	0.029252
1152.000000	0.029152
1151.000000	0.029006
1150.000000	0.028832
1149.000000	0.028678
1148.000000	0.028565
1147.000000	0.028448
1146.000000	0.028284
1145.000000	0.028083
1144.000000	0.027868
1143.000000	0.027622
1142.000000	0.027344
1141.000000	0.027088
1140.000000	0.026904
1139.000000	0.026778
1138.000000	0.026667
1137.000000	0.026557
1136.000000	0.026453
1135.000000	0.026343
1134.000000	0.026239
1133.000000	0.026181
1132.000000	0.026184
1131.000000	0.026209
1130.000000	0.026225
1129.000000	0.026255
1128.000000	0.026317
1127.000000	0.026387
1126.000000	0.026447
1125.000000	0.026523
1124.000000	0.026630
1123.000000	0.026738
1122.000000	0.026817
1121.000000	0.026888
1120.000000	0.026972
1119.000000	0.027055
1118.000000	0.027140
1117.000000	0.027277
1116.000000	0.027494
1115.000000	0.027738
1114.000000	0.027939
1113.000000	0.028080
1112.000000	0.028168
1111.000000	0.028211
1110.000000	0.028239
1109.000000	0.028313
1108.000000	0.028438
1107.000000	0.028539
1106.000000	0.028562
1105.000000	0.028542
1104.000000	0.028542
1103.000000	0.028571
1102.000000	0.028615
1101.000000	0.028676
1100.000000	0.028751
1099.000000	0.028820
1098.000000	0.028895
1097.000000	0.029025
1096.000000	0.029218
1095.000000	0.029415
1094.000000	0.029569
1093.000000	0.029699
1092.000000	0.029819
1091.000000	0.029901
1090.000000	0.029943
1089.000000	0.029996
1088.000000	0.030088
1087.000000	0.030179
1086.000000	0.030238
1085.000000	0.030298
1084.000000	0.030382
1083.000000	0.030438
1082.000000	0.030425
1081.000000	0.030372
1080.000000	0.030326
1079.000000	0.030289
1078.000000	0.030259
1077.000000	0.030263
1076.000000	0.030299
1075.000000	0.030324
1074.000000	0.030327
1073.000000	0.030349
1072.000000	0.030412
1071.000000	0.030478
1070.000000	0.030532
1069.000000	0.030601
1068.000000	0.030677
1067.000000	0.030699
1066.000000	0.030657
1065.000000	0.030631
1064.000000	0.030674
1063.000000	0.030735
1062.000000	0.030760
1061.000000	0.030778
1060.000000	0.030836
1059.000000	0.030914
1058.000000	0.030983
1057.000000	0.031069
1056.000000	0.031189
1055.000000	0.031304
1054.000000	0.031389
1053.000000	0.031475
1052.000000	0.031585
1051.000000	0.031682
1050.000000	0.031749
1049.000000	0.031843
1048.000000	0.031998
1047.000000	0.032169
1046.000000	0.032313
1045.000000	0.032462
1044.000000	0.032652
1043.000000	0.032861
1042.000000	0.033057
1041.000000	0.033256
1040.000000	0.033463
1039.000000	0.033647
1038.000000	0.033806
1037.000000	0.033986
1036.000000	0.034192
1035.000000	0.034356
1034.000000	0.034449
1033.000000	0.034527
1032.000000	0.034634
1031.000000	0.034734
1030.000000	0.034799
1029.000000	0.034869
1028.000000	0.034966
1027.000000	0.035038
1026.000000	0.035051
1025.000000	0.035053
1024.000000	0.035089
1023.000000	0.035117
1022.000000	0.035086
1021.000000	0.035020
1020.000000	0.034964
1019.000000	0.034908
1018.000000	0.034833
1017.000000	0.034765
1016.000000	0.034716
1015.000000	0.034645
1014.000000	0.034526
1013.000000	0.034398
1012.000000	0.034293
1011.000000	0.034191
1010.000000	0.034073
1009.000000	0.033968
1008.000000	0.033882
1007.000000	0.033765
1006.000000	0.033587
1005.000000	0.033378
1004.000000	0.033178
1003.000000	0.032989
1002.000000	0.032818
1001.000000	0.032688
1000.000000	0.032568
999.000000	0.032395
998.000000	0.032164
997.000000	0.031946
996.000000	0.031762
995.000000	0.031558
994.000000	0.031320
993.000000	0.031109
992.000000	0.030952
991.000000	0.030789
990.000000	0.030577
989.000000	0.030356
988.000000	0.030160
987.000000	0.029955
986.000000	0.029728
985.000000	0.029529
984.000000	0.029373
983.000000	0.029187
982.000000	0.028934
981.000000	0.028678
980.000000	0.028482
979.000000	0.028308
978.000000	0.028102
977.000000	0.027889
976.000000	0.027700
975.000000	0.027498
974.000000	0.027246
973.000000	0.026977
972.000000	0.026726
971.000000	0.026470
970.000000	0.026185
969.000000	0.025910
968.000000	0.025680
967.000000	0.025469
966.000000	0.025246
965.000000	0.025007
964.000000	0.024736
963.000000	0.024393
962.000000	0.024009
961.000000	0.023696
960.000000	0.023501
959.000000	0.023341
958.000000	0.023133
957.000000	0.022895
956.000000	0.022663
955.000000	0.022394
954.000000	0.022061
953.000000	0.021742
952.000000	0.021525
951.000000	0.021382
950.000000	0.021224
949.000000	0.021021
948.000000	0.020800
947.000000	0.020571
946.000000	0.020336
945.000000	0.020116
944.000000	0.019918
943.000000	0.019705
942.000000	0.019458
941.000000	0.019218
940.000000	0.019010
939.000000	0.018803
938.000000	0.018580
937.000000	0.018377
936.000000	0.018214
935.000000	0.018052
934.000000	0.017863
933.000000	0.017686
932.000000	0.017549
931.000000	0.017414
930.000000	0.017248
929.000000	0.017075
928.000000	0.016914
927.000000	0.016739
926.000000	0.016553
925.000000	0.016416
924.000000	0.016335
923.000000	0.016226
922.000000	0.016032
921.000000	0.015805
920.000000	0.015607
919.000000	0.015415
918.000000	0.015193
917.000000	0.014978
916.000000	0.014810
915.000000	0.014655
914.000000	0.014468
913.000000	0.014274
912.000000	0.014111
911.000000	0.013958
910.000000	0.013786
909.000000	0.013609
908.000000	0.013430
907.000000	0.013207
906.000000	0.012936
905.000000	0.012700
904.000000	0.012568
903.000000	0.012489
902.000000	0.012375
901.000000	0.012200
900.000000	0.011978
899.000000	0.011703
898.000000	0.011390
897.000000	0.011102
896.000000	0.010876
895.000000	0.010667
894.000000	0.010433
893.000000	0.010189
892.000000	0.009951
891.000000	0.009695
890.000000	0.009471
889.000000	0.009494
888.000000	0.010049
887.000000	0.011337
886.000000	0.013418
885.000000	0.016187
884.000000	0.019362
883.000000	0.022612
882.000000	0.025813
881.000000	0.029122
880.000000	0.032714
879.000000	0.036559
878.000000	0.040489
877.000000	0.044368
876.000000	0.048059
875.000000	0.051372
874.000000	0.054150
873.000000	0.056326
872.000000	0.057764
871.000000	0.058190
870.000000	0.057429
869.000000	0.055614
868.000000	0.053090
867.000000	0.050182
866.000000	0.047155
865.000000	0.044238
864.000000	0.041561
863.000000	0.039117
862.000000	0.036870
861.000000	0.034830
860.000000	0.032994
859.000000	0.031313
858.000000	0.029776
857.000000	0.028444
856.000000	0.027329
855.000000	0.026321
854.000000	0.025326
853.000000	0.024390
852.000000	0.023660
851.000000	0.023280
850.000000	0.023325
849.000000	0.023690
848.000000	0.024000
847.000000	0.023804
846.000000	0.022996
845.000000	0.021918
844.000000	0.020980
843.000000	0.020306
842.000000	0.019806
841.000000	0.019420
840.000000	0.019139
839.000000	0.018893
838.000000	0.018601
837.000000	0.018268
836.000000	0.017936
835.000000	0.017616
834.000000	0.017329
833.000000	0.017132
832.000000	0.017014
831.000000	0.016864
830.000000	0.016628
829.000000	0.016391
828.000000	0.016208
827.000000	0.015992
826.000000	0.015669
825.000000	0.015330
824.000000	0.015082
823.000000	0.014887
822.000000	0.014682
821.000000	0.014535
820.000000	0.014499
819.000000	0.014452
818.000000	0.014239
817.000000	0.013895
816.000000	0.013591
815.000000	0.013413
814.000000	0.013321
813.000000	0.013275
812.000000	0.013269
811.000000	0.013288
810.000000	0.013307
809.000000	0.013316
808.000000	0.013285
807.000000	0.013173
806.000000	0.013021
805.000000	0.012956
804.000000	0.013014
803.000000	0.013073
802.000000	0.013026
801.000000	0.012924
800.000000	0.012866
799.000000	0.012856
798.000000	0.012861
797.000000	0.012906
796.000000	0.012996
795.000000	0.013044
794.000000	0.012994
793.000000	0.012930
792.000000	0.012947
791.000000	0.013003
790.000000	0.013002
789.000000	0.012943
788.000000	0.012882
787.000000	0.012832
786.000000	0.012789
785.000000	0.012792
784.000000	0.012864
783.000000	0.012945
782.000000	0.012973
781.000000	0.012969
780.000000	0.012974
779.000000	0.012970
778.000000	0.012935
777.000000	0.012907
776.000000	0.012912
775.000000	0.012898
774.000000	0.012820
773.000000	0.012700
772.000000	0.012569
771.000000	0.012415
770.000000	0.012254
769.000000	0.012162
768.000000	0.012166
767.000000	0.012198
766.000000	0.012208
765.000000	0.012237
764.000000	0.012305
763.000000	0.012334
762.000000	0.012276
761.000000	0.012195
760.000000	0.012158
759.000000	0.012124
758.000000	0.012043
757.000000	0.011959
756.000000	0.011917
755.000000	0.011876
754.000000	0.011799
753.000000	0.011744
752.000000	0.011766
751.000000	0.011801
750.000000	0.011762
749.000000	0.011677
748.000000	0.011618
747.000000	0.011579
746.000000	0.011512
745.000000	0.011427
744.000000	0.011364
743.000000	0.011308
742.000000	0.011224
741.000000	0.011129
740.000000	0.011062
739.000000	0.011013
738.000000	0.010970
737.000000	0.010948
736.000000	0.010947
735.000000	0.010914
734.000000	0.010829
733.000000	0.010756
732.000000	0.010749
731.000000	0.010769
730.000000	0.010755
729.000000	0.010724
728.000000	0.010697
727.000000	0.010618
726.000000	0.010461
725.000000	0.010318
724.000000	0.010269
723.000000	0.010271
722.000000	0.010292
721.000000	0.010431
720.000000	0.010811
719.000000	0.011459
718.000000	0.012463
717.000000	0.014171
716.000000	0.017080
715.000000	0.021392
714.000000	0.026602
713.000000	0.031467
712.000000	0.034501
711.000000	0.034843
710.000000	0.032831
709.000000	0.029690
708.000000	0.026625
707.000000	0.024183
706.000000	0.022393
705.000000	0.021163
704.000000	0.020357
703.000000	0.019763
702.000000	0.019209
701.000000	0.018682
700.000000	0.018250
699.000000	0.017895
698.000000	0.017576
697.000000	0.017342
696.000000	0.017225
695.000000	0.017160
694.000000	0.017031
693.000000	0.016789
692.000000	0.016485
691.000000	0.016156
690.000000	0.015851
689.000000	0.015657
688.000000	0.015592
687.000000	0.015561
686.000000	0.015441
685.000000	0.015225
684.000000	0.015027
683.000000	0.014921
682.000000	0.014866
681.000000	0.014823
680.000000	0.014841
679.000000	0.014938
678.000000	0.015001
677.000000	0.014995
676.000000	0.014996
675.000000	0.015039
674.000000	0.015017
673.000000	0.014779
672.000000	0.014213
671.000000	0.013226
670.000000	0.011758
669.000000	0.010110
668.000000	0.009586
667.000000	0.010922
666.000000	0.012284
665.000000	0.013256
664.000000	0.014043
663.000000	0.014437
662.000000	0.014364
661.000000	0.014148
660.000000	0.014094
659.000000	0.014101
658.000000	0.013962
657.000000	0.013798
656.000000	0.013722
655.000000	0.013573
654.000000	0.013332
653.000000	0.013311
652.000000	0.013599
651.000000	0.013853
650.000000	0.013855
649.000000	0.013866
648.000000	0.014090
647.000000	0.014300
646.000000	0.014323
645.000000	0.014347
644.000000	0.014494
643.000000	0.014572
642.000000	0.014438
641.000000	0.014292
640.000000	0.014335
639.000000	0.014442
638.000000	0.014479
637.000000	0.014565
636.000000	0.014748
635.000000	0.014821
634.000000	0.014691
633.000000	0.014561
632.000000	0.014580
631.000000	0.014610
630.000000	0.014550
629.000000	0.014549
628.000000	0.014669
627.000000	0.014698
626.000000	0.014563
625.000000	0.014504
624.000000	0.014658
623.000000	0.014814
622.000000	0.014791
621.000000	0.014717
620.000000	0.014742
619.000000	0.014806
618.000000	0.014871
617.000000	0.015049
616.000000	0.015310
615.000000	0.015395
614.000000	0.015250
613.000000	0.015177
612.000000	0.015360
611.000000	0.015584
610.000000	0.015642
609.000000	0.015646
608.000000	0.015706
607.000000	0.015666
606.000000	0.015456
605.000000	0.015296
604.000000	0.015305
603.000000	0.015278
602.000000	0.015052
601.000000	0.014795
600.000000	0.014693
599.000000	0.014662
598.000000	0.014608
597.000000	0.014633
596.000000	0.014754
595.000000	0.014754
594.000000	0.014548
593.000000	0.014367
592.000000	0.014367
591.000000	0.014376
590.000000	0.014271
589.000000	0.014219
588.000000	0.014294
587.000000	0.014237
586.000000	0.013903
585.000000	0.013575
584.000000	0.013558
583.000000	0.013760
582.000000	0.013967
581.000000	0.014183
580.000000	0.014446
579.000000	0.014622
578.000000	0.014680
577.000000	0.014790
576.000000	0.014916
575.000000	0.014727
574.000000	0.014179
573.000000	0.013726
572.000000	0.013651
571.000000	0.013698
570.000000	0.013591
569.000000	0.013507
568.000000	0.013647
567.000000	0.013799
566.000000	0.013736
565.000000	0.013622
564.000000	0.013633
563.000000	0.013595
562.000000	0.013381
561.000000	0.013245
560.000000	0.013364
559.000000	0.013462
558.000000	0.013297
557.000000	0.013114
556.000000	0.013194
555.000000	0.013363
554.000000	0.013349
553.000000	0.013274
552.000000	0.013341
551.000000	0.013400
550.000000	0.013270
549.000000	0.013153
548.000000	0.013283
547.000000	0.013505
546.000000	0.013584
545.000000	0.013610
544.000000	0.013695
543.000000	0.013653
542.000000	0.013383
541.000000	0.013198
540.000000	0.013371
539.000000	0.013691
538.000000	0.013862
537.000000	0.013961
536.000000	0.014149
535.000000	0.014281
534.000000	0.014246
533.000000	0.014293
532.000000	0.014618
531.000000	0.014964
530.000000	0.015018
529.000000	0.014867
528.000000	0.014693
527.000000	0.014411
526.000000	0.014010
525.000000	0.013862
524.000000	0.014150
523.000000	0.014475
522.000000	0.014450
521.000000	0.014230
520.000000	0.014119
519.000000	0.014031
518.000000	0.013779
517.000000	0.013566
516.000000	0.013666
515.000000	0.013947
514.000000	0.014164
513.000000	0.014319
512.000000	0.014408
511.000000	0.014215
510.000000	0.013695
509.000000	0.013202
508.000000	0.013028
507.000000	0.013057
506.000000	0.013133
505.000000	0.013347
504.000000	0.013627
503.000000	0.013565
502.000000	0.013020
501.000000	0.012472
500.000000	0.012288
499.000000	0.012227
498.000000	0.012067
497.000000	0.012053
496.000000	0.012315
495.000000	0.012457
494.000000	0.012163
493.000000	0.011761
492.000000	0.011669
491.000000	0.011739
490.000000	0.011681
489.000000	0.011637
488.000000	0.011790
487.000000	0.011893
486.000000	0.011733
485.000000	0.011604
484.000000	0.011810
483.000000	0.012109
482.000000	0.012215
481.000000	0.012350
480.000000	0.012711
479.000000	0.012966
478.000000	0.012857
477.000000	0.012770
476.000000	0.013094
475.000000	0.013548
474.000000	0.013760
473.000000	0.013975
472.000000	0.014497
471.000000	0.014895
470.000000	0.014730
469.000000	0.014376
468.000000	0.014349
467.000000	0.014513
466.000000	0.014518
465.000000	0.014448
464.000000	0.014424
463.000000	0.014180
462.000000	0.013677
461.000000	0.013511
460.000000	0.013992
459.000000	0.014471
458.000000	0.014244
457.000000	0.013658
456.000000	0.013318
455.000000	0.012966
454.000000	0.012249
453.000000	0.011522
452.000000	0.011162
451.000000	0.010780
450.000000	0.010019
