PE IR       SUBTECH     SPECTRUM    ASCII       PEDS        4.00        
   -1
P8-Or018_1.ASC
23/06/13
15:38:47.00
23/06/13
16:11:22.00
uco
Sample 018 By uco Date Tuesday, June 13 2023
450.000000
#HDR
-1
-1
#GR
cm-1
A
1.0
0.0
4000.000000
-1.000000
3551
8
0.015578
0.000331
#DATA
4000.000000	0.003278
3999.000000	0.003311
3998.000000	0.003346
3997.000000	0.003313
3996.000000	0.003298
3995.000000	0.003276
3994.000000	0.003261
3993.000000	0.003258
3992.000000	0.003261
3991.000000	0.003261
3990.000000	0.003258
3989.000000	0.003259
3988.000000	0.003273
3987.000000	0.003301
3986.000000	0.003332
3985.000000	0.003355
3984.000000	0.003360
3983.000000	0.003348
3982.000000	0.003334
3981.000000	0.003333
3980.000000	0.003351
3979.000000	0.003378
3978.000000	0.003395
3977.000000	0.003389
3976.000000	0.003364
3975.000000	0.003336
3974.000000	0.003323
3973.000000	0.003336
3972.000000	0.003368
3971.000000	0.003402
3970.000000	0.003423
3969.000000	0.003430
3968.000000	0.003432
3967.000000	0.003439
3966.000000	0.003450
3965.000000	0.003454
3964.000000	0.003443
3963.000000	0.003422
3962.000000	0.003401
3961.000000	0.003392
3960.000000	0.003395
3959.000000	0.003401
3958.000000	0.003402
3957.000000	0.003391
3956.000000	0.003372
3955.000000	0.003357
3954.000000	0.003357
3953.000000	0.003375
3952.000000	0.003409
3951.000000	0.003443
3950.000000	0.003465
3949.000000	0.003468
3948.000000	0.003455
3947.000000	0.003436
3946.000000	0.003416
3945.000000	0.003401
3944.000000	0.003394
3943.000000	0.003403
3942.000000	0.003426
3941.000000	0.003450
3940.000000	0.003460
3939.000000	0.003452
3938.000000	0.003440
3937.000000	0.003440
3936.000000	0.003461
3935.000000	0.003494
3934.000000	0.003521
3933.000000	0.003529
3932.000000	0.003519
3931.000000	0.003503
3930.000000	0.003491
3929.000000	0.003483
3928.000000	0.003469
3927.000000	0.003442
3926.000000	0.003410
3925.000000	0.003386
3924.000000	0.003384
3923.000000	0.003401
3922.000000	0.003429
3921.000000	0.003457
3920.000000	0.003481
3919.000000	0.003501
3918.000000	0.003516
3917.000000	0.003527
3916.000000	0.003534
3915.000000	0.003534
3914.000000	0.003524
3913.000000	0.003501
3912.000000	0.003471
3911.000000	0.003445
3910.000000	0.003429
3909.000000	0.003421
3908.000000	0.003417
3907.000000	0.003413
3906.000000	0.003418
3905.000000	0.003443
3904.000000	0.003493
3903.000000	0.003550
3902.000000	0.003582
3901.000000	0.003576
3900.000000	0.003542
3899.000000	0.003509
3898.000000	0.003500
3897.000000	0.003515
3896.000000	0.003541
3895.000000	0.003567
3894.000000	0.003577
3893.000000	0.003568
3892.000000	0.003554
3891.000000	0.003560
3890.000000	0.003594
3889.000000	0.003632
3888.000000	0.003644
3887.000000	0.003615
3886.000000	0.003557
3885.000000	0.003504
3884.000000	0.003475
3883.000000	0.003461
3882.000000	0.003443
3881.000000	0.003426
3880.000000	0.003432
3879.000000	0.003470
3878.000000	0.003522
3877.000000	0.003560
3876.000000	0.003565
3875.000000	0.003548
3874.000000	0.003535
3873.000000	0.003539
3872.000000	0.003548
3871.000000	0.003547
3870.000000	0.003538
3869.000000	0.003533
3868.000000	0.003534
3867.000000	0.003540
3866.000000	0.003552
3865.000000	0.003575
3864.000000	0.003604
3863.000000	0.003627
3862.000000	0.003638
3861.000000	0.003641
3860.000000	0.003646
3859.000000	0.003659
3858.000000	0.003678
3857.000000	0.003693
3856.000000	0.003691
3855.000000	0.003667
3854.000000	0.003652
3853.000000	0.003673
3852.000000	0.003702
3851.000000	0.003705
3850.000000	0.003688
3849.000000	0.003663
3848.000000	0.003639
3847.000000	0.003621
3846.000000	0.003610
3845.000000	0.003600
3844.000000	0.003587
3843.000000	0.003576
3842.000000	0.003575
3841.000000	0.003587
3840.000000	0.003610
3839.000000	0.003639
3838.000000	0.003666
3837.000000	0.003683
3836.000000	0.003684
3835.000000	0.003671
3834.000000	0.003647
3833.000000	0.003618
3832.000000	0.003593
3831.000000	0.003581
3830.000000	0.003575
3829.000000	0.003560
3828.000000	0.003537
3827.000000	0.003523
3826.000000	0.003541
3825.000000	0.003586
3824.000000	0.003631
3823.000000	0.003647
3822.000000	0.003632
3821.000000	0.003619
3820.000000	0.003638
3819.000000	0.003683
3818.000000	0.003724
3817.000000	0.003739
3816.000000	0.003721
3815.000000	0.003677
3814.000000	0.003620
3813.000000	0.003563
3812.000000	0.003524
3811.000000	0.003514
3810.000000	0.003525
3809.000000	0.003537
3808.000000	0.003543
3807.000000	0.003558
3806.000000	0.003598
3805.000000	0.003648
3804.000000	0.003677
3803.000000	0.003672
3802.000000	0.003646
3801.000000	0.003629
3800.000000	0.003626
3799.000000	0.003619
3798.000000	0.003596
3797.000000	0.003568
3796.000000	0.003546
3795.000000	0.003531
3794.000000	0.003513
3793.000000	0.003483
3792.000000	0.003445
3791.000000	0.003412
3790.000000	0.003397
3789.000000	0.003404
3788.000000	0.003430
3787.000000	0.003463
3786.000000	0.003493
3785.000000	0.003513
3784.000000	0.003520
3783.000000	0.003520
3782.000000	0.003514
3781.000000	0.003502
3780.000000	0.003484
3779.000000	0.003464
3778.000000	0.003448
3777.000000	0.003436
3776.000000	0.003433
3775.000000	0.003445
3774.000000	0.003470
3773.000000	0.003499
3772.000000	0.003516
3771.000000	0.003514
3770.000000	0.003500
3769.000000	0.003492
3768.000000	0.003494
3767.000000	0.003502
3766.000000	0.003508
3765.000000	0.003506
3764.000000	0.003494
3763.000000	0.003474
3762.000000	0.003451
3761.000000	0.003436
3760.000000	0.003441
3759.000000	0.003468
3758.000000	0.003503
3757.000000	0.003531
3756.000000	0.003550
3755.000000	0.003570
3754.000000	0.003606
3753.000000	0.003665
3752.000000	0.003739
3751.000000	0.003810
3750.000000	0.003860
3749.000000	0.003881
3748.000000	0.003875
3747.000000	0.003845
3746.000000	0.003797
3745.000000	0.003752
3744.000000	0.003732
3743.000000	0.003722
3742.000000	0.003696
3741.000000	0.003656
3740.000000	0.003613
3739.000000	0.003577
3738.000000	0.003554
3737.000000	0.003545
3736.000000	0.003536
3735.000000	0.003499
3734.000000	0.003436
3733.000000	0.003385
3732.000000	0.003383
3731.000000	0.003431
3730.000000	0.003506
3729.000000	0.003580
3728.000000	0.003631
3727.000000	0.003647
3726.000000	0.003625
3725.000000	0.003580
3724.000000	0.003536
3723.000000	0.003509
3722.000000	0.003504
3721.000000	0.003506
3720.000000	0.003493
3719.000000	0.003462
3718.000000	0.003428
3717.000000	0.003412
3716.000000	0.003419
3715.000000	0.003443
3714.000000	0.003483
3713.000000	0.003543
3712.000000	0.003622
3711.000000	0.003691
3710.000000	0.003712
3709.000000	0.003673
3708.000000	0.003599
3707.000000	0.003527
3706.000000	0.003475
3705.000000	0.003431
3704.000000	0.003367
3703.000000	0.003279
3702.000000	0.003197
3701.000000	0.003161
3700.000000	0.003182
3699.000000	0.003238
3698.000000	0.003300
3697.000000	0.003356
3696.000000	0.003408
3695.000000	0.003466
3694.000000	0.003531
3693.000000	0.003582
3692.000000	0.003594
3691.000000	0.003553
3690.000000	0.003486
3689.000000	0.003448
3688.000000	0.003469
3687.000000	0.003525
3686.000000	0.003577
3685.000000	0.003598
3684.000000	0.003593
3683.000000	0.003576
3682.000000	0.003552
3681.000000	0.003527
3680.000000	0.003520
3679.000000	0.003549
3678.000000	0.003603
3677.000000	0.003646
3676.000000	0.003654
3675.000000	0.003653
3674.000000	0.003675
3673.000000	0.003705
3672.000000	0.003719
3671.000000	0.003702
3670.000000	0.003665
3669.000000	0.003630
3668.000000	0.003603
3667.000000	0.003575
3666.000000	0.003540
3665.000000	0.003497
3664.000000	0.003451
3663.000000	0.003416
3662.000000	0.003403
3661.000000	0.003415
3660.000000	0.003444
3659.000000	0.003479
3658.000000	0.003510
3657.000000	0.003535
3656.000000	0.003561
3655.000000	0.003595
3654.000000	0.003631
3653.000000	0.003661
3652.000000	0.003686
3651.000000	0.003709
3650.000000	0.003728
3649.000000	0.003730
3648.000000	0.003711
3647.000000	0.003687
3646.000000	0.003674
3645.000000	0.003662
3644.000000	0.003639
3643.000000	0.003610
3642.000000	0.003584
3641.000000	0.003568
3640.000000	0.003561
3639.000000	0.003564
3638.000000	0.003578
3637.000000	0.003598
3636.000000	0.003617
3635.000000	0.003633
3634.000000	0.003654
3633.000000	0.003685
3632.000000	0.003726
3631.000000	0.003772
3630.000000	0.003819
3629.000000	0.003855
3628.000000	0.003866
3627.000000	0.003852
3626.000000	0.003820
3625.000000	0.003786
3624.000000	0.003755
3623.000000	0.003720
3622.000000	0.003663
3621.000000	0.003580
3620.000000	0.003503
3619.000000	0.003495
3618.000000	0.003579
3617.000000	0.003711
3616.000000	0.003829
3615.000000	0.003904
3614.000000	0.003943
3613.000000	0.003967
3612.000000	0.003984
3611.000000	0.003989
3610.000000	0.003982
3609.000000	0.003962
3608.000000	0.003930
3607.000000	0.003889
3606.000000	0.003846
3605.000000	0.003807
3604.000000	0.003783
3603.000000	0.003784
3602.000000	0.003808
3601.000000	0.003842
3600.000000	0.003873
3599.000000	0.003895
3598.000000	0.003908
3597.000000	0.003911
3596.000000	0.003906
3595.000000	0.003902
3594.000000	0.003901
3593.000000	0.003891
3592.000000	0.003866
3591.000000	0.003833
3590.000000	0.003808
3589.000000	0.003805
3588.000000	0.003828
3587.000000	0.003868
3586.000000	0.003912
3585.000000	0.003945
3584.000000	0.003964
3583.000000	0.003979
3582.000000	0.003994
3581.000000	0.004005
3580.000000	0.004006
3579.000000	0.003999
3578.000000	0.003991
3577.000000	0.003986
3576.000000	0.003990
3575.000000	0.004010
3574.000000	0.004046
3573.000000	0.004088
3572.000000	0.004124
3571.000000	0.004150
3570.000000	0.004165
3569.000000	0.004172
3568.000000	0.004178
3567.000000	0.004195
3566.000000	0.004226
3565.000000	0.004262
3564.000000	0.004284
3563.000000	0.004284
3562.000000	0.004270
3561.000000	0.004258
3560.000000	0.004259
3559.000000	0.004279
3558.000000	0.004310
3557.000000	0.004340
3556.000000	0.004358
3555.000000	0.004360
3554.000000	0.004351
3553.000000	0.004341
3552.000000	0.004345
3551.000000	0.004370
3550.000000	0.004407
3549.000000	0.004438
3548.000000	0.004458
3547.000000	0.004468
3546.000000	0.004470
3545.000000	0.004463
3544.000000	0.004452
3543.000000	0.004450
3542.000000	0.004460
3541.000000	0.004471
3540.000000	0.004474
3539.000000	0.004474
3538.000000	0.004481
3537.000000	0.004503
3536.000000	0.004539
3535.000000	0.004580
3534.000000	0.004614
3533.000000	0.004633
3532.000000	0.004638
3531.000000	0.004638
3530.000000	0.004644
3529.000000	0.004657
3528.000000	0.004676
3527.000000	0.004694
3526.000000	0.004704
3525.000000	0.004697
3524.000000	0.004681
3523.000000	0.004670
3522.000000	0.004676
3521.000000	0.004692
3520.000000	0.004704
3519.000000	0.004707
3518.000000	0.004712
3517.000000	0.004730
3516.000000	0.004764
3515.000000	0.004802
3514.000000	0.004824
3513.000000	0.004817
3512.000000	0.004783
3511.000000	0.004745
3510.000000	0.004724
3509.000000	0.004725
3508.000000	0.004744
3507.000000	0.004772
3506.000000	0.004800
3505.000000	0.004825
3504.000000	0.004850
3503.000000	0.004881
3502.000000	0.004917
3501.000000	0.004946
3500.000000	0.004955
3499.000000	0.004949
3498.000000	0.004943
3497.000000	0.004951
3496.000000	0.004974
3495.000000	0.004999
3494.000000	0.005006
3493.000000	0.004985
3492.000000	0.004951
3491.000000	0.004927
3490.000000	0.004924
3489.000000	0.004936
3488.000000	0.004955
3487.000000	0.004980
3486.000000	0.005011
3485.000000	0.005042
3484.000000	0.005064
3483.000000	0.005075
3482.000000	0.005078
3481.000000	0.005069
3480.000000	0.005048
3479.000000	0.005024
3478.000000	0.005010
3477.000000	0.005015
3476.000000	0.005043
3475.000000	0.005089
3474.000000	0.005141
3473.000000	0.005182
3472.000000	0.005202
3471.000000	0.005204
3470.000000	0.005196
3469.000000	0.005189
3468.000000	0.005193
3467.000000	0.005211
3466.000000	0.005238
3465.000000	0.005259
3464.000000	0.005263
3463.000000	0.005255
3462.000000	0.005245
3461.000000	0.005241
3460.000000	0.005250
3459.000000	0.005271
3458.000000	0.005299
3457.000000	0.005322
3456.000000	0.005334
3455.000000	0.005342
3454.000000	0.005355
3453.000000	0.005370
3452.000000	0.005375
3451.000000	0.005368
3450.000000	0.005351
3449.000000	0.005333
3448.000000	0.005324
3447.000000	0.005333
3446.000000	0.005361
3445.000000	0.005389
3444.000000	0.005402
3443.000000	0.005400
3442.000000	0.005397
3441.000000	0.005406
3440.000000	0.005429
3439.000000	0.005458
3438.000000	0.005485
3437.000000	0.005506
3436.000000	0.005526
3435.000000	0.005551
3434.000000	0.005582
3433.000000	0.005610
3432.000000	0.005630
3431.000000	0.005640
3430.000000	0.005641
3429.000000	0.005636
3428.000000	0.005630
3427.000000	0.005629
3426.000000	0.005639
3425.000000	0.005660
3424.000000	0.005691
3423.000000	0.005727
3422.000000	0.005757
3421.000000	0.005769
3420.000000	0.005763
3419.000000	0.005750
3418.000000	0.005744
3417.000000	0.005748
3416.000000	0.005756
3415.000000	0.005761
3414.000000	0.005761
3413.000000	0.005761
3412.000000	0.005772
3411.000000	0.005804
3410.000000	0.005853
3409.000000	0.005902
3408.000000	0.005937
3407.000000	0.005954
3406.000000	0.005959
3405.000000	0.005956
3404.000000	0.005953
3403.000000	0.005956
3402.000000	0.005964
3401.000000	0.005968
3400.000000	0.005962
3399.000000	0.005948
3398.000000	0.005936
3397.000000	0.005936
3396.000000	0.005952
3395.000000	0.005982
3394.000000	0.006009
3393.000000	0.006018
3392.000000	0.006009
3391.000000	0.005995
3390.000000	0.005987
3389.000000	0.005990
3388.000000	0.006004
3387.000000	0.006027
3386.000000	0.006051
3385.000000	0.006064
3384.000000	0.006065
3383.000000	0.006068
3382.000000	0.006078
3381.000000	0.006092
3380.000000	0.006100
3379.000000	0.006102
3378.000000	0.006103
3377.000000	0.006106
3376.000000	0.006109
3375.000000	0.006117
3374.000000	0.006136
3373.000000	0.006162
3372.000000	0.006185
3371.000000	0.006195
3370.000000	0.006191
3369.000000	0.006178
3368.000000	0.006174
3367.000000	0.006189
3366.000000	0.006225
3365.000000	0.006265
3364.000000	0.006296
3363.000000	0.006316
3362.000000	0.006332
3361.000000	0.006350
3360.000000	0.006369
3359.000000	0.006390
3358.000000	0.006411
3357.000000	0.006431
3356.000000	0.006451
3355.000000	0.006471
3354.000000	0.006492
3353.000000	0.006512
3352.000000	0.006534
3351.000000	0.006566
3350.000000	0.006607
3349.000000	0.006641
3348.000000	0.006656
3347.000000	0.006650
3346.000000	0.006635
3345.000000	0.006628
3344.000000	0.006640
3343.000000	0.006673
3342.000000	0.006714
3341.000000	0.006744
3340.000000	0.006750
3339.000000	0.006738
3338.000000	0.006726
3337.000000	0.006723
3336.000000	0.006732
3335.000000	0.006752
3334.000000	0.006779
3333.000000	0.006808
3332.000000	0.006836
3331.000000	0.006866
3330.000000	0.006898
3329.000000	0.006924
3328.000000	0.006936
3327.000000	0.006933
3326.000000	0.006925
3325.000000	0.006926
3324.000000	0.006941
3323.000000	0.006967
3322.000000	0.006993
3321.000000	0.007012
3320.000000	0.007027
3319.000000	0.007043
3318.000000	0.007062
3317.000000	0.007074
3316.000000	0.007068
3315.000000	0.007048
3314.000000	0.007028
3313.000000	0.007016
3312.000000	0.007019
3311.000000	0.007032
3310.000000	0.007047
3309.000000	0.007056
3308.000000	0.007057
3307.000000	0.007063
3306.000000	0.007086
3305.000000	0.007123
3304.000000	0.007167
3303.000000	0.007205
3302.000000	0.007230
3301.000000	0.007239
3300.000000	0.007239
3299.000000	0.007240
3298.000000	0.007248
3297.000000	0.007258
3296.000000	0.007260
3295.000000	0.007258
3294.000000	0.007265
3293.000000	0.007288
3292.000000	0.007324
3291.000000	0.007359
3290.000000	0.007378
3289.000000	0.007374
3288.000000	0.007352
3287.000000	0.007324
3286.000000	0.007297
3285.000000	0.007269
3284.000000	0.007240
3283.000000	0.007220
3282.000000	0.007216
3281.000000	0.007227
3280.000000	0.007247
3279.000000	0.007272
3278.000000	0.007300
3277.000000	0.007327
3276.000000	0.007342
3275.000000	0.007339
3274.000000	0.007318
3273.000000	0.007286
3272.000000	0.007259
3271.000000	0.007247
3270.000000	0.007251
3269.000000	0.007257
3268.000000	0.007250
3267.000000	0.007228
3266.000000	0.007202
3265.000000	0.007187
3264.000000	0.007190
3263.000000	0.007202
3262.000000	0.007207
3261.000000	0.007195
3260.000000	0.007176
3259.000000	0.007167
3258.000000	0.007174
3257.000000	0.007186
3256.000000	0.007189
3255.000000	0.007177
3254.000000	0.007153
3253.000000	0.007125
3252.000000	0.007102
3251.000000	0.007096
3250.000000	0.007104
3249.000000	0.007112
3248.000000	0.007105
3247.000000	0.007082
3246.000000	0.007059
3245.000000	0.007049
3244.000000	0.007051
3243.000000	0.007055
3242.000000	0.007048
3241.000000	0.007022
3240.000000	0.006984
3239.000000	0.006952
3238.000000	0.006940
3237.000000	0.006945
3236.000000	0.006950
3235.000000	0.006943
3234.000000	0.006925
3233.000000	0.006908
3232.000000	0.006902
3231.000000	0.006911
3230.000000	0.006922
3229.000000	0.006922
3228.000000	0.006907
3227.000000	0.006889
3226.000000	0.006883
3225.000000	0.006890
3224.000000	0.006903
3223.000000	0.006913
3222.000000	0.006918
3221.000000	0.006916
3220.000000	0.006911
3219.000000	0.006912
3218.000000	0.006919
3217.000000	0.006924
3216.000000	0.006911
3215.000000	0.006884
3214.000000	0.006857
3213.000000	0.006841
3212.000000	0.006834
3211.000000	0.006834
3210.000000	0.006840
3209.000000	0.006851
3208.000000	0.006859
3207.000000	0.006860
3206.000000	0.006854
3205.000000	0.006843
3204.000000	0.006832
3203.000000	0.006827
3202.000000	0.006831
3201.000000	0.006836
3200.000000	0.006831
3199.000000	0.006811
3198.000000	0.006779
3197.000000	0.006746
3196.000000	0.006721
3195.000000	0.006708
3194.000000	0.006705
3193.000000	0.006703
3192.000000	0.006697
3191.000000	0.006687
3190.000000	0.006681
3189.000000	0.006677
3188.000000	0.006666
3187.000000	0.006642
3186.000000	0.006609
3185.000000	0.006579
3184.000000	0.006559
3183.000000	0.006551
3182.000000	0.006558
3181.000000	0.006574
3180.000000	0.006588
3179.000000	0.006588
3178.000000	0.006571
3177.000000	0.006552
3176.000000	0.006543
3175.000000	0.006542
3174.000000	0.006536
3173.000000	0.006515
3172.000000	0.006485
3171.000000	0.006461
3170.000000	0.006450
3169.000000	0.006446
3168.000000	0.006436
3167.000000	0.006417
3166.000000	0.006395
3165.000000	0.006380
3164.000000	0.006376
3163.000000	0.006383
3162.000000	0.006390
3161.000000	0.006391
3160.000000	0.006386
3159.000000	0.006379
3158.000000	0.006369
3157.000000	0.006352
3156.000000	0.006332
3155.000000	0.006320
3154.000000	0.006321
3153.000000	0.006327
3152.000000	0.006327
3151.000000	0.006312
3150.000000	0.006282
3149.000000	0.006244
3148.000000	0.006215
3147.000000	0.006212
3146.000000	0.006233
3145.000000	0.006256
3144.000000	0.006260
3143.000000	0.006243
3142.000000	0.006215
3141.000000	0.006183
3140.000000	0.006149
3139.000000	0.006125
3138.000000	0.006126
3137.000000	0.006153
3136.000000	0.006189
3135.000000	0.006207
3134.000000	0.006196
3133.000000	0.006163
3132.000000	0.006127
3131.000000	0.006104
3130.000000	0.006098
3129.000000	0.006101
3128.000000	0.006107
3127.000000	0.006113
3126.000000	0.006119
3125.000000	0.006122
3124.000000	0.006127
3123.000000	0.006141
3122.000000	0.006164
3121.000000	0.006186
3120.000000	0.006194
3119.000000	0.006184
3118.000000	0.006163
3117.000000	0.006140
3116.000000	0.006125
3115.000000	0.006127
3114.000000	0.006142
3113.000000	0.006154
3112.000000	0.006149
3111.000000	0.006127
3110.000000	0.006098
3109.000000	0.006074
3108.000000	0.006058
3107.000000	0.006054
3106.000000	0.006061
3105.000000	0.006075
3104.000000	0.006088
3103.000000	0.006091
3102.000000	0.006084
3101.000000	0.006073
3100.000000	0.006068
3099.000000	0.006074
3098.000000	0.006089
3097.000000	0.006103
3096.000000	0.006108
3095.000000	0.006101
3094.000000	0.006085
3093.000000	0.006063
3092.000000	0.006045
3091.000000	0.006039
3090.000000	0.006052
3089.000000	0.006076
3088.000000	0.006095
3087.000000	0.006100
3086.000000	0.006096
3085.000000	0.006099
3084.000000	0.006119
3083.000000	0.006152
3082.000000	0.006184
3081.000000	0.006197
3080.000000	0.006186
3079.000000	0.006162
3078.000000	0.006142
3077.000000	0.006137
3076.000000	0.006145
3075.000000	0.006159
3074.000000	0.006167
3073.000000	0.006163
3072.000000	0.006147
3071.000000	0.006132
3070.000000	0.006126
3069.000000	0.006131
3068.000000	0.006141
3067.000000	0.006150
3066.000000	0.006150
3065.000000	0.006135
3064.000000	0.006107
3063.000000	0.006084
3062.000000	0.006079
3061.000000	0.006095
3060.000000	0.006115
3059.000000	0.006123
3058.000000	0.006113
3057.000000	0.006091
3056.000000	0.006072
3055.000000	0.006066
3054.000000	0.006075
3053.000000	0.006083
3052.000000	0.006075
3051.000000	0.006048
3050.000000	0.006013
3049.000000	0.005986
3048.000000	0.005968
3047.000000	0.005954
3046.000000	0.005940
3045.000000	0.005929
3044.000000	0.005928
3043.000000	0.005940
3042.000000	0.005954
3041.000000	0.005956
3040.000000	0.005936
3039.000000	0.005906
3038.000000	0.005887
3037.000000	0.005890
3036.000000	0.005907
3035.000000	0.005919
3034.000000	0.005919
3033.000000	0.005911
3032.000000	0.005898
3031.000000	0.005880
3030.000000	0.005855
3029.000000	0.005825
3028.000000	0.005796
3027.000000	0.005769
3026.000000	0.005745
3025.000000	0.005729
3024.000000	0.005725
3023.000000	0.005733
3022.000000	0.005747
3021.000000	0.005758
3020.000000	0.005764
3019.000000	0.005770
3018.000000	0.005777
3017.000000	0.005781
3016.000000	0.005773
3015.000000	0.005756
3014.000000	0.005737
3013.000000	0.005727
3012.000000	0.005725
3011.000000	0.005724
3010.000000	0.005712
3009.000000	0.005688
3008.000000	0.005664
3007.000000	0.005650
3006.000000	0.005647
3005.000000	0.005647
3004.000000	0.005641
3003.000000	0.005627
3002.000000	0.005609
3001.000000	0.005596
3000.000000	0.005596
2999.000000	0.005607
2998.000000	0.005622
2997.000000	0.005632
2996.000000	0.005633
2995.000000	0.005628
2994.000000	0.005621
2993.000000	0.005614
2992.000000	0.005610
2991.000000	0.005613
2990.000000	0.005623
2989.000000	0.005637
2988.000000	0.005654
2987.000000	0.005669
2986.000000	0.005676
2985.000000	0.005672
2984.000000	0.005662
2983.000000	0.005654
2982.000000	0.005647
2981.000000	0.005637
2980.000000	0.005620
2979.000000	0.005608
2978.000000	0.005611
2977.000000	0.005627
2976.000000	0.005641
2975.000000	0.005637
2974.000000	0.005616
2973.000000	0.005586
2972.000000	0.005561
2971.000000	0.005550
2970.000000	0.005548
2969.000000	0.005548
2968.000000	0.005545
2967.000000	0.005540
2966.000000	0.005538
2965.000000	0.005544
2964.000000	0.005559
2963.000000	0.005576
2962.000000	0.005587
2961.000000	0.005593
2960.000000	0.005603
2959.000000	0.005631
2958.000000	0.005677
2957.000000	0.005728
2956.000000	0.005771
2955.000000	0.005797
2954.000000	0.005810
2953.000000	0.005812
2952.000000	0.005808
2951.000000	0.005805
2950.000000	0.005812
2949.000000	0.005829
2948.000000	0.005853
2947.000000	0.005881
2946.000000	0.005912
2945.000000	0.005940
2944.000000	0.005958
2943.000000	0.005958
2942.000000	0.005940
2941.000000	0.005909
2940.000000	0.005879
2939.000000	0.005862
2938.000000	0.005865
2937.000000	0.005885
2936.000000	0.005915
2935.000000	0.005943
2934.000000	0.005966
2933.000000	0.005986
2932.000000	0.006013
2931.000000	0.006052
2930.000000	0.006101
2929.000000	0.006153
2928.000000	0.006204
2927.000000	0.006258
2926.000000	0.006320
2925.000000	0.006395
2924.000000	0.006481
2923.000000	0.006573
2922.000000	0.006662
2921.000000	0.006740
2920.000000	0.006806
2919.000000	0.006860
2918.000000	0.006895
2917.000000	0.006903
2916.000000	0.006882
2915.000000	0.006844
2914.000000	0.006799
2913.000000	0.006744
2912.000000	0.006678
2911.000000	0.006610
2910.000000	0.006558
2909.000000	0.006530
2908.000000	0.006519
2907.000000	0.006514
2906.000000	0.006503
2905.000000	0.006478
2904.000000	0.006438
2903.000000	0.006395
2902.000000	0.006367
2901.000000	0.006360
2900.000000	0.006361
2899.000000	0.006351
2898.000000	0.006319
2897.000000	0.006269
2896.000000	0.006219
2895.000000	0.006179
2894.000000	0.006153
2893.000000	0.006136
2892.000000	0.006130
2891.000000	0.006139
2890.000000	0.006165
2889.000000	0.006194
2888.000000	0.006208
2887.000000	0.006197
2886.000000	0.006170
2885.000000	0.006145
2884.000000	0.006130
2883.000000	0.006122
2882.000000	0.006113
2881.000000	0.006093
2880.000000	0.006060
2879.000000	0.006023
2878.000000	0.005994
2877.000000	0.005984
2876.000000	0.005992
2875.000000	0.006010
2874.000000	0.006025
2873.000000	0.006030
2872.000000	0.006025
2871.000000	0.006018
2870.000000	0.006019
2869.000000	0.006026
2868.000000	0.006036
2867.000000	0.006043
2866.000000	0.006047
2865.000000	0.006048
2864.000000	0.006044
2863.000000	0.006037
2862.000000	0.006037
2861.000000	0.006053
2860.000000	0.006084
2859.000000	0.006120
2858.000000	0.006152
2857.000000	0.006179
2856.000000	0.006207
2855.000000	0.006244
2854.000000	0.006290
2853.000000	0.006340
2852.000000	0.006382
2851.000000	0.006413
2850.000000	0.006433
2849.000000	0.006443
2848.000000	0.006441
2847.000000	0.006425
2846.000000	0.006394
2845.000000	0.006351
2844.000000	0.006300
2843.000000	0.006248
2842.000000	0.006199
2841.000000	0.006157
2840.000000	0.006119
2839.000000	0.006083
2838.000000	0.006054
2837.000000	0.006030
2836.000000	0.006012
2835.000000	0.005995
2834.000000	0.005982
2833.000000	0.005977
2832.000000	0.005980
2831.000000	0.005983
2830.000000	0.005983
2829.000000	0.005976
2828.000000	0.005964
2827.000000	0.005948
2826.000000	0.005932
2825.000000	0.005923
2824.000000	0.005920
2823.000000	0.005916
2822.000000	0.005903
2821.000000	0.005879
2820.000000	0.005858
2819.000000	0.005852
2818.000000	0.005869
2817.000000	0.005899
2816.000000	0.005924
2815.000000	0.005927
2814.000000	0.005907
2813.000000	0.005880
2812.000000	0.005859
2811.000000	0.005845
2810.000000	0.005834
2809.000000	0.005823
2808.000000	0.005819
2807.000000	0.005819
2806.000000	0.005815
2805.000000	0.005803
2804.000000	0.005786
2803.000000	0.005773
2802.000000	0.005766
2801.000000	0.005761
2800.000000	0.005754
2799.000000	0.005745
2798.000000	0.005735
2797.000000	0.005725
2796.000000	0.005719
2795.000000	0.005720
2794.000000	0.005724
2793.000000	0.005725
2792.000000	0.005717
2791.000000	0.005706
2790.000000	0.005701
2789.000000	0.005705
2788.000000	0.005713
2787.000000	0.005718
2786.000000	0.005715
2785.000000	0.005705
2784.000000	0.005692
2783.000000	0.005683
2782.000000	0.005680
2781.000000	0.005679
2780.000000	0.005678
2779.000000	0.005678
2778.000000	0.005681
2777.000000	0.005686
2776.000000	0.005686
2775.000000	0.005679
2774.000000	0.005669
2773.000000	0.005660
2772.000000	0.005653
2771.000000	0.005648
2770.000000	0.005644
2769.000000	0.005641
2768.000000	0.005637
2767.000000	0.005633
2766.000000	0.005624
2765.000000	0.005608
2764.000000	0.005591
2763.000000	0.005576
2762.000000	0.005567
2761.000000	0.005562
2760.000000	0.005564
2759.000000	0.005574
2758.000000	0.005588
2757.000000	0.005598
2756.000000	0.005596
2755.000000	0.005588
2754.000000	0.005585
2753.000000	0.005594
2752.000000	0.005611
2751.000000	0.005629
2750.000000	0.005640
2749.000000	0.005640
2748.000000	0.005628
2747.000000	0.005611
2746.000000	0.005598
2745.000000	0.005590
2744.000000	0.005581
2743.000000	0.005563
2742.000000	0.005542
2741.000000	0.005530
2740.000000	0.005533
2739.000000	0.005544
2738.000000	0.005551
2737.000000	0.005545
2736.000000	0.005528
2735.000000	0.005508
2734.000000	0.005496
2733.000000	0.005499
2732.000000	0.005514
2731.000000	0.005532
2730.000000	0.005540
2729.000000	0.005532
2728.000000	0.005511
2727.000000	0.005487
2726.000000	0.005473
2725.000000	0.005472
2724.000000	0.005480
2723.000000	0.005493
2722.000000	0.005508
2721.000000	0.005522
2720.000000	0.005529
2719.000000	0.005522
2718.000000	0.005505
2717.000000	0.005490
2716.000000	0.005485
2715.000000	0.005491
2714.000000	0.005501
2713.000000	0.005513
2712.000000	0.005522
2711.000000	0.005525
2710.000000	0.005521
2709.000000	0.005510
2708.000000	0.005497
2707.000000	0.005486
2706.000000	0.005479
2705.000000	0.005478
2704.000000	0.005478
2703.000000	0.005475
2702.000000	0.005469
2701.000000	0.005465
2700.000000	0.005467
2699.000000	0.005474
2698.000000	0.005480
2697.000000	0.005480
2696.000000	0.005480
2695.000000	0.005486
2694.000000	0.005502
2693.000000	0.005523
2692.000000	0.005535
2691.000000	0.005528
2690.000000	0.005507
2689.000000	0.005484
2688.000000	0.005470
2687.000000	0.005465
2686.000000	0.005466
2685.000000	0.005466
2684.000000	0.005463
2683.000000	0.005457
2682.000000	0.005452
2681.000000	0.005450
2680.000000	0.005453
2679.000000	0.005459
2678.000000	0.005465
2677.000000	0.005469
2676.000000	0.005470
2675.000000	0.005470
2674.000000	0.005468
2673.000000	0.005462
2672.000000	0.005450
2671.000000	0.005433
2670.000000	0.005417
2669.000000	0.005409
2668.000000	0.005410
2667.000000	0.005416
2666.000000	0.005430
2665.000000	0.005450
2664.000000	0.005473
2663.000000	0.005487
2662.000000	0.005491
2661.000000	0.005487
2660.000000	0.005482
2659.000000	0.005470
2658.000000	0.005444
2657.000000	0.005405
2656.000000	0.005362
2655.000000	0.005331
2654.000000	0.005320
2653.000000	0.005325
2652.000000	0.005336
2651.000000	0.005341
2650.000000	0.005333
2649.000000	0.005313
2648.000000	0.005286
2647.000000	0.005255
2646.000000	0.005224
2645.000000	0.005199
2644.000000	0.005189
2643.000000	0.005193
2642.000000	0.005199
2641.000000	0.005186
2640.000000	0.005147
2639.000000	0.005099
2638.000000	0.005069
2637.000000	0.005070
2636.000000	0.005088
2635.000000	0.005095
2634.000000	0.005078
2633.000000	0.005046
2632.000000	0.005020
2631.000000	0.005014
2630.000000	0.005022
2629.000000	0.005031
2628.000000	0.005031
2627.000000	0.005023
2626.000000	0.005014
2625.000000	0.005012
2624.000000	0.005014
2623.000000	0.005018
2622.000000	0.005018
2621.000000	0.005010
2620.000000	0.004988
2619.000000	0.004950
2618.000000	0.004909
2617.000000	0.004884
2616.000000	0.004889
2615.000000	0.004918
2614.000000	0.004954
2613.000000	0.004984
2612.000000	0.005004
2611.000000	0.005019
2610.000000	0.005022
2609.000000	0.005007
2608.000000	0.004973
2607.000000	0.004930
2606.000000	0.004891
2605.000000	0.004866
2604.000000	0.004858
2603.000000	0.004865
2602.000000	0.004881
2601.000000	0.004894
2600.000000	0.004888
2599.000000	0.004858
2598.000000	0.004821
2597.000000	0.004808
2596.000000	0.004834
2595.000000	0.004888
2594.000000	0.004936
2593.000000	0.004950
2592.000000	0.004927
2591.000000	0.004881
2590.000000	0.004832
2589.000000	0.004793
2588.000000	0.004772
2587.000000	0.004766
2586.000000	0.004766
2585.000000	0.004768
2584.000000	0.004774
2583.000000	0.004790
2582.000000	0.004816
2581.000000	0.004844
2580.000000	0.004861
2579.000000	0.004868
2578.000000	0.004869
2577.000000	0.004863
2576.000000	0.004839
2575.000000	0.004795
2574.000000	0.004744
2573.000000	0.004701
2572.000000	0.004671
2571.000000	0.004657
2570.000000	0.004669
2569.000000	0.004705
2568.000000	0.004741
2567.000000	0.004751
2566.000000	0.004734
2565.000000	0.004717
2564.000000	0.004719
2563.000000	0.004730
2562.000000	0.004731
2561.000000	0.004724
2560.000000	0.004724
2559.000000	0.004739
2558.000000	0.004761
2557.000000	0.004774
2556.000000	0.004766
2555.000000	0.004742
2554.000000	0.004726
2553.000000	0.004735
2552.000000	0.004764
2551.000000	0.004779
2550.000000	0.004757
2549.000000	0.004707
2548.000000	0.004667
2547.000000	0.004661
2546.000000	0.004683
2545.000000	0.004707
2544.000000	0.004716
2543.000000	0.004712
2542.000000	0.004709
2541.000000	0.004711
2540.000000	0.004708
2539.000000	0.004694
2538.000000	0.004675
2537.000000	0.004673
2536.000000	0.004689
2535.000000	0.004704
2534.000000	0.004694
2533.000000	0.004657
2532.000000	0.004612
2531.000000	0.004581
2530.000000	0.004576
2529.000000	0.004594
2528.000000	0.004621
2527.000000	0.004643
2526.000000	0.004654
2525.000000	0.004663
2524.000000	0.004674
2523.000000	0.004686
2522.000000	0.004685
2521.000000	0.004663
2520.000000	0.004629
2519.000000	0.004601
2518.000000	0.004604
2517.000000	0.004647
2516.000000	0.004712
2515.000000	0.004762
2514.000000	0.004771
2513.000000	0.004746
2512.000000	0.004714
2511.000000	0.004704
2510.000000	0.004720
2509.000000	0.004745
2508.000000	0.004758
2507.000000	0.004753
2506.000000	0.004745
2505.000000	0.004746
2504.000000	0.004754
2503.000000	0.004755
2502.000000	0.004742
2501.000000	0.004719
2500.000000	0.004691
2499.000000	0.004654
2498.000000	0.004616
2497.000000	0.004592
2496.000000	0.004589
2495.000000	0.004601
2494.000000	0.004618
2493.000000	0.004636
2492.000000	0.004658
2491.000000	0.004679
2490.000000	0.004690
2489.000000	0.004685
2488.000000	0.004668
2487.000000	0.004638
2486.000000	0.004599
2485.000000	0.004562
2484.000000	0.004548
2483.000000	0.004569
2482.000000	0.004617
2481.000000	0.004663
2480.000000	0.004680
2479.000000	0.004657
2478.000000	0.004605
2477.000000	0.004549
2476.000000	0.004518
2475.000000	0.004521
2474.000000	0.004551
2473.000000	0.004584
2472.000000	0.004600
2471.000000	0.004596
2470.000000	0.004591
2469.000000	0.004606
2468.000000	0.004644
2467.000000	0.004690
2466.000000	0.004721
2465.000000	0.004732
2464.000000	0.004730
2463.000000	0.004729
2462.000000	0.004731
2461.000000	0.004727
2460.000000	0.004713
2459.000000	0.004691
2458.000000	0.004668
2457.000000	0.004646
2456.000000	0.004627
2455.000000	0.004617
2454.000000	0.004619
2453.000000	0.004629
2452.000000	0.004638
2451.000000	0.004642
2450.000000	0.004648
2449.000000	0.004651
2448.000000	0.004639
2447.000000	0.004610
2446.000000	0.004584
2445.000000	0.004585
2444.000000	0.004611
2443.000000	0.004643
2442.000000	0.004657
2441.000000	0.004642
2440.000000	0.004602
2439.000000	0.004560
2438.000000	0.004542
2437.000000	0.004559
2436.000000	0.004595
2435.000000	0.004621
2434.000000	0.004622
2433.000000	0.004606
2432.000000	0.004580
2431.000000	0.004551
2430.000000	0.004529
2429.000000	0.004523
2428.000000	0.004530
2427.000000	0.004538
2426.000000	0.004541
2425.000000	0.004545
2424.000000	0.004558
2423.000000	0.004585
2422.000000	0.004621
2421.000000	0.004652
2420.000000	0.004656
2419.000000	0.004627
2418.000000	0.004591
2417.000000	0.004581
2416.000000	0.004604
2415.000000	0.004636
2414.000000	0.004654
2413.000000	0.004656
2412.000000	0.004654
2411.000000	0.004649
2410.000000	0.004637
2409.000000	0.004615
2408.000000	0.004591
2407.000000	0.004578
2406.000000	0.004581
2405.000000	0.004587
2404.000000	0.004582
2403.000000	0.004561
2402.000000	0.004539
2401.000000	0.004523
2400.000000	0.004511
2399.000000	0.004503
2398.000000	0.004503
2397.000000	0.004515
2396.000000	0.004529
2395.000000	0.004538
2394.000000	0.004548
2393.000000	0.004558
2392.000000	0.004558
2391.000000	0.004539
2390.000000	0.004516
2389.000000	0.004510
2388.000000	0.004526
2387.000000	0.004555
2386.000000	0.004581
2385.000000	0.004586
2384.000000	0.004545
2383.000000	0.004453
2382.000000	0.004340
2381.000000	0.004248
2380.000000	0.004210
2379.000000	0.004251
2378.000000	0.004391
2377.000000	0.004600
2376.000000	0.004794
2375.000000	0.004892
2374.000000	0.004882
2373.000000	0.004805
2372.000000	0.004699
2371.000000	0.004591
2370.000000	0.004513
2369.000000	0.004466
2368.000000	0.004427
2367.000000	0.004399
2366.000000	0.004428
2365.000000	0.004523
2364.000000	0.004621
2363.000000	0.004677
2362.000000	0.004722
2361.000000	0.004776
2360.000000	0.004818
2359.000000	0.004817
2358.000000	0.004775
2357.000000	0.004721
2356.000000	0.004693
2355.000000	0.004753
2354.000000	0.004832
2353.000000	0.004791
2352.000000	0.004612
2351.000000	0.004445
2350.000000	0.004428
2349.000000	0.004574
2348.000000	0.004798
2347.000000	0.004947
2346.000000	0.004929
2345.000000	0.004847
2344.000000	0.004840
2343.000000	0.004927
2342.000000	0.004993
2341.000000	0.004964
2340.000000	0.004893
2339.000000	0.004865
2338.000000	0.004888
2337.000000	0.004906
2336.000000	0.004906
2335.000000	0.004883
2334.000000	0.004817
2333.000000	0.004678
2332.000000	0.004557
2331.000000	0.004536
2330.000000	0.004648
2329.000000	0.004799
2328.000000	0.004951
2327.000000	0.005058
2326.000000	0.005089
2325.000000	0.005020
2324.000000	0.004905
2323.000000	0.004831
2322.000000	0.004859
2321.000000	0.004993
2320.000000	0.005206
2319.000000	0.005410
2318.000000	0.005541
2317.000000	0.005559
2316.000000	0.005514
2315.000000	0.005428
2314.000000	0.005325
2313.000000	0.005202
2312.000000	0.005105
2311.000000	0.005041
2310.000000	0.004994
2309.000000	0.004920
2308.000000	0.004825
2307.000000	0.004736
2306.000000	0.004677
2305.000000	0.004645
2304.000000	0.004633
2303.000000	0.004626
2302.000000	0.004628
2301.000000	0.004641
2300.000000	0.004681
2299.000000	0.004734
2298.000000	0.004794
2297.000000	0.004839
2296.000000	0.004859
2295.000000	0.004834
2294.000000	0.004769
2293.000000	0.004695
2292.000000	0.004653
2291.000000	0.004652
2290.000000	0.004668
2289.000000	0.004685
2288.000000	0.004703
2287.000000	0.004728
2286.000000	0.004748
2285.000000	0.004751
2284.000000	0.004734
2283.000000	0.004706
2282.000000	0.004678
2281.000000	0.004665
2280.000000	0.004662
2279.000000	0.004653
2278.000000	0.004633
2277.000000	0.004618
2276.000000	0.004626
2275.000000	0.004643
2274.000000	0.004642
2273.000000	0.004609
2272.000000	0.004558
2271.000000	0.004503
2270.000000	0.004458
2269.000000	0.004441
2268.000000	0.004460
2267.000000	0.004489
2266.000000	0.004483
2265.000000	0.004429
2264.000000	0.004360
2263.000000	0.004319
2262.000000	0.004321
2261.000000	0.004353
2260.000000	0.004387
2259.000000	0.004396
2258.000000	0.004366
2257.000000	0.004316
2256.000000	0.004284
2255.000000	0.004309
2254.000000	0.004408
2253.000000	0.004550
2252.000000	0.004658
2251.000000	0.004659
2250.000000	0.004567
2249.000000	0.004473
2248.000000	0.004458
2247.000000	0.004505
2246.000000	0.004541
2245.000000	0.004518
2244.000000	0.004453
2243.000000	0.004382
2242.000000	0.004337
2241.000000	0.004329
2240.000000	0.004345
2239.000000	0.004360
2238.000000	0.004374
2237.000000	0.004420
2236.000000	0.004500
2235.000000	0.004554
2234.000000	0.004519
2233.000000	0.004400
2232.000000	0.004268
2231.000000	0.004183
2230.000000	0.004166
2229.000000	0.004214
2228.000000	0.004290
2227.000000	0.004326
2226.000000	0.004271
2225.000000	0.004138
2224.000000	0.003992
2223.000000	0.003881
2222.000000	0.003817
2221.000000	0.003805
2220.000000	0.003840
2219.000000	0.003895
2218.000000	0.003937
2217.000000	0.003959
2216.000000	0.003975
2215.000000	0.003999
2214.000000	0.004048
2213.000000	0.004134
2212.000000	0.004236
2211.000000	0.004284
2210.000000	0.004232
2209.000000	0.004120
2208.000000	0.004035
2207.000000	0.004027
2206.000000	0.004096
2205.000000	0.004229
2204.000000	0.004401
2203.000000	0.004560
2202.000000	0.004653
2201.000000	0.004672
2200.000000	0.004641
2199.000000	0.004565
2198.000000	0.004430
2197.000000	0.004246
2196.000000	0.004062
2195.000000	0.003923
2194.000000	0.003857
2193.000000	0.003866
2192.000000	0.003916
2191.000000	0.003947
2190.000000	0.003940
2189.000000	0.003953
2188.000000	0.004045
2187.000000	0.004187
2186.000000	0.004286
2185.000000	0.004270
2184.000000	0.004132
2183.000000	0.003911
2182.000000	0.003691
2181.000000	0.003587
2180.000000	0.003663
2179.000000	0.003859
2178.000000	0.004045
2177.000000	0.004131
2176.000000	0.004108
2175.000000	0.004025
2174.000000	0.003951
2173.000000	0.003938
2172.000000	0.003997
2171.000000	0.004094
2170.000000	0.004202
2169.000000	0.004314
2168.000000	0.004400
2167.000000	0.004395
2166.000000	0.004272
2165.000000	0.004080
2164.000000	0.003890
2163.000000	0.003729
2162.000000	0.003612
2161.000000	0.003583
2160.000000	0.003648
2159.000000	0.003745
2158.000000	0.003820
2157.000000	0.003887
2156.000000	0.003939
2155.000000	0.003918
2154.000000	0.003820
2153.000000	0.003734
2152.000000	0.003744
2151.000000	0.003847
2150.000000	0.003993
2149.000000	0.004136
2148.000000	0.004214
2147.000000	0.004164
2146.000000	0.004003
2145.000000	0.003841
2144.000000	0.003770
2143.000000	0.003770
2142.000000	0.003789
2141.000000	0.003820
2140.000000	0.003873
2139.000000	0.003924
2138.000000	0.003959
2137.000000	0.004022
2136.000000	0.004154
2135.000000	0.004311
2134.000000	0.004399
2133.000000	0.004384
2132.000000	0.004324
2131.000000	0.004295
2130.000000	0.004326
2129.000000	0.004389
2128.000000	0.004420
2127.000000	0.004377
2126.000000	0.004281
2125.000000	0.004194
2124.000000	0.004151
2123.000000	0.004140
2122.000000	0.004151
2121.000000	0.004216
2120.000000	0.004344
2119.000000	0.004472
2118.000000	0.004516
2117.000000	0.004454
2116.000000	0.004340
2115.000000	0.004240
2114.000000	0.004193
2113.000000	0.004208
2112.000000	0.004264
2111.000000	0.004307
2110.000000	0.004295
2109.000000	0.004244
2108.000000	0.004205
2107.000000	0.004211
2106.000000	0.004257
2105.000000	0.004331
2104.000000	0.004413
2103.000000	0.004469
2102.000000	0.004467
2101.000000	0.004414
2100.000000	0.004350
2099.000000	0.004310
2098.000000	0.004299
2097.000000	0.004304
2096.000000	0.004307
2095.000000	0.004299
2094.000000	0.004284
2093.000000	0.004274
2092.000000	0.004268
2091.000000	0.004254
2090.000000	0.004231
2089.000000	0.004215
2088.000000	0.004219
2087.000000	0.004243
2086.000000	0.004280
2085.000000	0.004331
2084.000000	0.004375
2083.000000	0.004383
2082.000000	0.004354
2081.000000	0.004325
2080.000000	0.004314
2079.000000	0.004286
2078.000000	0.004207
2077.000000	0.004108
2076.000000	0.004067
2075.000000	0.004124
2074.000000	0.004247
2073.000000	0.004355
2072.000000	0.004370
2071.000000	0.004267
2070.000000	0.004112
2069.000000	0.004010
2068.000000	0.004017
2067.000000	0.004104
2066.000000	0.004216
2065.000000	0.004322
2064.000000	0.004379
2063.000000	0.004327
2062.000000	0.004172
2061.000000	0.004028
2060.000000	0.004013
2059.000000	0.004119
2058.000000	0.004220
2057.000000	0.004211
2056.000000	0.004084
2055.000000	0.003918
2054.000000	0.003819
2053.000000	0.003858
2052.000000	0.004000
2051.000000	0.004123
2050.000000	0.004121
2049.000000	0.004010
2048.000000	0.003897
2047.000000	0.003855
2046.000000	0.003867
2045.000000	0.003871
2044.000000	0.003815
2043.000000	0.003703
2042.000000	0.003617
2041.000000	0.003665
2040.000000	0.003843
2039.000000	0.004011
2038.000000	0.004045
2037.000000	0.003957
2036.000000	0.003841
2035.000000	0.003744
2034.000000	0.003670
2033.000000	0.003639
2032.000000	0.003648
2031.000000	0.003636
2030.000000	0.003565
2029.000000	0.003494
2028.000000	0.003510
2027.000000	0.003614
2026.000000	0.003747
2025.000000	0.003863
2024.000000	0.003925
2023.000000	0.003899
2022.000000	0.003805
2021.000000	0.003735
2020.000000	0.003739
2019.000000	0.003747
2018.000000	0.003664
2017.000000	0.003518
2016.000000	0.003428
2015.000000	0.003461
2014.000000	0.003568
2013.000000	0.003659
2012.000000	0.003669
2011.000000	0.003592
2010.000000	0.003478
2009.000000	0.003388
2008.000000	0.003350
2007.000000	0.003375
2006.000000	0.003484
2005.000000	0.003657
2004.000000	0.003796
2003.000000	0.003821
2002.000000	0.003789
2001.000000	0.003829
2000.000000	0.003967
1999.000000	0.004087
1998.000000	0.004103
1997.000000	0.004053
1996.000000	0.004018
1995.000000	0.004016
1994.000000	0.004028
1993.000000	0.004034
1992.000000	0.004001
1991.000000	0.003902
1990.000000	0.003799
1989.000000	0.003811
1988.000000	0.003953
1987.000000	0.004089
1986.000000	0.004108
1985.000000	0.004056
1984.000000	0.004036
1983.000000	0.004038
1982.000000	0.003971
1981.000000	0.003807
1980.000000	0.003615
1979.000000	0.003475
1978.000000	0.003429
1977.000000	0.003480
1976.000000	0.003580
1975.000000	0.003656
1974.000000	0.003691
1973.000000	0.003729
1972.000000	0.003780
1971.000000	0.003794
1970.000000	0.003744
1969.000000	0.003665
1968.000000	0.003593
1967.000000	0.003538
1966.000000	0.003522
1965.000000	0.003567
1964.000000	0.003629
1963.000000	0.003632
1962.000000	0.003584
1961.000000	0.003575
1960.000000	0.003649
1959.000000	0.003753
1958.000000	0.003839
1957.000000	0.003911
1956.000000	0.003974
1955.000000	0.004017
1954.000000	0.004068
1953.000000	0.004173
1952.000000	0.004303
1951.000000	0.004357
1950.000000	0.004287
1949.000000	0.004142
1948.000000	0.003992
1947.000000	0.003868
1946.000000	0.003806
1945.000000	0.003864
1944.000000	0.004029
1943.000000	0.004193
1942.000000	0.004258
1941.000000	0.004238
1940.000000	0.004207
1939.000000	0.004204
1938.000000	0.004227
1937.000000	0.004263
1936.000000	0.004288
1935.000000	0.004275
1934.000000	0.004239
1933.000000	0.004217
1932.000000	0.004214
1931.000000	0.004210
1930.000000	0.004218
1929.000000	0.004271
1928.000000	0.004351
1927.000000	0.004400
1926.000000	0.004403
1925.000000	0.004404
1924.000000	0.004423
1923.000000	0.004414
1922.000000	0.004351
1921.000000	0.004284
1920.000000	0.004263
1919.000000	0.004266
1918.000000	0.004244
1917.000000	0.004201
1916.000000	0.004187
1915.000000	0.004224
1914.000000	0.004296
1913.000000	0.004371
1912.000000	0.004412
1911.000000	0.004389
1910.000000	0.004317
1909.000000	0.004243
1908.000000	0.004198
1907.000000	0.004168
1906.000000	0.004138
1905.000000	0.004132
1904.000000	0.004159
1903.000000	0.004196
1902.000000	0.004218
1901.000000	0.004242
1900.000000	0.004280
1899.000000	0.004310
1898.000000	0.004304
1897.000000	0.004279
1896.000000	0.004267
1895.000000	0.004272
1894.000000	0.004277
1893.000000	0.004274
1892.000000	0.004268
1891.000000	0.004257
1890.000000	0.004253
1889.000000	0.004277
1888.000000	0.004323
1887.000000	0.004351
1886.000000	0.004336
1885.000000	0.004308
1884.000000	0.004300
1883.000000	0.004299
1882.000000	0.004273
1881.000000	0.004235
1880.000000	0.004226
1879.000000	0.004253
1878.000000	0.004281
1877.000000	0.004283
1876.000000	0.004258
1875.000000	0.004223
1874.000000	0.004192
1873.000000	0.004173
1872.000000	0.004166
1871.000000	0.004162
1870.000000	0.004169
1869.000000	0.004216
1868.000000	0.004304
1867.000000	0.004380
1866.000000	0.004397
1865.000000	0.004371
1864.000000	0.004343
1863.000000	0.004331
1862.000000	0.004333
1861.000000	0.004354
1860.000000	0.004403
1859.000000	0.004466
1858.000000	0.004506
1857.000000	0.004498
1856.000000	0.004451
1855.000000	0.004388
1854.000000	0.004332
1853.000000	0.004303
1852.000000	0.004303
1851.000000	0.004312
1850.000000	0.004312
1849.000000	0.004312
1848.000000	0.004322
1847.000000	0.004338
1846.000000	0.004342
1845.000000	0.004331
1844.000000	0.004319
1843.000000	0.004308
1842.000000	0.004293
1841.000000	0.004283
1840.000000	0.004287
1839.000000	0.004290
1838.000000	0.004280
1837.000000	0.004263
1836.000000	0.004255
1835.000000	0.004257
1834.000000	0.004269
1833.000000	0.004291
1832.000000	0.004307
1831.000000	0.004291
1830.000000	0.004242
1829.000000	0.004203
1828.000000	0.004197
1827.000000	0.004207
1826.000000	0.004213
1825.000000	0.004219
1824.000000	0.004233
1823.000000	0.004255
1822.000000	0.004283
1821.000000	0.004314
1820.000000	0.004335
1819.000000	0.004329
1818.000000	0.004294
1817.000000	0.004243
1816.000000	0.004195
1815.000000	0.004165
1814.000000	0.004166
1813.000000	0.004196
1812.000000	0.004227
1811.000000	0.004231
1810.000000	0.004216
1809.000000	0.004206
1808.000000	0.004214
1807.000000	0.004235
1806.000000	0.004255
1805.000000	0.004266
1804.000000	0.004275
1803.000000	0.004279
1802.000000	0.004278
1801.000000	0.004274
1800.000000	0.004284
1799.000000	0.004324
1798.000000	0.004375
1797.000000	0.004405
1796.000000	0.004406
1795.000000	0.004393
1794.000000	0.004378
1793.000000	0.004350
1792.000000	0.004300
1791.000000	0.004258
1790.000000	0.004253
1789.000000	0.004280
1788.000000	0.004312
1787.000000	0.004329
1786.000000	0.004326
1785.000000	0.004309
1784.000000	0.004281
1783.000000	0.004243
1782.000000	0.004203
1781.000000	0.004170
1780.000000	0.004150
1779.000000	0.004137
1778.000000	0.004130
1777.000000	0.004128
1776.000000	0.004128
1775.000000	0.004119
1774.000000	0.004099
1773.000000	0.004080
1772.000000	0.004077
1771.000000	0.004103
1770.000000	0.004156
1769.000000	0.004218
1768.000000	0.004243
1767.000000	0.004206
1766.000000	0.004147
1765.000000	0.004120
1764.000000	0.004127
1763.000000	0.004119
1762.000000	0.004069
1761.000000	0.004008
1760.000000	0.003966
1759.000000	0.003939
1758.000000	0.003910
1757.000000	0.003873
1756.000000	0.003822
1755.000000	0.003755
1754.000000	0.003693
1753.000000	0.003651
1752.000000	0.003602
1751.000000	0.003493
1750.000000	0.003336
1749.000000	0.003217
1748.000000	0.003171
1747.000000	0.003162
1746.000000	0.003161
1745.000000	0.003184
1744.000000	0.003236
1743.000000	0.003304
1742.000000	0.003396
1741.000000	0.003539
1740.000000	0.003713
1739.000000	0.003853
1738.000000	0.003952
1737.000000	0.004073
1736.000000	0.004250
1735.000000	0.004436
1734.000000	0.004539
1733.000000	0.004583
1732.000000	0.004640
1731.000000	0.004704
1730.000000	0.004743
1729.000000	0.004767
1728.000000	0.004797
1727.000000	0.004830
1726.000000	0.004853
1725.000000	0.004873
1724.000000	0.004890
1723.000000	0.004884
1722.000000	0.004852
1721.000000	0.004832
1720.000000	0.004846
1719.000000	0.004868
1718.000000	0.004866
1717.000000	0.004850
1716.000000	0.004854
1715.000000	0.004889
1714.000000	0.004927
1713.000000	0.004964
1712.000000	0.005012
1711.000000	0.005065
1710.000000	0.005106
1709.000000	0.005134
1708.000000	0.005163
1707.000000	0.005199
1706.000000	0.005235
1705.000000	0.005268
1704.000000	0.005312
1703.000000	0.005391
1702.000000	0.005518
1701.000000	0.005654
1700.000000	0.005731
1699.000000	0.005786
1698.000000	0.005890
1697.000000	0.006059
1696.000000	0.006256
1695.000000	0.006436
1694.000000	0.006593
1693.000000	0.006750
1692.000000	0.006915
1691.000000	0.007061
1690.000000	0.007177
1689.000000	0.007287
1688.000000	0.007410
1687.000000	0.007544
1686.000000	0.007687
1685.000000	0.007842
1684.000000	0.008020
1683.000000	0.008225
1682.000000	0.008443
1681.000000	0.008691
1680.000000	0.008953
1679.000000	0.009181
1678.000000	0.009373
1677.000000	0.009588
1676.000000	0.009852
1675.000000	0.010109
1674.000000	0.010319
1673.000000	0.010531
1672.000000	0.010788
1671.000000	0.011063
1670.000000	0.011319
1669.000000	0.011583
1668.000000	0.011880
1667.000000	0.012161
1666.000000	0.012404
1665.000000	0.012641
1664.000000	0.012891
1663.000000	0.013129
1662.000000	0.013342
1661.000000	0.013562
1660.000000	0.013805
1659.000000	0.014027
1658.000000	0.014183
1657.000000	0.014291
1656.000000	0.014408
1655.000000	0.014533
1654.000000	0.014587
1653.000000	0.014590
1652.000000	0.014701
1651.000000	0.014861
1650.000000	0.015020
1649.000000	0.015166
1648.000000	0.015274
1647.000000	0.015305
1646.000000	0.015293
1645.000000	0.015317
1644.000000	0.015393
1643.000000	0.015483
1642.000000	0.015545
1641.000000	0.015570
1640.000000	0.015571
1639.000000	0.015563
1638.000000	0.015552
1637.000000	0.015551
1636.000000	0.015564
1635.000000	0.015575
1634.000000	0.015563
1633.000000	0.015554
1632.000000	0.015568
1631.000000	0.015578
1630.000000	0.015539
1629.000000	0.015445
1628.000000	0.015326
1627.000000	0.015200
1626.000000	0.015060
1625.000000	0.014908
1624.000000	0.014739
1623.000000	0.014544
1622.000000	0.014337
1621.000000	0.014161
1620.000000	0.014025
1619.000000	0.013885
1618.000000	0.013671
1617.000000	0.013375
1616.000000	0.013096
1615.000000	0.012900
1614.000000	0.012755
1613.000000	0.012632
1612.000000	0.012514
1611.000000	0.012371
1610.000000	0.012186
1609.000000	0.011983
1608.000000	0.011801
1607.000000	0.011640
1606.000000	0.011483
1605.000000	0.011333
1604.000000	0.011202
1603.000000	0.011072
1602.000000	0.010928
1601.000000	0.010793
1600.000000	0.010697
1599.000000	0.010626
1598.000000	0.010541
1597.000000	0.010435
1596.000000	0.010327
1595.000000	0.010227
1594.000000	0.010132
1593.000000	0.010053
1592.000000	0.009999
1591.000000	0.009957
1590.000000	0.009906
1589.000000	0.009854
1588.000000	0.009830
1587.000000	0.009838
1586.000000	0.009855
1585.000000	0.009871
1584.000000	0.009887
1583.000000	0.009896
1582.000000	0.009896
1581.000000	0.009905
1580.000000	0.009947
1579.000000	0.010013
1578.000000	0.010073
1577.000000	0.010113
1576.000000	0.010158
1575.000000	0.010217
1574.000000	0.010272
1573.000000	0.010341
1572.000000	0.010434
1571.000000	0.010529
1570.000000	0.010602
1569.000000	0.010682
1568.000000	0.010807
1567.000000	0.010964
1566.000000	0.011125
1565.000000	0.011277
1564.000000	0.011405
1563.000000	0.011507
1562.000000	0.011607
1561.000000	0.011752
1560.000000	0.011943
1559.000000	0.012094
1558.000000	0.012194
1557.000000	0.012342
1556.000000	0.012559
1555.000000	0.012798
1554.000000	0.013003
1553.000000	0.013170
1552.000000	0.013323
1551.000000	0.013468
1550.000000	0.013591
1549.000000	0.013699
1548.000000	0.013808
1547.000000	0.013914
1546.000000	0.013997
1545.000000	0.014039
1544.000000	0.014052
1543.000000	0.014062
1542.000000	0.014075
1541.000000	0.014074
1540.000000	0.014065
1539.000000	0.014071
1538.000000	0.014071
1537.000000	0.014075
1536.000000	0.014092
1535.000000	0.014085
1534.000000	0.014001
1533.000000	0.013857
1532.000000	0.013745
1531.000000	0.013698
1530.000000	0.013676
1529.000000	0.013638
1528.000000	0.013563
1527.000000	0.013449
1526.000000	0.013312
1525.000000	0.013183
1524.000000	0.013079
1523.000000	0.012981
1522.000000	0.012846
1521.000000	0.012678
1520.000000	0.012546
1519.000000	0.012471
1518.000000	0.012421
1517.000000	0.012364
1516.000000	0.012298
1515.000000	0.012233
1514.000000	0.012169
1513.000000	0.012095
1512.000000	0.011985
1511.000000	0.011833
1510.000000	0.011669
1509.000000	0.011508
1508.000000	0.011297
1507.000000	0.010978
1506.000000	0.010696
1505.000000	0.010565
1504.000000	0.010521
1503.000000	0.010496
1502.000000	0.010448
1501.000000	0.010363
1500.000000	0.010236
1499.000000	0.010070
1498.000000	0.009898
1497.000000	0.009759
1496.000000	0.009657
1495.000000	0.009565
1494.000000	0.009480
1493.000000	0.009419
1492.000000	0.009371
1491.000000	0.009294
1490.000000	0.009168
1489.000000	0.009033
1488.000000	0.008940
1487.000000	0.008892
1486.000000	0.008863
1485.000000	0.008849
1484.000000	0.008856
1483.000000	0.008872
1482.000000	0.008882
1481.000000	0.008895
1480.000000	0.008928
1479.000000	0.008983
1478.000000	0.009048
1477.000000	0.009113
1476.000000	0.009175
1475.000000	0.009238
1474.000000	0.009318
1473.000000	0.009422
1472.000000	0.009541
1471.000000	0.009656
1470.000000	0.009769
1469.000000	0.009891
1468.000000	0.010021
1467.000000	0.010148
1466.000000	0.010278
1465.000000	0.010423
1464.000000	0.010574
1463.000000	0.010708
1462.000000	0.010824
1461.000000	0.010938
1460.000000	0.011043
1459.000000	0.011121
1458.000000	0.011198
1457.000000	0.011339
1456.000000	0.011531
1455.000000	0.011699
1454.000000	0.011849
1453.000000	0.012003
1452.000000	0.012138
1451.000000	0.012223
1450.000000	0.012275
1449.000000	0.012332
1448.000000	0.012389
1447.000000	0.012420
1446.000000	0.012444
1445.000000	0.012495
1444.000000	0.012566
1443.000000	0.012622
1442.000000	0.012649
1441.000000	0.012666
1440.000000	0.012685
1439.000000	0.012688
1438.000000	0.012666
1437.000000	0.012631
1436.000000	0.012594
1435.000000	0.012563
1434.000000	0.012557
1433.000000	0.012585
1432.000000	0.012614
1431.000000	0.012601
1430.000000	0.012556
1429.000000	0.012534
1428.000000	0.012549
1427.000000	0.012566
1426.000000	0.012572
1425.000000	0.012585
1424.000000	0.012605
1423.000000	0.012607
1422.000000	0.012604
1421.000000	0.012634
1420.000000	0.012679
1419.000000	0.012668
1418.000000	0.012611
1417.000000	0.012582
1416.000000	0.012584
1415.000000	0.012577
1414.000000	0.012562
1413.000000	0.012572
1412.000000	0.012614
1411.000000	0.012647
1410.000000	0.012651
1409.000000	0.012652
1408.000000	0.012652
1407.000000	0.012620
1406.000000	0.012548
1405.000000	0.012471
1404.000000	0.012413
1403.000000	0.012361
1402.000000	0.012320
1401.000000	0.012299
1400.000000	0.012274
1399.000000	0.012198
1398.000000	0.012088
1397.000000	0.012009
1396.000000	0.011966
1395.000000	0.011906
1394.000000	0.011819
1393.000000	0.011766
1392.000000	0.011755
1391.000000	0.011737
1390.000000	0.011679
1389.000000	0.011596
1388.000000	0.011505
1387.000000	0.011402
1386.000000	0.011302
1385.000000	0.011239
1384.000000	0.011217
1383.000000	0.011194
1382.000000	0.011149
1381.000000	0.011102
1380.000000	0.011066
1379.000000	0.011020
1378.000000	0.010941
1377.000000	0.010843
1376.000000	0.010740
1375.000000	0.010631
1374.000000	0.010522
1373.000000	0.010449
1372.000000	0.010417
1371.000000	0.010380
1370.000000	0.010304
1369.000000	0.010206
1368.000000	0.010113
1367.000000	0.010020
1366.000000	0.009912
1365.000000	0.009792
1364.000000	0.009664
1363.000000	0.009528
1362.000000	0.009393
1361.000000	0.009293
1360.000000	0.009233
1359.000000	0.009181
1358.000000	0.009117
1357.000000	0.009055
1356.000000	0.009011
1355.000000	0.008975
1354.000000	0.008939
1353.000000	0.008917
1352.000000	0.008914
1351.000000	0.008913
1350.000000	0.008900
1349.000000	0.008897
1348.000000	0.008929
1347.000000	0.008981
1346.000000	0.009028
1345.000000	0.009072
1344.000000	0.009123
1343.000000	0.009171
1342.000000	0.009200
1341.000000	0.009219
1340.000000	0.009245
1339.000000	0.009274
1338.000000	0.009304
1337.000000	0.009347
1336.000000	0.009397
1335.000000	0.009414
1334.000000	0.009380
1333.000000	0.009321
1332.000000	0.009268
1331.000000	0.009220
1330.000000	0.009164
1329.000000	0.009109
1328.000000	0.009067
1327.000000	0.009023
1326.000000	0.008966
1325.000000	0.008910
1324.000000	0.008867
1323.000000	0.008821
1322.000000	0.008761
1321.000000	0.008710
1320.000000	0.008685
1319.000000	0.008666
1318.000000	0.008633
1317.000000	0.008598
1316.000000	0.008572
1315.000000	0.008533
1314.000000	0.008462
1313.000000	0.008377
1312.000000	0.008303
1311.000000	0.008238
1310.000000	0.008178
1309.000000	0.008133
1308.000000	0.008101
1307.000000	0.008054
1306.000000	0.007977
1305.000000	0.007899
1304.000000	0.007850
1303.000000	0.007817
1302.000000	0.007778
1301.000000	0.007736
1300.000000	0.007702
1299.000000	0.007663
1298.000000	0.007607
1297.000000	0.007550
1296.000000	0.007507
1295.000000	0.007470
1294.000000	0.007437
1293.000000	0.007433
1292.000000	0.007464
1291.000000	0.007497
1290.000000	0.007507
1289.000000	0.007506
1288.000000	0.007510
1287.000000	0.007506
1286.000000	0.007488
1285.000000	0.007483
1284.000000	0.007503
1283.000000	0.007522
1282.000000	0.007514
1281.000000	0.007503
1280.000000	0.007520
1279.000000	0.007551
1278.000000	0.007567
1277.000000	0.007565
1276.000000	0.007556
1275.000000	0.007534
1274.000000	0.007500
1273.000000	0.007475
1272.000000	0.007473
1271.000000	0.007476
1270.000000	0.007472
1269.000000	0.007484
1268.000000	0.007525
1267.000000	0.007569
1266.000000	0.007593
1265.000000	0.007610
1264.000000	0.007633
1263.000000	0.007637
1262.000000	0.007613
1261.000000	0.007596
1260.000000	0.007624
1259.000000	0.007686
1258.000000	0.007756
1257.000000	0.007835
1256.000000	0.007927
1255.000000	0.008005
1254.000000	0.008055
1253.000000	0.008099
1252.000000	0.008156
1251.000000	0.008207
1250.000000	0.008237
1249.000000	0.008272
1248.000000	0.008335
1247.000000	0.008411
1246.000000	0.008482
1245.000000	0.008570
1244.000000	0.008693
1243.000000	0.008823
1242.000000	0.008925
1241.000000	0.009001
1240.000000	0.009072
1239.000000	0.009129
1238.000000	0.009163
1237.000000	0.009190
1236.000000	0.009221
1235.000000	0.009240
1234.000000	0.009233
1233.000000	0.009220
1232.000000	0.009214
1231.000000	0.009203
1230.000000	0.009173
1229.000000	0.009138
1228.000000	0.009097
1227.000000	0.009022
1226.000000	0.008906
1225.000000	0.008785
1224.000000	0.008683
1223.000000	0.008572
1222.000000	0.008426
1221.000000	0.008264
1220.000000	0.008116
1219.000000	0.007981
1218.000000	0.007854
1217.000000	0.007757
1216.000000	0.007700
1215.000000	0.007655
1214.000000	0.007599
1213.000000	0.007555
1212.000000	0.007547
1211.000000	0.007561
1210.000000	0.007576
1209.000000	0.007601
1208.000000	0.007644
1207.000000	0.007689
1206.000000	0.007723
1205.000000	0.007759
1204.000000	0.007802
1203.000000	0.007823
1202.000000	0.007808
1201.000000	0.007777
1200.000000	0.007753
1199.000000	0.007719
1198.000000	0.007658
1197.000000	0.007586
1196.000000	0.007513
1195.000000	0.007423
1194.000000	0.007318
1193.000000	0.007232
1192.000000	0.007181
1191.000000	0.007130
1190.000000	0.007042
1189.000000	0.006931
1188.000000	0.006825
1187.000000	0.006727
1186.000000	0.006639
1185.000000	0.006577
1184.000000	0.006542
1183.000000	0.006508
1182.000000	0.006469
1181.000000	0.006448
1180.000000	0.006452
1179.000000	0.006451
1178.000000	0.006437
1177.000000	0.006443
1176.000000	0.006481
1175.000000	0.006511
1174.000000	0.006503
1173.000000	0.006486
1172.000000	0.006490
1171.000000	0.006512
1170.000000	0.006546
1169.000000	0.006607
1168.000000	0.006684
1167.000000	0.006733
1166.000000	0.006746
1165.000000	0.006779
1164.000000	0.006866
1163.000000	0.006968
1162.000000	0.007041
1161.000000	0.007095
1160.000000	0.007152
1159.000000	0.007197
1158.000000	0.007221
1157.000000	0.007257
1156.000000	0.007321
1155.000000	0.007375
1154.000000	0.007395
1153.000000	0.007406
1152.000000	0.007429
1151.000000	0.007430
1150.000000	0.007393
1149.000000	0.007361
1148.000000	0.007365
1147.000000	0.007367
1146.000000	0.007325
1145.000000	0.007265
1144.000000	0.007227
1143.000000	0.007197
1142.000000	0.007149
1141.000000	0.007103
1140.000000	0.007089
1139.000000	0.007086
1138.000000	0.007066
1137.000000	0.007039
1136.000000	0.007018
1135.000000	0.006980
1134.000000	0.006918
1133.000000	0.006871
1132.000000	0.006871
1131.000000	0.006893
1130.000000	0.006907
1129.000000	0.006934
1128.000000	0.006986
1127.000000	0.007036
1126.000000	0.007061
1125.000000	0.007090
1124.000000	0.007145
1123.000000	0.007194
1122.000000	0.007205
1121.000000	0.007202
1120.000000	0.007214
1119.000000	0.007229
1118.000000	0.007236
1117.000000	0.007262
1116.000000	0.007321
1115.000000	0.007376
1114.000000	0.007403
1113.000000	0.007433
1112.000000	0.007489
1111.000000	0.007544
1110.000000	0.007583
1109.000000	0.007642
1108.000000	0.007734
1107.000000	0.007814
1106.000000	0.007857
1105.000000	0.007913
1104.000000	0.008009
1103.000000	0.008096
1102.000000	0.008126
1101.000000	0.008132
1100.000000	0.008158
1099.000000	0.008192
1098.000000	0.008215
1097.000000	0.008263
1096.000000	0.008356
1095.000000	0.008444
1094.000000	0.008482
1093.000000	0.008501
1092.000000	0.008546
1091.000000	0.008603
1090.000000	0.008644
1089.000000	0.008691
1088.000000	0.008764
1087.000000	0.008836
1086.000000	0.008888
1085.000000	0.008951
1084.000000	0.009039
1083.000000	0.009110
1082.000000	0.009133
1081.000000	0.009147
1080.000000	0.009185
1079.000000	0.009213
1078.000000	0.009198
1077.000000	0.009170
1076.000000	0.009163
1075.000000	0.009154
1074.000000	0.009120
1073.000000	0.009085
1072.000000	0.009062
1071.000000	0.009018
1070.000000	0.008950
1069.000000	0.008921
1068.000000	0.008971
1067.000000	0.009043
1066.000000	0.009069
1065.000000	0.009060
1064.000000	0.009058
1063.000000	0.009064
1062.000000	0.009073
1061.000000	0.009106
1060.000000	0.009162
1059.000000	0.009193
1058.000000	0.009187
1057.000000	0.009194
1056.000000	0.009237
1055.000000	0.009261
1054.000000	0.009233
1053.000000	0.009214
1052.000000	0.009260
1051.000000	0.009336
1050.000000	0.009390
1049.000000	0.009428
1048.000000	0.009473
1047.000000	0.009508
1046.000000	0.009532
1045.000000	0.009589
1044.000000	0.009689
1043.000000	0.009772
1042.000000	0.009809
1041.000000	0.009861
1040.000000	0.009974
1039.000000	0.010106
1038.000000	0.010206
1037.000000	0.010296
1036.000000	0.010402
1035.000000	0.010491
1034.000000	0.010538
1033.000000	0.010573
1032.000000	0.010623
1031.000000	0.010654
1030.000000	0.010649
1029.000000	0.010646
1028.000000	0.010654
1027.000000	0.010620
1026.000000	0.010531
1025.000000	0.010466
1024.000000	0.010468
1023.000000	0.010470
1022.000000	0.010402
1021.000000	0.010297
1020.000000	0.010215
1019.000000	0.010146
1018.000000	0.010068
1017.000000	0.010015
1016.000000	0.010014
1015.000000	0.010024
1014.000000	0.010001
1013.000000	0.009969
1012.000000	0.009956
1011.000000	0.009934
1010.000000	0.009877
1009.000000	0.009812
1008.000000	0.009757
1007.000000	0.009669
1006.000000	0.009529
1005.000000	0.009390
1004.000000	0.009294
1003.000000	0.009209
1002.000000	0.009104
1001.000000	0.009008
1000.000000	0.008940
999.000000	0.008852
998.000000	0.008713
997.000000	0.008563
996.000000	0.008438
995.000000	0.008307
994.000000	0.008144
993.000000	0.007992
992.000000	0.007888
991.000000	0.007806
990.000000	0.007713
989.000000	0.007628
988.000000	0.007549
987.000000	0.007431
986.000000	0.007271
985.000000	0.007143
984.000000	0.007080
983.000000	0.007025
982.000000	0.006937
981.000000	0.006873
980.000000	0.006879
979.000000	0.006900
978.000000	0.006870
977.000000	0.006811
976.000000	0.006769
975.000000	0.006724
974.000000	0.006651
973.000000	0.006582
972.000000	0.006542
971.000000	0.006491
970.000000	0.006403
969.000000	0.006325
968.000000	0.006292
967.000000	0.006261
966.000000	0.006194
965.000000	0.006131
964.000000	0.006104
963.000000	0.006065
962.000000	0.005969
961.000000	0.005858
960.000000	0.005780
959.000000	0.005710
958.000000	0.005619
957.000000	0.005552
956.000000	0.005547
955.000000	0.005547
954.000000	0.005481
953.000000	0.005375
952.000000	0.005292
951.000000	0.005233
950.000000	0.005166
949.000000	0.005099
948.000000	0.005054
947.000000	0.005013
946.000000	0.004970
945.000000	0.004958
944.000000	0.004982
943.000000	0.004979
942.000000	0.004918
941.000000	0.004860
940.000000	0.004852
939.000000	0.004849
938.000000	0.004799
937.000000	0.004739
936.000000	0.004714
935.000000	0.004689
934.000000	0.004627
933.000000	0.004567
932.000000	0.004559
931.000000	0.004571
930.000000	0.004554
929.000000	0.004520
928.000000	0.004495
927.000000	0.004447
926.000000	0.004359
925.000000	0.004285
924.000000	0.004269
923.000000	0.004275
922.000000	0.004254
921.000000	0.004236
920.000000	0.004255
919.000000	0.004278
918.000000	0.004261
917.000000	0.004228
916.000000	0.004212
915.000000	0.004186
914.000000	0.004122
913.000000	0.004053
912.000000	0.004012
911.000000	0.003979
910.000000	0.003930
909.000000	0.003896
908.000000	0.003888
907.000000	0.003848
906.000000	0.003746
905.000000	0.003638
904.000000	0.003575
903.000000	0.003528
902.000000	0.003470
901.000000	0.003436
900.000000	0.003447
899.000000	0.003444
898.000000	0.003384
897.000000	0.003312
896.000000	0.003281
895.000000	0.003271
894.000000	0.003253
893.000000	0.003260
892.000000	0.003302
891.000000	0.003317
890.000000	0.003267
889.000000	0.003214
888.000000	0.003217
887.000000	0.003255
886.000000	0.003313
885.000000	0.003447
884.000000	0.003681
883.000000	0.003934
882.000000	0.004147
881.000000	0.004389
880.000000	0.004740
879.000000	0.005165
878.000000	0.005580
877.000000	0.005963
876.000000	0.006294
875.000000	0.006494
874.000000	0.006529
873.000000	0.006469
872.000000	0.006369
871.000000	0.006175
870.000000	0.005848
869.000000	0.005473
868.000000	0.005152
867.000000	0.004884
866.000000	0.004637
865.000000	0.004457
864.000000	0.004377
863.000000	0.004332
862.000000	0.004246
861.000000	0.004131
860.000000	0.004028
859.000000	0.003916
858.000000	0.003793
857.000000	0.003729
856.000000	0.003757
855.000000	0.003796
854.000000	0.003768
853.000000	0.003707
852.000000	0.003665
851.000000	0.003614
850.000000	0.003534
849.000000	0.003493
848.000000	0.003531
847.000000	0.003574
846.000000	0.003551
845.000000	0.003505
844.000000	0.003494
843.000000	0.003484
842.000000	0.003433
841.000000	0.003397
840.000000	0.003432
839.000000	0.003493
838.000000	0.003511
837.000000	0.003496
836.000000	0.003468
835.000000	0.003393
834.000000	0.003277
833.000000	0.003218
832.000000	0.003269
831.000000	0.003346
830.000000	0.003360
829.000000	0.003338
828.000000	0.003330
827.000000	0.003294
826.000000	0.003203
825.000000	0.003142
824.000000	0.003170
823.000000	0.003220
822.000000	0.003235
821.000000	0.003272
820.000000	0.003369
819.000000	0.003432
818.000000	0.003392
817.000000	0.003328
816.000000	0.003321
815.000000	0.003320
814.000000	0.003261
813.000000	0.003206
812.000000	0.003227
811.000000	0.003273
810.000000	0.003277
809.000000	0.003283
808.000000	0.003345
807.000000	0.003396
806.000000	0.003363
805.000000	0.003299
804.000000	0.003286
803.000000	0.003283
802.000000	0.003238
801.000000	0.003205
800.000000	0.003253
799.000000	0.003320
798.000000	0.003324
797.000000	0.003296
796.000000	0.003302
795.000000	0.003315
794.000000	0.003296
793.000000	0.003300
792.000000	0.003371
791.000000	0.003428
790.000000	0.003389
789.000000	0.003312
788.000000	0.003293
787.000000	0.003309
786.000000	0.003294
785.000000	0.003273
784.000000	0.003294
783.000000	0.003323
782.000000	0.003315
781.000000	0.003322
780.000000	0.003396
779.000000	0.003484
778.000000	0.003509
777.000000	0.003492
776.000000	0.003476
775.000000	0.003424
774.000000	0.003308
773.000000	0.003204
772.000000	0.003199
771.000000	0.003255
770.000000	0.003287
769.000000	0.003295
768.000000	0.003313
767.000000	0.003310
766.000000	0.003258
765.000000	0.003223
764.000000	0.003264
763.000000	0.003319
762.000000	0.003307
761.000000	0.003263
760.000000	0.003264
759.000000	0.003289
758.000000	0.003283
757.000000	0.003263
756.000000	0.003279
755.000000	0.003299
754.000000	0.003274
753.000000	0.003243
752.000000	0.003257
751.000000	0.003285
750.000000	0.003268
749.000000	0.003240
748.000000	0.003255
747.000000	0.003292
746.000000	0.003303
745.000000	0.003313
744.000000	0.003363
743.000000	0.003408
742.000000	0.003385
741.000000	0.003319
740.000000	0.003277
739.000000	0.003266
738.000000	0.003253
737.000000	0.003245
736.000000	0.003254
735.000000	0.003246
734.000000	0.003210
733.000000	0.003208
732.000000	0.003286
731.000000	0.003384
730.000000	0.003418
729.000000	0.003400
728.000000	0.003378
727.000000	0.003335
726.000000	0.003259
725.000000	0.003213
724.000000	0.003243
723.000000	0.003287
722.000000	0.003290
721.000000	0.003303
720.000000	0.003376
719.000000	0.003455
718.000000	0.003492
717.000000	0.003549
716.000000	0.003703
715.000000	0.003920
714.000000	0.004118
713.000000	0.004281
712.000000	0.004403
711.000000	0.004410
710.000000	0.004259
709.000000	0.004039
708.000000	0.003875
707.000000	0.003775
706.000000	0.003705
705.000000	0.003707
704.000000	0.003797
703.000000	0.003884
702.000000	0.003884
701.000000	0.003831
700.000000	0.003809
699.000000	0.003801
698.000000	0.003756
697.000000	0.003711
696.000000	0.003710
695.000000	0.003726
694.000000	0.003706
693.000000	0.003664
692.000000	0.003655
691.000000	0.003662
690.000000	0.003643
689.000000	0.003613
688.000000	0.003589
687.000000	0.003541
686.000000	0.003432
685.000000	0.003294
684.000000	0.003205
683.000000	0.003178
682.000000	0.003162
681.000000	0.003152
680.000000	0.003209
679.000000	0.003340
678.000000	0.003445
677.000000	0.003493
676.000000	0.003545
675.000000	0.003612
674.000000	0.003610
673.000000	0.003455
672.000000	0.003101
671.000000	0.002483
670.000000	0.001568
669.000000	0.000576
668.000000	0.000331
667.000000	0.001218
666.000000	0.002064
665.000000	0.002732
664.000000	0.003362
663.000000	0.003737
662.000000	0.003770
661.000000	0.003711
660.000000	0.003781
659.000000	0.003851
658.000000	0.003731
657.000000	0.003543
656.000000	0.003442
655.000000	0.003329
654.000000	0.003158
653.000000	0.003126
652.000000	0.003278
651.000000	0.003356
650.000000	0.003238
649.000000	0.003170
648.000000	0.003304
647.000000	0.003425
646.000000	0.003395
645.000000	0.003408
644.000000	0.003588
643.000000	0.003756
642.000000	0.003767
641.000000	0.003770
640.000000	0.003891
639.000000	0.003957
638.000000	0.003838
637.000000	0.003707
636.000000	0.003724
635.000000	0.003775
634.000000	0.003753
633.000000	0.003769
632.000000	0.003892
631.000000	0.003964
630.000000	0.003896
629.000000	0.003847
628.000000	0.003905
627.000000	0.003901
626.000000	0.003753
625.000000	0.003653
624.000000	0.003710
623.000000	0.003746
622.000000	0.003643
621.000000	0.003572
620.000000	0.003672
619.000000	0.003806
618.000000	0.003845
617.000000	0.003904
616.000000	0.004066
615.000000	0.004173
614.000000	0.004142
613.000000	0.004165
612.000000	0.004350
611.000000	0.004481
610.000000	0.004372
609.000000	0.004188
608.000000	0.004144
607.000000	0.004160
606.000000	0.004105
605.000000	0.004058
604.000000	0.004107
603.000000	0.004151
602.000000	0.004126
601.000000	0.004155
600.000000	0.004286
599.000000	0.004348
598.000000	0.004256
597.000000	0.004181
596.000000	0.004203
595.000000	0.004145
594.000000	0.003926
593.000000	0.003771
592.000000	0.003837
591.000000	0.003939
590.000000	0.003909
589.000000	0.003872
588.000000	0.003913
587.000000	0.003834
586.000000	0.003532
585.000000	0.003267
584.000000	0.003277
583.000000	0.003417
582.000000	0.003476
581.000000	0.003514
580.000000	0.003606
579.000000	0.003601
578.000000	0.003451
577.000000	0.003429
576.000000	0.003692
575.000000	0.003964
574.000000	0.003982
573.000000	0.003905
572.000000	0.003945
571.000000	0.003986
570.000000	0.003882
569.000000	0.003819
568.000000	0.003981
567.000000	0.004178
566.000000	0.004164
565.000000	0.004030
564.000000	0.003949
563.000000	0.003858
562.000000	0.003717
561.000000	0.003741
560.000000	0.004032
559.000000	0.004309
558.000000	0.004324
557.000000	0.004240
556.000000	0.004277
555.000000	0.004331
554.000000	0.004259
553.000000	0.004193
552.000000	0.004242
551.000000	0.004221
550.000000	0.004021
549.000000	0.003903
548.000000	0.004067
547.000000	0.004280
546.000000	0.004281
545.000000	0.004204
544.000000	0.004245
543.000000	0.004286
542.000000	0.004206
541.000000	0.004183
540.000000	0.004339
539.000000	0.004455
538.000000	0.004387
537.000000	0.004382
536.000000	0.004641
535.000000	0.004923
534.000000	0.004975
533.000000	0.004946
532.000000	0.005031
531.000000	0.005086
530.000000	0.004971
529.000000	0.004887
528.000000	0.004997
527.000000	0.005066
526.000000	0.004863
525.000000	0.004621
524.000000	0.004608
523.000000	0.004669
522.000000	0.004613
521.000000	0.004596
520.000000	0.004763
519.000000	0.004865
518.000000	0.004654
517.000000	0.004329
516.000000	0.004159
515.000000	0.004060
514.000000	0.003946
513.000000	0.004003
512.000000	0.004287
511.000000	0.004452
510.000000	0.004259
509.000000	0.003974
508.000000	0.003920
507.000000	0.004001
506.000000	0.004044
505.000000	0.004164
504.000000	0.004409
503.000000	0.004472
502.000000	0.004173
501.000000	0.003826
500.000000	0.003679
499.000000	0.003512
498.000000	0.003184
497.000000	0.003015
496.000000	0.003216
495.000000	0.003455
494.000000	0.003406
493.000000	0.003296
492.000000	0.003439
491.000000	0.003655
490.000000	0.003671
489.000000	0.003627
488.000000	0.003711
487.000000	0.003744
486.000000	0.003576
485.000000	0.003458
484.000000	0.003575
483.000000	0.003660
482.000000	0.003551
481.000000	0.003585
480.000000	0.003933
479.000000	0.004153
478.000000	0.003937
477.000000	0.003722
476.000000	0.003990
475.000000	0.004513
474.000000	0.004882
473.000000	0.005211
472.000000	0.005704
471.000000	0.006012
470.000000	0.005874
469.000000	0.005674
468.000000	0.005736
467.000000	0.005753
466.000000	0.005471
465.000000	0.005276
464.000000	0.005458
463.000000	0.005597
462.000000	0.005305
461.000000	0.004984
460.000000	0.005095
459.000000	0.005317
458.000000	0.005128
457.000000	0.004720
456.000000	0.004452
455.000000	0.004097
454.000000	0.003541
453.000000	0.003277
452.000000	0.003536
451.000000	0.003668
450.000000	0.003200
