PE IR       SUBTECH     SPECTRUM    ASCII       PEDS        4.00        
   -1
P8-Or020_1.ASC
23/06/13
15:40:08.00
23/06/13
16:11:22.00
uco
Sample 020 By uco Date Tuesday, June 13 2023
450.000000
#HDR
-1
-1
#GR
cm-1
A
1.0
0.0
4000.000000
-1.000000
3551
8
0.016274
0.000273
#DATA
4000.000000	0.003414
3999.000000	0.003433
3998.000000	0.003459
3997.000000	0.003473
3996.000000	0.003470
3995.000000	0.003455
3994.000000	0.003439
3993.000000	0.003428
3992.000000	0.003419
3991.000000	0.003412
3990.000000	0.003414
3989.000000	0.003432
3988.000000	0.003468
3987.000000	0.003510
3986.000000	0.003545
3985.000000	0.003559
3984.000000	0.003549
3983.000000	0.003519
3982.000000	0.003488
3981.000000	0.003468
3980.000000	0.003467
3979.000000	0.003478
3978.000000	0.003487
3977.000000	0.003488
3976.000000	0.003485
3975.000000	0.003489
3974.000000	0.003511
3973.000000	0.003545
3972.000000	0.003580
3971.000000	0.003604
3970.000000	0.003611
3969.000000	0.003608
3968.000000	0.003601
3967.000000	0.003596
3966.000000	0.003592
3965.000000	0.003584
3964.000000	0.003569
3963.000000	0.003554
3962.000000	0.003547
3961.000000	0.003553
3960.000000	0.003565
3959.000000	0.003573
3958.000000	0.003569
3957.000000	0.003557
3956.000000	0.003545
3955.000000	0.003543
3954.000000	0.003553
3953.000000	0.003570
3952.000000	0.003585
3951.000000	0.003595
3950.000000	0.003600
3949.000000	0.003605
3948.000000	0.003613
3947.000000	0.003619
3946.000000	0.003612
3945.000000	0.003588
3944.000000	0.003553
3943.000000	0.003528
3942.000000	0.003524
3941.000000	0.003532
3940.000000	0.003533
3939.000000	0.003525
3938.000000	0.003524
3937.000000	0.003546
3936.000000	0.003592
3935.000000	0.003646
3934.000000	0.003685
3933.000000	0.003693
3932.000000	0.003674
3931.000000	0.003647
3930.000000	0.003635
3929.000000	0.003642
3928.000000	0.003651
3927.000000	0.003640
3926.000000	0.003610
3925.000000	0.003585
3924.000000	0.003590
3923.000000	0.003623
3922.000000	0.003660
3921.000000	0.003686
3920.000000	0.003696
3919.000000	0.003694
3918.000000	0.003685
3917.000000	0.003675
3916.000000	0.003672
3915.000000	0.003670
3914.000000	0.003659
3913.000000	0.003633
3912.000000	0.003602
3911.000000	0.003581
3910.000000	0.003579
3909.000000	0.003598
3908.000000	0.003626
3907.000000	0.003658
3906.000000	0.003695
3905.000000	0.003748
3904.000000	0.003816
3903.000000	0.003873
3902.000000	0.003882
3901.000000	0.003838
3900.000000	0.003774
3899.000000	0.003730
3898.000000	0.003717
3897.000000	0.003720
3896.000000	0.003725
3895.000000	0.003728
3894.000000	0.003725
3893.000000	0.003714
3892.000000	0.003714
3891.000000	0.003748
3890.000000	0.003810
3889.000000	0.003864
3888.000000	0.003873
3887.000000	0.003832
3886.000000	0.003778
3885.000000	0.003751
3884.000000	0.003751
3883.000000	0.003747
3882.000000	0.003721
3881.000000	0.003690
3880.000000	0.003685
3879.000000	0.003709
3878.000000	0.003736
3877.000000	0.003737
3876.000000	0.003713
3875.000000	0.003699
3874.000000	0.003735
3873.000000	0.003809
3872.000000	0.003865
3871.000000	0.003873
3870.000000	0.003858
3869.000000	0.003858
3868.000000	0.003863
3867.000000	0.003847
3866.000000	0.003815
3865.000000	0.003788
3864.000000	0.003778
3863.000000	0.003774
3862.000000	0.003764
3861.000000	0.003748
3860.000000	0.003739
3859.000000	0.003750
3858.000000	0.003785
3857.000000	0.003833
3856.000000	0.003865
3855.000000	0.003858
3854.000000	0.003857
3853.000000	0.003912
3852.000000	0.003966
3851.000000	0.003954
3850.000000	0.003898
3849.000000	0.003842
3848.000000	0.003806
3847.000000	0.003786
3846.000000	0.003773
3845.000000	0.003761
3844.000000	0.003753
3843.000000	0.003763
3842.000000	0.003793
3841.000000	0.003826
3840.000000	0.003846
3839.000000	0.003854
3838.000000	0.003862
3837.000000	0.003871
3836.000000	0.003874
3835.000000	0.003860
3834.000000	0.003825
3833.000000	0.003778
3832.000000	0.003739
3831.000000	0.003724
3830.000000	0.003726
3829.000000	0.003720
3828.000000	0.003700
3827.000000	0.003691
3826.000000	0.003724
3825.000000	0.003795
3824.000000	0.003857
3823.000000	0.003864
3822.000000	0.003820
3821.000000	0.003792
3820.000000	0.003813
3819.000000	0.003848
3818.000000	0.003851
3817.000000	0.003823
3816.000000	0.003797
3815.000000	0.003784
3814.000000	0.003760
3813.000000	0.003716
3812.000000	0.003680
3811.000000	0.003677
3810.000000	0.003696
3809.000000	0.003701
3808.000000	0.003686
3807.000000	0.003691
3806.000000	0.003747
3805.000000	0.003816
3804.000000	0.003843
3803.000000	0.003808
3802.000000	0.003756
3801.000000	0.003751
3800.000000	0.003783
3799.000000	0.003797
3798.000000	0.003776
3797.000000	0.003744
3796.000000	0.003726
3795.000000	0.003720
3794.000000	0.003699
3793.000000	0.003651
3792.000000	0.003587
3791.000000	0.003526
3790.000000	0.003483
3789.000000	0.003463
3788.000000	0.003464
3787.000000	0.003479
3786.000000	0.003506
3785.000000	0.003547
3784.000000	0.003597
3783.000000	0.003644
3782.000000	0.003669
3781.000000	0.003664
3780.000000	0.003639
3779.000000	0.003615
3778.000000	0.003600
3777.000000	0.003586
3776.000000	0.003576
3775.000000	0.003589
3774.000000	0.003630
3773.000000	0.003680
3772.000000	0.003710
3771.000000	0.003711
3770.000000	0.003701
3769.000000	0.003694
3768.000000	0.003681
3767.000000	0.003658
3766.000000	0.003636
3765.000000	0.003634
3764.000000	0.003651
3763.000000	0.003667
3762.000000	0.003665
3761.000000	0.003653
3760.000000	0.003650
3759.000000	0.003666
3758.000000	0.003692
3757.000000	0.003717
3756.000000	0.003741
3755.000000	0.003772
3754.000000	0.003822
3753.000000	0.003897
3752.000000	0.003988
3751.000000	0.004073
3750.000000	0.004141
3749.000000	0.004198
3748.000000	0.004248
3747.000000	0.004279
3746.000000	0.004275
3745.000000	0.004249
3744.000000	0.004219
3743.000000	0.004157
3742.000000	0.004044
3741.000000	0.003921
3740.000000	0.003836
3739.000000	0.003805
3738.000000	0.003808
3737.000000	0.003817
3736.000000	0.003808
3735.000000	0.003760
3734.000000	0.003684
3733.000000	0.003625
3732.000000	0.003619
3731.000000	0.003663
3730.000000	0.003722
3729.000000	0.003769
3728.000000	0.003796
3727.000000	0.003806
3726.000000	0.003802
3725.000000	0.003779
3724.000000	0.003736
3723.000000	0.003691
3722.000000	0.003662
3721.000000	0.003650
3720.000000	0.003638
3719.000000	0.003623
3718.000000	0.003619
3717.000000	0.003651
3716.000000	0.003715
3715.000000	0.003787
3714.000000	0.003845
3713.000000	0.003887
3712.000000	0.003924
3711.000000	0.003951
3710.000000	0.003943
3709.000000	0.003882
3708.000000	0.003786
3707.000000	0.003693
3706.000000	0.003625
3705.000000	0.003567
3704.000000	0.003491
3703.000000	0.003399
3702.000000	0.003327
3701.000000	0.003312
3700.000000	0.003350
3699.000000	0.003406
3698.000000	0.003455
3697.000000	0.003499
3696.000000	0.003548
3695.000000	0.003610
3694.000000	0.003677
3693.000000	0.003730
3692.000000	0.003743
3691.000000	0.003701
3690.000000	0.003632
3689.000000	0.003593
3688.000000	0.003613
3687.000000	0.003667
3686.000000	0.003712
3685.000000	0.003725
3684.000000	0.003714
3683.000000	0.003696
3682.000000	0.003675
3681.000000	0.003660
3680.000000	0.003672
3679.000000	0.003716
3678.000000	0.003763
3677.000000	0.003771
3676.000000	0.003759
3675.000000	0.003789
3674.000000	0.003855
3673.000000	0.003885
3672.000000	0.003845
3671.000000	0.003760
3670.000000	0.003697
3669.000000	0.003694
3668.000000	0.003717
3667.000000	0.003727
3666.000000	0.003717
3665.000000	0.003696
3664.000000	0.003674
3663.000000	0.003654
3662.000000	0.003638
3661.000000	0.003630
3660.000000	0.003635
3659.000000	0.003647
3658.000000	0.003657
3657.000000	0.003669
3656.000000	0.003702
3655.000000	0.003761
3654.000000	0.003824
3653.000000	0.003872
3652.000000	0.003898
3651.000000	0.003910
3650.000000	0.003918
3649.000000	0.003913
3648.000000	0.003886
3647.000000	0.003851
3646.000000	0.003827
3645.000000	0.003810
3644.000000	0.003787
3643.000000	0.003757
3642.000000	0.003726
3641.000000	0.003700
3640.000000	0.003678
3639.000000	0.003669
3638.000000	0.003678
3637.000000	0.003704
3636.000000	0.003734
3635.000000	0.003767
3634.000000	0.003816
3633.000000	0.003885
3632.000000	0.003961
3631.000000	0.004019
3630.000000	0.004050
3629.000000	0.004080
3628.000000	0.004117
3627.000000	0.004129
3626.000000	0.004095
3625.000000	0.004029
3624.000000	0.003952
3623.000000	0.003866
3622.000000	0.003765
3621.000000	0.003654
3620.000000	0.003580
3619.000000	0.003605
3618.000000	0.003734
3617.000000	0.003903
3616.000000	0.004049
3615.000000	0.004152
3614.000000	0.004220
3613.000000	0.004270
3612.000000	0.004304
3611.000000	0.004315
3610.000000	0.004298
3609.000000	0.004255
3608.000000	0.004191
3607.000000	0.004113
3606.000000	0.004029
3605.000000	0.003948
3604.000000	0.003889
3603.000000	0.003867
3602.000000	0.003886
3601.000000	0.003930
3600.000000	0.003977
3599.000000	0.004012
3598.000000	0.004037
3597.000000	0.004057
3596.000000	0.004082
3595.000000	0.004115
3594.000000	0.004155
3593.000000	0.004187
3592.000000	0.004203
3591.000000	0.004197
3590.000000	0.004174
3589.000000	0.004140
3588.000000	0.004119
3587.000000	0.004137
3586.000000	0.004184
3585.000000	0.004224
3584.000000	0.004237
3583.000000	0.004227
3582.000000	0.004210
3581.000000	0.004198
3580.000000	0.004195
3579.000000	0.004205
3578.000000	0.004223
3577.000000	0.004239
3576.000000	0.004247
3575.000000	0.004250
3574.000000	0.004254
3573.000000	0.004265
3572.000000	0.004286
3571.000000	0.004318
3570.000000	0.004356
3569.000000	0.004390
3568.000000	0.004421
3567.000000	0.004458
3566.000000	0.004496
3565.000000	0.004517
3564.000000	0.004506
3563.000000	0.004465
3562.000000	0.004415
3561.000000	0.004377
3560.000000	0.004366
3559.000000	0.004389
3558.000000	0.004437
3557.000000	0.004489
3556.000000	0.004525
3555.000000	0.004534
3554.000000	0.004520
3553.000000	0.004508
3552.000000	0.004525
3551.000000	0.004578
3550.000000	0.004647
3549.000000	0.004705
3548.000000	0.004740
3547.000000	0.004754
3546.000000	0.004753
3545.000000	0.004742
3544.000000	0.004728
3543.000000	0.004719
3542.000000	0.004714
3541.000000	0.004704
3540.000000	0.004688
3539.000000	0.004680
3538.000000	0.004690
3537.000000	0.004722
3536.000000	0.004769
3535.000000	0.004821
3534.000000	0.004869
3533.000000	0.004900
3532.000000	0.004912
3531.000000	0.004909
3530.000000	0.004898
3529.000000	0.004887
3528.000000	0.004879
3527.000000	0.004878
3526.000000	0.004886
3525.000000	0.004894
3524.000000	0.004898
3523.000000	0.004898
3522.000000	0.004899
3521.000000	0.004906
3520.000000	0.004918
3519.000000	0.004936
3518.000000	0.004953
3517.000000	0.004966
3516.000000	0.004973
3515.000000	0.004976
3514.000000	0.004972
3513.000000	0.004961
3512.000000	0.004948
3511.000000	0.004942
3510.000000	0.004951
3509.000000	0.004967
3508.000000	0.004981
3507.000000	0.004995
3506.000000	0.005012
3505.000000	0.005034
3504.000000	0.005058
3503.000000	0.005083
3502.000000	0.005100
3501.000000	0.005103
3500.000000	0.005094
3499.000000	0.005086
3498.000000	0.005095
3497.000000	0.005126
3496.000000	0.005172
3495.000000	0.005222
3494.000000	0.005260
3493.000000	0.005273
3492.000000	0.005260
3491.000000	0.005230
3490.000000	0.005197
3489.000000	0.005169
3488.000000	0.005152
3487.000000	0.005152
3486.000000	0.005167
3485.000000	0.005186
3484.000000	0.005203
3483.000000	0.005218
3482.000000	0.005238
3481.000000	0.005263
3480.000000	0.005281
3479.000000	0.005286
3478.000000	0.005278
3477.000000	0.005267
3476.000000	0.005268
3475.000000	0.005291
3474.000000	0.005334
3473.000000	0.005376
3472.000000	0.005402
3471.000000	0.005408
3470.000000	0.005406
3469.000000	0.005405
3468.000000	0.005407
3467.000000	0.005415
3466.000000	0.005428
3465.000000	0.005439
3464.000000	0.005444
3463.000000	0.005446
3462.000000	0.005451
3461.000000	0.005460
3460.000000	0.005472
3459.000000	0.005489
3458.000000	0.005515
3457.000000	0.005544
3456.000000	0.005568
3455.000000	0.005580
3454.000000	0.005578
3453.000000	0.005564
3452.000000	0.005547
3451.000000	0.005533
3450.000000	0.005527
3449.000000	0.005531
3448.000000	0.005548
3447.000000	0.005582
3446.000000	0.005623
3445.000000	0.005653
3444.000000	0.005664
3443.000000	0.005668
3442.000000	0.005680
3441.000000	0.005703
3440.000000	0.005728
3439.000000	0.005748
3438.000000	0.005765
3437.000000	0.005785
3436.000000	0.005808
3435.000000	0.005833
3434.000000	0.005853
3433.000000	0.005861
3432.000000	0.005859
3431.000000	0.005853
3430.000000	0.005843
3429.000000	0.005829
3428.000000	0.005816
3427.000000	0.005812
3426.000000	0.005824
3425.000000	0.005849
3424.000000	0.005875
3423.000000	0.005893
3422.000000	0.005902
3421.000000	0.005909
3420.000000	0.005927
3419.000000	0.005963
3418.000000	0.006010
3417.000000	0.006052
3416.000000	0.006082
3415.000000	0.006098
3414.000000	0.006098
3413.000000	0.006082
3412.000000	0.006058
3411.000000	0.006045
3410.000000	0.006053
3409.000000	0.006080
3408.000000	0.006113
3407.000000	0.006143
3406.000000	0.006162
3405.000000	0.006170
3404.000000	0.006176
3403.000000	0.006191
3402.000000	0.006219
3401.000000	0.006248
3400.000000	0.006266
3399.000000	0.006265
3398.000000	0.006250
3397.000000	0.006231
3396.000000	0.006220
3395.000000	0.006223
3394.000000	0.006233
3393.000000	0.006237
3392.000000	0.006227
3391.000000	0.006210
3390.000000	0.006200
3389.000000	0.006203
3388.000000	0.006220
3387.000000	0.006245
3386.000000	0.006270
3385.000000	0.006284
3384.000000	0.006285
3383.000000	0.006278
3382.000000	0.006273
3381.000000	0.006275
3380.000000	0.006285
3379.000000	0.006309
3378.000000	0.006344
3377.000000	0.006382
3376.000000	0.006412
3375.000000	0.006431
3374.000000	0.006440
3373.000000	0.006443
3372.000000	0.006445
3371.000000	0.006452
3370.000000	0.006463
3369.000000	0.006475
3368.000000	0.006484
3367.000000	0.006495
3366.000000	0.006511
3365.000000	0.006528
3364.000000	0.006543
3363.000000	0.006556
3362.000000	0.006566
3361.000000	0.006576
3360.000000	0.006586
3359.000000	0.006601
3358.000000	0.006622
3357.000000	0.006651
3356.000000	0.006684
3355.000000	0.006714
3354.000000	0.006732
3353.000000	0.006734
3352.000000	0.006730
3351.000000	0.006738
3350.000000	0.006765
3349.000000	0.006807
3348.000000	0.006848
3347.000000	0.006878
3346.000000	0.006895
3345.000000	0.006905
3344.000000	0.006919
3343.000000	0.006949
3342.000000	0.006992
3341.000000	0.007030
3340.000000	0.007053
3339.000000	0.007065
3338.000000	0.007070
3337.000000	0.007067
3336.000000	0.007057
3335.000000	0.007048
3334.000000	0.007049
3333.000000	0.007061
3332.000000	0.007084
3331.000000	0.007118
3330.000000	0.007161
3329.000000	0.007200
3328.000000	0.007217
3327.000000	0.007211
3326.000000	0.007197
3325.000000	0.007201
3324.000000	0.007233
3323.000000	0.007286
3322.000000	0.007342
3321.000000	0.007381
3320.000000	0.007401
3319.000000	0.007408
3318.000000	0.007406
3317.000000	0.007392
3316.000000	0.007366
3315.000000	0.007338
3314.000000	0.007321
3313.000000	0.007315
3312.000000	0.007315
3311.000000	0.007319
3310.000000	0.007336
3309.000000	0.007368
3308.000000	0.007409
3307.000000	0.007443
3306.000000	0.007459
3305.000000	0.007460
3304.000000	0.007461
3303.000000	0.007474
3302.000000	0.007496
3301.000000	0.007513
3300.000000	0.007518
3299.000000	0.007524
3298.000000	0.007538
3297.000000	0.007556
3296.000000	0.007567
3295.000000	0.007568
3294.000000	0.007565
3293.000000	0.007567
3292.000000	0.007575
3291.000000	0.007584
3290.000000	0.007589
3289.000000	0.007592
3288.000000	0.007597
3287.000000	0.007604
3286.000000	0.007605
3285.000000	0.007592
3284.000000	0.007570
3283.000000	0.007556
3282.000000	0.007558
3281.000000	0.007568
3280.000000	0.007575
3279.000000	0.007577
3278.000000	0.007583
3277.000000	0.007595
3276.000000	0.007604
3275.000000	0.007604
3274.000000	0.007591
3273.000000	0.007571
3272.000000	0.007556
3271.000000	0.007552
3270.000000	0.007556
3269.000000	0.007555
3268.000000	0.007540
3267.000000	0.007518
3266.000000	0.007507
3265.000000	0.007516
3264.000000	0.007541
3263.000000	0.007567
3262.000000	0.007580
3261.000000	0.007576
3260.000000	0.007565
3259.000000	0.007561
3258.000000	0.007563
3257.000000	0.007559
3256.000000	0.007540
3255.000000	0.007512
3254.000000	0.007483
3253.000000	0.007456
3252.000000	0.007430
3251.000000	0.007409
3250.000000	0.007399
3249.000000	0.007395
3248.000000	0.007387
3247.000000	0.007372
3246.000000	0.007356
3245.000000	0.007349
3244.000000	0.007352
3243.000000	0.007356
3242.000000	0.007344
3241.000000	0.007308
3240.000000	0.007260
3239.000000	0.007224
3238.000000	0.007215
3237.000000	0.007231
3236.000000	0.007251
3235.000000	0.007264
3234.000000	0.007265
3233.000000	0.007262
3232.000000	0.007263
3231.000000	0.007267
3230.000000	0.007263
3229.000000	0.007243
3228.000000	0.007211
3227.000000	0.007185
3226.000000	0.007179
3225.000000	0.007187
3224.000000	0.007196
3223.000000	0.007199
3222.000000	0.007193
3221.000000	0.007176
3220.000000	0.007151
3219.000000	0.007127
3218.000000	0.007114
3217.000000	0.007115
3216.000000	0.007124
3215.000000	0.007134
3214.000000	0.007139
3213.000000	0.007129
3212.000000	0.007108
3211.000000	0.007087
3210.000000	0.007077
3209.000000	0.007077
3208.000000	0.007080
3207.000000	0.007085
3206.000000	0.007090
3205.000000	0.007091
3204.000000	0.007087
3203.000000	0.007083
3202.000000	0.007084
3201.000000	0.007087
3200.000000	0.007085
3199.000000	0.007074
3198.000000	0.007054
3197.000000	0.007026
3196.000000	0.006998
3195.000000	0.006981
3194.000000	0.006980
3193.000000	0.006984
3192.000000	0.006978
3191.000000	0.006956
3190.000000	0.006929
3189.000000	0.006910
3188.000000	0.006900
3187.000000	0.006895
3186.000000	0.006891
3185.000000	0.006884
3184.000000	0.006876
3183.000000	0.006872
3182.000000	0.006869
3181.000000	0.006863
3180.000000	0.006845
3179.000000	0.006819
3178.000000	0.006795
3177.000000	0.006784
3176.000000	0.006782
3175.000000	0.006779
3174.000000	0.006766
3173.000000	0.006742
3172.000000	0.006719
3171.000000	0.006707
3170.000000	0.006707
3169.000000	0.006711
3168.000000	0.006707
3167.000000	0.006694
3166.000000	0.006679
3165.000000	0.006669
3164.000000	0.006665
3163.000000	0.006669
3162.000000	0.006677
3161.000000	0.006686
3160.000000	0.006695
3159.000000	0.006702
3158.000000	0.006701
3157.000000	0.006686
3156.000000	0.006661
3155.000000	0.006633
3154.000000	0.006606
3153.000000	0.006573
3152.000000	0.006530
3151.000000	0.006486
3150.000000	0.006456
3149.000000	0.006446
3148.000000	0.006454
3147.000000	0.006471
3146.000000	0.006487
3145.000000	0.006489
3144.000000	0.006473
3143.000000	0.006450
3142.000000	0.006428
3141.000000	0.006403
3140.000000	0.006369
3139.000000	0.006335
3138.000000	0.006317
3137.000000	0.006327
3136.000000	0.006355
3135.000000	0.006382
3134.000000	0.006397
3133.000000	0.006396
3132.000000	0.006389
3131.000000	0.006387
3130.000000	0.006396
3129.000000	0.006407
3128.000000	0.006409
3127.000000	0.006398
3126.000000	0.006379
3125.000000	0.006361
3124.000000	0.006355
3123.000000	0.006364
3122.000000	0.006378
3121.000000	0.006385
3120.000000	0.006376
3119.000000	0.006359
3118.000000	0.006344
3117.000000	0.006337
3116.000000	0.006338
3115.000000	0.006343
3114.000000	0.006350
3113.000000	0.006355
3112.000000	0.006357
3111.000000	0.006362
3110.000000	0.006371
3109.000000	0.006377
3108.000000	0.006373
3107.000000	0.006367
3106.000000	0.006366
3105.000000	0.006369
3104.000000	0.006368
3103.000000	0.006358
3102.000000	0.006344
3101.000000	0.006331
3100.000000	0.006320
3099.000000	0.006311
3098.000000	0.006304
3097.000000	0.006300
3096.000000	0.006300
3095.000000	0.006306
3094.000000	0.006317
3093.000000	0.006328
3092.000000	0.006334
3091.000000	0.006338
3090.000000	0.006346
3089.000000	0.006356
3088.000000	0.006362
3087.000000	0.006358
3086.000000	0.006348
3085.000000	0.006342
3084.000000	0.006351
3083.000000	0.006380
3082.000000	0.006427
3081.000000	0.006481
3080.000000	0.006521
3079.000000	0.006530
3078.000000	0.006506
3077.000000	0.006465
3076.000000	0.006431
3075.000000	0.006415
3074.000000	0.006414
3073.000000	0.006415
3072.000000	0.006413
3071.000000	0.006413
3070.000000	0.006417
3069.000000	0.006423
3068.000000	0.006425
3067.000000	0.006423
3066.000000	0.006420
3065.000000	0.006417
3064.000000	0.006413
3063.000000	0.006408
3062.000000	0.006401
3061.000000	0.006394
3060.000000	0.006383
3059.000000	0.006366
3058.000000	0.006343
3057.000000	0.006323
3056.000000	0.006312
3055.000000	0.006316
3054.000000	0.006330
3053.000000	0.006339
3052.000000	0.006332
3051.000000	0.006308
3050.000000	0.006278
3049.000000	0.006256
3048.000000	0.006244
3047.000000	0.006235
3046.000000	0.006221
3045.000000	0.006208
3044.000000	0.006206
3043.000000	0.006218
3042.000000	0.006231
3041.000000	0.006226
3040.000000	0.006198
3039.000000	0.006168
3038.000000	0.006157
3037.000000	0.006169
3036.000000	0.006184
3035.000000	0.006186
3034.000000	0.006174
3033.000000	0.006159
3032.000000	0.006146
3031.000000	0.006132
3030.000000	0.006116
3029.000000	0.006096
3028.000000	0.006075
3027.000000	0.006051
3026.000000	0.006024
3025.000000	0.005999
3024.000000	0.005983
3023.000000	0.005981
3022.000000	0.005990
3021.000000	0.006003
3020.000000	0.006014
3019.000000	0.006023
3018.000000	0.006026
3017.000000	0.006021
3016.000000	0.006005
3015.000000	0.005986
3014.000000	0.005972
3013.000000	0.005965
3012.000000	0.005954
3011.000000	0.005933
3010.000000	0.005909
3009.000000	0.005892
3008.000000	0.005886
3007.000000	0.005884
3006.000000	0.005874
3005.000000	0.005856
3004.000000	0.005836
3003.000000	0.005824
3002.000000	0.005827
3001.000000	0.005837
3000.000000	0.005845
2999.000000	0.005843
2998.000000	0.005833
2997.000000	0.005820
2996.000000	0.005811
2995.000000	0.005805
2994.000000	0.005803
2993.000000	0.005807
2992.000000	0.005823
2991.000000	0.005846
2990.000000	0.005867
2989.000000	0.005876
2988.000000	0.005875
2987.000000	0.005872
2986.000000	0.005875
2985.000000	0.005885
2984.000000	0.005899
2983.000000	0.005908
2982.000000	0.005904
2981.000000	0.005882
2980.000000	0.005852
2979.000000	0.005830
2978.000000	0.005829
2977.000000	0.005848
2976.000000	0.005872
2975.000000	0.005882
2974.000000	0.005870
2973.000000	0.005846
2972.000000	0.005825
2971.000000	0.005817
2970.000000	0.005817
2969.000000	0.005812
2968.000000	0.005796
2967.000000	0.005768
2966.000000	0.005735
2965.000000	0.005712
2964.000000	0.005709
2963.000000	0.005727
2962.000000	0.005749
2961.000000	0.005765
2960.000000	0.005780
2959.000000	0.005806
2958.000000	0.005850
2957.000000	0.005902
2956.000000	0.005953
2955.000000	0.006001
2954.000000	0.006046
2953.000000	0.006085
2952.000000	0.006112
2951.000000	0.006124
2950.000000	0.006121
2949.000000	0.006102
2948.000000	0.006074
2947.000000	0.006050
2946.000000	0.006047
2945.000000	0.006068
2944.000000	0.006103
2943.000000	0.006132
2942.000000	0.006142
2941.000000	0.006137
2940.000000	0.006130
2939.000000	0.006137
2938.000000	0.006158
2937.000000	0.006184
2936.000000	0.006204
2935.000000	0.006213
2934.000000	0.006219
2933.000000	0.006232
2932.000000	0.006264
2931.000000	0.006313
2930.000000	0.006365
2929.000000	0.006404
2928.000000	0.006435
2927.000000	0.006474
2926.000000	0.006532
2925.000000	0.006612
2924.000000	0.006706
2923.000000	0.006805
2922.000000	0.006901
2921.000000	0.006988
2920.000000	0.007066
2919.000000	0.007132
2918.000000	0.007175
2917.000000	0.007183
2916.000000	0.007154
2915.000000	0.007101
2914.000000	0.007038
2913.000000	0.006976
2912.000000	0.006918
2911.000000	0.006865
2910.000000	0.006819
2909.000000	0.006781
2908.000000	0.006755
2907.000000	0.006744
2906.000000	0.006739
2905.000000	0.006725
2904.000000	0.006694
2903.000000	0.006654
2902.000000	0.006619
2901.000000	0.006594
2900.000000	0.006573
2899.000000	0.006550
2898.000000	0.006523
2897.000000	0.006491
2896.000000	0.006455
2895.000000	0.006421
2894.000000	0.006394
2893.000000	0.006375
2892.000000	0.006362
2891.000000	0.006354
2890.000000	0.006352
2889.000000	0.006353
2888.000000	0.006350
2887.000000	0.006343
2886.000000	0.006338
2885.000000	0.006340
2884.000000	0.006349
2883.000000	0.006355
2882.000000	0.006349
2881.000000	0.006324
2880.000000	0.006285
2879.000000	0.006241
2878.000000	0.006206
2877.000000	0.006186
2876.000000	0.006184
2875.000000	0.006197
2874.000000	0.006221
2873.000000	0.006251
2872.000000	0.006277
2871.000000	0.006295
2870.000000	0.006301
2869.000000	0.006294
2868.000000	0.006281
2867.000000	0.006271
2866.000000	0.006270
2865.000000	0.006275
2864.000000	0.006278
2863.000000	0.006275
2862.000000	0.006273
2861.000000	0.006282
2860.000000	0.006304
2859.000000	0.006327
2858.000000	0.006337
2857.000000	0.006338
2856.000000	0.006349
2855.000000	0.006391
2854.000000	0.006467
2853.000000	0.006557
2852.000000	0.006634
2851.000000	0.006687
2850.000000	0.006723
2849.000000	0.006749
2848.000000	0.006764
2847.000000	0.006753
2846.000000	0.006707
2845.000000	0.006631
2844.000000	0.006545
2843.000000	0.006470
2842.000000	0.006419
2841.000000	0.006388
2840.000000	0.006367
2839.000000	0.006340
2838.000000	0.006298
2837.000000	0.006245
2836.000000	0.006197
2835.000000	0.006170
2834.000000	0.006165
2833.000000	0.006172
2832.000000	0.006178
2831.000000	0.006174
2830.000000	0.006160
2829.000000	0.006142
2828.000000	0.006129
2827.000000	0.006128
2826.000000	0.006133
2825.000000	0.006136
2824.000000	0.006131
2823.000000	0.006121
2822.000000	0.006108
2821.000000	0.006090
2820.000000	0.006068
2819.000000	0.006047
2818.000000	0.006034
2817.000000	0.006032
2816.000000	0.006036
2815.000000	0.006045
2814.000000	0.006060
2813.000000	0.006081
2812.000000	0.006102
2811.000000	0.006118
2810.000000	0.006124
2809.000000	0.006118
2808.000000	0.006100
2807.000000	0.006073
2806.000000	0.006044
2805.000000	0.006019
2804.000000	0.005998
2803.000000	0.005979
2802.000000	0.005959
2801.000000	0.005938
2800.000000	0.005918
2799.000000	0.005903
2798.000000	0.005895
2797.000000	0.005891
2796.000000	0.005889
2795.000000	0.005891
2794.000000	0.005897
2793.000000	0.005907
2792.000000	0.005918
2791.000000	0.005932
2790.000000	0.005948
2789.000000	0.005961
2788.000000	0.005961
2787.000000	0.005944
2786.000000	0.005915
2785.000000	0.005888
2784.000000	0.005873
2783.000000	0.005878
2782.000000	0.005894
2781.000000	0.005907
2780.000000	0.005906
2779.000000	0.005894
2778.000000	0.005888
2777.000000	0.005893
2776.000000	0.005904
2775.000000	0.005911
2774.000000	0.005913
2773.000000	0.005911
2772.000000	0.005903
2771.000000	0.005887
2770.000000	0.005862
2769.000000	0.005837
2768.000000	0.005821
2767.000000	0.005818
2766.000000	0.005820
2765.000000	0.005817
2764.000000	0.005807
2763.000000	0.005797
2762.000000	0.005796
2761.000000	0.005807
2760.000000	0.005822
2759.000000	0.005835
2758.000000	0.005842
2757.000000	0.005844
2756.000000	0.005842
2755.000000	0.005836
2754.000000	0.005830
2753.000000	0.005822
2752.000000	0.005814
2751.000000	0.005807
2750.000000	0.005805
2749.000000	0.005810
2748.000000	0.005816
2747.000000	0.005817
2746.000000	0.005810
2745.000000	0.005797
2744.000000	0.005782
2743.000000	0.005768
2742.000000	0.005758
2741.000000	0.005752
2740.000000	0.005748
2739.000000	0.005746
2738.000000	0.005747
2737.000000	0.005754
2736.000000	0.005761
2735.000000	0.005758
2734.000000	0.005741
2733.000000	0.005715
2732.000000	0.005696
2731.000000	0.005691
2730.000000	0.005702
2729.000000	0.005720
2728.000000	0.005734
2727.000000	0.005737
2726.000000	0.005730
2725.000000	0.005719
2724.000000	0.005711
2723.000000	0.005709
2722.000000	0.005714
2721.000000	0.005721
2720.000000	0.005726
2719.000000	0.005728
2718.000000	0.005729
2717.000000	0.005735
2716.000000	0.005750
2715.000000	0.005770
2714.000000	0.005787
2713.000000	0.005792
2712.000000	0.005782
2711.000000	0.005761
2710.000000	0.005740
2709.000000	0.005721
2708.000000	0.005705
2707.000000	0.005689
2706.000000	0.005679
2705.000000	0.005677
2704.000000	0.005679
2703.000000	0.005675
2702.000000	0.005662
2701.000000	0.005648
2700.000000	0.005646
2699.000000	0.005659
2698.000000	0.005681
2697.000000	0.005700
2696.000000	0.005709
2695.000000	0.005710
2694.000000	0.005710
2693.000000	0.005714
2692.000000	0.005722
2691.000000	0.005723
2690.000000	0.005714
2689.000000	0.005702
2688.000000	0.005696
2687.000000	0.005702
2686.000000	0.005714
2685.000000	0.005721
2684.000000	0.005718
2683.000000	0.005704
2682.000000	0.005687
2681.000000	0.005673
2680.000000	0.005666
2679.000000	0.005661
2678.000000	0.005652
2677.000000	0.005642
2676.000000	0.005641
2675.000000	0.005661
2674.000000	0.005693
2673.000000	0.005718
2672.000000	0.005721
2671.000000	0.005708
2670.000000	0.005693
2669.000000	0.005684
2668.000000	0.005679
2667.000000	0.005677
2666.000000	0.005680
2665.000000	0.005685
2664.000000	0.005686
2663.000000	0.005680
2662.000000	0.005669
2661.000000	0.005663
2660.000000	0.005664
2659.000000	0.005662
2658.000000	0.005648
2657.000000	0.005622
2656.000000	0.005591
2655.000000	0.005567
2654.000000	0.005551
2653.000000	0.005540
2652.000000	0.005528
2651.000000	0.005513
2650.000000	0.005499
2649.000000	0.005485
2648.000000	0.005467
2647.000000	0.005445
2646.000000	0.005422
2645.000000	0.005408
2644.000000	0.005404
2643.000000	0.005410
2642.000000	0.005414
2641.000000	0.005405
2640.000000	0.005377
2639.000000	0.005340
2638.000000	0.005316
2637.000000	0.005316
2636.000000	0.005330
2635.000000	0.005334
2634.000000	0.005318
2633.000000	0.005293
2632.000000	0.005274
2631.000000	0.005267
2630.000000	0.005261
2629.000000	0.005248
2628.000000	0.005230
2627.000000	0.005216
2626.000000	0.005214
2625.000000	0.005221
2624.000000	0.005227
2623.000000	0.005217
2622.000000	0.005192
2621.000000	0.005163
2620.000000	0.005140
2619.000000	0.005125
2618.000000	0.005116
2617.000000	0.005110
2616.000000	0.005107
2615.000000	0.005112
2614.000000	0.005123
2613.000000	0.005135
2612.000000	0.005141
2611.000000	0.005137
2610.000000	0.005128
2609.000000	0.005119
2608.000000	0.005110
2607.000000	0.005096
2606.000000	0.005080
2605.000000	0.005069
2604.000000	0.005066
2603.000000	0.005068
2602.000000	0.005069
2601.000000	0.005066
2600.000000	0.005053
2599.000000	0.005023
2598.000000	0.004983
2597.000000	0.004961
2596.000000	0.004977
2595.000000	0.005023
2594.000000	0.005067
2593.000000	0.005077
2592.000000	0.005053
2591.000000	0.005016
2590.000000	0.004993
2589.000000	0.004992
2588.000000	0.005008
2587.000000	0.005022
2586.000000	0.005020
2585.000000	0.005005
2584.000000	0.004995
2583.000000	0.005005
2582.000000	0.005036
2581.000000	0.005065
2580.000000	0.005072
2579.000000	0.005055
2578.000000	0.005030
2577.000000	0.005012
2576.000000	0.004999
2575.000000	0.004982
2574.000000	0.004955
2573.000000	0.004923
2572.000000	0.004887
2571.000000	0.004855
2570.000000	0.004840
2569.000000	0.004847
2568.000000	0.004870
2567.000000	0.004891
2566.000000	0.004906
2565.000000	0.004917
2564.000000	0.004923
2563.000000	0.004920
2562.000000	0.004908
2561.000000	0.004901
2560.000000	0.004902
2559.000000	0.004903
2558.000000	0.004895
2557.000000	0.004881
2556.000000	0.004870
2555.000000	0.004867
2554.000000	0.004876
2553.000000	0.004900
2552.000000	0.004937
2551.000000	0.004967
2550.000000	0.004967
2549.000000	0.004936
2548.000000	0.004891
2547.000000	0.004856
2546.000000	0.004839
2545.000000	0.004836
2544.000000	0.004840
2543.000000	0.004850
2542.000000	0.004866
2541.000000	0.004884
2540.000000	0.004892
2539.000000	0.004888
2538.000000	0.004881
2537.000000	0.004888
2536.000000	0.004913
2535.000000	0.004937
2534.000000	0.004936
2533.000000	0.004909
2532.000000	0.004870
2531.000000	0.004840
2530.000000	0.004826
2529.000000	0.004830
2528.000000	0.004847
2527.000000	0.004872
2526.000000	0.004898
2525.000000	0.004929
2524.000000	0.004968
2523.000000	0.005008
2522.000000	0.005024
2521.000000	0.004999
2520.000000	0.004936
2519.000000	0.004865
2518.000000	0.004822
2517.000000	0.004828
2516.000000	0.004873
2515.000000	0.004925
2514.000000	0.004953
2513.000000	0.004948
2512.000000	0.004925
2511.000000	0.004901
2510.000000	0.004884
2509.000000	0.004871
2508.000000	0.004858
2507.000000	0.004849
2506.000000	0.004852
2505.000000	0.004871
2504.000000	0.004900
2503.000000	0.004926
2502.000000	0.004932
2501.000000	0.004905
2500.000000	0.004852
2499.000000	0.004795
2498.000000	0.004760
2497.000000	0.004762
2496.000000	0.004791
2495.000000	0.004830
2494.000000	0.004861
2493.000000	0.004874
2492.000000	0.004871
2491.000000	0.004863
2490.000000	0.004864
2489.000000	0.004878
2488.000000	0.004891
2487.000000	0.004890
2486.000000	0.004876
2485.000000	0.004864
2484.000000	0.004865
2483.000000	0.004875
2482.000000	0.004886
2481.000000	0.004888
2480.000000	0.004878
2479.000000	0.004851
2478.000000	0.004816
2477.000000	0.004790
2476.000000	0.004790
2475.000000	0.004814
2474.000000	0.004846
2473.000000	0.004870
2472.000000	0.004882
2471.000000	0.004881
2470.000000	0.004868
2469.000000	0.004850
2468.000000	0.004833
2467.000000	0.004828
2466.000000	0.004833
2465.000000	0.004840
2464.000000	0.004841
2463.000000	0.004834
2462.000000	0.004823
2461.000000	0.004813
2460.000000	0.004802
2459.000000	0.004788
2458.000000	0.004767
2457.000000	0.004744
2456.000000	0.004735
2455.000000	0.004757
2454.000000	0.004808
2453.000000	0.004861
2452.000000	0.004893
2451.000000	0.004898
2450.000000	0.004886
2449.000000	0.004860
2448.000000	0.004817
2447.000000	0.004774
2446.000000	0.004764
2445.000000	0.004802
2444.000000	0.004864
2443.000000	0.004911
2442.000000	0.004918
2441.000000	0.004886
2440.000000	0.004835
2439.000000	0.004794
2438.000000	0.004784
2437.000000	0.004807
2436.000000	0.004840
2435.000000	0.004861
2434.000000	0.004858
2433.000000	0.004830
2432.000000	0.004781
2431.000000	0.004725
2430.000000	0.004688
2429.000000	0.004687
2428.000000	0.004708
2427.000000	0.004731
2426.000000	0.004749
2425.000000	0.004769
2424.000000	0.004798
2423.000000	0.004833
2422.000000	0.004865
2421.000000	0.004884
2420.000000	0.004875
2419.000000	0.004837
2418.000000	0.004792
2417.000000	0.004766
2416.000000	0.004765
2415.000000	0.004770
2414.000000	0.004767
2413.000000	0.004756
2412.000000	0.004751
2411.000000	0.004759
2410.000000	0.004775
2409.000000	0.004783
2408.000000	0.004767
2407.000000	0.004737
2406.000000	0.004719
2405.000000	0.004732
2404.000000	0.004767
2403.000000	0.004799
2402.000000	0.004809
2401.000000	0.004786
2400.000000	0.004729
2399.000000	0.004662
2398.000000	0.004625
2397.000000	0.004639
2396.000000	0.004688
2395.000000	0.004738
2394.000000	0.004773
2393.000000	0.004793
2392.000000	0.004796
2391.000000	0.004785
2390.000000	0.004769
2389.000000	0.004765
2388.000000	0.004773
2387.000000	0.004786
2386.000000	0.004798
2385.000000	0.004799
2384.000000	0.004770
2383.000000	0.004703
2382.000000	0.004618
2381.000000	0.004548
2380.000000	0.004514
2379.000000	0.004540
2378.000000	0.004648
2377.000000	0.004832
2376.000000	0.005025
2375.000000	0.005151
2374.000000	0.005179
2373.000000	0.005124
2372.000000	0.005008
2371.000000	0.004870
2370.000000	0.004772
2369.000000	0.004743
2368.000000	0.004756
2367.000000	0.004775
2366.000000	0.004802
2365.000000	0.004849
2364.000000	0.004908
2363.000000	0.004986
2362.000000	0.005108
2361.000000	0.005249
2360.000000	0.005345
2359.000000	0.005356
2358.000000	0.005286
2357.000000	0.005166
2356.000000	0.005063
2355.000000	0.005071
2354.000000	0.005119
2353.000000	0.005051
2352.000000	0.004878
2351.000000	0.004785
2350.000000	0.004877
2349.000000	0.005100
2348.000000	0.005316
2347.000000	0.005382
2346.000000	0.005268
2345.000000	0.005134
2344.000000	0.005130
2343.000000	0.005227
2342.000000	0.005295
2341.000000	0.005267
2340.000000	0.005205
2339.000000	0.005195
2338.000000	0.005235
2337.000000	0.005257
2336.000000	0.005248
2335.000000	0.005223
2334.000000	0.005170
2333.000000	0.005051
2332.000000	0.004929
2331.000000	0.004896
2330.000000	0.004989
2329.000000	0.005139
2328.000000	0.005298
2327.000000	0.005421
2326.000000	0.005467
2325.000000	0.005410
2324.000000	0.005298
2323.000000	0.005214
2322.000000	0.005225
2321.000000	0.005350
2320.000000	0.005575
2319.000000	0.005821
2318.000000	0.005994
2317.000000	0.006030
2316.000000	0.005950
2315.000000	0.005792
2314.000000	0.005609
2313.000000	0.005431
2312.000000	0.005305
2311.000000	0.005234
2310.000000	0.005190
2309.000000	0.005137
2308.000000	0.005076
2307.000000	0.005013
2306.000000	0.004958
2305.000000	0.004910
2304.000000	0.004879
2303.000000	0.004864
2302.000000	0.004866
2301.000000	0.004881
2300.000000	0.004917
2299.000000	0.004968
2298.000000	0.005029
2297.000000	0.005080
2296.000000	0.005096
2295.000000	0.005048
2294.000000	0.004946
2293.000000	0.004843
2292.000000	0.004800
2291.000000	0.004830
2290.000000	0.004891
2289.000000	0.004946
2288.000000	0.004985
2287.000000	0.005004
2286.000000	0.004989
2285.000000	0.004935
2284.000000	0.004863
2283.000000	0.004814
2282.000000	0.004805
2281.000000	0.004822
2280.000000	0.004837
2279.000000	0.004829
2278.000000	0.004809
2277.000000	0.004801
2276.000000	0.004812
2275.000000	0.004823
2274.000000	0.004814
2273.000000	0.004790
2272.000000	0.004775
2271.000000	0.004775
2270.000000	0.004773
2269.000000	0.004760
2268.000000	0.004739
2267.000000	0.004712
2266.000000	0.004672
2265.000000	0.004623
2264.000000	0.004581
2263.000000	0.004564
2262.000000	0.004564
2261.000000	0.004564
2260.000000	0.004551
2259.000000	0.004535
2258.000000	0.004531
2257.000000	0.004540
2256.000000	0.004543
2255.000000	0.004538
2254.000000	0.004555
2253.000000	0.004619
2252.000000	0.004697
2251.000000	0.004724
2250.000000	0.004686
2249.000000	0.004642
2248.000000	0.004646
2247.000000	0.004681
2246.000000	0.004697
2245.000000	0.004680
2244.000000	0.004644
2243.000000	0.004588
2242.000000	0.004508
2241.000000	0.004425
2240.000000	0.004374
2239.000000	0.004373
2238.000000	0.004419
2237.000000	0.004505
2236.000000	0.004601
2235.000000	0.004653
2234.000000	0.004628
2233.000000	0.004557
2232.000000	0.004495
2231.000000	0.004464
2230.000000	0.004460
2229.000000	0.004490
2228.000000	0.004548
2227.000000	0.004578
2226.000000	0.004514
2225.000000	0.004365
2224.000000	0.004219
2223.000000	0.004147
2222.000000	0.004155
2221.000000	0.004204
2220.000000	0.004255
2219.000000	0.004284
2218.000000	0.004283
2217.000000	0.004261
2216.000000	0.004234
2215.000000	0.004219
2214.000000	0.004239
2213.000000	0.004315
2212.000000	0.004429
2211.000000	0.004507
2210.000000	0.004487
2209.000000	0.004380
2208.000000	0.004254
2207.000000	0.004174
2206.000000	0.004170
2205.000000	0.004250
2204.000000	0.004385
2203.000000	0.004514
2202.000000	0.004589
2201.000000	0.004621
2200.000000	0.004661
2199.000000	0.004730
2198.000000	0.004784
2197.000000	0.004758
2196.000000	0.004628
2195.000000	0.004434
2194.000000	0.004248
2193.000000	0.004117
2192.000000	0.004022
2191.000000	0.003921
2190.000000	0.003833
2189.000000	0.003827
2188.000000	0.003935
2187.000000	0.004105
2186.000000	0.004255
2185.000000	0.004343
2184.000000	0.004357
2183.000000	0.004303
2182.000000	0.004226
2181.000000	0.004184
2180.000000	0.004177
2179.000000	0.004136
2178.000000	0.004031
2177.000000	0.003912
2176.000000	0.003834
2175.000000	0.003795
2174.000000	0.003791
2173.000000	0.003854
2172.000000	0.003996
2171.000000	0.004169
2170.000000	0.004334
2169.000000	0.004503
2168.000000	0.004657
2167.000000	0.004707
2166.000000	0.004592
2165.000000	0.004374
2164.000000	0.004152
2163.000000	0.003945
2162.000000	0.003726
2161.000000	0.003545
2160.000000	0.003511
2159.000000	0.003655
2158.000000	0.003907
2157.000000	0.004165
2156.000000	0.004338
2155.000000	0.004376
2154.000000	0.004311
2153.000000	0.004237
2152.000000	0.004206
2151.000000	0.004165
2150.000000	0.004048
2149.000000	0.003866
2148.000000	0.003684
2147.000000	0.003569
2146.000000	0.003570
2145.000000	0.003705
2144.000000	0.003914
2143.000000	0.004083
2142.000000	0.004159
2141.000000	0.004200
2140.000000	0.004267
2139.000000	0.004353
2138.000000	0.004427
2137.000000	0.004500
2136.000000	0.004578
2135.000000	0.004613
2134.000000	0.004555
2133.000000	0.004435
2132.000000	0.004335
2131.000000	0.004313
2130.000000	0.004376
2129.000000	0.004496
2128.000000	0.004615
2127.000000	0.004659
2126.000000	0.004603
2125.000000	0.004491
2124.000000	0.004383
2123.000000	0.004297
2122.000000	0.004240
2121.000000	0.004254
2120.000000	0.004371
2119.000000	0.004539
2118.000000	0.004657
2117.000000	0.004666
2116.000000	0.004593
2115.000000	0.004502
2114.000000	0.004439
2113.000000	0.004432
2112.000000	0.004489
2111.000000	0.004587
2110.000000	0.004672
2109.000000	0.004708
2108.000000	0.004699
2107.000000	0.004670
2106.000000	0.004639
2105.000000	0.004614
2104.000000	0.004604
2103.000000	0.004609
2102.000000	0.004616
2101.000000	0.004607
2100.000000	0.004579
2099.000000	0.004553
2098.000000	0.004555
2097.000000	0.004586
2096.000000	0.004611
2095.000000	0.004585
2094.000000	0.004506
2093.000000	0.004423
2092.000000	0.004387
2091.000000	0.004417
2090.000000	0.004483
2089.000000	0.004537
2088.000000	0.004547
2087.000000	0.004534
2086.000000	0.004550
2085.000000	0.004614
2084.000000	0.004662
2083.000000	0.004617
2082.000000	0.004484
2081.000000	0.004356
2080.000000	0.004309
2079.000000	0.004335
2078.000000	0.004380
2077.000000	0.004418
2076.000000	0.004448
2075.000000	0.004472
2074.000000	0.004494
2073.000000	0.004508
2072.000000	0.004488
2071.000000	0.004406
2070.000000	0.004291
2069.000000	0.004222
2068.000000	0.004248
2067.000000	0.004343
2066.000000	0.004463
2065.000000	0.004575
2064.000000	0.004633
2063.000000	0.004578
2062.000000	0.004418
2061.000000	0.004257
2060.000000	0.004200
2059.000000	0.004259
2058.000000	0.004367
2057.000000	0.004454
2056.000000	0.004477
2055.000000	0.004431
2054.000000	0.004379
2053.000000	0.004400
2052.000000	0.004481
2051.000000	0.004497
2050.000000	0.004351
2049.000000	0.004091
2048.000000	0.003842
2047.000000	0.003667
2046.000000	0.003568
2045.000000	0.003556
2044.000000	0.003626
2043.000000	0.003713
2042.000000	0.003779
2041.000000	0.003878
2040.000000	0.004056
2039.000000	0.004242
2038.000000	0.004325
2037.000000	0.004295
2036.000000	0.004214
2035.000000	0.004102
2034.000000	0.003955
2033.000000	0.003824
2032.000000	0.003751
2031.000000	0.003686
2030.000000	0.003582
2029.000000	0.003498
2028.000000	0.003517
2027.000000	0.003592
2026.000000	0.003612
2025.000000	0.003564
2024.000000	0.003526
2023.000000	0.003531
2022.000000	0.003555
2021.000000	0.003603
2020.000000	0.003707
2019.000000	0.003844
2018.000000	0.003958
2017.000000	0.004036
2016.000000	0.004101
2015.000000	0.004128
2014.000000	0.004054
2013.000000	0.003874
2012.000000	0.003678
2011.000000	0.003568
2010.000000	0.003580
2009.000000	0.003661
2008.000000	0.003719
2007.000000	0.003709
2006.000000	0.003685
2005.000000	0.003736
2004.000000	0.003855
2003.000000	0.003946
2002.000000	0.003954
2001.000000	0.003917
2000.000000	0.003887
1999.000000	0.003869
1998.000000	0.003855
1997.000000	0.003865
1996.000000	0.003905
1995.000000	0.003951
1994.000000	0.003997
1993.000000	0.004075
1992.000000	0.004194
1991.000000	0.004307
1990.000000	0.004389
1989.000000	0.004462
1988.000000	0.004531
1987.000000	0.004546
1986.000000	0.004494
1985.000000	0.004443
1984.000000	0.004439
1983.000000	0.004432
1982.000000	0.004350
1981.000000	0.004217
1980.000000	0.004095
1979.000000	0.003978
1978.000000	0.003828
1977.000000	0.003682
1976.000000	0.003627
1975.000000	0.003680
1974.000000	0.003781
1973.000000	0.003864
1972.000000	0.003883
1971.000000	0.003815
1970.000000	0.003675
1969.000000	0.003514
1968.000000	0.003381
1967.000000	0.003313
1966.000000	0.003361
1965.000000	0.003536
1964.000000	0.003744
1963.000000	0.003853
1962.000000	0.003832
1961.000000	0.003766
1960.000000	0.003728
1959.000000	0.003718
1958.000000	0.003736
1957.000000	0.003824
1956.000000	0.003987
1955.000000	0.004165
1954.000000	0.004311
1953.000000	0.004422
1952.000000	0.004491
1951.000000	0.004480
1950.000000	0.004387
1949.000000	0.004274
1948.000000	0.004203
1947.000000	0.004185
1946.000000	0.004210
1945.000000	0.004278
1944.000000	0.004361
1943.000000	0.004398
1942.000000	0.004361
1941.000000	0.004299
1940.000000	0.004271
1939.000000	0.004299
1938.000000	0.004382
1937.000000	0.004509
1936.000000	0.004625
1935.000000	0.004656
1934.000000	0.004580
1933.000000	0.004449
1932.000000	0.004333
1931.000000	0.004269
1930.000000	0.004274
1929.000000	0.004341
1928.000000	0.004421
1927.000000	0.004458
1926.000000	0.004462
1925.000000	0.004500
1924.000000	0.004581
1923.000000	0.004623
1922.000000	0.004549
1921.000000	0.004385
1920.000000	0.004212
1919.000000	0.004092
1918.000000	0.004061
1917.000000	0.004134
1916.000000	0.004286
1915.000000	0.004451
1914.000000	0.004578
1913.000000	0.004645
1912.000000	0.004639
1911.000000	0.004553
1910.000000	0.004415
1909.000000	0.004295
1908.000000	0.004243
1907.000000	0.004252
1906.000000	0.004295
1905.000000	0.004371
1904.000000	0.004474
1903.000000	0.004564
1902.000000	0.004609
1901.000000	0.004622
1900.000000	0.004625
1899.000000	0.004606
1898.000000	0.004546
1897.000000	0.004468
1896.000000	0.004415
1895.000000	0.004405
1894.000000	0.004424
1893.000000	0.004459
1892.000000	0.004493
1891.000000	0.004500
1890.000000	0.004467
1889.000000	0.004421
1888.000000	0.004402
1887.000000	0.004407
1886.000000	0.004410
1885.000000	0.004405
1884.000000	0.004408
1883.000000	0.004418
1882.000000	0.004419
1881.000000	0.004408
1880.000000	0.004400
1879.000000	0.004403
1878.000000	0.004403
1877.000000	0.004388
1876.000000	0.004357
1875.000000	0.004325
1874.000000	0.004315
1873.000000	0.004343
1872.000000	0.004397
1871.000000	0.004448
1870.000000	0.004476
1869.000000	0.004489
1868.000000	0.004503
1867.000000	0.004516
1866.000000	0.004514
1865.000000	0.004500
1864.000000	0.004478
1863.000000	0.004445
1862.000000	0.004405
1861.000000	0.004387
1860.000000	0.004412
1859.000000	0.004459
1858.000000	0.004494
1857.000000	0.004503
1856.000000	0.004502
1855.000000	0.004501
1854.000000	0.004503
1853.000000	0.004517
1852.000000	0.004547
1851.000000	0.004582
1850.000000	0.004604
1849.000000	0.004598
1848.000000	0.004571
1847.000000	0.004535
1846.000000	0.004509
1845.000000	0.004507
1844.000000	0.004524
1843.000000	0.004537
1842.000000	0.004535
1841.000000	0.004532
1840.000000	0.004529
1839.000000	0.004507
1838.000000	0.004455
1837.000000	0.004399
1836.000000	0.004374
1835.000000	0.004387
1834.000000	0.004423
1833.000000	0.004469
1832.000000	0.004501
1831.000000	0.004487
1830.000000	0.004421
1829.000000	0.004354
1828.000000	0.004343
1827.000000	0.004387
1826.000000	0.004450
1825.000000	0.004486
1824.000000	0.004485
1823.000000	0.004469
1822.000000	0.004465
1821.000000	0.004475
1820.000000	0.004479
1819.000000	0.004460
1818.000000	0.004424
1817.000000	0.004391
1816.000000	0.004384
1815.000000	0.004408
1814.000000	0.004454
1813.000000	0.004493
1812.000000	0.004500
1811.000000	0.004489
1810.000000	0.004495
1809.000000	0.004529
1808.000000	0.004561
1807.000000	0.004562
1806.000000	0.004535
1805.000000	0.004496
1804.000000	0.004461
1803.000000	0.004433
1802.000000	0.004420
1801.000000	0.004428
1800.000000	0.004466
1799.000000	0.004530
1798.000000	0.004590
1797.000000	0.004605
1796.000000	0.004556
1795.000000	0.004475
1794.000000	0.004416
1793.000000	0.004410
1792.000000	0.004435
1791.000000	0.004459
1790.000000	0.004475
1789.000000	0.004490
1788.000000	0.004505
1787.000000	0.004513
1786.000000	0.004503
1785.000000	0.004475
1784.000000	0.004437
1783.000000	0.004412
1782.000000	0.004421
1781.000000	0.004450
1780.000000	0.004469
1779.000000	0.004461
1778.000000	0.004438
1777.000000	0.004412
1776.000000	0.004380
1775.000000	0.004336
1774.000000	0.004295
1773.000000	0.004269
1772.000000	0.004258
1771.000000	0.004271
1770.000000	0.004324
1769.000000	0.004403
1768.000000	0.004443
1767.000000	0.004400
1766.000000	0.004321
1765.000000	0.004278
1764.000000	0.004286
1763.000000	0.004297
1762.000000	0.004275
1761.000000	0.004236
1760.000000	0.004205
1759.000000	0.004183
1758.000000	0.004165
1757.000000	0.004133
1756.000000	0.004057
1755.000000	0.003939
1754.000000	0.003830
1753.000000	0.003770
1752.000000	0.003735
1751.000000	0.003655
1750.000000	0.003518
1749.000000	0.003404
1748.000000	0.003347
1747.000000	0.003315
1746.000000	0.003297
1745.000000	0.003315
1744.000000	0.003367
1743.000000	0.003422
1742.000000	0.003489
1741.000000	0.003621
1740.000000	0.003815
1739.000000	0.003981
1738.000000	0.004085
1737.000000	0.004198
1736.000000	0.004383
1735.000000	0.004597
1734.000000	0.004710
1733.000000	0.004718
1732.000000	0.004743
1731.000000	0.004813
1730.000000	0.004884
1729.000000	0.004941
1728.000000	0.004990
1727.000000	0.005027
1726.000000	0.005045
1725.000000	0.005052
1724.000000	0.005059
1723.000000	0.005044
1722.000000	0.005000
1721.000000	0.004962
1720.000000	0.004956
1719.000000	0.004963
1718.000000	0.004954
1717.000000	0.004942
1716.000000	0.004975
1715.000000	0.005059
1714.000000	0.005140
1713.000000	0.005188
1712.000000	0.005220
1711.000000	0.005250
1710.000000	0.005272
1709.000000	0.005282
1708.000000	0.005289
1707.000000	0.005308
1706.000000	0.005342
1705.000000	0.005377
1704.000000	0.005413
1703.000000	0.005487
1702.000000	0.005639
1701.000000	0.005824
1700.000000	0.005897
1699.000000	0.005881
1698.000000	0.005943
1697.000000	0.006150
1696.000000	0.006427
1695.000000	0.006654
1694.000000	0.006822
1693.000000	0.007003
1692.000000	0.007218
1691.000000	0.007429
1690.000000	0.007601
1689.000000	0.007729
1688.000000	0.007822
1687.000000	0.007906
1686.000000	0.008020
1685.000000	0.008189
1684.000000	0.008378
1683.000000	0.008563
1682.000000	0.008785
1681.000000	0.009080
1680.000000	0.009391
1679.000000	0.009634
1678.000000	0.009812
1677.000000	0.010011
1676.000000	0.010268
1675.000000	0.010510
1674.000000	0.010690
1673.000000	0.010881
1672.000000	0.011149
1671.000000	0.011464
1670.000000	0.011765
1669.000000	0.012052
1668.000000	0.012344
1667.000000	0.012615
1666.000000	0.012860
1665.000000	0.013117
1664.000000	0.013411
1663.000000	0.013696
1662.000000	0.013938
1661.000000	0.014167
1660.000000	0.014420
1659.000000	0.014658
1658.000000	0.014823
1657.000000	0.014917
1656.000000	0.015007
1655.000000	0.015137
1654.000000	0.015259
1653.000000	0.015299
1652.000000	0.015334
1651.000000	0.015414
1650.000000	0.015549
1649.000000	0.015713
1648.000000	0.015863
1647.000000	0.015949
1646.000000	0.015968
1645.000000	0.015994
1644.000000	0.016069
1643.000000	0.016164
1642.000000	0.016240
1641.000000	0.016274
1640.000000	0.016265
1639.000000	0.016224
1638.000000	0.016173
1637.000000	0.016153
1636.000000	0.016181
1635.000000	0.016215
1634.000000	0.016217
1633.000000	0.016224
1632.000000	0.016255
1631.000000	0.016271
1630.000000	0.016231
1629.000000	0.016135
1628.000000	0.016012
1627.000000	0.015871
1626.000000	0.015716
1625.000000	0.015560
1624.000000	0.015407
1623.000000	0.015228
1622.000000	0.015015
1621.000000	0.014807
1620.000000	0.014633
1619.000000	0.014467
1618.000000	0.014259
1617.000000	0.013995
1616.000000	0.013737
1615.000000	0.013532
1614.000000	0.013364
1613.000000	0.013214
1612.000000	0.013062
1611.000000	0.012886
1610.000000	0.012678
1609.000000	0.012464
1608.000000	0.012274
1607.000000	0.012104
1606.000000	0.011944
1605.000000	0.011798
1604.000000	0.011673
1603.000000	0.011551
1602.000000	0.011415
1601.000000	0.011285
1600.000000	0.011184
1599.000000	0.011095
1598.000000	0.010993
1597.000000	0.010877
1596.000000	0.010770
1595.000000	0.010678
1594.000000	0.010597
1593.000000	0.010534
1592.000000	0.010489
1591.000000	0.010440
1590.000000	0.010368
1589.000000	0.010294
1588.000000	0.010259
1587.000000	0.010260
1586.000000	0.010270
1585.000000	0.010276
1584.000000	0.010285
1583.000000	0.010307
1582.000000	0.010336
1581.000000	0.010371
1580.000000	0.010409
1579.000000	0.010441
1578.000000	0.010456
1577.000000	0.010468
1576.000000	0.010508
1575.000000	0.010572
1574.000000	0.010640
1573.000000	0.010724
1572.000000	0.010823
1571.000000	0.010919
1570.000000	0.010996
1569.000000	0.011091
1568.000000	0.011238
1567.000000	0.011420
1566.000000	0.011604
1565.000000	0.011770
1564.000000	0.011891
1563.000000	0.011958
1562.000000	0.012007
1561.000000	0.012116
1560.000000	0.012328
1559.000000	0.012531
1558.000000	0.012621
1557.000000	0.012743
1556.000000	0.012976
1555.000000	0.013250
1554.000000	0.013476
1553.000000	0.013642
1552.000000	0.013806
1551.000000	0.013991
1550.000000	0.014157
1549.000000	0.014278
1548.000000	0.014365
1547.000000	0.014442
1546.000000	0.014506
1545.000000	0.014541
1544.000000	0.014547
1543.000000	0.014543
1542.000000	0.014543
1541.000000	0.014546
1540.000000	0.014547
1539.000000	0.014548
1538.000000	0.014544
1537.000000	0.014566
1536.000000	0.014620
1535.000000	0.014663
1534.000000	0.014634
1533.000000	0.014525
1532.000000	0.014418
1531.000000	0.014361
1530.000000	0.014326
1529.000000	0.014276
1528.000000	0.014191
1527.000000	0.014060
1526.000000	0.013878
1525.000000	0.013676
1524.000000	0.013508
1523.000000	0.013399
1522.000000	0.013303
1521.000000	0.013169
1520.000000	0.013028
1519.000000	0.012942
1518.000000	0.012904
1517.000000	0.012856
1516.000000	0.012762
1515.000000	0.012642
1514.000000	0.012540
1513.000000	0.012461
1512.000000	0.012365
1511.000000	0.012213
1510.000000	0.012021
1509.000000	0.011826
1508.000000	0.011611
1507.000000	0.011325
1506.000000	0.011065
1505.000000	0.010933
1504.000000	0.010896
1503.000000	0.010885
1502.000000	0.010842
1501.000000	0.010749
1500.000000	0.010610
1499.000000	0.010441
1498.000000	0.010282
1497.000000	0.010160
1496.000000	0.010060
1495.000000	0.009952
1494.000000	0.009848
1493.000000	0.009775
1492.000000	0.009724
1491.000000	0.009644
1490.000000	0.009509
1489.000000	0.009360
1488.000000	0.009261
1487.000000	0.009218
1486.000000	0.009201
1485.000000	0.009197
1484.000000	0.009205
1483.000000	0.009217
1482.000000	0.009224
1481.000000	0.009241
1480.000000	0.009279
1479.000000	0.009331
1478.000000	0.009381
1477.000000	0.009423
1476.000000	0.009458
1475.000000	0.009500
1474.000000	0.009581
1473.000000	0.009711
1472.000000	0.009862
1471.000000	0.009997
1470.000000	0.010121
1469.000000	0.010250
1468.000000	0.010384
1467.000000	0.010516
1466.000000	0.010655
1465.000000	0.010805
1464.000000	0.010945
1463.000000	0.011059
1462.000000	0.011162
1461.000000	0.011278
1460.000000	0.011398
1459.000000	0.011509
1458.000000	0.011628
1457.000000	0.011797
1456.000000	0.011985
1455.000000	0.012149
1454.000000	0.012317
1453.000000	0.012492
1452.000000	0.012638
1451.000000	0.012723
1450.000000	0.012776
1449.000000	0.012840
1448.000000	0.012906
1447.000000	0.012937
1446.000000	0.012955
1445.000000	0.012995
1444.000000	0.013058
1443.000000	0.013111
1442.000000	0.013137
1441.000000	0.013151
1440.000000	0.013160
1439.000000	0.013156
1438.000000	0.013142
1437.000000	0.013140
1436.000000	0.013138
1435.000000	0.013121
1434.000000	0.013106
1433.000000	0.013106
1432.000000	0.013098
1431.000000	0.013057
1430.000000	0.013004
1429.000000	0.012987
1428.000000	0.013007
1427.000000	0.013030
1426.000000	0.013054
1425.000000	0.013093
1424.000000	0.013125
1423.000000	0.013112
1422.000000	0.013078
1421.000000	0.013081
1420.000000	0.013120
1419.000000	0.013120
1418.000000	0.013080
1417.000000	0.013075
1416.000000	0.013109
1415.000000	0.013132
1414.000000	0.013132
1413.000000	0.013137
1412.000000	0.013155
1411.000000	0.013152
1410.000000	0.013123
1409.000000	0.013104
1408.000000	0.013097
1407.000000	0.013068
1406.000000	0.013012
1405.000000	0.012958
1404.000000	0.012915
1403.000000	0.012858
1402.000000	0.012799
1401.000000	0.012766
1400.000000	0.012741
1399.000000	0.012663
1398.000000	0.012537
1397.000000	0.012435
1396.000000	0.012380
1395.000000	0.012316
1394.000000	0.012228
1393.000000	0.012170
1392.000000	0.012160
1391.000000	0.012155
1390.000000	0.012123
1389.000000	0.012075
1388.000000	0.012013
1387.000000	0.011912
1386.000000	0.011786
1385.000000	0.011702
1384.000000	0.011677
1383.000000	0.011665
1382.000000	0.011623
1381.000000	0.011564
1380.000000	0.011513
1379.000000	0.011456
1378.000000	0.011369
1377.000000	0.011269
1376.000000	0.011177
1375.000000	0.011084
1374.000000	0.010983
1373.000000	0.010898
1372.000000	0.010842
1371.000000	0.010789
1370.000000	0.010710
1369.000000	0.010614
1368.000000	0.010516
1367.000000	0.010409
1366.000000	0.010288
1365.000000	0.010169
1364.000000	0.010063
1363.000000	0.009949
1362.000000	0.009811
1361.000000	0.009682
1360.000000	0.009596
1359.000000	0.009540
1358.000000	0.009484
1357.000000	0.009417
1356.000000	0.009351
1355.000000	0.009293
1354.000000	0.009254
1353.000000	0.009244
1352.000000	0.009256
1351.000000	0.009264
1350.000000	0.009258
1349.000000	0.009259
1348.000000	0.009290
1347.000000	0.009342
1346.000000	0.009393
1345.000000	0.009444
1344.000000	0.009495
1343.000000	0.009535
1342.000000	0.009555
1341.000000	0.009572
1340.000000	0.009596
1339.000000	0.009620
1338.000000	0.009645
1337.000000	0.009689
1336.000000	0.009742
1335.000000	0.009762
1334.000000	0.009731
1333.000000	0.009683
1332.000000	0.009650
1331.000000	0.009618
1330.000000	0.009561
1329.000000	0.009486
1328.000000	0.009417
1327.000000	0.009357
1326.000000	0.009307
1325.000000	0.009283
1324.000000	0.009278
1323.000000	0.009256
1322.000000	0.009195
1321.000000	0.009123
1320.000000	0.009075
1319.000000	0.009044
1318.000000	0.009011
1317.000000	0.008983
1316.000000	0.008961
1315.000000	0.008919
1314.000000	0.008836
1313.000000	0.008732
1312.000000	0.008639
1311.000000	0.008565
1310.000000	0.008507
1309.000000	0.008471
1308.000000	0.008449
1307.000000	0.008408
1306.000000	0.008333
1305.000000	0.008260
1304.000000	0.008214
1303.000000	0.008181
1302.000000	0.008137
1301.000000	0.008090
1300.000000	0.008053
1299.000000	0.008009
1298.000000	0.007949
1297.000000	0.007890
1296.000000	0.007851
1295.000000	0.007823
1294.000000	0.007799
1293.000000	0.007794
1292.000000	0.007809
1291.000000	0.007815
1290.000000	0.007797
1289.000000	0.007781
1288.000000	0.007794
1287.000000	0.007822
1286.000000	0.007847
1285.000000	0.007873
1284.000000	0.007901
1283.000000	0.007908
1282.000000	0.007885
1281.000000	0.007863
1280.000000	0.007865
1279.000000	0.007872
1278.000000	0.007864
1277.000000	0.007851
1276.000000	0.007844
1275.000000	0.007827
1274.000000	0.007797
1273.000000	0.007779
1272.000000	0.007789
1271.000000	0.007803
1270.000000	0.007804
1269.000000	0.007814
1268.000000	0.007845
1267.000000	0.007873
1266.000000	0.007885
1265.000000	0.007908
1264.000000	0.007952
1263.000000	0.007982
1262.000000	0.007974
1261.000000	0.007964
1260.000000	0.007996
1259.000000	0.008060
1258.000000	0.008125
1257.000000	0.008197
1256.000000	0.008281
1255.000000	0.008354
1254.000000	0.008400
1253.000000	0.008442
1252.000000	0.008498
1251.000000	0.008548
1250.000000	0.008574
1249.000000	0.008602
1248.000000	0.008665
1247.000000	0.008747
1246.000000	0.008826
1245.000000	0.008910
1244.000000	0.009018
1243.000000	0.009134
1242.000000	0.009240
1241.000000	0.009342
1240.000000	0.009440
1239.000000	0.009506
1238.000000	0.009526
1237.000000	0.009533
1236.000000	0.009555
1235.000000	0.009577
1234.000000	0.009575
1233.000000	0.009564
1232.000000	0.009562
1231.000000	0.009551
1230.000000	0.009514
1229.000000	0.009462
1228.000000	0.009409
1227.000000	0.009333
1226.000000	0.009220
1225.000000	0.009090
1224.000000	0.008965
1223.000000	0.008832
1222.000000	0.008684
1221.000000	0.008544
1220.000000	0.008430
1219.000000	0.008328
1218.000000	0.008225
1217.000000	0.008139
1216.000000	0.008079
1215.000000	0.008021
1214.000000	0.007959
1213.000000	0.007923
1212.000000	0.007931
1211.000000	0.007951
1210.000000	0.007958
1209.000000	0.007970
1208.000000	0.008008
1207.000000	0.008050
1206.000000	0.008076
1205.000000	0.008098
1204.000000	0.008127
1203.000000	0.008143
1202.000000	0.008131
1201.000000	0.008109
1200.000000	0.008094
1199.000000	0.008067
1198.000000	0.008018
1197.000000	0.007969
1196.000000	0.007924
1195.000000	0.007850
1194.000000	0.007735
1193.000000	0.007618
1192.000000	0.007529
1191.000000	0.007440
1190.000000	0.007326
1189.000000	0.007212
1188.000000	0.007125
1187.000000	0.007045
1186.000000	0.006950
1185.000000	0.006864
1184.000000	0.006813
1183.000000	0.006778
1182.000000	0.006734
1181.000000	0.006693
1180.000000	0.006672
1179.000000	0.006660
1178.000000	0.006650
1177.000000	0.006665
1176.000000	0.006716
1175.000000	0.006763
1174.000000	0.006774
1173.000000	0.006767
1172.000000	0.006776
1171.000000	0.006800
1170.000000	0.006834
1169.000000	0.006890
1168.000000	0.006958
1167.000000	0.006994
1166.000000	0.006991
1165.000000	0.007009
1164.000000	0.007087
1163.000000	0.007190
1162.000000	0.007268
1161.000000	0.007330
1160.000000	0.007401
1159.000000	0.007468
1158.000000	0.007516
1157.000000	0.007566
1156.000000	0.007631
1155.000000	0.007678
1154.000000	0.007681
1153.000000	0.007666
1152.000000	0.007662
1151.000000	0.007655
1150.000000	0.007637
1149.000000	0.007635
1148.000000	0.007656
1147.000000	0.007653
1146.000000	0.007603
1145.000000	0.007551
1144.000000	0.007541
1143.000000	0.007540
1142.000000	0.007503
1141.000000	0.007448
1140.000000	0.007419
1139.000000	0.007409
1138.000000	0.007398
1137.000000	0.007391
1136.000000	0.007391
1135.000000	0.007364
1134.000000	0.007294
1133.000000	0.007226
1132.000000	0.007204
1131.000000	0.007213
1130.000000	0.007228
1129.000000	0.007259
1128.000000	0.007305
1127.000000	0.007325
1126.000000	0.007308
1125.000000	0.007310
1124.000000	0.007376
1123.000000	0.007462
1122.000000	0.007508
1121.000000	0.007522
1120.000000	0.007540
1119.000000	0.007548
1118.000000	0.007527
1117.000000	0.007510
1116.000000	0.007538
1115.000000	0.007604
1114.000000	0.007676
1113.000000	0.007747
1112.000000	0.007814
1111.000000	0.007848
1110.000000	0.007858
1109.000000	0.007904
1108.000000	0.008018
1107.000000	0.008150
1106.000000	0.008244
1105.000000	0.008315
1104.000000	0.008392
1103.000000	0.008454
1102.000000	0.008483
1101.000000	0.008516
1100.000000	0.008572
1099.000000	0.008612
1098.000000	0.008610
1097.000000	0.008614
1096.000000	0.008673
1095.000000	0.008757
1094.000000	0.008816
1093.000000	0.008858
1092.000000	0.008906
1091.000000	0.008948
1090.000000	0.008976
1089.000000	0.009030
1088.000000	0.009127
1087.000000	0.009215
1086.000000	0.009257
1085.000000	0.009296
1084.000000	0.009374
1083.000000	0.009458
1082.000000	0.009503
1081.000000	0.009529
1080.000000	0.009564
1079.000000	0.009579
1078.000000	0.009552
1077.000000	0.009514
1076.000000	0.009495
1075.000000	0.009472
1074.000000	0.009427
1073.000000	0.009395
1072.000000	0.009399
1071.000000	0.009397
1070.000000	0.009358
1069.000000	0.009324
1068.000000	0.009337
1067.000000	0.009366
1066.000000	0.009376
1065.000000	0.009392
1064.000000	0.009435
1063.000000	0.009467
1062.000000	0.009469
1061.000000	0.009493
1060.000000	0.009569
1059.000000	0.009639
1058.000000	0.009648
1057.000000	0.009634
1056.000000	0.009654
1055.000000	0.009691
1054.000000	0.009702
1053.000000	0.009709
1052.000000	0.009757
1051.000000	0.009823
1050.000000	0.009868
1049.000000	0.009900
1048.000000	0.009942
1047.000000	0.009979
1046.000000	0.010008
1045.000000	0.010071
1044.000000	0.010184
1043.000000	0.010296
1042.000000	0.010368
1041.000000	0.010436
1040.000000	0.010533
1039.000000	0.010624
1038.000000	0.010678
1037.000000	0.010729
1036.000000	0.010814
1035.000000	0.010908
1034.000000	0.010984
1033.000000	0.011070
1032.000000	0.011181
1031.000000	0.011267
1030.000000	0.011287
1029.000000	0.011266
1028.000000	0.011232
1027.000000	0.011152
1026.000000	0.011020
1025.000000	0.010903
1024.000000	0.010858
1023.000000	0.010842
1022.000000	0.010801
1021.000000	0.010751
1020.000000	0.010725
1019.000000	0.010691
1018.000000	0.010620
1017.000000	0.010550
1016.000000	0.010522
1015.000000	0.010509
1014.000000	0.010469
1013.000000	0.010416
1012.000000	0.010380
1011.000000	0.010350
1010.000000	0.010310
1009.000000	0.010273
1008.000000	0.010236
1007.000000	0.010148
1006.000000	0.009995
1005.000000	0.009842
1004.000000	0.009736
1003.000000	0.009648
1002.000000	0.009544
1001.000000	0.009449
1000.000000	0.009382
999.000000	0.009297
998.000000	0.009159
997.000000	0.009005
996.000000	0.008867
995.000000	0.008719
994.000000	0.008542
993.000000	0.008381
992.000000	0.008275
991.000000	0.008192
990.000000	0.008097
989.000000	0.008007
988.000000	0.007934
987.000000	0.007841
986.000000	0.007717
985.000000	0.007611
984.000000	0.007546
983.000000	0.007473
982.000000	0.007366
981.000000	0.007282
980.000000	0.007270
979.000000	0.007281
978.000000	0.007249
977.000000	0.007188
976.000000	0.007139
975.000000	0.007092
974.000000	0.007026
973.000000	0.006964
972.000000	0.006920
971.000000	0.006853
970.000000	0.006746
969.000000	0.006647
968.000000	0.006589
967.000000	0.006530
966.000000	0.006437
965.000000	0.006358
964.000000	0.006327
963.000000	0.006296
962.000000	0.006215
961.000000	0.006122
960.000000	0.006071
959.000000	0.006036
958.000000	0.005967
957.000000	0.005885
956.000000	0.005827
955.000000	0.005775
954.000000	0.005702
953.000000	0.005634
952.000000	0.005602
951.000000	0.005575
950.000000	0.005508
949.000000	0.005422
948.000000	0.005357
947.000000	0.005315
946.000000	0.005282
945.000000	0.005266
944.000000	0.005253
943.000000	0.005198
942.000000	0.005104
941.000000	0.005036
940.000000	0.005031
939.000000	0.005034
938.000000	0.005004
937.000000	0.004972
936.000000	0.004963
935.000000	0.004933
934.000000	0.004861
933.000000	0.004809
932.000000	0.004826
931.000000	0.004863
930.000000	0.004854
929.000000	0.004809
928.000000	0.004761
927.000000	0.004696
926.000000	0.004607
925.000000	0.004540
924.000000	0.004525
923.000000	0.004519
922.000000	0.004482
921.000000	0.004448
920.000000	0.004447
919.000000	0.004447
918.000000	0.004415
917.000000	0.004384
916.000000	0.004375
915.000000	0.004337
914.000000	0.004243
913.000000	0.004158
912.000000	0.004143
911.000000	0.004161
910.000000	0.004155
909.000000	0.004129
908.000000	0.004101
907.000000	0.004040
906.000000	0.003933
905.000000	0.003841
904.000000	0.003808
903.000000	0.003786
902.000000	0.003727
901.000000	0.003666
900.000000	0.003650
899.000000	0.003645
898.000000	0.003602
897.000000	0.003544
896.000000	0.003507
895.000000	0.003471
894.000000	0.003417
893.000000	0.003386
892.000000	0.003401
891.000000	0.003415
890.000000	0.003386
889.000000	0.003353
888.000000	0.003369
887.000000	0.003432
886.000000	0.003544
885.000000	0.003732
884.000000	0.003977
883.000000	0.004186
882.000000	0.004342
881.000000	0.004557
880.000000	0.004919
879.000000	0.005367
878.000000	0.005792
877.000000	0.006166
876.000000	0.006480
875.000000	0.006667
874.000000	0.006689
873.000000	0.006614
872.000000	0.006501
871.000000	0.006305
870.000000	0.005993
869.000000	0.005642
868.000000	0.005347
867.000000	0.005102
866.000000	0.004876
865.000000	0.004703
864.000000	0.004609
863.000000	0.004538
862.000000	0.004430
861.000000	0.004309
860.000000	0.004210
859.000000	0.004105
858.000000	0.003983
857.000000	0.003902
856.000000	0.003897
855.000000	0.003907
854.000000	0.003885
853.000000	0.003867
852.000000	0.003874
851.000000	0.003849
850.000000	0.003777
849.000000	0.003739
848.000000	0.003784
847.000000	0.003824
846.000000	0.003780
845.000000	0.003700
844.000000	0.003658
843.000000	0.003624
842.000000	0.003559
841.000000	0.003512
840.000000	0.003535
839.000000	0.003577
838.000000	0.003570
837.000000	0.003542
836.000000	0.003537
835.000000	0.003519
834.000000	0.003453
833.000000	0.003391
832.000000	0.003382
831.000000	0.003387
830.000000	0.003379
829.000000	0.003404
828.000000	0.003473
827.000000	0.003489
826.000000	0.003400
825.000000	0.003311
824.000000	0.003327
823.000000	0.003395
822.000000	0.003427
821.000000	0.003449
820.000000	0.003502
819.000000	0.003536
818.000000	0.003502
817.000000	0.003454
816.000000	0.003444
815.000000	0.003429
814.000000	0.003383
813.000000	0.003372
812.000000	0.003431
811.000000	0.003471
810.000000	0.003425
809.000000	0.003371
808.000000	0.003397
807.000000	0.003448
806.000000	0.003445
805.000000	0.003422
804.000000	0.003445
803.000000	0.003470
802.000000	0.003441
801.000000	0.003399
800.000000	0.003407
799.000000	0.003430
798.000000	0.003420
797.000000	0.003416
796.000000	0.003451
795.000000	0.003461
794.000000	0.003407
793.000000	0.003367
792.000000	0.003413
791.000000	0.003488
790.000000	0.003513
789.000000	0.003516
788.000000	0.003548
787.000000	0.003572
786.000000	0.003550
785.000000	0.003533
784.000000	0.003560
783.000000	0.003571
782.000000	0.003513
781.000000	0.003439
780.000000	0.003412
779.000000	0.003400
778.000000	0.003374
777.000000	0.003395
776.000000	0.003490
775.000000	0.003564
774.000000	0.003536
773.000000	0.003472
772.000000	0.003460
771.000000	0.003463
770.000000	0.003414
769.000000	0.003359
768.000000	0.003369
767.000000	0.003408
766.000000	0.003406
765.000000	0.003398
764.000000	0.003445
763.000000	0.003501
762.000000	0.003492
761.000000	0.003454
760.000000	0.003466
759.000000	0.003507
758.000000	0.003500
757.000000	0.003445
756.000000	0.003392
755.000000	0.003357
754.000000	0.003336
753.000000	0.003372
752.000000	0.003476
751.000000	0.003561
750.000000	0.003548
749.000000	0.003482
748.000000	0.003444
747.000000	0.003428
746.000000	0.003402
745.000000	0.003397
744.000000	0.003445
743.000000	0.003488
742.000000	0.003468
741.000000	0.003429
740.000000	0.003435
739.000000	0.003453
738.000000	0.003422
737.000000	0.003367
736.000000	0.003345
735.000000	0.003351
734.000000	0.003352
733.000000	0.003379
732.000000	0.003463
731.000000	0.003553
730.000000	0.003580
729.000000	0.003564
728.000000	0.003550
727.000000	0.003510
726.000000	0.003432
725.000000	0.003386
724.000000	0.003408
723.000000	0.003414
722.000000	0.003352
721.000000	0.003312
720.000000	0.003385
719.000000	0.003513
718.000000	0.003599
717.000000	0.003677
716.000000	0.003834
715.000000	0.004050
714.000000	0.004240
713.000000	0.004387
712.000000	0.004501
711.000000	0.004527
710.000000	0.004416
709.000000	0.004242
708.000000	0.004127
707.000000	0.004077
706.000000	0.004039
705.000000	0.004032
704.000000	0.004074
703.000000	0.004099
702.000000	0.004044
701.000000	0.003963
700.000000	0.003944
699.000000	0.003962
698.000000	0.003938
697.000000	0.003890
696.000000	0.003870
695.000000	0.003867
694.000000	0.003825
693.000000	0.003754
692.000000	0.003727
691.000000	0.003754
690.000000	0.003788
689.000000	0.003814
688.000000	0.003826
687.000000	0.003801
686.000000	0.003710
685.000000	0.003575
684.000000	0.003471
683.000000	0.003413
682.000000	0.003349
681.000000	0.003266
680.000000	0.003243
679.000000	0.003336
678.000000	0.003473
677.000000	0.003599
676.000000	0.003716
675.000000	0.003791
674.000000	0.003753
673.000000	0.003572
672.000000	0.003234
671.000000	0.002657
670.000000	0.001745
669.000000	0.000662
668.000000	0.000273
667.000000	0.001142
666.000000	0.002069
665.000000	0.002809
664.000000	0.003499
663.000000	0.003937
662.000000	0.004035
661.000000	0.004017
660.000000	0.004096
659.000000	0.004165
658.000000	0.004054
657.000000	0.003891
656.000000	0.003816
655.000000	0.003713
654.000000	0.003536
653.000000	0.003491
652.000000	0.003611
651.000000	0.003606
650.000000	0.003351
649.000000	0.003157
648.000000	0.003264
647.000000	0.003481
646.000000	0.003587
645.000000	0.003669
644.000000	0.003831
643.000000	0.003964
642.000000	0.003981
641.000000	0.004020
640.000000	0.004166
639.000000	0.004257
638.000000	0.004194
637.000000	0.004142
636.000000	0.004199
635.000000	0.004207
634.000000	0.004086
633.000000	0.003999
632.000000	0.004036
631.000000	0.004043
630.000000	0.003944
629.000000	0.003908
628.000000	0.004003
627.000000	0.004011
626.000000	0.003833
625.000000	0.003689
624.000000	0.003721
623.000000	0.003765
622.000000	0.003698
621.000000	0.003683
620.000000	0.003833
619.000000	0.003982
618.000000	0.004001
617.000000	0.004037
616.000000	0.004196
615.000000	0.004293
614.000000	0.004204
613.000000	0.004126
612.000000	0.004238
611.000000	0.004393
610.000000	0.004408
609.000000	0.004375
608.000000	0.004412
607.000000	0.004389
606.000000	0.004210
605.000000	0.004043
604.000000	0.004036
603.000000	0.004076
602.000000	0.004039
601.000000	0.004036
600.000000	0.004171
599.000000	0.004324
598.000000	0.004389
597.000000	0.004459
596.000000	0.004570
595.000000	0.004540
594.000000	0.004295
593.000000	0.004074
592.000000	0.004061
591.000000	0.004102
590.000000	0.004019
589.000000	0.003906
588.000000	0.003863
587.000000	0.003757
586.000000	0.003519
585.000000	0.003368
584.000000	0.003481
583.000000	0.003698
582.000000	0.003815
581.000000	0.003868
580.000000	0.003910
579.000000	0.003828
578.000000	0.003638
577.000000	0.003622
576.000000	0.003888
575.000000	0.004132
574.000000	0.004109
573.000000	0.003995
572.000000	0.003976
571.000000	0.003911
570.000000	0.003685
569.000000	0.003542
568.000000	0.003697
567.000000	0.003955
566.000000	0.004057
565.000000	0.004067
564.000000	0.004134
563.000000	0.004179
562.000000	0.004155
561.000000	0.004248
560.000000	0.004519
559.000000	0.004689
558.000000	0.004582
557.000000	0.004438
556.000000	0.004478
555.000000	0.004545
554.000000	0.004461
553.000000	0.004378
552.000000	0.004434
551.000000	0.004452
550.000000	0.004318
549.000000	0.004283
548.000000	0.004511
547.000000	0.004726
546.000000	0.004668
545.000000	0.004528
544.000000	0.004554
543.000000	0.004614
542.000000	0.004540
541.000000	0.004509
540.000000	0.004696
539.000000	0.004903
538.000000	0.004926
537.000000	0.004918
536.000000	0.005042
535.000000	0.005114
534.000000	0.004996
533.000000	0.004934
532.000000	0.005133
531.000000	0.005363
530.000000	0.005347
529.000000	0.005209
528.000000	0.005155
527.000000	0.005074
526.000000	0.004856
525.000000	0.004764
524.000000	0.005001
523.000000	0.005309
522.000000	0.005399
521.000000	0.005371
520.000000	0.005391
519.000000	0.005317
518.000000	0.005032
517.000000	0.004781
516.000000	0.004754
515.000000	0.004737
514.000000	0.004550
513.000000	0.004388
512.000000	0.004403
511.000000	0.004375
510.000000	0.004123
509.000000	0.003863
508.000000	0.003819
507.000000	0.003853
506.000000	0.003839
505.000000	0.003970
504.000000	0.004326
503.000000	0.004591
502.000000	0.004565
501.000000	0.004531
500.000000	0.004683
499.000000	0.004714
498.000000	0.004399
497.000000	0.004033
496.000000	0.003903
495.000000	0.003803
494.000000	0.003494
493.000000	0.003219
492.000000	0.003275
491.000000	0.003480
490.000000	0.003562
489.000000	0.003641
488.000000	0.003860
487.000000	0.004006
486.000000	0.003923
485.000000	0.003877
484.000000	0.004059
483.000000	0.004187
482.000000	0.004093
481.000000	0.004132
480.000000	0.004505
479.000000	0.004770
478.000000	0.004552
477.000000	0.004201
476.000000	0.004191
475.000000	0.004401
474.000000	0.004557
473.000000	0.004838
472.000000	0.005384
471.000000	0.005744
470.000000	0.005614
469.000000	0.005419
468.000000	0.005525
467.000000	0.005624
466.000000	0.005419
465.000000	0.005250
464.000000	0.005386
463.000000	0.005418
462.000000	0.005023
461.000000	0.004670
460.000000	0.004808
459.000000	0.005012
458.000000	0.004670
457.000000	0.004050
456.000000	0.003719
455.000000	0.003529
454.000000	0.003262
453.000000	0.003247
452.000000	0.003643
451.000000	0.003852
450.000000	0.003489
