PE IR       SUBTECH     SPECTRUM    ASCII       PEDS        4.00        
   -1
P8-Or004_1.ASC
23/06/13
15:07:37.00
23/06/13
16:11:22.00
uco
Sample 004 By uco Date Tuesday, June 13 2023
450.000000
#HDR
-1
-1
#GR
cm-1
A
1.0
0.0
4000.000000
-1.000000
3551
8
0.054099
0.007948
#DATA
4000.000000	0.008801
3999.000000	0.008842
3998.000000	0.008884
3997.000000	0.008906
3996.000000	0.008888
3995.000000	0.008868
3994.000000	0.008856
3993.000000	0.008858
3992.000000	0.008861
3991.000000	0.008849
3990.000000	0.008825
3989.000000	0.008804
3988.000000	0.008806
3987.000000	0.008834
3986.000000	0.008873
3985.000000	0.008903
3984.000000	0.008911
3983.000000	0.008901
3982.000000	0.008887
3981.000000	0.008885
3980.000000	0.008904
3979.000000	0.008935
3978.000000	0.008960
3977.000000	0.008964
3976.000000	0.008944
3975.000000	0.008915
3974.000000	0.008900
3973.000000	0.008912
3972.000000	0.008945
3971.000000	0.008976
3970.000000	0.008986
3969.000000	0.008978
3968.000000	0.008969
3967.000000	0.008974
3966.000000	0.008993
3965.000000	0.009015
3964.000000	0.009026
3963.000000	0.009023
3962.000000	0.009010
3961.000000	0.008996
3960.000000	0.008988
3959.000000	0.008983
3958.000000	0.008977
3957.000000	0.008966
3956.000000	0.008953
3955.000000	0.008942
3954.000000	0.008940
3953.000000	0.008949
3952.000000	0.008967
3951.000000	0.008991
3950.000000	0.009015
3949.000000	0.009030
3948.000000	0.009036
3947.000000	0.009043
3946.000000	0.009058
3945.000000	0.009075
3944.000000	0.009079
3943.000000	0.009058
3942.000000	0.009017
3941.000000	0.008975
3940.000000	0.008942
3939.000000	0.008917
3938.000000	0.008903
3937.000000	0.008906
3936.000000	0.008932
3935.000000	0.008974
3934.000000	0.009017
3933.000000	0.009046
3932.000000	0.009051
3931.000000	0.009038
3930.000000	0.009022
3929.000000	0.009014
3928.000000	0.009020
3927.000000	0.009028
3926.000000	0.009023
3925.000000	0.009001
3924.000000	0.008979
3923.000000	0.008979
3922.000000	0.008999
3921.000000	0.009025
3920.000000	0.009047
3919.000000	0.009059
3918.000000	0.009060
3917.000000	0.009054
3916.000000	0.009046
3915.000000	0.009042
3914.000000	0.009037
3913.000000	0.009020
3912.000000	0.008993
3911.000000	0.008964
3910.000000	0.008946
3909.000000	0.008942
3908.000000	0.008953
3907.000000	0.008968
3906.000000	0.008980
3905.000000	0.008984
3904.000000	0.008989
3903.000000	0.009008
3902.000000	0.009045
3901.000000	0.009081
3900.000000	0.009098
3899.000000	0.009094
3898.000000	0.009083
3897.000000	0.009071
3896.000000	0.009060
3895.000000	0.009055
3894.000000	0.009065
3893.000000	0.009087
3892.000000	0.009102
3891.000000	0.009104
3890.000000	0.009111
3889.000000	0.009132
3888.000000	0.009145
3887.000000	0.009124
3886.000000	0.009075
3885.000000	0.009034
3884.000000	0.009036
3883.000000	0.009067
3882.000000	0.009080
3881.000000	0.009051
3880.000000	0.008998
3879.000000	0.008974
3878.000000	0.009000
3877.000000	0.009051
3876.000000	0.009090
3875.000000	0.009102
3874.000000	0.009101
3873.000000	0.009111
3872.000000	0.009128
3871.000000	0.009120
3870.000000	0.009074
3869.000000	0.009030
3868.000000	0.009029
3867.000000	0.009049
3866.000000	0.009047
3865.000000	0.009021
3864.000000	0.008991
3863.000000	0.008970
3862.000000	0.008965
3861.000000	0.008974
3860.000000	0.008997
3859.000000	0.009025
3858.000000	0.009048
3857.000000	0.009065
3856.000000	0.009079
3855.000000	0.009094
3854.000000	0.009094
3853.000000	0.009076
3852.000000	0.009083
3851.000000	0.009120
3850.000000	0.009133
3849.000000	0.009112
3848.000000	0.009083
3847.000000	0.009067
3846.000000	0.009061
3845.000000	0.009059
3844.000000	0.009052
3843.000000	0.009045
3842.000000	0.009047
3841.000000	0.009061
3840.000000	0.009077
3839.000000	0.009085
3838.000000	0.009088
3837.000000	0.009093
3836.000000	0.009103
3835.000000	0.009110
3834.000000	0.009104
3833.000000	0.009083
3832.000000	0.009056
3831.000000	0.009040
3830.000000	0.009045
3829.000000	0.009058
3828.000000	0.009058
3827.000000	0.009034
3826.000000	0.009007
3825.000000	0.009009
3824.000000	0.009042
3823.000000	0.009079
3822.000000	0.009085
3821.000000	0.009055
3820.000000	0.009041
3819.000000	0.009081
3818.000000	0.009131
3817.000000	0.009146
3816.000000	0.009125
3815.000000	0.009109
3814.000000	0.009120
3813.000000	0.009129
3812.000000	0.009110
3811.000000	0.009079
3810.000000	0.009062
3809.000000	0.009060
3808.000000	0.009057
3807.000000	0.009045
3806.000000	0.009050
3805.000000	0.009092
3804.000000	0.009141
3803.000000	0.009159
3802.000000	0.009131
3801.000000	0.009087
3800.000000	0.009076
3799.000000	0.009095
3798.000000	0.009101
3797.000000	0.009085
3796.000000	0.009073
3795.000000	0.009085
3794.000000	0.009105
3793.000000	0.009108
3792.000000	0.009087
3791.000000	0.009059
3790.000000	0.009039
3789.000000	0.009036
3788.000000	0.009047
3787.000000	0.009065
3786.000000	0.009074
3785.000000	0.009066
3784.000000	0.009048
3783.000000	0.009036
3782.000000	0.009035
3781.000000	0.009030
3780.000000	0.009003
3779.000000	0.008957
3778.000000	0.008920
3777.000000	0.008914
3776.000000	0.008933
3775.000000	0.008964
3774.000000	0.009003
3773.000000	0.009049
3772.000000	0.009088
3771.000000	0.009104
3770.000000	0.009098
3769.000000	0.009092
3768.000000	0.009094
3767.000000	0.009090
3766.000000	0.009063
3765.000000	0.009027
3764.000000	0.009013
3763.000000	0.009025
3762.000000	0.009038
3761.000000	0.009035
3760.000000	0.009026
3759.000000	0.009027
3758.000000	0.009037
3757.000000	0.009046
3756.000000	0.009052
3755.000000	0.009060
3754.000000	0.009082
3753.000000	0.009131
3752.000000	0.009203
3751.000000	0.009257
3750.000000	0.009256
3749.000000	0.009227
3748.000000	0.009218
3747.000000	0.009231
3746.000000	0.009239
3745.000000	0.009205
3744.000000	0.009135
3743.000000	0.009091
3742.000000	0.009078
3741.000000	0.009039
3740.000000	0.008969
3739.000000	0.008910
3738.000000	0.008893
3737.000000	0.008917
3736.000000	0.008961
3735.000000	0.009007
3734.000000	0.009045
3733.000000	0.009064
3732.000000	0.009051
3731.000000	0.009015
3730.000000	0.008972
3729.000000	0.008930
3728.000000	0.008891
3727.000000	0.008861
3726.000000	0.008850
3725.000000	0.008858
3724.000000	0.008869
3723.000000	0.008871
3722.000000	0.008868
3721.000000	0.008869
3720.000000	0.008876
3719.000000	0.008879
3718.000000	0.008874
3717.000000	0.008872
3716.000000	0.008889
3715.000000	0.008924
3714.000000	0.008965
3713.000000	0.009001
3712.000000	0.009016
3711.000000	0.009007
3710.000000	0.008985
3709.000000	0.008965
3708.000000	0.008949
3707.000000	0.008935
3706.000000	0.008925
3705.000000	0.008912
3704.000000	0.008886
3703.000000	0.008841
3702.000000	0.008790
3701.000000	0.008755
3700.000000	0.008759
3699.000000	0.008796
3698.000000	0.008844
3697.000000	0.008887
3696.000000	0.008926
3695.000000	0.008961
3694.000000	0.008984
3693.000000	0.008987
3692.000000	0.008972
3691.000000	0.008944
3690.000000	0.008909
3689.000000	0.008881
3688.000000	0.008888
3687.000000	0.008938
3686.000000	0.008998
3685.000000	0.009027
3684.000000	0.009017
3683.000000	0.008986
3682.000000	0.008952
3681.000000	0.008920
3680.000000	0.008891
3679.000000	0.008884
3678.000000	0.008910
3677.000000	0.008953
3676.000000	0.008970
3675.000000	0.008951
3674.000000	0.008949
3673.000000	0.008979
3672.000000	0.009000
3671.000000	0.008996
3670.000000	0.008979
3669.000000	0.008972
3668.000000	0.008987
3667.000000	0.009005
3666.000000	0.009010
3665.000000	0.009011
3664.000000	0.009022
3663.000000	0.009039
3662.000000	0.009043
3661.000000	0.009028
3660.000000	0.009010
3659.000000	0.009011
3658.000000	0.009038
3657.000000	0.009080
3656.000000	0.009122
3655.000000	0.009163
3654.000000	0.009200
3653.000000	0.009220
3652.000000	0.009228
3651.000000	0.009248
3650.000000	0.009282
3649.000000	0.009296
3648.000000	0.009271
3647.000000	0.009231
3646.000000	0.009210
3645.000000	0.009217
3644.000000	0.009239
3643.000000	0.009261
3642.000000	0.009273
3641.000000	0.009274
3640.000000	0.009267
3639.000000	0.009255
3638.000000	0.009243
3637.000000	0.009237
3636.000000	0.009233
3635.000000	0.009223
3634.000000	0.009214
3633.000000	0.009226
3632.000000	0.009265
3631.000000	0.009315
3630.000000	0.009351
3629.000000	0.009356
3628.000000	0.009358
3627.000000	0.009397
3626.000000	0.009449
3625.000000	0.009475
3624.000000	0.009474
3623.000000	0.009463
3622.000000	0.009448
3621.000000	0.009427
3620.000000	0.009404
3619.000000	0.009397
3618.000000	0.009423
3617.000000	0.009478
3616.000000	0.009536
3615.000000	0.009568
3614.000000	0.009571
3613.000000	0.009562
3612.000000	0.009561
3611.000000	0.009571
3610.000000	0.009577
3609.000000	0.009564
3608.000000	0.009528
3607.000000	0.009482
3606.000000	0.009446
3605.000000	0.009432
3604.000000	0.009441
3603.000000	0.009471
3602.000000	0.009514
3601.000000	0.009561
3600.000000	0.009606
3599.000000	0.009643
3598.000000	0.009664
3597.000000	0.009669
3596.000000	0.009658
3595.000000	0.009641
3594.000000	0.009623
3593.000000	0.009611
3592.000000	0.009610
3591.000000	0.009623
3590.000000	0.009654
3589.000000	0.009700
3588.000000	0.009743
3587.000000	0.009770
3586.000000	0.009792
3585.000000	0.009823
3584.000000	0.009861
3583.000000	0.009894
3582.000000	0.009916
3581.000000	0.009929
3580.000000	0.009936
3579.000000	0.009942
3578.000000	0.009949
3577.000000	0.009956
3576.000000	0.009959
3575.000000	0.009951
3574.000000	0.009930
3573.000000	0.009901
3572.000000	0.009877
3571.000000	0.009874
3570.000000	0.009904
3569.000000	0.009965
3568.000000	0.010037
3567.000000	0.010090
3566.000000	0.010116
3565.000000	0.010129
3564.000000	0.010141
3563.000000	0.010153
3562.000000	0.010165
3561.000000	0.010181
3560.000000	0.010201
3559.000000	0.010226
3558.000000	0.010260
3557.000000	0.010303
3556.000000	0.010347
3555.000000	0.010379
3554.000000	0.010389
3553.000000	0.010387
3552.000000	0.010394
3551.000000	0.010423
3550.000000	0.010468
3549.000000	0.010512
3548.000000	0.010545
3547.000000	0.010567
3546.000000	0.010583
3545.000000	0.010600
3544.000000	0.010627
3543.000000	0.010660
3542.000000	0.010688
3541.000000	0.010697
3540.000000	0.010683
3539.000000	0.010662
3538.000000	0.010657
3537.000000	0.010680
3536.000000	0.010728
3535.000000	0.010785
3534.000000	0.010832
3533.000000	0.010860
3532.000000	0.010871
3531.000000	0.010875
3530.000000	0.010879
3529.000000	0.010884
3528.000000	0.010884
3527.000000	0.010879
3526.000000	0.010875
3525.000000	0.010882
3524.000000	0.010903
3523.000000	0.010935
3522.000000	0.010972
3521.000000	0.011014
3520.000000	0.011053
3519.000000	0.011080
3518.000000	0.011085
3517.000000	0.011073
3516.000000	0.011060
3515.000000	0.011056
3514.000000	0.011059
3513.000000	0.011063
3512.000000	0.011066
3511.000000	0.011075
3510.000000	0.011091
3509.000000	0.011113
3508.000000	0.011138
3507.000000	0.011166
3506.000000	0.011196
3505.000000	0.011224
3504.000000	0.011242
3503.000000	0.011246
3502.000000	0.011240
3501.000000	0.011231
3500.000000	0.011228
3499.000000	0.011236
3498.000000	0.011262
3497.000000	0.011303
3496.000000	0.011353
3495.000000	0.011398
3494.000000	0.011429
3493.000000	0.011444
3492.000000	0.011449
3491.000000	0.011453
3490.000000	0.011462
3489.000000	0.011475
3488.000000	0.011487
3487.000000	0.011500
3486.000000	0.011519
3485.000000	0.011540
3484.000000	0.011554
3483.000000	0.011549
3482.000000	0.011527
3481.000000	0.011501
3480.000000	0.011486
3479.000000	0.011491
3478.000000	0.011509
3477.000000	0.011534
3476.000000	0.011560
3475.000000	0.011588
3474.000000	0.011618
3473.000000	0.011648
3472.000000	0.011672
3471.000000	0.011687
3470.000000	0.011693
3469.000000	0.011696
3468.000000	0.011702
3467.000000	0.011714
3466.000000	0.011735
3465.000000	0.011759
3464.000000	0.011775
3463.000000	0.011776
3462.000000	0.011770
3461.000000	0.011773
3460.000000	0.011790
3459.000000	0.011814
3458.000000	0.011835
3457.000000	0.011856
3456.000000	0.011882
3455.000000	0.011909
3454.000000	0.011927
3453.000000	0.011933
3452.000000	0.011931
3451.000000	0.011934
3450.000000	0.011947
3449.000000	0.011967
3448.000000	0.011986
3447.000000	0.012003
3446.000000	0.012022
3445.000000	0.012043
3444.000000	0.012063
3443.000000	0.012078
3442.000000	0.012090
3441.000000	0.012099
3440.000000	0.012106
3439.000000	0.012111
3438.000000	0.012123
3437.000000	0.012149
3436.000000	0.012185
3435.000000	0.012216
3434.000000	0.012232
3433.000000	0.012238
3432.000000	0.012246
3431.000000	0.012258
3430.000000	0.012271
3429.000000	0.012280
3428.000000	0.012289
3427.000000	0.012300
3426.000000	0.012318
3425.000000	0.012347
3424.000000	0.012385
3423.000000	0.012425
3422.000000	0.012452
3421.000000	0.012459
3420.000000	0.012451
3419.000000	0.012445
3418.000000	0.012454
3417.000000	0.012475
3416.000000	0.012498
3415.000000	0.012511
3414.000000	0.012513
3413.000000	0.012515
3412.000000	0.012534
3411.000000	0.012574
3410.000000	0.012627
3409.000000	0.012674
3408.000000	0.012701
3407.000000	0.012703
3406.000000	0.012689
3405.000000	0.012678
3404.000000	0.012685
3403.000000	0.012715
3402.000000	0.012757
3401.000000	0.012798
3400.000000	0.012827
3399.000000	0.012837
3398.000000	0.012828
3397.000000	0.012808
3396.000000	0.012790
3395.000000	0.012788
3394.000000	0.012804
3393.000000	0.012831
3392.000000	0.012861
3391.000000	0.012884
3390.000000	0.012896
3389.000000	0.012902
3388.000000	0.012916
3387.000000	0.012944
3386.000000	0.012977
3385.000000	0.012997
3384.000000	0.012992
3383.000000	0.012971
3382.000000	0.012952
3381.000000	0.012950
3380.000000	0.012969
3379.000000	0.013003
3378.000000	0.013042
3377.000000	0.013076
3376.000000	0.013100
3375.000000	0.013113
3374.000000	0.013123
3373.000000	0.013133
3372.000000	0.013142
3371.000000	0.013146
3370.000000	0.013147
3369.000000	0.013149
3368.000000	0.013158
3367.000000	0.013173
3366.000000	0.013188
3365.000000	0.013200
3364.000000	0.013206
3363.000000	0.013207
3362.000000	0.013211
3361.000000	0.013227
3360.000000	0.013255
3359.000000	0.013288
3358.000000	0.013318
3357.000000	0.013341
3356.000000	0.013356
3355.000000	0.013364
3354.000000	0.013365
3353.000000	0.013365
3352.000000	0.013373
3351.000000	0.013394
3350.000000	0.013429
3349.000000	0.013467
3348.000000	0.013490
3347.000000	0.013486
3346.000000	0.013458
3345.000000	0.013423
3344.000000	0.013406
3343.000000	0.013418
3342.000000	0.013455
3341.000000	0.013501
3340.000000	0.013535
3339.000000	0.013547
3338.000000	0.013538
3337.000000	0.013522
3336.000000	0.013515
3335.000000	0.013524
3334.000000	0.013541
3333.000000	0.013555
3332.000000	0.013565
3331.000000	0.013581
3330.000000	0.013615
3329.000000	0.013661
3328.000000	0.013703
3327.000000	0.013723
3326.000000	0.013723
3325.000000	0.013720
3324.000000	0.013727
3323.000000	0.013748
3322.000000	0.013779
3321.000000	0.013813
3320.000000	0.013842
3319.000000	0.013857
3318.000000	0.013855
3317.000000	0.013837
3316.000000	0.013813
3315.000000	0.013787
3314.000000	0.013763
3313.000000	0.013742
3312.000000	0.013728
3311.000000	0.013722
3310.000000	0.013728
3309.000000	0.013747
3308.000000	0.013773
3307.000000	0.013795
3306.000000	0.013807
3305.000000	0.013815
3304.000000	0.013830
3303.000000	0.013853
3302.000000	0.013879
3301.000000	0.013901
3300.000000	0.013918
3299.000000	0.013933
3298.000000	0.013943
3297.000000	0.013948
3296.000000	0.013945
3295.000000	0.013933
3294.000000	0.013923
3293.000000	0.013927
3292.000000	0.013955
3291.000000	0.014002
3290.000000	0.014049
3289.000000	0.014084
3288.000000	0.014106
3287.000000	0.014116
3286.000000	0.014111
3285.000000	0.014085
3284.000000	0.014041
3283.000000	0.013995
3282.000000	0.013964
3281.000000	0.013956
3280.000000	0.013967
3279.000000	0.013986
3278.000000	0.014006
3277.000000	0.014026
3276.000000	0.014042
3275.000000	0.014045
3274.000000	0.014026
3273.000000	0.013990
3272.000000	0.013957
3271.000000	0.013944
3270.000000	0.013956
3269.000000	0.013977
3268.000000	0.013992
3267.000000	0.013994
3266.000000	0.013988
3265.000000	0.013986
3264.000000	0.013994
3263.000000	0.014005
3262.000000	0.014008
3261.000000	0.013999
3260.000000	0.013983
3259.000000	0.013966
3258.000000	0.013951
3257.000000	0.013937
3256.000000	0.013930
3255.000000	0.013931
3254.000000	0.013932
3253.000000	0.013928
3252.000000	0.013917
3251.000000	0.013905
3250.000000	0.013889
3249.000000	0.013862
3248.000000	0.013823
3247.000000	0.013782
3246.000000	0.013757
3245.000000	0.013753
3244.000000	0.013763
3243.000000	0.013769
3242.000000	0.013760
3241.000000	0.013734
3240.000000	0.013701
3239.000000	0.013673
3238.000000	0.013654
3237.000000	0.013640
3236.000000	0.013625
3235.000000	0.013610
3234.000000	0.013602
3233.000000	0.013609
3232.000000	0.013628
3231.000000	0.013650
3230.000000	0.013662
3229.000000	0.013661
3228.000000	0.013656
3227.000000	0.013651
3226.000000	0.013649
3225.000000	0.013644
3224.000000	0.013631
3223.000000	0.013614
3222.000000	0.013592
3221.000000	0.013566
3220.000000	0.013538
3219.000000	0.013514
3218.000000	0.013505
3217.000000	0.013514
3216.000000	0.013538
3215.000000	0.013568
3214.000000	0.013595
3213.000000	0.013611
3212.000000	0.013605
3211.000000	0.013576
3210.000000	0.013533
3209.000000	0.013492
3208.000000	0.013459
3207.000000	0.013437
3206.000000	0.013423
3205.000000	0.013417
3204.000000	0.013418
3203.000000	0.013421
3202.000000	0.013423
3201.000000	0.013419
3200.000000	0.013410
3199.000000	0.013395
3198.000000	0.013379
3197.000000	0.013365
3196.000000	0.013351
3195.000000	0.013332
3194.000000	0.013308
3193.000000	0.013284
3192.000000	0.013264
3191.000000	0.013250
3190.000000	0.013240
3189.000000	0.013231
3188.000000	0.013219
3187.000000	0.013199
3186.000000	0.013168
3185.000000	0.013130
3184.000000	0.013097
3183.000000	0.013077
3182.000000	0.013071
3181.000000	0.013073
3180.000000	0.013071
3179.000000	0.013060
3178.000000	0.013047
3177.000000	0.013040
3176.000000	0.013044
3175.000000	0.013047
3174.000000	0.013037
3173.000000	0.013011
3172.000000	0.012982
3171.000000	0.012964
3170.000000	0.012959
3169.000000	0.012959
3168.000000	0.012954
3167.000000	0.012944
3166.000000	0.012930
3165.000000	0.012913
3164.000000	0.012890
3163.000000	0.012863
3162.000000	0.012842
3161.000000	0.012836
3160.000000	0.012843
3159.000000	0.012855
3158.000000	0.012859
3157.000000	0.012852
3156.000000	0.012833
3155.000000	0.012807
3154.000000	0.012781
3153.000000	0.012758
3152.000000	0.012735
3151.000000	0.012704
3150.000000	0.012664
3149.000000	0.012626
3148.000000	0.012605
3147.000000	0.012601
3146.000000	0.012602
3145.000000	0.012595
3144.000000	0.012583
3143.000000	0.012574
3142.000000	0.012571
3141.000000	0.012564
3140.000000	0.012541
3139.000000	0.012508
3138.000000	0.012481
3137.000000	0.012477
3136.000000	0.012495
3135.000000	0.012523
3134.000000	0.012543
3133.000000	0.012550
3132.000000	0.012546
3131.000000	0.012538
3130.000000	0.012525
3129.000000	0.012510
3128.000000	0.012497
3127.000000	0.012493
3126.000000	0.012501
3125.000000	0.012515
3124.000000	0.012525
3123.000000	0.012529
3122.000000	0.012529
3121.000000	0.012527
3120.000000	0.012516
3119.000000	0.012489
3118.000000	0.012449
3117.000000	0.012412
3116.000000	0.012392
3115.000000	0.012396
3114.000000	0.012413
3113.000000	0.012427
3112.000000	0.012426
3111.000000	0.012413
3110.000000	0.012399
3109.000000	0.012391
3108.000000	0.012387
3107.000000	0.012381
3106.000000	0.012376
3105.000000	0.012374
3104.000000	0.012373
3103.000000	0.012364
3102.000000	0.012346
3101.000000	0.012327
3100.000000	0.012322
3099.000000	0.012336
3098.000000	0.012365
3097.000000	0.012397
3096.000000	0.012412
3095.000000	0.012402
3094.000000	0.012369
3093.000000	0.012334
3092.000000	0.012312
3091.000000	0.012311
3090.000000	0.012326
3089.000000	0.012347
3088.000000	0.012364
3087.000000	0.012371
3086.000000	0.012369
3085.000000	0.012364
3084.000000	0.012363
3083.000000	0.012369
3082.000000	0.012383
3081.000000	0.012402
3080.000000	0.012417
3079.000000	0.012422
3078.000000	0.012416
3077.000000	0.012403
3076.000000	0.012388
3075.000000	0.012369
3074.000000	0.012344
3073.000000	0.012321
3072.000000	0.012309
3071.000000	0.012311
3070.000000	0.012320
3069.000000	0.012329
3068.000000	0.012337
3067.000000	0.012342
3066.000000	0.012341
3065.000000	0.012330
3064.000000	0.012306
3063.000000	0.012275
3062.000000	0.012250
3061.000000	0.012238
3060.000000	0.012239
3059.000000	0.012243
3058.000000	0.012240
3057.000000	0.012228
3056.000000	0.012212
3055.000000	0.012201
3054.000000	0.012196
3053.000000	0.012194
3052.000000	0.012190
3051.000000	0.012179
3050.000000	0.012161
3049.000000	0.012143
3048.000000	0.012129
3047.000000	0.012117
3046.000000	0.012107
3045.000000	0.012100
3044.000000	0.012098
3043.000000	0.012103
3042.000000	0.012109
3041.000000	0.012106
3040.000000	0.012092
3039.000000	0.012075
3038.000000	0.012065
3037.000000	0.012062
3036.000000	0.012056
3035.000000	0.012037
3034.000000	0.012012
3033.000000	0.011997
3032.000000	0.011997
3031.000000	0.012006
3030.000000	0.012012
3029.000000	0.012009
3028.000000	0.011993
3027.000000	0.011963
3026.000000	0.011927
3025.000000	0.011899
3024.000000	0.011890
3023.000000	0.011896
3022.000000	0.011904
3021.000000	0.011905
3020.000000	0.011897
3019.000000	0.011882
3018.000000	0.011866
3017.000000	0.011853
3016.000000	0.011844
3015.000000	0.011837
3014.000000	0.011831
3013.000000	0.011824
3012.000000	0.011817
3011.000000	0.011806
3010.000000	0.011795
3009.000000	0.011793
3008.000000	0.011806
3007.000000	0.011825
3006.000000	0.011833
3005.000000	0.011818
3004.000000	0.011788
3003.000000	0.011763
3002.000000	0.011756
3001.000000	0.011768
3000.000000	0.011791
2999.000000	0.011818
2998.000000	0.011847
2997.000000	0.011874
2996.000000	0.011896
2995.000000	0.011911
2994.000000	0.011920
2993.000000	0.011931
2992.000000	0.011954
2991.000000	0.011993
2990.000000	0.012044
2989.000000	0.012099
2988.000000	0.012149
2987.000000	0.012186
2986.000000	0.012208
2985.000000	0.012218
2984.000000	0.012226
2983.000000	0.012237
2982.000000	0.012256
2981.000000	0.012281
2980.000000	0.012306
2979.000000	0.012330
2978.000000	0.012356
2977.000000	0.012390
2976.000000	0.012432
2975.000000	0.012474
2974.000000	0.012512
2973.000000	0.012549
2972.000000	0.012595
2971.000000	0.012653
2970.000000	0.012718
2969.000000	0.012783
2968.000000	0.012843
2967.000000	0.012898
2966.000000	0.012952
2965.000000	0.013019
2964.000000	0.013104
2963.000000	0.013195
2962.000000	0.013266
2961.000000	0.013300
2960.000000	0.013307
2959.000000	0.013309
2958.000000	0.013320
2957.000000	0.013341
2956.000000	0.013363
2955.000000	0.013377
2954.000000	0.013372
2953.000000	0.013345
2952.000000	0.013303
2951.000000	0.013264
2950.000000	0.013242
2949.000000	0.013239
2948.000000	0.013244
2947.000000	0.013251
2946.000000	0.013264
2945.000000	0.013293
2944.000000	0.013344
2943.000000	0.013403
2942.000000	0.013453
2941.000000	0.013485
2940.000000	0.013512
2939.000000	0.013556
2938.000000	0.013625
2937.000000	0.013707
2936.000000	0.013782
2935.000000	0.013836
2934.000000	0.013870
2933.000000	0.013897
2932.000000	0.013927
2931.000000	0.013968
2930.000000	0.014018
2929.000000	0.014076
2928.000000	0.014137
2927.000000	0.014196
2926.000000	0.014248
2925.000000	0.014292
2924.000000	0.014330
2923.000000	0.014362
2922.000000	0.014390
2921.000000	0.014414
2920.000000	0.014434
2919.000000	0.014443
2918.000000	0.014424
2917.000000	0.014365
2916.000000	0.014272
2915.000000	0.014163
2914.000000	0.014057
2913.000000	0.013962
2912.000000	0.013879
2911.000000	0.013809
2910.000000	0.013751
2909.000000	0.013704
2908.000000	0.013667
2907.000000	0.013637
2906.000000	0.013607
2905.000000	0.013568
2904.000000	0.013518
2903.000000	0.013466
2902.000000	0.013427
2901.000000	0.013406
2900.000000	0.013389
2899.000000	0.013358
2898.000000	0.013307
2897.000000	0.013243
2896.000000	0.013178
2895.000000	0.013123
2894.000000	0.013078
2893.000000	0.013045
2892.000000	0.013024
2891.000000	0.013019
2890.000000	0.013029
2889.000000	0.013041
2888.000000	0.013043
2887.000000	0.013033
2886.000000	0.013021
2885.000000	0.013019
2884.000000	0.013026
2883.000000	0.013035
2882.000000	0.013040
2881.000000	0.013043
2880.000000	0.013050
2879.000000	0.013066
2878.000000	0.013089
2877.000000	0.013118
2876.000000	0.013151
2875.000000	0.013182
2874.000000	0.013207
2873.000000	0.013222
2872.000000	0.013229
2871.000000	0.013231
2870.000000	0.013229
2869.000000	0.013225
2868.000000	0.013221
2867.000000	0.013219
2866.000000	0.013221
2865.000000	0.013223
2864.000000	0.013223
2863.000000	0.013221
2862.000000	0.013221
2861.000000	0.013227
2860.000000	0.013238
2859.000000	0.013252
2858.000000	0.013268
2857.000000	0.013284
2856.000000	0.013306
2855.000000	0.013335
2854.000000	0.013369
2853.000000	0.013400
2852.000000	0.013418
2851.000000	0.013418
2850.000000	0.013399
2849.000000	0.013362
2848.000000	0.013304
2847.000000	0.013225
2846.000000	0.013129
2845.000000	0.013025
2844.000000	0.012919
2843.000000	0.012822
2842.000000	0.012739
2841.000000	0.012676
2840.000000	0.012628
2839.000000	0.012585
2838.000000	0.012536
2837.000000	0.012484
2836.000000	0.012436
2835.000000	0.012396
2834.000000	0.012363
2833.000000	0.012331
2832.000000	0.012300
2831.000000	0.012271
2830.000000	0.012250
2829.000000	0.012238
2828.000000	0.012236
2827.000000	0.012241
2826.000000	0.012248
2825.000000	0.012249
2824.000000	0.012236
2823.000000	0.012210
2822.000000	0.012177
2821.000000	0.012146
2820.000000	0.012122
2819.000000	0.012108
2818.000000	0.012104
2817.000000	0.012107
2816.000000	0.012109
2815.000000	0.012102
2814.000000	0.012090
2813.000000	0.012081
2812.000000	0.012083
2811.000000	0.012088
2810.000000	0.012088
2809.000000	0.012077
2808.000000	0.012062
2807.000000	0.012048
2806.000000	0.012031
2805.000000	0.012005
2804.000000	0.011974
2803.000000	0.011955
2802.000000	0.011958
2801.000000	0.011977
2800.000000	0.011992
2799.000000	0.011983
2798.000000	0.011952
2797.000000	0.011916
2796.000000	0.011896
2795.000000	0.011900
2794.000000	0.011917
2793.000000	0.011924
2792.000000	0.011909
2791.000000	0.011877
2790.000000	0.011847
2789.000000	0.011835
2788.000000	0.011841
2787.000000	0.011858
2786.000000	0.011870
2785.000000	0.011871
2784.000000	0.011861
2783.000000	0.011850
2782.000000	0.011848
2781.000000	0.011854
2780.000000	0.011859
2779.000000	0.011856
2778.000000	0.011850
2777.000000	0.011850
2776.000000	0.011855
2775.000000	0.011860
2774.000000	0.011859
2773.000000	0.011852
2772.000000	0.011843
2771.000000	0.011830
2770.000000	0.011817
2769.000000	0.011809
2768.000000	0.011812
2767.000000	0.011822
2766.000000	0.011831
2765.000000	0.011825
2764.000000	0.011802
2763.000000	0.011768
2762.000000	0.011733
2761.000000	0.011706
2760.000000	0.011693
2759.000000	0.011695
2758.000000	0.011709
2757.000000	0.011726
2756.000000	0.011735
2755.000000	0.011736
2754.000000	0.011733
2753.000000	0.011733
2752.000000	0.011731
2751.000000	0.011724
2750.000000	0.011717
2749.000000	0.011717
2748.000000	0.011724
2747.000000	0.011731
2746.000000	0.011730
2745.000000	0.011721
2744.000000	0.011705
2743.000000	0.011686
2742.000000	0.011672
2741.000000	0.011667
2740.000000	0.011665
2739.000000	0.011654
2738.000000	0.011632
2737.000000	0.011609
2736.000000	0.011591
2735.000000	0.011576
2734.000000	0.011560
2733.000000	0.011545
2732.000000	0.011538
2731.000000	0.011544
2730.000000	0.011558
2729.000000	0.011576
2728.000000	0.011591
2727.000000	0.011594
2726.000000	0.011583
2725.000000	0.011563
2724.000000	0.011544
2723.000000	0.011538
2722.000000	0.011545
2721.000000	0.011558
2720.000000	0.011568
2719.000000	0.011569
2718.000000	0.011561
2717.000000	0.011550
2716.000000	0.011543
2715.000000	0.011544
2714.000000	0.011550
2713.000000	0.011558
2712.000000	0.011565
2711.000000	0.011568
2710.000000	0.011567
2709.000000	0.011560
2708.000000	0.011546
2707.000000	0.011529
2706.000000	0.011510
2705.000000	0.011494
2704.000000	0.011487
2703.000000	0.011490
2702.000000	0.011500
2701.000000	0.011511
2700.000000	0.011517
2699.000000	0.011514
2698.000000	0.011507
2697.000000	0.011498
2696.000000	0.011491
2695.000000	0.011490
2694.000000	0.011498
2693.000000	0.011512
2692.000000	0.011524
2691.000000	0.011530
2690.000000	0.011529
2689.000000	0.011531
2688.000000	0.011537
2687.000000	0.011544
2686.000000	0.011546
2685.000000	0.011545
2684.000000	0.011543
2683.000000	0.011536
2682.000000	0.011519
2681.000000	0.011495
2680.000000	0.011477
2679.000000	0.011476
2678.000000	0.011493
2677.000000	0.011519
2676.000000	0.011544
2675.000000	0.011566
2674.000000	0.011586
2673.000000	0.011597
2672.000000	0.011589
2671.000000	0.011566
2670.000000	0.011544
2669.000000	0.011538
2668.000000	0.011546
2667.000000	0.011557
2666.000000	0.011564
2665.000000	0.011570
2664.000000	0.011577
2663.000000	0.011580
2662.000000	0.011577
2661.000000	0.011574
2660.000000	0.011575
2659.000000	0.011578
2658.000000	0.011574
2657.000000	0.011560
2656.000000	0.011539
2655.000000	0.011517
2654.000000	0.011496
2653.000000	0.011478
2652.000000	0.011465
2651.000000	0.011459
2650.000000	0.011460
2649.000000	0.011462
2648.000000	0.011461
2647.000000	0.011458
2646.000000	0.011453
2645.000000	0.011448
2644.000000	0.011443
2643.000000	0.011440
2642.000000	0.011436
2641.000000	0.011422
2640.000000	0.011393
2639.000000	0.011352
2638.000000	0.011315
2637.000000	0.011295
2636.000000	0.011285
2635.000000	0.011274
2634.000000	0.011259
2633.000000	0.011251
2632.000000	0.011260
2631.000000	0.011276
2630.000000	0.011281
2629.000000	0.011271
2628.000000	0.011251
2627.000000	0.011233
2626.000000	0.011217
2625.000000	0.011199
2624.000000	0.011179
2623.000000	0.011165
2622.000000	0.011159
2621.000000	0.011152
2620.000000	0.011131
2619.000000	0.011095
2618.000000	0.011056
2617.000000	0.011030
2616.000000	0.011025
2615.000000	0.011036
2614.000000	0.011058
2613.000000	0.011080
2612.000000	0.011093
2611.000000	0.011093
2610.000000	0.011085
2609.000000	0.011079
2608.000000	0.011075
2607.000000	0.011062
2606.000000	0.011040
2605.000000	0.011018
2604.000000	0.011013
2603.000000	0.011027
2602.000000	0.011049
2601.000000	0.011062
2600.000000	0.011055
2599.000000	0.011033
2598.000000	0.011009
2597.000000	0.010996
2596.000000	0.010999
2595.000000	0.011009
2594.000000	0.011018
2593.000000	0.011021
2592.000000	0.011015
2591.000000	0.010999
2590.000000	0.010978
2589.000000	0.010956
2588.000000	0.010932
2587.000000	0.010905
2586.000000	0.010880
2585.000000	0.010862
2584.000000	0.010855
2583.000000	0.010859
2582.000000	0.010877
2581.000000	0.010905
2580.000000	0.010928
2579.000000	0.010932
2578.000000	0.010913
2577.000000	0.010880
2576.000000	0.010841
2575.000000	0.010807
2574.000000	0.010790
2573.000000	0.010792
2572.000000	0.010799
2571.000000	0.010802
2570.000000	0.010808
2569.000000	0.010829
2568.000000	0.010855
2567.000000	0.010863
2566.000000	0.010845
2565.000000	0.010817
2564.000000	0.010803
2563.000000	0.010812
2562.000000	0.010839
2561.000000	0.010876
2560.000000	0.010907
2559.000000	0.010917
2558.000000	0.010905
2557.000000	0.010887
2556.000000	0.010871
2555.000000	0.010857
2554.000000	0.010851
2553.000000	0.010863
2552.000000	0.010897
2551.000000	0.010929
2550.000000	0.010931
2549.000000	0.010899
2548.000000	0.010861
2547.000000	0.010839
2546.000000	0.010838
2545.000000	0.010847
2544.000000	0.010863
2543.000000	0.010891
2542.000000	0.010931
2541.000000	0.010969
2540.000000	0.010980
2539.000000	0.010957
2538.000000	0.010926
2537.000000	0.010924
2536.000000	0.010964
2535.000000	0.011023
2534.000000	0.011068
2533.000000	0.011091
2532.000000	0.011105
2531.000000	0.011126
2530.000000	0.011162
2529.000000	0.011212
2528.000000	0.011272
2527.000000	0.011335
2526.000000	0.011393
2525.000000	0.011444
2524.000000	0.011490
2523.000000	0.011532
2522.000000	0.011561
2521.000000	0.011568
2520.000000	0.011558
2519.000000	0.011555
2518.000000	0.011582
2517.000000	0.011640
2516.000000	0.011704
2515.000000	0.011748
2514.000000	0.011763
2513.000000	0.011761
2512.000000	0.011751
2511.000000	0.011743
2510.000000	0.011741
2509.000000	0.011739
2508.000000	0.011725
2507.000000	0.011691
2506.000000	0.011647
2505.000000	0.011610
2504.000000	0.011587
2503.000000	0.011571
2502.000000	0.011558
2501.000000	0.011540
2500.000000	0.011502
2499.000000	0.011440
2498.000000	0.011369
2497.000000	0.011318
2496.000000	0.011299
2495.000000	0.011299
2494.000000	0.011299
2493.000000	0.011290
2492.000000	0.011269
2491.000000	0.011242
2490.000000	0.011218
2489.000000	0.011200
2488.000000	0.011174
2487.000000	0.011120
2486.000000	0.011042
2485.000000	0.010979
2484.000000	0.010960
2483.000000	0.010974
2482.000000	0.010985
2481.000000	0.010968
2480.000000	0.010934
2479.000000	0.010900
2478.000000	0.010878
2477.000000	0.010868
2476.000000	0.010860
2475.000000	0.010844
2474.000000	0.010816
2473.000000	0.010785
2472.000000	0.010762
2471.000000	0.010746
2470.000000	0.010731
2469.000000	0.010725
2468.000000	0.010742
2467.000000	0.010787
2466.000000	0.010844
2465.000000	0.010888
2464.000000	0.010901
2463.000000	0.010884
2462.000000	0.010849
2461.000000	0.010808
2460.000000	0.010766
2459.000000	0.010728
2458.000000	0.010697
2457.000000	0.010680
2456.000000	0.010680
2455.000000	0.010697
2454.000000	0.010725
2453.000000	0.010755
2452.000000	0.010778
2451.000000	0.010789
2450.000000	0.010787
2449.000000	0.010769
2448.000000	0.010736
2447.000000	0.010696
2446.000000	0.010665
2445.000000	0.010657
2444.000000	0.010672
2443.000000	0.010700
2442.000000	0.010727
2441.000000	0.010740
2440.000000	0.010729
2439.000000	0.010699
2438.000000	0.010677
2437.000000	0.010687
2436.000000	0.010724
2435.000000	0.010755
2434.000000	0.010754
2433.000000	0.010716
2432.000000	0.010661
2431.000000	0.010616
2430.000000	0.010604
2429.000000	0.010630
2428.000000	0.010679
2427.000000	0.010721
2426.000000	0.010732
2425.000000	0.010709
2424.000000	0.010670
2423.000000	0.010643
2422.000000	0.010647
2421.000000	0.010675
2420.000000	0.010697
2419.000000	0.010689
2418.000000	0.010664
2417.000000	0.010653
2416.000000	0.010668
2415.000000	0.010692
2414.000000	0.010698
2413.000000	0.010687
2412.000000	0.010674
2411.000000	0.010670
2410.000000	0.010674
2409.000000	0.010676
2408.000000	0.010672
2407.000000	0.010667
2406.000000	0.010664
2405.000000	0.010659
2404.000000	0.010643
2403.000000	0.010616
2402.000000	0.010591
2401.000000	0.010577
2400.000000	0.010571
2399.000000	0.010564
2398.000000	0.010562
2397.000000	0.010578
2396.000000	0.010617
2395.000000	0.010668
2394.000000	0.010714
2393.000000	0.010743
2392.000000	0.010746
2391.000000	0.010721
2390.000000	0.010681
2389.000000	0.010656
2388.000000	0.010668
2387.000000	0.010712
2386.000000	0.010762
2385.000000	0.010789
2384.000000	0.010785
2383.000000	0.010762
2382.000000	0.010735
2381.000000	0.010704
2380.000000	0.010666
2379.000000	0.010629
2378.000000	0.010619
2377.000000	0.010648
2376.000000	0.010698
2375.000000	0.010734
2374.000000	0.010738
2373.000000	0.010723
2372.000000	0.010709
2371.000000	0.010712
2370.000000	0.010734
2369.000000	0.010758
2368.000000	0.010760
2367.000000	0.010739
2366.000000	0.010723
2365.000000	0.010735
2364.000000	0.010761
2363.000000	0.010772
2362.000000	0.010763
2361.000000	0.010751
2360.000000	0.010752
2359.000000	0.010767
2358.000000	0.010790
2357.000000	0.010808
2356.000000	0.010811
2355.000000	0.010804
2354.000000	0.010790
2353.000000	0.010759
2352.000000	0.010719
2351.000000	0.010705
2350.000000	0.010742
2349.000000	0.010820
2348.000000	0.010906
2347.000000	0.010951
2346.000000	0.010928
2345.000000	0.010875
2344.000000	0.010853
2343.000000	0.010881
2342.000000	0.010931
2341.000000	0.010971
2340.000000	0.010985
2339.000000	0.010977
2338.000000	0.010959
2337.000000	0.010943
2336.000000	0.010939
2335.000000	0.010946
2334.000000	0.010953
2333.000000	0.010945
2332.000000	0.010916
2331.000000	0.010878
2330.000000	0.010856
2329.000000	0.010874
2328.000000	0.010937
2327.000000	0.011029
2326.000000	0.011119
2325.000000	0.011181
2324.000000	0.011198
2323.000000	0.011174
2322.000000	0.011133
2321.000000	0.011114
2320.000000	0.011133
2319.000000	0.011173
2318.000000	0.011205
2317.000000	0.011212
2316.000000	0.011186
2315.000000	0.011123
2314.000000	0.011032
2313.000000	0.010945
2312.000000	0.010893
2311.000000	0.010877
2310.000000	0.010871
2309.000000	0.010851
2308.000000	0.010817
2307.000000	0.010782
2306.000000	0.010764
2305.000000	0.010766
2304.000000	0.010778
2303.000000	0.010788
2302.000000	0.010791
2301.000000	0.010794
2300.000000	0.010807
2299.000000	0.010827
2298.000000	0.010849
2297.000000	0.010866
2296.000000	0.010874
2295.000000	0.010862
2294.000000	0.010829
2293.000000	0.010794
2292.000000	0.010783
2291.000000	0.010801
2290.000000	0.010837
2289.000000	0.010875
2288.000000	0.010910
2287.000000	0.010944
2286.000000	0.010970
2285.000000	0.010979
2284.000000	0.010970
2283.000000	0.010959
2282.000000	0.010959
2281.000000	0.010964
2280.000000	0.010946
2279.000000	0.010896
2278.000000	0.010839
2277.000000	0.010805
2276.000000	0.010787
2275.000000	0.010750
2274.000000	0.010687
2273.000000	0.010629
2272.000000	0.010601
2271.000000	0.010589
2270.000000	0.010565
2269.000000	0.010531
2268.000000	0.010499
2267.000000	0.010467
2266.000000	0.010425
2265.000000	0.010383
2264.000000	0.010361
2263.000000	0.010368
2262.000000	0.010380
2261.000000	0.010365
2260.000000	0.010320
2259.000000	0.010284
2258.000000	0.010298
2257.000000	0.010354
2256.000000	0.010392
2255.000000	0.010371
2254.000000	0.010328
2253.000000	0.010329
2252.000000	0.010371
2251.000000	0.010380
2250.000000	0.010312
2249.000000	0.010217
2248.000000	0.010169
2247.000000	0.010182
2246.000000	0.010214
2245.000000	0.010233
2244.000000	0.010250
2243.000000	0.010278
2242.000000	0.010321
2241.000000	0.010368
2240.000000	0.010412
2239.000000	0.010446
2238.000000	0.010468
2237.000000	0.010466
2236.000000	0.010423
2235.000000	0.010339
2234.000000	0.010251
2233.000000	0.010212
2232.000000	0.010223
2231.000000	0.010234
2230.000000	0.010218
2229.000000	0.010205
2228.000000	0.010232
2227.000000	0.010286
2226.000000	0.010308
2225.000000	0.010261
2224.000000	0.010158
2223.000000	0.010042
2222.000000	0.009965
2221.000000	0.009956
2220.000000	0.010008
2219.000000	0.010091
2218.000000	0.010170
2217.000000	0.010216
2216.000000	0.010199
2215.000000	0.010119
2214.000000	0.010030
2213.000000	0.010002
2212.000000	0.010037
2211.000000	0.010065
2210.000000	0.010023
2209.000000	0.009920
2208.000000	0.009817
2207.000000	0.009770
2206.000000	0.009823
2205.000000	0.009985
2204.000000	0.010202
2203.000000	0.010362
2202.000000	0.010384
2201.000000	0.010280
2200.000000	0.010139
2199.000000	0.010049
2198.000000	0.010043
2197.000000	0.010072
2196.000000	0.010053
2195.000000	0.009960
2194.000000	0.009887
2193.000000	0.009949
2192.000000	0.010124
2191.000000	0.010246
2190.000000	0.010195
2189.000000	0.010031
2188.000000	0.009915
2187.000000	0.009935
2186.000000	0.010048
2185.000000	0.010146
2184.000000	0.010140
2183.000000	0.010015
2182.000000	0.009858
2181.000000	0.009790
2180.000000	0.009838
2179.000000	0.009898
2178.000000	0.009864
2177.000000	0.009748
2176.000000	0.009635
2175.000000	0.009563
2174.000000	0.009506
2173.000000	0.009452
2172.000000	0.009449
2171.000000	0.009548
2170.000000	0.009746
2169.000000	0.009970
2168.000000	0.010114
2167.000000	0.010115
2166.000000	0.009995
2165.000000	0.009844
2164.000000	0.009743
2163.000000	0.009701
2162.000000	0.009666
2161.000000	0.009567
2160.000000	0.009367
2159.000000	0.009122
2158.000000	0.008966
2157.000000	0.008952
2156.000000	0.008977
2155.000000	0.008934
2154.000000	0.008880
2153.000000	0.008962
2152.000000	0.009204
2151.000000	0.009448
2150.000000	0.009507
2149.000000	0.009336
2148.000000	0.009055
2147.000000	0.008841
2146.000000	0.008817
2145.000000	0.008979
2144.000000	0.009205
2143.000000	0.009364
2142.000000	0.009418
2141.000000	0.009424
2140.000000	0.009437
2139.000000	0.009471
2138.000000	0.009534
2137.000000	0.009641
2136.000000	0.009770
2135.000000	0.009871
2134.000000	0.009918
2133.000000	0.009938
2132.000000	0.009971
2131.000000	0.010033
2130.000000	0.010126
2129.000000	0.010233
2128.000000	0.010318
2127.000000	0.010342
2126.000000	0.010319
2125.000000	0.010300
2124.000000	0.010314
2123.000000	0.010338
2122.000000	0.010351
2121.000000	0.010378
2120.000000	0.010448
2119.000000	0.010539
2118.000000	0.010593
2117.000000	0.010580
2116.000000	0.010523
2115.000000	0.010463
2114.000000	0.010424
2113.000000	0.010411
2112.000000	0.010417
2111.000000	0.010422
2110.000000	0.010412
2109.000000	0.010397
2108.000000	0.010407
2107.000000	0.010465
2106.000000	0.010549
2105.000000	0.010612
2104.000000	0.010621
2103.000000	0.010586
2102.000000	0.010545
2101.000000	0.010521
2100.000000	0.010510
2099.000000	0.010501
2098.000000	0.010485
2097.000000	0.010453
2096.000000	0.010396
2095.000000	0.010337
2094.000000	0.010320
2093.000000	0.010357
2092.000000	0.010405
2091.000000	0.010427
2090.000000	0.010428
2089.000000	0.010435
2088.000000	0.010445
2087.000000	0.010452
2086.000000	0.010485
2085.000000	0.010574
2084.000000	0.010672
2083.000000	0.010690
2082.000000	0.010604
2081.000000	0.010482
2080.000000	0.010408
2079.000000	0.010389
2078.000000	0.010384
2077.000000	0.010363
2076.000000	0.010337
2075.000000	0.010341
2074.000000	0.010393
2073.000000	0.010451
2072.000000	0.010430
2071.000000	0.010288
2070.000000	0.010096
2069.000000	0.009980
2068.000000	0.009992
2067.000000	0.010087
2066.000000	0.010201
2065.000000	0.010299
2064.000000	0.010345
2063.000000	0.010306
2062.000000	0.010208
2061.000000	0.010126
2060.000000	0.010099
2059.000000	0.010103
2058.000000	0.010106
2057.000000	0.010102
2056.000000	0.010078
2055.000000	0.010016
2054.000000	0.009960
2053.000000	0.009989
2052.000000	0.010106
2051.000000	0.010187
2050.000000	0.010113
2049.000000	0.009899
2048.000000	0.009666
2047.000000	0.009504
2046.000000	0.009414
2045.000000	0.009339
2044.000000	0.009215
2043.000000	0.009020
2042.000000	0.008821
2041.000000	0.008735
2040.000000	0.008793
2039.000000	0.008909
2038.000000	0.009013
2037.000000	0.009125
2036.000000	0.009257
2035.000000	0.009338
2034.000000	0.009298
2033.000000	0.009166
2032.000000	0.009022
2031.000000	0.008909
2030.000000	0.008852
2029.000000	0.008892
2028.000000	0.009007
2027.000000	0.009086
2026.000000	0.009036
2025.000000	0.008886
2024.000000	0.008736
2023.000000	0.008659
2022.000000	0.008687
2021.000000	0.008810
2020.000000	0.008957
2019.000000	0.009026
2018.000000	0.008986
2017.000000	0.008905
2016.000000	0.008845
2015.000000	0.008798
2014.000000	0.008747
2013.000000	0.008725
2012.000000	0.008771
2011.000000	0.008872
2010.000000	0.008965
2009.000000	0.008986
2008.000000	0.008902
2007.000000	0.008758
2006.000000	0.008680
2005.000000	0.008762
2004.000000	0.008947
2003.000000	0.009094
2002.000000	0.009142
2001.000000	0.009147
2000.000000	0.009171
1999.000000	0.009209
1998.000000	0.009252
1997.000000	0.009314
1996.000000	0.009387
1995.000000	0.009410
1994.000000	0.009335
1993.000000	0.009191
1992.000000	0.009063
1991.000000	0.009030
1990.000000	0.009126
1989.000000	0.009331
1988.000000	0.009566
1987.000000	0.009738
1986.000000	0.009826
1985.000000	0.009867
1984.000000	0.009874
1983.000000	0.009819
1982.000000	0.009696
1981.000000	0.009540
1980.000000	0.009365
1979.000000	0.009157
1978.000000	0.008946
1977.000000	0.008827
1976.000000	0.008839
1975.000000	0.008925
1974.000000	0.009018
1973.000000	0.009101
1972.000000	0.009145
1971.000000	0.009102
1970.000000	0.008965
1969.000000	0.008782
1968.000000	0.008612
1967.000000	0.008523
1966.000000	0.008593
1965.000000	0.008822
1964.000000	0.009058
1963.000000	0.009132
1962.000000	0.009054
1961.000000	0.008991
1960.000000	0.009034
1959.000000	0.009111
1958.000000	0.009144
1957.000000	0.009168
1956.000000	0.009257
1955.000000	0.009416
1954.000000	0.009609
1953.000000	0.009811
1952.000000	0.009978
1951.000000	0.010038
1950.000000	0.009953
1949.000000	0.009782
1948.000000	0.009628
1947.000000	0.009553
1946.000000	0.009561
1945.000000	0.009626
1944.000000	0.009704
1943.000000	0.009753
1942.000000	0.009751
1941.000000	0.009714
1940.000000	0.009675
1939.000000	0.009675
1938.000000	0.009747
1937.000000	0.009880
1936.000000	0.010011
1935.000000	0.010085
1934.000000	0.010115
1933.000000	0.010150
1932.000000	0.010193
1931.000000	0.010217
1930.000000	0.010214
1929.000000	0.010198
1928.000000	0.010160
1927.000000	0.010081
1926.000000	0.009989
1925.000000	0.009945
1924.000000	0.009967
1923.000000	0.010007
1922.000000	0.010019
1921.000000	0.009995
1920.000000	0.009941
1919.000000	0.009857
1918.000000	0.009775
1917.000000	0.009754
1916.000000	0.009816
1915.000000	0.009930
1914.000000	0.010053
1913.000000	0.010154
1912.000000	0.010193
1911.000000	0.010144
1910.000000	0.010026
1909.000000	0.009910
1908.000000	0.009841
1907.000000	0.009813
1906.000000	0.009813
1905.000000	0.009854
1904.000000	0.009940
1903.000000	0.010035
1902.000000	0.010095
1901.000000	0.010108
1900.000000	0.010090
1899.000000	0.010050
1898.000000	0.009990
1897.000000	0.009915
1896.000000	0.009844
1895.000000	0.009799
1894.000000	0.009795
1893.000000	0.009822
1892.000000	0.009849
1891.000000	0.009849
1890.000000	0.009829
1889.000000	0.009816
1888.000000	0.009818
1887.000000	0.009823
1886.000000	0.009832
1885.000000	0.009855
1884.000000	0.009878
1883.000000	0.009869
1882.000000	0.009819
1881.000000	0.009758
1880.000000	0.009713
1879.000000	0.009677
1878.000000	0.009625
1877.000000	0.009555
1876.000000	0.009495
1875.000000	0.009474
1874.000000	0.009499
1873.000000	0.009547
1872.000000	0.009576
1871.000000	0.009558
1870.000000	0.009518
1869.000000	0.009509
1868.000000	0.009554
1867.000000	0.009623
1866.000000	0.009677
1865.000000	0.009701
1864.000000	0.009690
1863.000000	0.009647
1862.000000	0.009600
1861.000000	0.009584
1860.000000	0.009598
1859.000000	0.009607
1858.000000	0.009584
1857.000000	0.009535
1856.000000	0.009479
1855.000000	0.009429
1854.000000	0.009401
1853.000000	0.009408
1852.000000	0.009448
1851.000000	0.009491
1850.000000	0.009519
1849.000000	0.009537
1848.000000	0.009554
1847.000000	0.009557
1846.000000	0.009519
1845.000000	0.009446
1844.000000	0.009384
1843.000000	0.009365
1842.000000	0.009372
1841.000000	0.009375
1840.000000	0.009359
1839.000000	0.009325
1838.000000	0.009280
1837.000000	0.009225
1836.000000	0.009160
1835.000000	0.009112
1834.000000	0.009110
1833.000000	0.009156
1832.000000	0.009202
1831.000000	0.009200
1830.000000	0.009164
1829.000000	0.009151
1828.000000	0.009175
1827.000000	0.009194
1826.000000	0.009183
1825.000000	0.009161
1824.000000	0.009150
1823.000000	0.009149
1822.000000	0.009157
1821.000000	0.009174
1820.000000	0.009188
1819.000000	0.009177
1818.000000	0.009146
1817.000000	0.009123
1816.000000	0.009125
1815.000000	0.009141
1814.000000	0.009158
1813.000000	0.009172
1812.000000	0.009178
1811.000000	0.009181
1810.000000	0.009204
1809.000000	0.009257
1808.000000	0.009326
1807.000000	0.009392
1806.000000	0.009458
1805.000000	0.009534
1804.000000	0.009625
1803.000000	0.009739
1802.000000	0.009895
1801.000000	0.010107
1800.000000	0.010342
1799.000000	0.010542
1798.000000	0.010674
1797.000000	0.010735
1796.000000	0.010743
1795.000000	0.010721
1794.000000	0.010676
1793.000000	0.010593
1792.000000	0.010452
1791.000000	0.010261
1790.000000	0.010062
1789.000000	0.009883
1788.000000	0.009726
1787.000000	0.009583
1786.000000	0.009450
1785.000000	0.009332
1784.000000	0.009231
1783.000000	0.009152
1782.000000	0.009094
1781.000000	0.009057
1780.000000	0.009034
1779.000000	0.009009
1778.000000	0.008981
1777.000000	0.008960
1776.000000	0.008949
1775.000000	0.008931
1774.000000	0.008887
1773.000000	0.008829
1772.000000	0.008798
1771.000000	0.008805
1770.000000	0.008829
1769.000000	0.008848
1768.000000	0.008845
1767.000000	0.008814
1766.000000	0.008780
1765.000000	0.008778
1764.000000	0.008807
1763.000000	0.008837
1762.000000	0.008847
1761.000000	0.008855
1760.000000	0.008872
1759.000000	0.008892
1758.000000	0.008912
1757.000000	0.008954
1756.000000	0.009030
1755.000000	0.009110
1754.000000	0.009169
1753.000000	0.009220
1752.000000	0.009293
1751.000000	0.009389
1750.000000	0.009492
1749.000000	0.009610
1748.000000	0.009746
1747.000000	0.009865
1746.000000	0.009939
1745.000000	0.009988
1744.000000	0.010045
1743.000000	0.010117
1742.000000	0.010191
1741.000000	0.010256
1740.000000	0.010295
1739.000000	0.010300
1738.000000	0.010290
1737.000000	0.010283
1736.000000	0.010252
1735.000000	0.010152
1734.000000	0.009995
1733.000000	0.009855
1732.000000	0.009772
1731.000000	0.009718
1730.000000	0.009667
1729.000000	0.009630
1728.000000	0.009614
1727.000000	0.009598
1726.000000	0.009557
1725.000000	0.009498
1724.000000	0.009430
1723.000000	0.009363
1722.000000	0.009314
1721.000000	0.009293
1720.000000	0.009263
1719.000000	0.009164
1718.000000	0.009013
1717.000000	0.008901
1716.000000	0.008872
1715.000000	0.008896
1714.000000	0.008942
1713.000000	0.008985
1712.000000	0.009010
1711.000000	0.009019
1710.000000	0.009038
1709.000000	0.009085
1708.000000	0.009145
1707.000000	0.009182
1706.000000	0.009200
1705.000000	0.009242
1704.000000	0.009318
1703.000000	0.009408
1702.000000	0.009500
1701.000000	0.009601
1700.000000	0.009686
1699.000000	0.009724
1698.000000	0.009769
1697.000000	0.009879
1696.000000	0.010058
1695.000000	0.010258
1694.000000	0.010439
1693.000000	0.010617
1692.000000	0.010782
1691.000000	0.010919
1690.000000	0.011041
1689.000000	0.011179
1688.000000	0.011327
1687.000000	0.011448
1686.000000	0.011531
1685.000000	0.011624
1684.000000	0.011801
1683.000000	0.012014
1682.000000	0.012184
1681.000000	0.012341
1680.000000	0.012525
1679.000000	0.012726
1678.000000	0.012913
1677.000000	0.013081
1676.000000	0.013246
1675.000000	0.013402
1674.000000	0.013537
1673.000000	0.013683
1672.000000	0.013866
1671.000000	0.014068
1670.000000	0.014260
1669.000000	0.014439
1668.000000	0.014609
1667.000000	0.014763
1666.000000	0.014907
1665.000000	0.015060
1664.000000	0.015235
1663.000000	0.015419
1662.000000	0.015592
1661.000000	0.015748
1660.000000	0.015902
1659.000000	0.016047
1658.000000	0.016168
1657.000000	0.016266
1656.000000	0.016352
1655.000000	0.016413
1654.000000	0.016466
1653.000000	0.016583
1652.000000	0.016686
1651.000000	0.016725
1650.000000	0.016770
1649.000000	0.016816
1648.000000	0.016847
1647.000000	0.016878
1646.000000	0.016898
1645.000000	0.016875
1644.000000	0.016821
1643.000000	0.016759
1642.000000	0.016696
1641.000000	0.016639
1640.000000	0.016587
1639.000000	0.016514
1638.000000	0.016403
1637.000000	0.016273
1636.000000	0.016178
1635.000000	0.016104
1634.000000	0.015982
1633.000000	0.015821
1632.000000	0.015661
1631.000000	0.015501
1630.000000	0.015329
1629.000000	0.015138
1628.000000	0.014946
1627.000000	0.014777
1626.000000	0.014631
1625.000000	0.014492
1624.000000	0.014337
1623.000000	0.014162
1622.000000	0.013978
1621.000000	0.013807
1620.000000	0.013654
1619.000000	0.013497
1618.000000	0.013310
1617.000000	0.013112
1616.000000	0.012955
1615.000000	0.012857
1614.000000	0.012787
1613.000000	0.012710
1612.000000	0.012608
1611.000000	0.012488
1610.000000	0.012362
1609.000000	0.012248
1608.000000	0.012162
1607.000000	0.012100
1606.000000	0.012043
1605.000000	0.011980
1604.000000	0.011917
1603.000000	0.011857
1602.000000	0.011794
1601.000000	0.011738
1600.000000	0.011696
1599.000000	0.011666
1598.000000	0.011635
1597.000000	0.011599
1596.000000	0.011560
1595.000000	0.011522
1594.000000	0.011491
1593.000000	0.011474
1592.000000	0.011473
1591.000000	0.011476
1590.000000	0.011471
1589.000000	0.011467
1588.000000	0.011484
1587.000000	0.011524
1586.000000	0.011561
1585.000000	0.011571
1584.000000	0.011556
1583.000000	0.011542
1582.000000	0.011545
1581.000000	0.011571
1580.000000	0.011612
1579.000000	0.011639
1578.000000	0.011623
1577.000000	0.011572
1576.000000	0.011544
1575.000000	0.011567
1574.000000	0.011624
1573.000000	0.011689
1572.000000	0.011735
1571.000000	0.011738
1570.000000	0.011711
1569.000000	0.011704
1568.000000	0.011745
1567.000000	0.011808
1566.000000	0.011868
1565.000000	0.011918
1564.000000	0.011968
1563.000000	0.012018
1562.000000	0.012059
1561.000000	0.012093
1560.000000	0.012122
1559.000000	0.012200
1558.000000	0.012329
1557.000000	0.012405
1556.000000	0.012457
1555.000000	0.012543
1554.000000	0.012660
1553.000000	0.012800
1552.000000	0.012936
1551.000000	0.013063
1550.000000	0.013201
1549.000000	0.013365
1548.000000	0.013533
1547.000000	0.013680
1546.000000	0.013806
1545.000000	0.013935
1544.000000	0.014070
1543.000000	0.014194
1542.000000	0.014303
1541.000000	0.014442
1540.000000	0.014665
1539.000000	0.014900
1538.000000	0.015044
1537.000000	0.015139
1536.000000	0.015230
1535.000000	0.015327
1534.000000	0.015453
1533.000000	0.015614
1532.000000	0.015751
1531.000000	0.015832
1530.000000	0.015895
1529.000000	0.015974
1528.000000	0.016070
1527.000000	0.016175
1526.000000	0.016290
1525.000000	0.016404
1524.000000	0.016496
1523.000000	0.016571
1522.000000	0.016699
1521.000000	0.016913
1520.000000	0.017115
1519.000000	0.017244
1518.000000	0.017363
1517.000000	0.017549
1516.000000	0.017781
1515.000000	0.017962
1514.000000	0.018079
1513.000000	0.018187
1512.000000	0.018298
1511.000000	0.018373
1510.000000	0.018396
1509.000000	0.018419
1508.000000	0.018546
1507.000000	0.018920
1506.000000	0.019455
1505.000000	0.019830
1504.000000	0.019997
1503.000000	0.020091
1502.000000	0.020190
1501.000000	0.020346
1500.000000	0.020551
1499.000000	0.020770
1498.000000	0.021025
1497.000000	0.021383
1496.000000	0.021790
1495.000000	0.022120
1494.000000	0.022346
1493.000000	0.022529
1492.000000	0.022720
1491.000000	0.022956
1490.000000	0.023288
1489.000000	0.023704
1488.000000	0.024103
1487.000000	0.024438
1486.000000	0.024733
1485.000000	0.025002
1484.000000	0.025242
1483.000000	0.025477
1482.000000	0.025773
1481.000000	0.026143
1480.000000	0.026505
1479.000000	0.026796
1478.000000	0.027056
1477.000000	0.027339
1476.000000	0.027623
1475.000000	0.027875
1474.000000	0.028179
1473.000000	0.028660
1472.000000	0.029242
1471.000000	0.029696
1470.000000	0.029975
1469.000000	0.030189
1468.000000	0.030401
1467.000000	0.030644
1466.000000	0.030970
1465.000000	0.031405
1464.000000	0.031838
1463.000000	0.032117
1462.000000	0.032249
1461.000000	0.032330
1460.000000	0.032416
1459.000000	0.032546
1458.000000	0.032858
1457.000000	0.033469
1456.000000	0.034103
1455.000000	0.034457
1454.000000	0.034631
1453.000000	0.034806
1452.000000	0.035035
1451.000000	0.035270
1450.000000	0.035493
1449.000000	0.035757
1448.000000	0.036079
1447.000000	0.036389
1446.000000	0.036624
1445.000000	0.036818
1444.000000	0.037025
1443.000000	0.037259
1442.000000	0.037502
1441.000000	0.037727
1440.000000	0.037898
1439.000000	0.038018
1438.000000	0.038199
1437.000000	0.038579
1436.000000	0.039062
1435.000000	0.039382
1434.000000	0.039504
1433.000000	0.039586
1432.000000	0.039728
1431.000000	0.039924
1430.000000	0.040147
1429.000000	0.040397
1428.000000	0.040642
1427.000000	0.040834
1426.000000	0.040994
1425.000000	0.041207
1424.000000	0.041479
1423.000000	0.041691
1422.000000	0.041787
1421.000000	0.041887
1420.000000	0.042157
1419.000000	0.042597
1418.000000	0.043015
1417.000000	0.043296
1416.000000	0.043487
1415.000000	0.043646
1414.000000	0.043809
1413.000000	0.044004
1412.000000	0.044234
1411.000000	0.044466
1410.000000	0.044677
1409.000000	0.044875
1408.000000	0.045064
1407.000000	0.045242
1406.000000	0.045443
1405.000000	0.045703
1404.000000	0.045958
1403.000000	0.046087
1402.000000	0.046084
1401.000000	0.046079
1400.000000	0.046179
1399.000000	0.046351
1398.000000	0.046490
1397.000000	0.046595
1396.000000	0.046762
1395.000000	0.047048
1394.000000	0.047374
1393.000000	0.047618
1392.000000	0.047725
1391.000000	0.047721
1390.000000	0.047678
1389.000000	0.047684
1388.000000	0.047785
1387.000000	0.047939
1386.000000	0.048056
1385.000000	0.048096
1384.000000	0.048080
1383.000000	0.048042
1382.000000	0.048008
1381.000000	0.047986
1380.000000	0.047961
1379.000000	0.047911
1378.000000	0.047823
1377.000000	0.047707
1376.000000	0.047598
1375.000000	0.047544
1374.000000	0.047566
1373.000000	0.047601
1372.000000	0.047551
1371.000000	0.047401
1370.000000	0.047227
1369.000000	0.047103
1368.000000	0.047022
1367.000000	0.046912
1366.000000	0.046741
1365.000000	0.046547
1364.000000	0.046389
1363.000000	0.046302
1362.000000	0.046269
1361.000000	0.046229
1360.000000	0.046129
1359.000000	0.045969
1358.000000	0.045790
1357.000000	0.045626
1356.000000	0.045471
1355.000000	0.045315
1354.000000	0.045166
1353.000000	0.045033
1352.000000	0.044895
1351.000000	0.044735
1350.000000	0.044567
1349.000000	0.044412
1348.000000	0.044264
1347.000000	0.044115
1346.000000	0.043976
1345.000000	0.043864
1344.000000	0.043756
1343.000000	0.043612
1342.000000	0.043433
1341.000000	0.043258
1340.000000	0.043120
1339.000000	0.043020
1338.000000	0.042940
1337.000000	0.042861
1336.000000	0.042756
1335.000000	0.042602
1334.000000	0.042409
1333.000000	0.042205
1332.000000	0.042007
1331.000000	0.041818
1330.000000	0.041635
1329.000000	0.041463
1328.000000	0.041300
1327.000000	0.041142
1326.000000	0.040994
1325.000000	0.040857
1324.000000	0.040718
1323.000000	0.040563
1322.000000	0.040398
1321.000000	0.040237
1320.000000	0.040089
1319.000000	0.039953
1318.000000	0.039828
1317.000000	0.039704
1316.000000	0.039556
1315.000000	0.039370
1314.000000	0.039168
1313.000000	0.038981
1312.000000	0.038813
1311.000000	0.038646
1310.000000	0.038477
1309.000000	0.038310
1308.000000	0.038140
1307.000000	0.037962
1306.000000	0.037786
1305.000000	0.037622
1304.000000	0.037463
1303.000000	0.037291
1302.000000	0.037110
1301.000000	0.036931
1300.000000	0.036747
1299.000000	0.036547
1298.000000	0.036332
1297.000000	0.036121
1296.000000	0.035914
1295.000000	0.035702
1294.000000	0.035492
1293.000000	0.035302
1292.000000	0.035133
1291.000000	0.034968
1290.000000	0.034797
1289.000000	0.034628
1288.000000	0.034462
1287.000000	0.034295
1286.000000	0.034125
1285.000000	0.033956
1284.000000	0.033784
1283.000000	0.033598
1282.000000	0.033400
1281.000000	0.033213
1280.000000	0.033052
1279.000000	0.032911
1278.000000	0.032778
1277.000000	0.032645
1276.000000	0.032510
1275.000000	0.032380
1274.000000	0.032260
1273.000000	0.032152
1272.000000	0.032045
1271.000000	0.031931
1270.000000	0.031814
1269.000000	0.031705
1268.000000	0.031602
1267.000000	0.031501
1266.000000	0.031411
1265.000000	0.031342
1264.000000	0.031286
1263.000000	0.031213
1262.000000	0.031114
1261.000000	0.031012
1260.000000	0.030937
1259.000000	0.030895
1258.000000	0.030866
1257.000000	0.030822
1256.000000	0.030752
1255.000000	0.030660
1254.000000	0.030562
1253.000000	0.030472
1252.000000	0.030386
1251.000000	0.030295
1250.000000	0.030196
1249.000000	0.030099
1248.000000	0.030013
1247.000000	0.029940
1246.000000	0.029874
1245.000000	0.029816
1244.000000	0.029770
1243.000000	0.029739
1242.000000	0.029714
1241.000000	0.029682
1240.000000	0.029627
1239.000000	0.029547
1238.000000	0.029455
1237.000000	0.029357
1236.000000	0.029251
1235.000000	0.029128
1234.000000	0.028997
1233.000000	0.028872
1232.000000	0.028762
1231.000000	0.028662
1230.000000	0.028560
1229.000000	0.028446
1228.000000	0.028316
1227.000000	0.028177
1226.000000	0.028036
1225.000000	0.027892
1224.000000	0.027735
1223.000000	0.027564
1222.000000	0.027394
1221.000000	0.027237
1220.000000	0.027089
1219.000000	0.026938
1218.000000	0.026785
1217.000000	0.026633
1216.000000	0.026481
1215.000000	0.026326
1214.000000	0.026169
1213.000000	0.026018
1212.000000	0.025876
1211.000000	0.025735
1210.000000	0.025594
1209.000000	0.025456
1208.000000	0.025331
1207.000000	0.025223
1206.000000	0.025131
1205.000000	0.025044
1204.000000	0.024949
1203.000000	0.024844
1202.000000	0.024733
1201.000000	0.024624
1200.000000	0.024515
1199.000000	0.024403
1198.000000	0.024286
1197.000000	0.024167
1196.000000	0.024052
1195.000000	0.023947
1194.000000	0.023862
1193.000000	0.023795
1192.000000	0.023737
1191.000000	0.023675
1190.000000	0.023603
1189.000000	0.023527
1188.000000	0.023460
1187.000000	0.023419
1186.000000	0.023405
1185.000000	0.023401
1184.000000	0.023392
1183.000000	0.023382
1182.000000	0.023390
1181.000000	0.023420
1180.000000	0.023457
1179.000000	0.023489
1178.000000	0.023519
1177.000000	0.023555
1176.000000	0.023590
1175.000000	0.023618
1174.000000	0.023641
1173.000000	0.023665
1172.000000	0.023693
1171.000000	0.023730
1170.000000	0.023784
1169.000000	0.023848
1168.000000	0.023902
1167.000000	0.023933
1166.000000	0.023954
1165.000000	0.023991
1164.000000	0.024052
1163.000000	0.024118
1162.000000	0.024165
1161.000000	0.024179
1160.000000	0.024161
1159.000000	0.024125
1158.000000	0.024091
1157.000000	0.024076
1156.000000	0.024074
1155.000000	0.024068
1154.000000	0.024045
1153.000000	0.023997
1152.000000	0.023917
1151.000000	0.023806
1150.000000	0.023676
1149.000000	0.023551
1148.000000	0.023438
1147.000000	0.023325
1146.000000	0.023195
1145.000000	0.023045
1144.000000	0.022889
1143.000000	0.022740
1142.000000	0.022602
1141.000000	0.022466
1140.000000	0.022328
1139.000000	0.022196
1138.000000	0.022081
1137.000000	0.021986
1136.000000	0.021903
1135.000000	0.021829
1134.000000	0.021766
1133.000000	0.021717
1132.000000	0.021681
1131.000000	0.021658
1130.000000	0.021650
1129.000000	0.021652
1128.000000	0.021651
1127.000000	0.021645
1126.000000	0.021645
1125.000000	0.021670
1124.000000	0.021725
1123.000000	0.021793
1122.000000	0.021847
1121.000000	0.021869
1120.000000	0.021860
1119.000000	0.021842
1118.000000	0.021843
1117.000000	0.021879
1116.000000	0.021950
1115.000000	0.022046
1114.000000	0.022146
1113.000000	0.022224
1112.000000	0.022265
1111.000000	0.022290
1110.000000	0.022337
1109.000000	0.022419
1108.000000	0.022505
1107.000000	0.022557
1106.000000	0.022578
1105.000000	0.022595
1104.000000	0.022620
1103.000000	0.022643
1102.000000	0.022656
1101.000000	0.022666
1100.000000	0.022683
1099.000000	0.022711
1098.000000	0.022755
1097.000000	0.022825
1096.000000	0.022921
1095.000000	0.023023
1094.000000	0.023110
1093.000000	0.023180
1092.000000	0.023246
1091.000000	0.023332
1090.000000	0.023446
1089.000000	0.023576
1088.000000	0.023688
1087.000000	0.023758
1086.000000	0.023787
1085.000000	0.023805
1084.000000	0.023840
1083.000000	0.023892
1082.000000	0.023936
1081.000000	0.023950
1080.000000	0.023941
1079.000000	0.023938
1078.000000	0.023970
1077.000000	0.024030
1076.000000	0.024090
1075.000000	0.024125
1074.000000	0.024132
1073.000000	0.024128
1072.000000	0.024129
1071.000000	0.024145
1070.000000	0.024170
1069.000000	0.024187
1068.000000	0.024181
1067.000000	0.024152
1066.000000	0.024122
1065.000000	0.024105
1064.000000	0.024097
1063.000000	0.024098
1062.000000	0.024118
1061.000000	0.024167
1060.000000	0.024231
1059.000000	0.024287
1058.000000	0.024326
1057.000000	0.024359
1056.000000	0.024397
1055.000000	0.024443
1054.000000	0.024503
1053.000000	0.024589
1052.000000	0.024709
1051.000000	0.024851
1050.000000	0.024987
1049.000000	0.025088
1048.000000	0.025156
1047.000000	0.025216
1046.000000	0.025300
1045.000000	0.025415
1044.000000	0.025550
1043.000000	0.025693
1042.000000	0.025834
1041.000000	0.025958
1040.000000	0.026057
1039.000000	0.026147
1038.000000	0.026253
1037.000000	0.026371
1036.000000	0.026468
1035.000000	0.026522
1034.000000	0.026555
1033.000000	0.026601
1032.000000	0.026663
1031.000000	0.026725
1030.000000	0.026787
1029.000000	0.026852
1028.000000	0.026905
1027.000000	0.026917
1026.000000	0.026887
1025.000000	0.026848
1024.000000	0.026832
1023.000000	0.026838
1022.000000	0.026839
1021.000000	0.026815
1020.000000	0.026768
1019.000000	0.026715
1018.000000	0.026674
1017.000000	0.026648
1016.000000	0.026624
1015.000000	0.026583
1014.000000	0.026520
1013.000000	0.026437
1012.000000	0.026345
1011.000000	0.026254
1010.000000	0.026169
1009.000000	0.026078
1008.000000	0.025967
1007.000000	0.025833
1006.000000	0.025682
1005.000000	0.025521
1004.000000	0.025352
1003.000000	0.025186
1002.000000	0.025042
1001.000000	0.024931
1000.000000	0.024841
999.000000	0.024749
998.000000	0.024634
997.000000	0.024485
996.000000	0.024305
995.000000	0.024112
994.000000	0.023934
993.000000	0.023778
992.000000	0.023634
991.000000	0.023495
990.000000	0.023360
989.000000	0.023217
988.000000	0.023049
987.000000	0.022852
986.000000	0.022650
985.000000	0.022470
984.000000	0.022312
983.000000	0.022154
982.000000	0.021988
981.000000	0.021817
980.000000	0.021638
979.000000	0.021449
978.000000	0.021256
977.000000	0.021071
976.000000	0.020897
975.000000	0.020720
974.000000	0.020524
973.000000	0.020313
972.000000	0.020102
971.000000	0.019914
970.000000	0.019759
969.000000	0.019622
968.000000	0.019467
967.000000	0.019274
966.000000	0.019058
965.000000	0.018848
964.000000	0.018658
963.000000	0.018487
962.000000	0.018338
961.000000	0.018221
960.000000	0.018126
959.000000	0.018021
958.000000	0.017874
957.000000	0.017688
956.000000	0.017498
955.000000	0.017328
954.000000	0.017174
953.000000	0.017021
952.000000	0.016866
951.000000	0.016721
950.000000	0.016585
949.000000	0.016447
948.000000	0.016309
947.000000	0.016192
946.000000	0.016102
945.000000	0.016010
944.000000	0.015881
943.000000	0.015718
942.000000	0.015556
941.000000	0.015425
940.000000	0.015321
939.000000	0.015230
938.000000	0.015143
937.000000	0.015048
936.000000	0.014935
935.000000	0.014802
934.000000	0.014662
933.000000	0.014528
932.000000	0.014398
931.000000	0.014271
930.000000	0.014149
929.000000	0.014022
928.000000	0.013875
927.000000	0.013706
926.000000	0.013541
925.000000	0.013409
924.000000	0.013311
923.000000	0.013223
922.000000	0.013118
921.000000	0.012991
920.000000	0.012856
919.000000	0.012737
918.000000	0.012639
917.000000	0.012544
916.000000	0.012423
915.000000	0.012274
914.000000	0.012121
913.000000	0.011984
912.000000	0.011858
911.000000	0.011731
910.000000	0.011596
909.000000	0.011449
908.000000	0.011285
907.000000	0.011100
906.000000	0.010902
905.000000	0.010713
904.000000	0.010545
903.000000	0.010398
902.000000	0.010252
901.000000	0.010080
900.000000	0.009870
899.000000	0.009638
898.000000	0.009419
897.000000	0.009230
896.000000	0.009067
895.000000	0.008912
894.000000	0.008748
893.000000	0.008553
892.000000	0.008326
891.000000	0.008100
890.000000	0.007948
889.000000	0.007994
888.000000	0.008428
887.000000	0.009486
886.000000	0.011323
885.000000	0.013857
884.000000	0.016786
883.000000	0.019787
882.000000	0.022740
881.000000	0.025736
880.000000	0.028910
879.000000	0.032286
878.000000	0.035771
877.000000	0.039225
876.000000	0.042532
875.000000	0.045628
874.000000	0.048484
873.000000	0.051018
872.000000	0.052999
871.000000	0.054099
870.000000	0.054073
869.000000	0.052915
868.000000	0.050862
867.000000	0.048264
866.000000	0.045460
865.000000	0.042686
864.000000	0.040069
863.000000	0.037664
862.000000	0.035481
861.000000	0.033500
860.000000	0.031693
859.000000	0.030056
858.000000	0.028602
857.000000	0.027322
856.000000	0.026174
855.000000	0.025110
854.000000	0.024103
853.000000	0.023157
852.000000	0.022363
851.000000	0.021916
850.000000	0.021982
849.000000	0.022446
848.000000	0.022870
847.000000	0.022801
846.000000	0.022142
845.000000	0.021173
844.000000	0.020232
843.000000	0.019466
842.000000	0.018859
841.000000	0.018384
840.000000	0.018036
839.000000	0.017781
838.000000	0.017549
837.000000	0.017276
836.000000	0.016946
835.000000	0.016592
834.000000	0.016274
833.000000	0.016042
832.000000	0.015894
831.000000	0.015781
830.000000	0.015654
829.000000	0.015504
828.000000	0.015332
827.000000	0.015132
826.000000	0.014904
825.000000	0.014671
824.000000	0.014459
823.000000	0.014273
822.000000	0.014113
821.000000	0.013986
820.000000	0.013878
819.000000	0.013747
818.000000	0.013570
817.000000	0.013377
816.000000	0.013216
815.000000	0.013110
814.000000	0.013044
813.000000	0.012995
812.000000	0.012941
811.000000	0.012862
810.000000	0.012761
809.000000	0.012673
808.000000	0.012632
807.000000	0.012633
806.000000	0.012635
805.000000	0.012603
804.000000	0.012534
803.000000	0.012443
802.000000	0.012350
801.000000	0.012281
800.000000	0.012258
799.000000	0.012282
798.000000	0.012321
797.000000	0.012334
796.000000	0.012292
795.000000	0.012199
794.000000	0.012086
793.000000	0.011993
792.000000	0.011949
791.000000	0.011946
790.000000	0.011956
789.000000	0.011954
788.000000	0.011936
787.000000	0.011911
786.000000	0.011889
785.000000	0.011870
784.000000	0.011842
783.000000	0.011787
782.000000	0.011708
781.000000	0.011631
780.000000	0.011589
779.000000	0.011588
778.000000	0.011601
777.000000	0.011595
776.000000	0.011550
775.000000	0.011463
774.000000	0.011352
773.000000	0.011238
772.000000	0.011149
771.000000	0.011103
770.000000	0.011100
769.000000	0.011119
768.000000	0.011122
767.000000	0.011087
766.000000	0.011028
765.000000	0.010983
764.000000	0.010973
763.000000	0.010974
762.000000	0.010946
761.000000	0.010876
760.000000	0.010784
759.000000	0.010693
758.000000	0.010607
757.000000	0.010523
756.000000	0.010453
755.000000	0.010411
754.000000	0.010396
753.000000	0.010393
752.000000	0.010386
751.000000	0.010375
750.000000	0.010363
749.000000	0.010357
748.000000	0.010353
747.000000	0.010332
746.000000	0.010269
745.000000	0.010165
744.000000	0.010053
743.000000	0.009978
742.000000	0.009945
741.000000	0.009924
740.000000	0.009885
739.000000	0.009821
738.000000	0.009735
737.000000	0.009623
736.000000	0.009491
735.000000	0.009378
734.000000	0.009323
733.000000	0.009322
732.000000	0.009330
731.000000	0.009300
730.000000	0.009221
729.000000	0.009109
728.000000	0.008982
727.000000	0.008858
726.000000	0.008754
725.000000	0.008682
724.000000	0.008636
723.000000	0.008601
722.000000	0.008588
721.000000	0.008652
720.000000	0.008873
719.000000	0.009347
718.000000	0.010227
717.000000	0.011826
716.000000	0.014586
715.000000	0.018750
714.000000	0.023874
713.000000	0.028669
712.000000	0.031581
711.000000	0.031799
710.000000	0.029762
709.000000	0.026687
708.000000	0.023696
707.000000	0.021320
706.000000	0.019588
705.000000	0.018347
704.000000	0.017447
703.000000	0.016781
702.000000	0.016279
701.000000	0.015892
700.000000	0.015570
699.000000	0.015264
698.000000	0.014969
697.000000	0.014720
696.000000	0.014525
695.000000	0.014340
694.000000	0.014114
693.000000	0.013857
692.000000	0.013636
691.000000	0.013498
690.000000	0.013435
689.000000	0.013392
688.000000	0.013306
687.000000	0.013143
686.000000	0.012924
685.000000	0.012706
684.000000	0.012531
683.000000	0.012389
682.000000	0.012248
681.000000	0.012113
680.000000	0.012046
679.000000	0.012094
678.000000	0.012222
677.000000	0.012346
676.000000	0.012410
675.000000	0.012413
674.000000	0.012368
673.000000	0.012265
672.000000	0.012091
671.000000	0.011866
670.000000	0.011663
669.000000	0.011584
668.000000	0.011750
667.000000	0.012079
666.000000	0.012191
665.000000	0.012091
664.000000	0.011975
663.000000	0.011884
662.000000	0.011781
661.000000	0.011664
660.000000	0.011584
659.000000	0.011572
658.000000	0.011595
657.000000	0.011614
656.000000	0.011615
655.000000	0.011603
654.000000	0.011594
653.000000	0.011594
652.000000	0.011564
651.000000	0.011455
650.000000	0.011297
649.000000	0.011201
648.000000	0.011236
647.000000	0.011349
646.000000	0.011443
645.000000	0.011482
644.000000	0.011487
643.000000	0.011471
642.000000	0.011438
641.000000	0.011407
640.000000	0.011411
639.000000	0.011455
638.000000	0.011515
637.000000	0.011564
636.000000	0.011581
635.000000	0.011564
634.000000	0.011535
633.000000	0.011508
632.000000	0.011468
631.000000	0.011405
630.000000	0.011367
629.000000	0.011408
628.000000	0.011490
627.000000	0.011493
626.000000	0.011371
625.000000	0.011217
624.000000	0.011143
623.000000	0.011152
622.000000	0.011185
621.000000	0.011217
620.000000	0.011262
619.000000	0.011326
618.000000	0.011408
617.000000	0.011522
616.000000	0.011662
615.000000	0.011782
614.000000	0.011847
613.000000	0.011881
612.000000	0.011908
611.000000	0.011891
610.000000	0.011791
609.000000	0.011651
608.000000	0.011555
607.000000	0.011525
606.000000	0.011517
605.000000	0.011512
604.000000	0.011543
603.000000	0.011619
602.000000	0.011697
601.000000	0.011726
600.000000	0.011687
599.000000	0.011595
598.000000	0.011485
597.000000	0.011397
596.000000	0.011351
595.000000	0.011327
594.000000	0.011296
593.000000	0.011260
592.000000	0.011230
591.000000	0.011194
590.000000	0.011142
589.000000	0.011094
588.000000	0.011069
587.000000	0.011047
586.000000	0.011011
585.000000	0.010998
584.000000	0.011056
583.000000	0.011162
582.000000	0.011245
581.000000	0.011261
580.000000	0.011212
579.000000	0.011116
578.000000	0.011028
577.000000	0.011058
576.000000	0.011257
575.000000	0.011519
574.000000	0.011655
573.000000	0.011598
572.000000	0.011433
571.000000	0.011268
570.000000	0.011150
569.000000	0.011092
568.000000	0.011096
567.000000	0.011121
566.000000	0.011108
565.000000	0.011057
564.000000	0.011008
563.000000	0.010960
562.000000	0.010869
561.000000	0.010743
560.000000	0.010655
559.000000	0.010642
558.000000	0.010664
557.000000	0.010675
556.000000	0.010688
555.000000	0.010718
554.000000	0.010739
553.000000	0.010725
552.000000	0.010685
551.000000	0.010644
550.000000	0.010615
549.000000	0.010614
548.000000	0.010650
547.000000	0.010697
546.000000	0.010707
545.000000	0.010686
544.000000	0.010688
543.000000	0.010731
542.000000	0.010766
541.000000	0.010746
540.000000	0.010688
539.000000	0.010648
538.000000	0.010686
537.000000	0.010848
536.000000	0.011124
535.000000	0.011400
534.000000	0.011512
533.000000	0.011393
532.000000	0.011131
531.000000	0.010892
530.000000	0.010787
529.000000	0.010811
528.000000	0.010896
527.000000	0.010986
526.000000	0.011094
525.000000	0.011291
524.000000	0.011573
523.000000	0.011811
522.000000	0.011872
521.000000	0.011748
520.000000	0.011536
519.000000	0.011299
518.000000	0.011042
517.000000	0.010814
516.000000	0.010732
515.000000	0.010850
514.000000	0.011091
513.000000	0.011326
512.000000	0.011441
511.000000	0.011347
510.000000	0.011015
509.000000	0.010546
508.000000	0.010154
507.000000	0.010021
506.000000	0.010139
505.000000	0.010335
504.000000	0.010432
503.000000	0.010352
502.000000	0.010135
501.000000	0.009890
500.000000	0.009699
499.000000	0.009568
498.000000	0.009497
497.000000	0.009522
496.000000	0.009634
495.000000	0.009700
494.000000	0.009556
493.000000	0.009197
492.000000	0.008832
491.000000	0.008690
490.000000	0.008827
489.000000	0.009130
488.000000	0.009457
487.000000	0.009726
486.000000	0.009926
485.000000	0.010088
484.000000	0.010227
483.000000	0.010324
482.000000	0.010372
481.000000	0.010415
480.000000	0.010469
479.000000	0.010462
478.000000	0.010336
477.000000	0.010197
476.000000	0.010238
475.000000	0.010539
474.000000	0.011037
473.000000	0.011645
472.000000	0.012286
471.000000	0.012825
470.000000	0.013110
469.000000	0.013104
468.000000	0.012852
467.000000	0.012405
466.000000	0.011845
465.000000	0.011310
464.000000	0.010904
463.000000	0.010633
462.000000	0.010485
461.000000	0.010516
460.000000	0.010745
459.000000	0.011004
458.000000	0.011026
457.000000	0.010728
456.000000	0.010270
455.000000	0.009785
454.000000	0.009340
453.000000	0.009059
452.000000	0.009009
451.000000	0.008976
450.000000	0.008724
