PE IR       SUBTECH     SPECTRUM    ASCII       PEDS        4.00        
   -1
P8-Or007_1.ASC
23/06/13
15:12:47.00
23/06/13
16:11:22.00
uco
Sample 007 By uco Date Tuesday, June 13 2023
450.000000
#HDR
-1
-1
#GR
cm-1
A
1.0
0.0
4000.000000
-1.000000
3551
8
0.056992
0.010050
#DATA
4000.000000	0.010861
3999.000000	0.010883
3998.000000	0.010913
3997.000000	0.010939
3996.000000	0.010958
3995.000000	0.010972
3994.000000	0.010988
3993.000000	0.011003
3992.000000	0.011010
3991.000000	0.010998
3990.000000	0.010973
3989.000000	0.010947
3988.000000	0.010933
3987.000000	0.010936
3986.000000	0.010946
3985.000000	0.010952
3984.000000	0.010949
3983.000000	0.010940
3982.000000	0.010936
3981.000000	0.010949
3980.000000	0.010980
3979.000000	0.011016
3978.000000	0.011040
3977.000000	0.011040
3976.000000	0.011018
3975.000000	0.010987
3974.000000	0.010968
3973.000000	0.010971
3972.000000	0.010993
3971.000000	0.011019
3970.000000	0.011035
3969.000000	0.011036
3968.000000	0.011026
3967.000000	0.011018
3966.000000	0.011019
3965.000000	0.011024
3964.000000	0.011027
3963.000000	0.011020
3962.000000	0.011009
3961.000000	0.011000
3960.000000	0.010996
3959.000000	0.010997
3958.000000	0.010996
3957.000000	0.010988
3956.000000	0.010974
3955.000000	0.010959
3954.000000	0.010956
3953.000000	0.010970
3952.000000	0.010999
3951.000000	0.011032
3950.000000	0.011056
3949.000000	0.011064
3948.000000	0.011060
3947.000000	0.011052
3946.000000	0.011045
3945.000000	0.011037
3944.000000	0.011026
3943.000000	0.011014
3942.000000	0.011005
3941.000000	0.010995
3940.000000	0.010979
3939.000000	0.010957
3938.000000	0.010944
3937.000000	0.010951
3936.000000	0.010980
3935.000000	0.011016
3934.000000	0.011043
3933.000000	0.011044
3932.000000	0.011020
3931.000000	0.010986
3930.000000	0.010960
3929.000000	0.010953
3928.000000	0.010961
3927.000000	0.010974
3926.000000	0.010983
3925.000000	0.010990
3924.000000	0.011001
3923.000000	0.011017
3922.000000	0.011030
3921.000000	0.011035
3920.000000	0.011030
3919.000000	0.011020
3918.000000	0.011009
3917.000000	0.011001
3916.000000	0.010996
3915.000000	0.010996
3914.000000	0.010997
3913.000000	0.010998
3912.000000	0.010998
3911.000000	0.011000
3910.000000	0.011005
3909.000000	0.011015
3908.000000	0.011034
3907.000000	0.011061
3906.000000	0.011088
3905.000000	0.011108
3904.000000	0.011116
3903.000000	0.011115
3902.000000	0.011101
3901.000000	0.011065
3900.000000	0.011016
3899.000000	0.010974
3898.000000	0.010962
3897.000000	0.010980
3896.000000	0.011017
3895.000000	0.011061
3894.000000	0.011102
3893.000000	0.011126
3892.000000	0.011129
3891.000000	0.011126
3890.000000	0.011136
3889.000000	0.011155
3888.000000	0.011163
3887.000000	0.011143
3886.000000	0.011100
3885.000000	0.011056
3884.000000	0.011032
3883.000000	0.011022
3882.000000	0.011010
3881.000000	0.010992
3880.000000	0.010983
3879.000000	0.011001
3878.000000	0.011043
3877.000000	0.011085
3876.000000	0.011110
3875.000000	0.011121
3874.000000	0.011137
3873.000000	0.011169
3872.000000	0.011202
3871.000000	0.011209
3870.000000	0.011185
3869.000000	0.011149
3868.000000	0.011119
3867.000000	0.011098
3866.000000	0.011083
3865.000000	0.011074
3864.000000	0.011064
3863.000000	0.011052
3862.000000	0.011042
3861.000000	0.011045
3860.000000	0.011066
3859.000000	0.011097
3858.000000	0.011127
3857.000000	0.011148
3856.000000	0.011157
3855.000000	0.011157
3854.000000	0.011157
3853.000000	0.011164
3852.000000	0.011172
3851.000000	0.011165
3850.000000	0.011146
3849.000000	0.011129
3848.000000	0.011123
3847.000000	0.011123
3846.000000	0.011125
3845.000000	0.011123
3844.000000	0.011119
3843.000000	0.011119
3842.000000	0.011128
3841.000000	0.011143
3840.000000	0.011154
3839.000000	0.011159
3838.000000	0.011163
3837.000000	0.011169
3836.000000	0.011172
3835.000000	0.011165
3834.000000	0.011138
3833.000000	0.011097
3832.000000	0.011054
3831.000000	0.011030
3830.000000	0.011029
3829.000000	0.011037
3828.000000	0.011041
3827.000000	0.011044
3826.000000	0.011060
3825.000000	0.011094
3824.000000	0.011132
3823.000000	0.011148
3822.000000	0.011128
3821.000000	0.011087
3820.000000	0.011066
3819.000000	0.011073
3818.000000	0.011087
3817.000000	0.011090
3816.000000	0.011085
3815.000000	0.011086
3814.000000	0.011093
3813.000000	0.011092
3812.000000	0.011086
3811.000000	0.011087
3810.000000	0.011099
3809.000000	0.011114
3808.000000	0.011122
3807.000000	0.011128
3806.000000	0.011148
3805.000000	0.011175
3804.000000	0.011186
3803.000000	0.011158
3802.000000	0.011096
3801.000000	0.011040
3800.000000	0.011023
3799.000000	0.011034
3798.000000	0.011047
3797.000000	0.011054
3796.000000	0.011060
3795.000000	0.011072
3794.000000	0.011081
3793.000000	0.011076
3792.000000	0.011055
3791.000000	0.011030
3790.000000	0.011018
3789.000000	0.011025
3788.000000	0.011048
3787.000000	0.011075
3786.000000	0.011096
3785.000000	0.011105
3784.000000	0.011106
3783.000000	0.011106
3782.000000	0.011105
3781.000000	0.011101
3780.000000	0.011089
3779.000000	0.011071
3778.000000	0.011052
3777.000000	0.011033
3776.000000	0.011015
3775.000000	0.011004
3774.000000	0.011008
3773.000000	0.011026
3772.000000	0.011049
3771.000000	0.011066
3770.000000	0.011073
3769.000000	0.011070
3768.000000	0.011055
3767.000000	0.011030
3766.000000	0.011005
3765.000000	0.010994
3764.000000	0.011003
3763.000000	0.011021
3762.000000	0.011028
3761.000000	0.011016
3760.000000	0.010991
3759.000000	0.010970
3758.000000	0.010964
3757.000000	0.010976
3756.000000	0.011003
3755.000000	0.011041
3754.000000	0.011082
3753.000000	0.011118
3752.000000	0.011136
3751.000000	0.011132
3750.000000	0.011119
3749.000000	0.011118
3748.000000	0.011135
3747.000000	0.011168
3746.000000	0.011210
3745.000000	0.011248
3744.000000	0.011271
3743.000000	0.011266
3742.000000	0.011226
3741.000000	0.011160
3740.000000	0.011094
3739.000000	0.011047
3738.000000	0.011020
3737.000000	0.011006
3736.000000	0.011001
3735.000000	0.011005
3734.000000	0.011017
3733.000000	0.011031
3732.000000	0.011039
3731.000000	0.011044
3730.000000	0.011047
3729.000000	0.011048
3728.000000	0.011044
3727.000000	0.011034
3726.000000	0.011016
3725.000000	0.010995
3724.000000	0.010977
3723.000000	0.010973
3722.000000	0.010985
3721.000000	0.011002
3720.000000	0.011010
3719.000000	0.011004
3718.000000	0.010992
3717.000000	0.010984
3716.000000	0.010985
3715.000000	0.010997
3714.000000	0.011020
3713.000000	0.011056
3712.000000	0.011091
3711.000000	0.011111
3710.000000	0.011105
3709.000000	0.011074
3708.000000	0.011034
3707.000000	0.011003
3706.000000	0.010992
3705.000000	0.010986
3704.000000	0.010963
3703.000000	0.010913
3702.000000	0.010853
3701.000000	0.010815
3700.000000	0.010817
3699.000000	0.010848
3698.000000	0.010887
3697.000000	0.010920
3696.000000	0.010951
3695.000000	0.010988
3694.000000	0.011031
3693.000000	0.011066
3692.000000	0.011075
3691.000000	0.011045
3690.000000	0.010987
3689.000000	0.010937
3688.000000	0.010930
3687.000000	0.010964
3686.000000	0.011005
3685.000000	0.011024
3684.000000	0.011021
3683.000000	0.011013
3682.000000	0.011009
3681.000000	0.011007
3680.000000	0.011003
3679.000000	0.010998
3678.000000	0.010991
3677.000000	0.010977
3676.000000	0.010958
3675.000000	0.010962
3674.000000	0.011005
3673.000000	0.011053
3672.000000	0.011075
3671.000000	0.011062
3670.000000	0.011024
3669.000000	0.010990
3668.000000	0.010982
3667.000000	0.010995
3666.000000	0.011019
3665.000000	0.011040
3664.000000	0.011050
3663.000000	0.011048
3662.000000	0.011040
3661.000000	0.011034
3660.000000	0.011037
3659.000000	0.011052
3658.000000	0.011076
3657.000000	0.011106
3656.000000	0.011143
3655.000000	0.011183
3654.000000	0.011213
3653.000000	0.011225
3652.000000	0.011226
3651.000000	0.011231
3650.000000	0.011238
3649.000000	0.011232
3648.000000	0.011207
3647.000000	0.011181
3646.000000	0.011170
3645.000000	0.011175
3644.000000	0.011192
3643.000000	0.011218
3642.000000	0.011246
3641.000000	0.011267
3640.000000	0.011275
3639.000000	0.011271
3638.000000	0.011265
3637.000000	0.011262
3636.000000	0.011266
3635.000000	0.011278
3634.000000	0.011300
3633.000000	0.011325
3632.000000	0.011344
3631.000000	0.011351
3630.000000	0.011355
3629.000000	0.011372
3628.000000	0.011408
3627.000000	0.011443
3626.000000	0.011449
3625.000000	0.011425
3624.000000	0.011387
3623.000000	0.011349
3622.000000	0.011311
3621.000000	0.011275
3620.000000	0.011251
3619.000000	0.011262
3618.000000	0.011314
3617.000000	0.011391
3616.000000	0.011467
3615.000000	0.011534
3614.000000	0.011584
3613.000000	0.011613
3612.000000	0.011616
3611.000000	0.011601
3610.000000	0.011576
3609.000000	0.011548
3608.000000	0.011522
3607.000000	0.011503
3606.000000	0.011491
3605.000000	0.011485
3604.000000	0.011487
3603.000000	0.011503
3602.000000	0.011535
3601.000000	0.011574
3600.000000	0.011611
3599.000000	0.011641
3598.000000	0.011663
3597.000000	0.011674
3596.000000	0.011676
3595.000000	0.011680
3594.000000	0.011690
3593.000000	0.011703
3592.000000	0.011710
3591.000000	0.011710
3590.000000	0.011707
3589.000000	0.011703
3588.000000	0.011704
3587.000000	0.011721
3586.000000	0.011755
3585.000000	0.011790
3584.000000	0.011813
3583.000000	0.011829
3582.000000	0.011848
3581.000000	0.011872
3580.000000	0.011897
3579.000000	0.011918
3578.000000	0.011936
3577.000000	0.011949
3576.000000	0.011952
3575.000000	0.011944
3574.000000	0.011927
3573.000000	0.011911
3572.000000	0.011906
3571.000000	0.011921
3570.000000	0.011953
3569.000000	0.011996
3568.000000	0.012035
3567.000000	0.012068
3566.000000	0.012098
3565.000000	0.012124
3564.000000	0.012137
3563.000000	0.012134
3562.000000	0.012121
3561.000000	0.012115
3560.000000	0.012126
3559.000000	0.012157
3558.000000	0.012200
3557.000000	0.012241
3556.000000	0.012268
3555.000000	0.012280
3554.000000	0.012282
3553.000000	0.012283
3552.000000	0.012296
3551.000000	0.012326
3550.000000	0.012363
3549.000000	0.012389
3548.000000	0.012396
3547.000000	0.012395
3546.000000	0.012398
3545.000000	0.012411
3544.000000	0.012432
3543.000000	0.012457
3542.000000	0.012479
3541.000000	0.012491
3540.000000	0.012496
3539.000000	0.012506
3538.000000	0.012530
3537.000000	0.012572
3536.000000	0.012623
3535.000000	0.012670
3534.000000	0.012698
3533.000000	0.012702
3532.000000	0.012696
3531.000000	0.012694
3530.000000	0.012702
3529.000000	0.012707
3528.000000	0.012698
3527.000000	0.012680
3526.000000	0.012671
3525.000000	0.012678
3524.000000	0.012697
3523.000000	0.012725
3522.000000	0.012761
3521.000000	0.012805
3520.000000	0.012848
3519.000000	0.012878
3518.000000	0.012889
3517.000000	0.012890
3516.000000	0.012892
3515.000000	0.012898
3514.000000	0.012902
3513.000000	0.012894
3512.000000	0.012877
3511.000000	0.012866
3510.000000	0.012867
3509.000000	0.012878
3508.000000	0.012891
3507.000000	0.012906
3506.000000	0.012926
3505.000000	0.012952
3504.000000	0.012985
3503.000000	0.013023
3502.000000	0.013057
3501.000000	0.013077
3500.000000	0.013083
3499.000000	0.013086
3498.000000	0.013096
3497.000000	0.013112
3496.000000	0.013131
3495.000000	0.013150
3494.000000	0.013166
3493.000000	0.013174
3492.000000	0.013175
3491.000000	0.013175
3490.000000	0.013182
3489.000000	0.013191
3488.000000	0.013195
3487.000000	0.013196
3486.000000	0.013198
3485.000000	0.013204
3484.000000	0.013215
3483.000000	0.013233
3482.000000	0.013257
3481.000000	0.013281
3480.000000	0.013296
3479.000000	0.013302
3478.000000	0.013306
3477.000000	0.013315
3476.000000	0.013333
3475.000000	0.013364
3474.000000	0.013407
3473.000000	0.013453
3472.000000	0.013487
3471.000000	0.013502
3470.000000	0.013495
3469.000000	0.013472
3468.000000	0.013450
3467.000000	0.013448
3466.000000	0.013472
3465.000000	0.013514
3464.000000	0.013555
3463.000000	0.013583
3462.000000	0.013596
3461.000000	0.013604
3460.000000	0.013616
3459.000000	0.013641
3458.000000	0.013682
3457.000000	0.013726
3456.000000	0.013758
3455.000000	0.013770
3454.000000	0.013763
3453.000000	0.013748
3452.000000	0.013736
3451.000000	0.013731
3450.000000	0.013732
3449.000000	0.013729
3448.000000	0.013725
3447.000000	0.013730
3446.000000	0.013750
3445.000000	0.013780
3444.000000	0.013808
3443.000000	0.013831
3442.000000	0.013857
3441.000000	0.013888
3440.000000	0.013924
3439.000000	0.013958
3438.000000	0.013986
3437.000000	0.014001
3436.000000	0.014005
3435.000000	0.014004
3434.000000	0.014005
3433.000000	0.014013
3432.000000	0.014030
3431.000000	0.014054
3430.000000	0.014081
3429.000000	0.014102
3428.000000	0.014111
3427.000000	0.014111
3426.000000	0.014110
3425.000000	0.014118
3424.000000	0.014140
3423.000000	0.014174
3422.000000	0.014210
3421.000000	0.014235
3420.000000	0.014248
3419.000000	0.014256
3418.000000	0.014266
3417.000000	0.014279
3416.000000	0.014291
3415.000000	0.014302
3414.000000	0.014310
3413.000000	0.014313
3412.000000	0.014315
3411.000000	0.014326
3410.000000	0.014348
3409.000000	0.014380
3408.000000	0.014413
3407.000000	0.014437
3406.000000	0.014444
3405.000000	0.014433
3404.000000	0.014416
3403.000000	0.014405
3402.000000	0.014408
3401.000000	0.014420
3400.000000	0.014437
3399.000000	0.014455
3398.000000	0.014470
3397.000000	0.014478
3396.000000	0.014480
3395.000000	0.014485
3394.000000	0.014502
3393.000000	0.014527
3392.000000	0.014555
3391.000000	0.014578
3390.000000	0.014593
3389.000000	0.014603
3388.000000	0.014613
3387.000000	0.014629
3386.000000	0.014650
3385.000000	0.014666
3384.000000	0.014669
3383.000000	0.014663
3382.000000	0.014661
3381.000000	0.014668
3380.000000	0.014685
3379.000000	0.014708
3378.000000	0.014731
3377.000000	0.014750
3376.000000	0.014767
3375.000000	0.014785
3374.000000	0.014804
3373.000000	0.014816
3372.000000	0.014820
3371.000000	0.014823
3370.000000	0.014828
3369.000000	0.014834
3368.000000	0.014835
3367.000000	0.014838
3366.000000	0.014849
3365.000000	0.014868
3364.000000	0.014887
3363.000000	0.014900
3362.000000	0.014913
3361.000000	0.014931
3360.000000	0.014953
3359.000000	0.014975
3358.000000	0.014997
3357.000000	0.015020
3356.000000	0.015044
3355.000000	0.015065
3354.000000	0.015073
3353.000000	0.015064
3352.000000	0.015046
3351.000000	0.015042
3350.000000	0.015066
3349.000000	0.015110
3348.000000	0.015153
3347.000000	0.015173
3346.000000	0.015166
3345.000000	0.015147
3344.000000	0.015136
3343.000000	0.015146
3342.000000	0.015172
3341.000000	0.015198
3340.000000	0.015214
3339.000000	0.015219
3338.000000	0.015221
3337.000000	0.015225
3336.000000	0.015236
3335.000000	0.015257
3334.000000	0.015284
3333.000000	0.015308
3332.000000	0.015324
3331.000000	0.015339
3330.000000	0.015356
3329.000000	0.015372
3328.000000	0.015374
3327.000000	0.015361
3326.000000	0.015347
3325.000000	0.015352
3324.000000	0.015386
3323.000000	0.015441
3322.000000	0.015497
3321.000000	0.015537
3320.000000	0.015555
3319.000000	0.015558
3318.000000	0.015555
3317.000000	0.015550
3316.000000	0.015540
3315.000000	0.015523
3314.000000	0.015503
3313.000000	0.015487
3312.000000	0.015479
3311.000000	0.015480
3310.000000	0.015486
3309.000000	0.015500
3308.000000	0.015527
3307.000000	0.015569
3306.000000	0.015615
3305.000000	0.015652
3304.000000	0.015677
3303.000000	0.015694
3302.000000	0.015703
3301.000000	0.015702
3300.000000	0.015695
3299.000000	0.015694
3298.000000	0.015707
3297.000000	0.015729
3296.000000	0.015748
3295.000000	0.015758
3294.000000	0.015761
3293.000000	0.015768
3292.000000	0.015789
3291.000000	0.015821
3290.000000	0.015847
3289.000000	0.015851
3288.000000	0.015834
3287.000000	0.015810
3286.000000	0.015792
3285.000000	0.015782
3284.000000	0.015774
3283.000000	0.015769
3282.000000	0.015771
3281.000000	0.015783
3280.000000	0.015804
3279.000000	0.015830
3278.000000	0.015858
3277.000000	0.015881
3276.000000	0.015890
3275.000000	0.015880
3274.000000	0.015849
3273.000000	0.015805
3272.000000	0.015767
3271.000000	0.015754
3270.000000	0.015764
3269.000000	0.015779
3268.000000	0.015782
3267.000000	0.015772
3266.000000	0.015767
3265.000000	0.015775
3264.000000	0.015793
3263.000000	0.015806
3262.000000	0.015805
3261.000000	0.015786
3260.000000	0.015758
3259.000000	0.015732
3258.000000	0.015717
3257.000000	0.015710
3256.000000	0.015705
3255.000000	0.015693
3254.000000	0.015675
3253.000000	0.015653
3252.000000	0.015640
3251.000000	0.015641
3250.000000	0.015649
3249.000000	0.015644
3248.000000	0.015615
3247.000000	0.015574
3246.000000	0.015541
3245.000000	0.015531
3244.000000	0.015541
3243.000000	0.015556
3242.000000	0.015555
3241.000000	0.015526
3240.000000	0.015474
3239.000000	0.015418
3238.000000	0.015377
3237.000000	0.015353
3236.000000	0.015340
3235.000000	0.015328
3234.000000	0.015319
3233.000000	0.015318
3232.000000	0.015332
3231.000000	0.015358
3230.000000	0.015386
3229.000000	0.015400
3228.000000	0.015399
3227.000000	0.015391
3226.000000	0.015387
3225.000000	0.015386
3224.000000	0.015380
3223.000000	0.015359
3222.000000	0.015329
3221.000000	0.015301
3220.000000	0.015294
3219.000000	0.015313
3218.000000	0.015345
3217.000000	0.015364
3216.000000	0.015360
3215.000000	0.015346
3214.000000	0.015337
3213.000000	0.015338
3212.000000	0.015339
3211.000000	0.015333
3210.000000	0.015320
3209.000000	0.015298
3208.000000	0.015269
3207.000000	0.015238
3206.000000	0.015213
3205.000000	0.015201
3204.000000	0.015206
3203.000000	0.015225
3202.000000	0.015251
3201.000000	0.015266
3200.000000	0.015261
3199.000000	0.015236
3198.000000	0.015201
3197.000000	0.015165
3196.000000	0.015130
3195.000000	0.015098
3194.000000	0.015075
3193.000000	0.015061
3192.000000	0.015053
3191.000000	0.015046
3190.000000	0.015040
3189.000000	0.015034
3188.000000	0.015028
3187.000000	0.015020
3186.000000	0.015006
3185.000000	0.014979
3184.000000	0.014943
3183.000000	0.014911
3182.000000	0.014895
3181.000000	0.014895
3180.000000	0.014903
3179.000000	0.014910
3178.000000	0.014916
3177.000000	0.014926
3176.000000	0.014941
3175.000000	0.014954
3174.000000	0.014951
3173.000000	0.014928
3172.000000	0.014891
3171.000000	0.014852
3170.000000	0.014819
3169.000000	0.014794
3168.000000	0.014774
3167.000000	0.014761
3166.000000	0.014755
3165.000000	0.014749
3164.000000	0.014736
3163.000000	0.014716
3162.000000	0.014695
3161.000000	0.014680
3160.000000	0.014676
3159.000000	0.014682
3158.000000	0.014688
3157.000000	0.014687
3156.000000	0.014678
3155.000000	0.014665
3154.000000	0.014648
3153.000000	0.014619
3152.000000	0.014574
3151.000000	0.014523
3150.000000	0.014478
3149.000000	0.014450
3148.000000	0.014443
3147.000000	0.014457
3146.000000	0.014481
3145.000000	0.014498
3144.000000	0.014499
3143.000000	0.014486
3142.000000	0.014465
3141.000000	0.014437
3140.000000	0.014399
3139.000000	0.014364
3138.000000	0.014352
3137.000000	0.014371
3136.000000	0.014414
3135.000000	0.014457
3134.000000	0.014482
3133.000000	0.014481
3132.000000	0.014457
3131.000000	0.014422
3130.000000	0.014387
3129.000000	0.014356
3128.000000	0.014327
3127.000000	0.014303
3126.000000	0.014289
3125.000000	0.014288
3124.000000	0.014299
3123.000000	0.014318
3122.000000	0.014334
3121.000000	0.014339
3120.000000	0.014327
3119.000000	0.014305
3118.000000	0.014282
3117.000000	0.014267
3116.000000	0.014263
3115.000000	0.014268
3114.000000	0.014273
3113.000000	0.014270
3112.000000	0.014264
3111.000000	0.014264
3110.000000	0.014276
3109.000000	0.014291
3108.000000	0.014299
3107.000000	0.014300
3106.000000	0.014300
3105.000000	0.014299
3104.000000	0.014290
3103.000000	0.014268
3102.000000	0.014241
3101.000000	0.014221
3100.000000	0.014214
3099.000000	0.014223
3098.000000	0.014238
3097.000000	0.014248
3096.000000	0.014240
3095.000000	0.014217
3094.000000	0.014192
3093.000000	0.014175
3092.000000	0.014173
3091.000000	0.014187
3090.000000	0.014215
3089.000000	0.014242
3088.000000	0.014253
3087.000000	0.014244
3086.000000	0.014226
3085.000000	0.014221
3084.000000	0.014240
3083.000000	0.014277
3082.000000	0.014312
3081.000000	0.014323
3080.000000	0.014303
3079.000000	0.014263
3078.000000	0.014226
3077.000000	0.014209
3076.000000	0.014211
3075.000000	0.014225
3074.000000	0.014240
3073.000000	0.014251
3072.000000	0.014254
3071.000000	0.014249
3070.000000	0.014239
3069.000000	0.014233
3068.000000	0.014237
3067.000000	0.014250
3066.000000	0.014267
3065.000000	0.014279
3064.000000	0.014278
3063.000000	0.014262
3062.000000	0.014239
3061.000000	0.014215
3060.000000	0.014193
3059.000000	0.014172
3058.000000	0.014147
3057.000000	0.014120
3056.000000	0.014094
3055.000000	0.014076
3054.000000	0.014068
3053.000000	0.014067
3052.000000	0.014063
3051.000000	0.014055
3050.000000	0.014045
3049.000000	0.014038
3048.000000	0.014032
3047.000000	0.014020
3046.000000	0.014002
3045.000000	0.013989
3044.000000	0.013992
3043.000000	0.014011
3042.000000	0.014029
3041.000000	0.014028
3040.000000	0.014004
3039.000000	0.013976
3038.000000	0.013966
3037.000000	0.013981
3036.000000	0.014010
3035.000000	0.014035
3034.000000	0.014045
3033.000000	0.014039
3032.000000	0.014020
3031.000000	0.013990
3030.000000	0.013956
3029.000000	0.013928
3028.000000	0.013912
3027.000000	0.013905
3026.000000	0.013902
3025.000000	0.013901
3024.000000	0.013905
3023.000000	0.013913
3022.000000	0.013919
3021.000000	0.013922
3020.000000	0.013920
3019.000000	0.013912
3018.000000	0.013894
3017.000000	0.013865
3016.000000	0.013836
3015.000000	0.013822
3014.000000	0.013825
3013.000000	0.013836
3012.000000	0.013836
3011.000000	0.013819
3010.000000	0.013797
3009.000000	0.013789
3008.000000	0.013799
3007.000000	0.013814
3006.000000	0.013814
3005.000000	0.013796
3004.000000	0.013768
3003.000000	0.013747
3002.000000	0.013742
3001.000000	0.013752
3000.000000	0.013769
2999.000000	0.013781
2998.000000	0.013786
2997.000000	0.013787
2996.000000	0.013790
2995.000000	0.013795
2994.000000	0.013802
2993.000000	0.013818
2992.000000	0.013850
2991.000000	0.013899
2990.000000	0.013954
2989.000000	0.013999
2988.000000	0.014027
2987.000000	0.014039
2986.000000	0.014041
2985.000000	0.014043
2984.000000	0.014055
2983.000000	0.014077
2982.000000	0.014099
2981.000000	0.014109
2980.000000	0.014109
2979.000000	0.014113
2978.000000	0.014134
2977.000000	0.014171
2976.000000	0.014208
2975.000000	0.014235
2974.000000	0.014251
2973.000000	0.014266
2972.000000	0.014287
2971.000000	0.014314
2970.000000	0.014344
2969.000000	0.014376
2968.000000	0.014414
2967.000000	0.014457
2966.000000	0.014502
2965.000000	0.014545
2964.000000	0.014587
2963.000000	0.014626
2962.000000	0.014659
2961.000000	0.014683
2960.000000	0.014701
2959.000000	0.014717
2958.000000	0.014734
2957.000000	0.014749
2956.000000	0.014762
2955.000000	0.014766
2954.000000	0.014754
2953.000000	0.014728
2952.000000	0.014701
2951.000000	0.014689
2950.000000	0.014691
2949.000000	0.014694
2948.000000	0.014692
2947.000000	0.014698
2946.000000	0.014729
2945.000000	0.014786
2944.000000	0.014853
2943.000000	0.014907
2942.000000	0.014934
2941.000000	0.014942
2940.000000	0.014943
2939.000000	0.014952
2938.000000	0.014971
2937.000000	0.014999
2936.000000	0.015031
2935.000000	0.015064
2934.000000	0.015098
2933.000000	0.015131
2932.000000	0.015166
2931.000000	0.015204
2930.000000	0.015245
2929.000000	0.015285
2928.000000	0.015322
2927.000000	0.015357
2926.000000	0.015393
2925.000000	0.015433
2924.000000	0.015474
2923.000000	0.015509
2922.000000	0.015525
2921.000000	0.015520
2920.000000	0.015508
2919.000000	0.015503
2918.000000	0.015501
2917.000000	0.015483
2916.000000	0.015438
2915.000000	0.015373
2914.000000	0.015300
2913.000000	0.015226
2912.000000	0.015152
2911.000000	0.015088
2910.000000	0.015046
2909.000000	0.015024
2908.000000	0.015012
2907.000000	0.014997
2906.000000	0.014972
2905.000000	0.014935
2904.000000	0.014889
2903.000000	0.014847
2902.000000	0.014825
2901.000000	0.014826
2900.000000	0.014832
2899.000000	0.014823
2898.000000	0.014790
2897.000000	0.014744
2896.000000	0.014702
2895.000000	0.014674
2894.000000	0.014654
2893.000000	0.014634
2892.000000	0.014611
2891.000000	0.014596
2890.000000	0.014594
2889.000000	0.014600
2888.000000	0.014603
2887.000000	0.014597
2886.000000	0.014592
2885.000000	0.014598
2884.000000	0.014621
2883.000000	0.014650
2882.000000	0.014677
2881.000000	0.014696
2880.000000	0.014709
2879.000000	0.014723
2878.000000	0.014736
2877.000000	0.014744
2876.000000	0.014740
2875.000000	0.014730
2874.000000	0.014728
2873.000000	0.014738
2872.000000	0.014756
2871.000000	0.014774
2870.000000	0.014787
2869.000000	0.014792
2868.000000	0.014790
2867.000000	0.014783
2866.000000	0.014773
2865.000000	0.014766
2864.000000	0.014764
2863.000000	0.014767
2862.000000	0.014771
2861.000000	0.014770
2860.000000	0.014764
2859.000000	0.014757
2858.000000	0.014753
2857.000000	0.014754
2856.000000	0.014764
2855.000000	0.014784
2854.000000	0.014811
2853.000000	0.014833
2852.000000	0.014836
2851.000000	0.014816
2850.000000	0.014780
2849.000000	0.014738
2848.000000	0.014694
2847.000000	0.014644
2846.000000	0.014580
2845.000000	0.014505
2844.000000	0.014427
2843.000000	0.014360
2842.000000	0.014311
2841.000000	0.014280
2840.000000	0.014257
2839.000000	0.014235
2838.000000	0.014210
2837.000000	0.014183
2836.000000	0.014155
2835.000000	0.014126
2834.000000	0.014101
2833.000000	0.014081
2832.000000	0.014063
2831.000000	0.014045
2830.000000	0.014023
2829.000000	0.014001
2828.000000	0.013980
2827.000000	0.013958
2826.000000	0.013933
2825.000000	0.013910
2824.000000	0.013898
2823.000000	0.013902
2822.000000	0.013917
2821.000000	0.013929
2820.000000	0.013928
2819.000000	0.013917
2818.000000	0.013902
2817.000000	0.013886
2816.000000	0.013871
2815.000000	0.013856
2814.000000	0.013843
2813.000000	0.013837
2812.000000	0.013835
2811.000000	0.013832
2810.000000	0.013826
2809.000000	0.013821
2808.000000	0.013822
2807.000000	0.013827
2806.000000	0.013831
2805.000000	0.013827
2804.000000	0.013818
2803.000000	0.013808
2802.000000	0.013799
2801.000000	0.013790
2800.000000	0.013775
2799.000000	0.013755
2798.000000	0.013737
2797.000000	0.013724
2796.000000	0.013718
2795.000000	0.013716
2794.000000	0.013712
2793.000000	0.013703
2792.000000	0.013692
2791.000000	0.013686
2790.000000	0.013690
2789.000000	0.013705
2788.000000	0.013722
2787.000000	0.013732
2786.000000	0.013733
2785.000000	0.013726
2784.000000	0.013717
2783.000000	0.013712
2782.000000	0.013711
2781.000000	0.013709
2780.000000	0.013702
2779.000000	0.013693
2778.000000	0.013695
2777.000000	0.013713
2776.000000	0.013736
2775.000000	0.013747
2774.000000	0.013738
2773.000000	0.013721
2772.000000	0.013707
2771.000000	0.013695
2770.000000	0.013681
2769.000000	0.013664
2768.000000	0.013649
2767.000000	0.013643
2766.000000	0.013645
2765.000000	0.013645
2764.000000	0.013638
2763.000000	0.013624
2762.000000	0.013610
2761.000000	0.013606
2760.000000	0.013614
2759.000000	0.013632
2758.000000	0.013652
2757.000000	0.013666
2756.000000	0.013669
2755.000000	0.013665
2754.000000	0.013661
2753.000000	0.013662
2752.000000	0.013666
2751.000000	0.013663
2750.000000	0.013652
2749.000000	0.013634
2748.000000	0.013615
2747.000000	0.013598
2746.000000	0.013587
2745.000000	0.013587
2744.000000	0.013596
2743.000000	0.013610
2742.000000	0.013620
2741.000000	0.013624
2740.000000	0.013616
2739.000000	0.013595
2738.000000	0.013566
2737.000000	0.013540
2736.000000	0.013521
2735.000000	0.013507
2734.000000	0.013498
2733.000000	0.013494
2732.000000	0.013495
2731.000000	0.013502
2730.000000	0.013510
2729.000000	0.013519
2728.000000	0.013527
2727.000000	0.013530
2726.000000	0.013528
2725.000000	0.013522
2724.000000	0.013516
2723.000000	0.013512
2722.000000	0.013513
2721.000000	0.013519
2720.000000	0.013526
2719.000000	0.013528
2718.000000	0.013525
2717.000000	0.013521
2716.000000	0.013523
2715.000000	0.013530
2714.000000	0.013538
2713.000000	0.013541
2712.000000	0.013538
2711.000000	0.013531
2710.000000	0.013519
2709.000000	0.013502
2708.000000	0.013479
2707.000000	0.013457
2706.000000	0.013445
2705.000000	0.013452
2704.000000	0.013474
2703.000000	0.013495
2702.000000	0.013501
2701.000000	0.013493
2700.000000	0.013480
2699.000000	0.013472
2698.000000	0.013474
2697.000000	0.013483
2696.000000	0.013491
2695.000000	0.013498
2694.000000	0.013505
2693.000000	0.013513
2692.000000	0.013514
2691.000000	0.013501
2690.000000	0.013479
2689.000000	0.013460
2688.000000	0.013457
2687.000000	0.013468
2686.000000	0.013480
2685.000000	0.013486
2684.000000	0.013484
2683.000000	0.013478
2682.000000	0.013472
2681.000000	0.013470
2680.000000	0.013469
2679.000000	0.013466
2678.000000	0.013455
2677.000000	0.013438
2676.000000	0.013425
2675.000000	0.013429
2674.000000	0.013451
2673.000000	0.013476
2672.000000	0.013490
2671.000000	0.013489
2670.000000	0.013483
2669.000000	0.013485
2668.000000	0.013497
2667.000000	0.013510
2666.000000	0.013517
2665.000000	0.013516
2664.000000	0.013510
2663.000000	0.013505
2662.000000	0.013508
2661.000000	0.013522
2660.000000	0.013540
2659.000000	0.013546
2658.000000	0.013534
2657.000000	0.013511
2656.000000	0.013487
2655.000000	0.013468
2654.000000	0.013453
2653.000000	0.013441
2652.000000	0.013431
2651.000000	0.013423
2650.000000	0.013415
2649.000000	0.013404
2648.000000	0.013387
2647.000000	0.013367
2646.000000	0.013349
2645.000000	0.013342
2644.000000	0.013350
2643.000000	0.013370
2642.000000	0.013393
2641.000000	0.013404
2640.000000	0.013384
2639.000000	0.013333
2638.000000	0.013274
2637.000000	0.013239
2636.000000	0.013234
2635.000000	0.013242
2634.000000	0.013245
2633.000000	0.013239
2632.000000	0.013234
2631.000000	0.013233
2630.000000	0.013231
2629.000000	0.013229
2628.000000	0.013228
2627.000000	0.013229
2626.000000	0.013227
2625.000000	0.013222
2624.000000	0.013211
2623.000000	0.013191
2622.000000	0.013158
2621.000000	0.013120
2620.000000	0.013089
2619.000000	0.013078
2618.000000	0.013088
2617.000000	0.013109
2616.000000	0.013128
2615.000000	0.013138
2614.000000	0.013141
2613.000000	0.013144
2612.000000	0.013147
2611.000000	0.013147
2610.000000	0.013142
2609.000000	0.013133
2608.000000	0.013123
2607.000000	0.013111
2606.000000	0.013102
2605.000000	0.013100
2604.000000	0.013107
2603.000000	0.013118
2602.000000	0.013127
2601.000000	0.013129
2600.000000	0.013119
2599.000000	0.013099
2598.000000	0.013083
2597.000000	0.013085
2596.000000	0.013107
2595.000000	0.013127
2594.000000	0.013128
2593.000000	0.013103
2592.000000	0.013062
2591.000000	0.013019
2590.000000	0.012989
2589.000000	0.012983
2588.000000	0.012996
2587.000000	0.013013
2586.000000	0.013024
2585.000000	0.013028
2584.000000	0.013027
2583.000000	0.013024
2582.000000	0.013029
2581.000000	0.013047
2580.000000	0.013068
2579.000000	0.013073
2578.000000	0.013052
2577.000000	0.013014
2576.000000	0.012971
2575.000000	0.012929
2574.000000	0.012893
2573.000000	0.012868
2572.000000	0.012853
2571.000000	0.012848
2570.000000	0.012855
2569.000000	0.012876
2568.000000	0.012903
2567.000000	0.012922
2566.000000	0.012936
2565.000000	0.012959
2564.000000	0.012991
2563.000000	0.013014
2562.000000	0.013018
2561.000000	0.013011
2560.000000	0.013007
2559.000000	0.013004
2558.000000	0.012991
2557.000000	0.012967
2556.000000	0.012937
2555.000000	0.012907
2554.000000	0.012883
2553.000000	0.012877
2552.000000	0.012898
2551.000000	0.012935
2550.000000	0.012969
2549.000000	0.012986
2548.000000	0.012986
2547.000000	0.012976
2546.000000	0.012965
2545.000000	0.012969
2544.000000	0.012995
2543.000000	0.013037
2542.000000	0.013078
2541.000000	0.013101
2540.000000	0.013097
2539.000000	0.013065
2538.000000	0.013030
2537.000000	0.013021
2536.000000	0.013051
2535.000000	0.013098
2534.000000	0.013130
2533.000000	0.013141
2532.000000	0.013150
2531.000000	0.013179
2530.000000	0.013234
2529.000000	0.013306
2528.000000	0.013379
2527.000000	0.013438
2526.000000	0.013475
2525.000000	0.013501
2524.000000	0.013532
2523.000000	0.013579
2522.000000	0.013627
2521.000000	0.013660
2520.000000	0.013673
2519.000000	0.013691
2518.000000	0.013737
2517.000000	0.013809
2516.000000	0.013872
2515.000000	0.013888
2514.000000	0.013860
2513.000000	0.013821
2512.000000	0.013803
2511.000000	0.013812
2510.000000	0.013826
2509.000000	0.013821
2508.000000	0.013787
2507.000000	0.013734
2506.000000	0.013687
2505.000000	0.013665
2504.000000	0.013659
2503.000000	0.013642
2502.000000	0.013603
2501.000000	0.013553
2500.000000	0.013501
2499.000000	0.013443
2498.000000	0.013381
2497.000000	0.013331
2496.000000	0.013310
2495.000000	0.013309
2494.000000	0.013300
2493.000000	0.013264
2492.000000	0.013207
2491.000000	0.013155
2490.000000	0.013132
2489.000000	0.013139
2488.000000	0.013154
2487.000000	0.013159
2486.000000	0.013149
2485.000000	0.013139
2484.000000	0.013135
2483.000000	0.013130
2482.000000	0.013110
2481.000000	0.013070
2480.000000	0.013014
2479.000000	0.012953
2478.000000	0.012906
2477.000000	0.012895
2476.000000	0.012918
2475.000000	0.012951
2474.000000	0.012970
2473.000000	0.012968
2472.000000	0.012951
2471.000000	0.012930
2470.000000	0.012912
2469.000000	0.012903
2468.000000	0.012902
2467.000000	0.012900
2466.000000	0.012894
2465.000000	0.012889
2464.000000	0.012890
2463.000000	0.012896
2462.000000	0.012908
2461.000000	0.012920
2460.000000	0.012919
2459.000000	0.012893
2458.000000	0.012849
2457.000000	0.012813
2456.000000	0.012809
2455.000000	0.012838
2454.000000	0.012879
2453.000000	0.012914
2452.000000	0.012932
2451.000000	0.012930
2450.000000	0.012909
2449.000000	0.012873
2448.000000	0.012825
2447.000000	0.012777
2446.000000	0.012750
2445.000000	0.012767
2444.000000	0.012828
2443.000000	0.012903
2442.000000	0.012955
2441.000000	0.012952
2440.000000	0.012888
2439.000000	0.012788
2438.000000	0.012708
2437.000000	0.012693
2436.000000	0.012739
2435.000000	0.012800
2434.000000	0.012838
2433.000000	0.012847
2432.000000	0.012838
2431.000000	0.012812
2430.000000	0.012775
2429.000000	0.012746
2428.000000	0.012744
2427.000000	0.012766
2426.000000	0.012788
2425.000000	0.012794
2424.000000	0.012787
2423.000000	0.012781
2422.000000	0.012786
2421.000000	0.012799
2420.000000	0.012808
2419.000000	0.012806
2418.000000	0.012800
2417.000000	0.012803
2416.000000	0.012813
2415.000000	0.012815
2414.000000	0.012805
2413.000000	0.012796
2412.000000	0.012802
2411.000000	0.012822
2410.000000	0.012839
2409.000000	0.012834
2408.000000	0.012800
2407.000000	0.012749
2406.000000	0.012707
2405.000000	0.012696
2404.000000	0.012719
2403.000000	0.012753
2402.000000	0.012779
2401.000000	0.012791
2400.000000	0.012791
2399.000000	0.012782
2398.000000	0.012770
2397.000000	0.012761
2396.000000	0.012764
2395.000000	0.012782
2394.000000	0.012812
2393.000000	0.012844
2392.000000	0.012857
2391.000000	0.012840
2390.000000	0.012801
2389.000000	0.012765
2388.000000	0.012749
2387.000000	0.012753
2386.000000	0.012766
2385.000000	0.012766
2384.000000	0.012734
2383.000000	0.012669
2382.000000	0.012593
2381.000000	0.012540
2380.000000	0.012525
2379.000000	0.012547
2378.000000	0.012600
2377.000000	0.012669
2376.000000	0.012728
2375.000000	0.012764
2374.000000	0.012786
2373.000000	0.012816
2372.000000	0.012847
2371.000000	0.012860
2370.000000	0.012851
2369.000000	0.012834
2368.000000	0.012821
2367.000000	0.012814
2366.000000	0.012823
2365.000000	0.012849
2364.000000	0.012878
2363.000000	0.012895
2362.000000	0.012909
2361.000000	0.012930
2360.000000	0.012949
2359.000000	0.012951
2358.000000	0.012933
2357.000000	0.012909
2356.000000	0.012911
2355.000000	0.012964
2354.000000	0.013032
2353.000000	0.013049
2352.000000	0.013011
2351.000000	0.012979
2350.000000	0.012992
2349.000000	0.013043
2348.000000	0.013093
2347.000000	0.013102
2346.000000	0.013080
2345.000000	0.013092
2344.000000	0.013168
2343.000000	0.013251
2342.000000	0.013285
2341.000000	0.013264
2340.000000	0.013220
2339.000000	0.013184
2338.000000	0.013165
2337.000000	0.013162
2336.000000	0.013169
2335.000000	0.013161
2334.000000	0.013113
2333.000000	0.013035
2332.000000	0.012984
2331.000000	0.013004
2330.000000	0.013079
2329.000000	0.013167
2328.000000	0.013252
2327.000000	0.013336
2326.000000	0.013406
2325.000000	0.013438
2324.000000	0.013419
2323.000000	0.013364
2322.000000	0.013315
2321.000000	0.013312
2320.000000	0.013358
2319.000000	0.013412
2318.000000	0.013430
2317.000000	0.013402
2316.000000	0.013349
2315.000000	0.013286
2314.000000	0.013220
2313.000000	0.013156
2312.000000	0.013105
2311.000000	0.013069
2310.000000	0.013044
2309.000000	0.013025
2308.000000	0.013014
2307.000000	0.013002
2306.000000	0.012987
2305.000000	0.012967
2304.000000	0.012947
2303.000000	0.012929
2302.000000	0.012921
2301.000000	0.012936
2300.000000	0.012978
2299.000000	0.013034
2298.000000	0.013088
2297.000000	0.013130
2296.000000	0.013148
2295.000000	0.013124
2294.000000	0.013072
2293.000000	0.013036
2292.000000	0.013051
2291.000000	0.013099
2290.000000	0.013139
2289.000000	0.013149
2288.000000	0.013145
2287.000000	0.013147
2286.000000	0.013156
2285.000000	0.013159
2284.000000	0.013143
2283.000000	0.013109
2282.000000	0.013075
2281.000000	0.013053
2280.000000	0.013025
2279.000000	0.012963
2278.000000	0.012874
2277.000000	0.012808
2276.000000	0.012793
2275.000000	0.012804
2274.000000	0.012804
2273.000000	0.012790
2272.000000	0.012775
2271.000000	0.012754
2270.000000	0.012712
2269.000000	0.012653
2268.000000	0.012595
2267.000000	0.012549
2266.000000	0.012517
2265.000000	0.012499
2264.000000	0.012490
2263.000000	0.012476
2262.000000	0.012462
2261.000000	0.012469
2260.000000	0.012507
2259.000000	0.012564
2258.000000	0.012621
2257.000000	0.012663
2256.000000	0.012673
2255.000000	0.012636
2254.000000	0.012580
2253.000000	0.012549
2252.000000	0.012546
2251.000000	0.012530
2250.000000	0.012495
2249.000000	0.012492
2248.000000	0.012556
2247.000000	0.012646
2246.000000	0.012695
2245.000000	0.012689
2244.000000	0.012654
2243.000000	0.012610
2242.000000	0.012571
2241.000000	0.012560
2240.000000	0.012581
2239.000000	0.012593
2238.000000	0.012554
2237.000000	0.012479
2236.000000	0.012418
2235.000000	0.012392
2234.000000	0.012380
2233.000000	0.012364
2232.000000	0.012342
2231.000000	0.012323
2230.000000	0.012319
2229.000000	0.012344
2228.000000	0.012382
2227.000000	0.012385
2226.000000	0.012313
2225.000000	0.012173
2224.000000	0.012017
2223.000000	0.011916
2222.000000	0.011928
2221.000000	0.012055
2220.000000	0.012220
2219.000000	0.012334
2218.000000	0.012388
2217.000000	0.012434
2216.000000	0.012477
2215.000000	0.012456
2214.000000	0.012348
2213.000000	0.012223
2212.000000	0.012162
2211.000000	0.012167
2210.000000	0.012191
2209.000000	0.012208
2208.000000	0.012218
2207.000000	0.012228
2206.000000	0.012264
2205.000000	0.012358
2204.000000	0.012493
2203.000000	0.012587
2202.000000	0.012576
2201.000000	0.012476
2200.000000	0.012357
2199.000000	0.012271
2198.000000	0.012239
2197.000000	0.012247
2196.000000	0.012253
2195.000000	0.012231
2194.000000	0.012201
2193.000000	0.012190
2192.000000	0.012162
2191.000000	0.012063
2190.000000	0.011926
2189.000000	0.011864
2188.000000	0.011917
2187.000000	0.012011
2186.000000	0.012061
2185.000000	0.012050
2184.000000	0.011973
2183.000000	0.011825
2182.000000	0.011677
2181.000000	0.011661
2180.000000	0.011804
2179.000000	0.011974
2178.000000	0.012036
2177.000000	0.011966
2176.000000	0.011797
2175.000000	0.011566
2174.000000	0.011359
2173.000000	0.011298
2172.000000	0.011405
2171.000000	0.011573
2170.000000	0.011723
2169.000000	0.011890
2168.000000	0.012101
2167.000000	0.012275
2166.000000	0.012324
2165.000000	0.012285
2164.000000	0.012250
2163.000000	0.012229
2162.000000	0.012142
2161.000000	0.011926
2160.000000	0.011580
2159.000000	0.011208
2158.000000	0.011010
2157.000000	0.011104
2156.000000	0.011353
2155.000000	0.011517
2154.000000	0.011548
2153.000000	0.011581
2152.000000	0.011697
2151.000000	0.011807
2150.000000	0.011795
2149.000000	0.011657
2148.000000	0.011475
2147.000000	0.011354
2146.000000	0.011396
2145.000000	0.011615
2144.000000	0.011865
2143.000000	0.011952
2142.000000	0.011864
2141.000000	0.011766
2140.000000	0.011768
2139.000000	0.011814
2138.000000	0.011828
2137.000000	0.011842
2136.000000	0.011908
2135.000000	0.011994
2134.000000	0.012045
2133.000000	0.012068
2132.000000	0.012103
2131.000000	0.012152
2130.000000	0.012216
2129.000000	0.012310
2128.000000	0.012416
2127.000000	0.012470
2126.000000	0.012448
2125.000000	0.012412
2124.000000	0.012435
2123.000000	0.012509
2122.000000	0.012572
2121.000000	0.012599
2120.000000	0.012607
2119.000000	0.012619
2118.000000	0.012638
2117.000000	0.012660
2116.000000	0.012681
2115.000000	0.012693
2114.000000	0.012709
2113.000000	0.012754
2112.000000	0.012824
2111.000000	0.012872
2110.000000	0.012861
2109.000000	0.012806
2108.000000	0.012750
2107.000000	0.012721
2106.000000	0.012732
2105.000000	0.012783
2104.000000	0.012848
2103.000000	0.012893
2102.000000	0.012918
2101.000000	0.012956
2100.000000	0.013010
2099.000000	0.013035
2098.000000	0.012995
2097.000000	0.012914
2096.000000	0.012842
2095.000000	0.012804
2094.000000	0.012802
2093.000000	0.012821
2092.000000	0.012838
2091.000000	0.012838
2090.000000	0.012832
2089.000000	0.012834
2088.000000	0.012822
2087.000000	0.012779
2086.000000	0.012754
2085.000000	0.012810
2084.000000	0.012907
2083.000000	0.012919
2082.000000	0.012800
2081.000000	0.012657
2080.000000	0.012608
2079.000000	0.012645
2078.000000	0.012682
2077.000000	0.012672
2076.000000	0.012630
2075.000000	0.012586
2074.000000	0.012568
2073.000000	0.012589
2072.000000	0.012602
2071.000000	0.012524
2070.000000	0.012349
2069.000000	0.012191
2068.000000	0.012158
2067.000000	0.012246
2066.000000	0.012377
2065.000000	0.012479
2064.000000	0.012494
2063.000000	0.012376
2062.000000	0.012169
2061.000000	0.012015
2060.000000	0.012022
2059.000000	0.012158
2058.000000	0.012312
2057.000000	0.012413
2056.000000	0.012452
2055.000000	0.012438
2054.000000	0.012414
2053.000000	0.012440
2052.000000	0.012510
2051.000000	0.012528
2050.000000	0.012418
2049.000000	0.012227
2048.000000	0.012067
2047.000000	0.011994
2046.000000	0.011990
2045.000000	0.012009
2044.000000	0.011987
2043.000000	0.011876
2042.000000	0.011730
2041.000000	0.011677
2040.000000	0.011738
2039.000000	0.011789
2038.000000	0.011729
2037.000000	0.011596
2036.000000	0.011440
2035.000000	0.011234
2034.000000	0.010982
2033.000000	0.010792
2032.000000	0.010735
2031.000000	0.010738
2030.000000	0.010732
2029.000000	0.010769
2028.000000	0.010898
2027.000000	0.011047
2026.000000	0.011132
2025.000000	0.011185
2024.000000	0.011267
2023.000000	0.011362
2022.000000	0.011418
2021.000000	0.011417
2020.000000	0.011351
2019.000000	0.011238
2018.000000	0.011173
2017.000000	0.011249
2016.000000	0.011386
2015.000000	0.011394
2014.000000	0.011218
2013.000000	0.010997
2012.000000	0.010866
2011.000000	0.010826
2010.000000	0.010844
2009.000000	0.010913
2008.000000	0.010990
2007.000000	0.011004
2006.000000	0.010996
2005.000000	0.011066
2004.000000	0.011188
2003.000000	0.011230
2002.000000	0.011171
2001.000000	0.011125
2000.000000	0.011135
1999.000000	0.011122
1998.000000	0.011064
1997.000000	0.011070
1996.000000	0.011186
1995.000000	0.011303
1994.000000	0.011329
1993.000000	0.011331
1992.000000	0.011412
1991.000000	0.011565
1990.000000	0.011733
1989.000000	0.011908
1988.000000	0.012058
1987.000000	0.012102
1986.000000	0.012027
1985.000000	0.011939
1984.000000	0.011909
1983.000000	0.011875
1982.000000	0.011763
1981.000000	0.011592
1980.000000	0.011397
1979.000000	0.011146
1978.000000	0.010844
1977.000000	0.010603
1976.000000	0.010518
1975.000000	0.010572
1974.000000	0.010737
1973.000000	0.010998
1972.000000	0.011232
1971.000000	0.011279
1970.000000	0.011159
1969.000000	0.011068
1968.000000	0.011109
1967.000000	0.011187
1966.000000	0.011207
1965.000000	0.011203
1964.000000	0.011201
1963.000000	0.011153
1962.000000	0.011086
1961.000000	0.011133
1960.000000	0.011338
1959.000000	0.011566
1958.000000	0.011678
1957.000000	0.011681
1956.000000	0.011644
1955.000000	0.011610
1954.000000	0.011623
1953.000000	0.011730
1952.000000	0.011890
1951.000000	0.011981
1950.000000	0.011949
1949.000000	0.011866
1948.000000	0.011813
1947.000000	0.011795
1946.000000	0.011803
1945.000000	0.011855
1944.000000	0.011937
1943.000000	0.011990
1942.000000	0.012001
1941.000000	0.012023
1940.000000	0.012079
1939.000000	0.012128
1938.000000	0.012146
1937.000000	0.012154
1936.000000	0.012156
1935.000000	0.012128
1934.000000	0.012092
1933.000000	0.012111
1932.000000	0.012179
1931.000000	0.012218
1930.000000	0.012197
1929.000000	0.012170
1928.000000	0.012173
1927.000000	0.012176
1926.000000	0.012156
1925.000000	0.012153
1924.000000	0.012194
1923.000000	0.012234
1922.000000	0.012221
1921.000000	0.012160
1920.000000	0.012084
1919.000000	0.012014
1918.000000	0.011974
1917.000000	0.012000
1916.000000	0.012088
1915.000000	0.012200
1914.000000	0.012317
1913.000000	0.012419
1912.000000	0.012443
1911.000000	0.012331
1910.000000	0.012129
1909.000000	0.011967
1908.000000	0.011915
1907.000000	0.011931
1906.000000	0.011963
1905.000000	0.012017
1904.000000	0.012087
1903.000000	0.012133
1902.000000	0.012143
1901.000000	0.012156
1900.000000	0.012181
1899.000000	0.012168
1898.000000	0.012094
1897.000000	0.012013
1896.000000	0.011985
1895.000000	0.011998
1894.000000	0.012012
1893.000000	0.012020
1892.000000	0.012028
1891.000000	0.012018
1890.000000	0.011988
1889.000000	0.011965
1888.000000	0.011954
1887.000000	0.011928
1886.000000	0.011887
1885.000000	0.011880
1884.000000	0.011919
1883.000000	0.011951
1882.000000	0.011933
1881.000000	0.011885
1880.000000	0.011841
1879.000000	0.011793
1878.000000	0.011733
1877.000000	0.011693
1876.000000	0.011699
1875.000000	0.011725
1874.000000	0.011743
1873.000000	0.011761
1872.000000	0.011786
1871.000000	0.011789
1870.000000	0.011761
1869.000000	0.011754
1868.000000	0.011813
1867.000000	0.011892
1866.000000	0.011926
1865.000000	0.011913
1864.000000	0.011882
1863.000000	0.011847
1862.000000	0.011811
1861.000000	0.011783
1860.000000	0.011757
1859.000000	0.011716
1858.000000	0.011664
1857.000000	0.011639
1856.000000	0.011658
1855.000000	0.011693
1854.000000	0.011711
1853.000000	0.011710
1852.000000	0.011696
1851.000000	0.011666
1850.000000	0.011631
1849.000000	0.011627
1848.000000	0.011664
1847.000000	0.011694
1846.000000	0.011680
1845.000000	0.011647
1844.000000	0.011641
1843.000000	0.011647
1842.000000	0.011630
1841.000000	0.011597
1840.000000	0.011562
1839.000000	0.011520
1838.000000	0.011477
1837.000000	0.011453
1836.000000	0.011457
1835.000000	0.011467
1834.000000	0.011473
1833.000000	0.011481
1832.000000	0.011475
1831.000000	0.011424
1830.000000	0.011347
1829.000000	0.011309
1828.000000	0.011337
1827.000000	0.011397
1826.000000	0.011448
1825.000000	0.011478
1824.000000	0.011478
1823.000000	0.011438
1822.000000	0.011381
1821.000000	0.011346
1820.000000	0.011346
1819.000000	0.011349
1818.000000	0.011328
1817.000000	0.011292
1816.000000	0.011263
1815.000000	0.011247
1814.000000	0.011243
1813.000000	0.011251
1812.000000	0.011264
1811.000000	0.011278
1810.000000	0.011307
1809.000000	0.011364
1808.000000	0.011434
1807.000000	0.011493
1806.000000	0.011547
1805.000000	0.011633
1804.000000	0.011770
1803.000000	0.011944
1802.000000	0.012143
1801.000000	0.012366
1800.000000	0.012594
1799.000000	0.012786
1798.000000	0.012918
1797.000000	0.013001
1796.000000	0.013047
1795.000000	0.013053
1794.000000	0.013004
1793.000000	0.012894
1792.000000	0.012725
1791.000000	0.012512
1790.000000	0.012284
1789.000000	0.012079
1788.000000	0.011910
1787.000000	0.011761
1786.000000	0.011617
1785.000000	0.011486
1784.000000	0.011378
1783.000000	0.011289
1782.000000	0.011216
1781.000000	0.011168
1780.000000	0.011143
1779.000000	0.011116
1778.000000	0.011086
1777.000000	0.011074
1776.000000	0.011082
1775.000000	0.011072
1774.000000	0.011022
1773.000000	0.010973
1772.000000	0.010983
1771.000000	0.011026
1770.000000	0.011056
1769.000000	0.011061
1768.000000	0.011035
1767.000000	0.010970
1766.000000	0.010894
1765.000000	0.010852
1764.000000	0.010850
1763.000000	0.010862
1762.000000	0.010876
1761.000000	0.010902
1760.000000	0.010929
1759.000000	0.010930
1758.000000	0.010903
1757.000000	0.010879
1756.000000	0.010875
1755.000000	0.010868
1754.000000	0.010847
1753.000000	0.010838
1752.000000	0.010854
1751.000000	0.010875
1750.000000	0.010887
1749.000000	0.010918
1748.000000	0.010977
1747.000000	0.011024
1746.000000	0.011041
1745.000000	0.011055
1744.000000	0.011082
1743.000000	0.011101
1742.000000	0.011102
1741.000000	0.011110
1740.000000	0.011136
1739.000000	0.011155
1738.000000	0.011158
1737.000000	0.011168
1736.000000	0.011177
1735.000000	0.011151
1734.000000	0.011107
1733.000000	0.011087
1732.000000	0.011099
1731.000000	0.011108
1730.000000	0.011086
1729.000000	0.011056
1728.000000	0.011043
1727.000000	0.011035
1726.000000	0.011017
1725.000000	0.011005
1724.000000	0.011004
1723.000000	0.010991
1722.000000	0.010965
1721.000000	0.010952
1720.000000	0.010943
1719.000000	0.010897
1718.000000	0.010834
1717.000000	0.010817
1716.000000	0.010858
1715.000000	0.010918
1714.000000	0.010959
1713.000000	0.010978
1712.000000	0.010991
1711.000000	0.010999
1710.000000	0.011002
1709.000000	0.011021
1708.000000	0.011064
1707.000000	0.011113
1706.000000	0.011167
1705.000000	0.011244
1704.000000	0.011340
1703.000000	0.011435
1702.000000	0.011511
1701.000000	0.011566
1700.000000	0.011613
1699.000000	0.011634
1698.000000	0.011668
1697.000000	0.011794
1696.000000	0.012030
1695.000000	0.012275
1694.000000	0.012448
1693.000000	0.012591
1692.000000	0.012743
1691.000000	0.012909
1690.000000	0.013092
1689.000000	0.013281
1688.000000	0.013428
1687.000000	0.013498
1686.000000	0.013516
1685.000000	0.013607
1684.000000	0.013889
1683.000000	0.014185
1682.000000	0.014362
1681.000000	0.014510
1680.000000	0.014673
1679.000000	0.014822
1678.000000	0.014945
1677.000000	0.015079
1676.000000	0.015255
1675.000000	0.015428
1674.000000	0.015545
1673.000000	0.015653
1672.000000	0.015807
1671.000000	0.015999
1670.000000	0.016213
1669.000000	0.016437
1668.000000	0.016623
1667.000000	0.016738
1666.000000	0.016814
1665.000000	0.016916
1664.000000	0.017083
1663.000000	0.017297
1662.000000	0.017496
1661.000000	0.017657
1660.000000	0.017803
1659.000000	0.017929
1658.000000	0.018021
1657.000000	0.018092
1656.000000	0.018159
1655.000000	0.018191
1654.000000	0.018229
1653.000000	0.018389
1652.000000	0.018499
1651.000000	0.018514
1650.000000	0.018548
1649.000000	0.018586
1648.000000	0.018637
1647.000000	0.018722
1646.000000	0.018781
1645.000000	0.018765
1644.000000	0.018719
1643.000000	0.018657
1642.000000	0.018564
1641.000000	0.018455
1640.000000	0.018351
1639.000000	0.018244
1638.000000	0.018115
1637.000000	0.017997
1636.000000	0.017961
1635.000000	0.017938
1634.000000	0.017815
1633.000000	0.017641
1632.000000	0.017470
1631.000000	0.017294
1630.000000	0.017099
1629.000000	0.016899
1628.000000	0.016721
1627.000000	0.016559
1626.000000	0.016395
1625.000000	0.016234
1624.000000	0.016082
1623.000000	0.015925
1622.000000	0.015753
1621.000000	0.015590
1620.000000	0.015445
1619.000000	0.015275
1618.000000	0.015051
1617.000000	0.014839
1616.000000	0.014715
1615.000000	0.014651
1614.000000	0.014587
1613.000000	0.014508
1612.000000	0.014418
1611.000000	0.014318
1610.000000	0.014205
1609.000000	0.014103
1608.000000	0.014030
1607.000000	0.013969
1606.000000	0.013898
1605.000000	0.013825
1604.000000	0.013763
1603.000000	0.013696
1602.000000	0.013618
1601.000000	0.013553
1600.000000	0.013523
1599.000000	0.013502
1598.000000	0.013465
1597.000000	0.013426
1596.000000	0.013406
1595.000000	0.013397
1594.000000	0.013382
1593.000000	0.013372
1592.000000	0.013382
1591.000000	0.013393
1590.000000	0.013386
1589.000000	0.013371
1588.000000	0.013369
1587.000000	0.013374
1586.000000	0.013371
1585.000000	0.013364
1584.000000	0.013367
1583.000000	0.013375
1582.000000	0.013376
1581.000000	0.013380
1580.000000	0.013386
1579.000000	0.013363
1578.000000	0.013293
1577.000000	0.013240
1576.000000	0.013284
1575.000000	0.013369
1574.000000	0.013417
1573.000000	0.013443
1572.000000	0.013462
1571.000000	0.013472
1570.000000	0.013495
1569.000000	0.013552
1568.000000	0.013618
1567.000000	0.013661
1566.000000	0.013691
1565.000000	0.013731
1564.000000	0.013781
1563.000000	0.013817
1562.000000	0.013835
1561.000000	0.013865
1560.000000	0.013926
1559.000000	0.014148
1558.000000	0.014347
1557.000000	0.014386
1556.000000	0.014434
1555.000000	0.014506
1554.000000	0.014578
1553.000000	0.014673
1552.000000	0.014817
1551.000000	0.014992
1550.000000	0.015166
1549.000000	0.015324
1548.000000	0.015462
1547.000000	0.015586
1546.000000	0.015707
1545.000000	0.015840
1544.000000	0.015972
1543.000000	0.016051
1542.000000	0.016067
1541.000000	0.016133
1540.000000	0.016383
1539.000000	0.016650
1538.000000	0.016768
1537.000000	0.016844
1536.000000	0.016948
1535.000000	0.017083
1534.000000	0.017267
1533.000000	0.017485
1532.000000	0.017639
1531.000000	0.017700
1530.000000	0.017738
1529.000000	0.017818
1528.000000	0.017956
1527.000000	0.018113
1526.000000	0.018241
1525.000000	0.018328
1524.000000	0.018392
1523.000000	0.018466
1522.000000	0.018625
1521.000000	0.018883
1520.000000	0.019117
1519.000000	0.019276
1518.000000	0.019430
1517.000000	0.019645
1516.000000	0.019869
1515.000000	0.020002
1514.000000	0.020073
1513.000000	0.020171
1512.000000	0.020305
1511.000000	0.020420
1510.000000	0.020483
1509.000000	0.020543
1508.000000	0.020702
1507.000000	0.021094
1506.000000	0.021525
1505.000000	0.021725
1504.000000	0.021800
1503.000000	0.021865
1502.000000	0.021957
1501.000000	0.022106
1500.000000	0.022304
1499.000000	0.022512
1498.000000	0.022751
1497.000000	0.023090
1496.000000	0.023477
1495.000000	0.023775
1494.000000	0.023977
1493.000000	0.024175
1492.000000	0.024432
1491.000000	0.024750
1490.000000	0.025114
1489.000000	0.025474
1488.000000	0.025780
1487.000000	0.026029
1486.000000	0.026252
1485.000000	0.026464
1484.000000	0.026672
1483.000000	0.026889
1482.000000	0.027147
1481.000000	0.027449
1480.000000	0.027740
1479.000000	0.027985
1478.000000	0.028223
1477.000000	0.028502
1476.000000	0.028798
1475.000000	0.029074
1474.000000	0.029390
1473.000000	0.029848
1472.000000	0.030352
1471.000000	0.030683
1470.000000	0.030843
1469.000000	0.030970
1468.000000	0.031136
1467.000000	0.031358
1466.000000	0.031666
1465.000000	0.032073
1464.000000	0.032465
1463.000000	0.032709
1462.000000	0.032841
1461.000000	0.032966
1460.000000	0.033134
1459.000000	0.033367
1458.000000	0.033775
1457.000000	0.034407
1456.000000	0.034932
1455.000000	0.035137
1454.000000	0.035214
1453.000000	0.035337
1452.000000	0.035525
1451.000000	0.035715
1450.000000	0.035901
1449.000000	0.036146
1448.000000	0.036453
1447.000000	0.036728
1446.000000	0.036924
1445.000000	0.037093
1444.000000	0.037283
1443.000000	0.037478
1442.000000	0.037659
1441.000000	0.037837
1440.000000	0.038011
1439.000000	0.038186
1438.000000	0.038437
1437.000000	0.038843
1436.000000	0.039261
1435.000000	0.039452
1434.000000	0.039462
1433.000000	0.039483
1432.000000	0.039595
1431.000000	0.039758
1430.000000	0.039935
1429.000000	0.040131
1428.000000	0.040316
1427.000000	0.040448
1426.000000	0.040566
1425.000000	0.040763
1424.000000	0.041036
1423.000000	0.041250
1422.000000	0.041367
1421.000000	0.041528
1420.000000	0.041873
1419.000000	0.042342
1418.000000	0.042726
1417.000000	0.042953
1416.000000	0.043096
1415.000000	0.043212
1414.000000	0.043347
1413.000000	0.043559
1412.000000	0.043851
1411.000000	0.044156
1410.000000	0.044427
1409.000000	0.044691
1408.000000	0.044962
1407.000000	0.045225
1406.000000	0.045497
1405.000000	0.045826
1404.000000	0.046159
1403.000000	0.046369
1402.000000	0.046456
1401.000000	0.046548
1400.000000	0.046730
1399.000000	0.046947
1398.000000	0.047126
1397.000000	0.047316
1396.000000	0.047597
1395.000000	0.047931
1394.000000	0.048213
1393.000000	0.048407
1392.000000	0.048540
1391.000000	0.048633
1390.000000	0.048718
1389.000000	0.048851
1388.000000	0.049046
1387.000000	0.049220
1386.000000	0.049302
1385.000000	0.049330
1384.000000	0.049361
1383.000000	0.049390
1382.000000	0.049404
1381.000000	0.049422
1380.000000	0.049450
1379.000000	0.049446
1378.000000	0.049393
1377.000000	0.049336
1376.000000	0.049323
1375.000000	0.049351
1374.000000	0.049382
1373.000000	0.049382
1372.000000	0.049326
1371.000000	0.049220
1370.000000	0.049105
1369.000000	0.049027
1368.000000	0.048965
1367.000000	0.048862
1366.000000	0.048723
1365.000000	0.048616
1364.000000	0.048580
1363.000000	0.048572
1362.000000	0.048528
1361.000000	0.048431
1360.000000	0.048291
1359.000000	0.048111
1358.000000	0.047911
1357.000000	0.047731
1356.000000	0.047582
1355.000000	0.047438
1354.000000	0.047294
1353.000000	0.047167
1352.000000	0.047047
1351.000000	0.046899
1350.000000	0.046723
1349.000000	0.046563
1348.000000	0.046436
1347.000000	0.046320
1346.000000	0.046200
1345.000000	0.046087
1344.000000	0.045974
1343.000000	0.045832
1342.000000	0.045674
1341.000000	0.045548
1340.000000	0.045456
1339.000000	0.045345
1338.000000	0.045188
1337.000000	0.045020
1336.000000	0.044855
1335.000000	0.044662
1334.000000	0.044435
1333.000000	0.044215
1332.000000	0.044025
1331.000000	0.043839
1330.000000	0.043647
1329.000000	0.043473
1328.000000	0.043324
1327.000000	0.043168
1326.000000	0.042998
1325.000000	0.042841
1324.000000	0.042705
1323.000000	0.042560
1322.000000	0.042397
1321.000000	0.042253
1320.000000	0.042144
1319.000000	0.042034
1318.000000	0.041898
1317.000000	0.041749
1316.000000	0.041595
1315.000000	0.041419
1314.000000	0.041226
1313.000000	0.041048
1312.000000	0.040890
1311.000000	0.040721
1310.000000	0.040539
1309.000000	0.040379
1308.000000	0.040241
1307.000000	0.040084
1306.000000	0.039887
1305.000000	0.039685
1304.000000	0.039501
1303.000000	0.039321
1302.000000	0.039141
1301.000000	0.038982
1300.000000	0.038839
1299.000000	0.038667
1298.000000	0.038456
1297.000000	0.038244
1296.000000	0.038051
1295.000000	0.037846
1294.000000	0.037619
1293.000000	0.037410
1292.000000	0.037240
1291.000000	0.037078
1290.000000	0.036899
1289.000000	0.036725
1288.000000	0.036572
1287.000000	0.036414
1286.000000	0.036239
1285.000000	0.036066
1284.000000	0.035903
1283.000000	0.035720
1282.000000	0.035507
1281.000000	0.035298
1280.000000	0.035121
1279.000000	0.034961
1278.000000	0.034802
1277.000000	0.034660
1276.000000	0.034538
1275.000000	0.034405
1274.000000	0.034254
1273.000000	0.034114
1272.000000	0.033997
1271.000000	0.033877
1270.000000	0.033745
1269.000000	0.033627
1268.000000	0.033537
1267.000000	0.033443
1266.000000	0.033328
1265.000000	0.033218
1264.000000	0.033122
1263.000000	0.033005
1262.000000	0.032856
1261.000000	0.032721
1260.000000	0.032634
1259.000000	0.032563
1258.000000	0.032471
1257.000000	0.032366
1256.000000	0.032267
1255.000000	0.032163
1254.000000	0.032040
1253.000000	0.031915
1252.000000	0.031803
1251.000000	0.031694
1250.000000	0.031586
1249.000000	0.031498
1248.000000	0.031428
1247.000000	0.031345
1246.000000	0.031243
1245.000000	0.031159
1244.000000	0.031114
1243.000000	0.031077
1242.000000	0.031023
1241.000000	0.030964
1240.000000	0.030914
1239.000000	0.030854
1238.000000	0.030775
1237.000000	0.030695
1236.000000	0.030617
1235.000000	0.030512
1234.000000	0.030379
1233.000000	0.030259
1232.000000	0.030181
1231.000000	0.030117
1230.000000	0.030037
1229.000000	0.029946
1228.000000	0.029847
1227.000000	0.029719
1226.000000	0.029561
1225.000000	0.029415
1224.000000	0.029298
1223.000000	0.029183
1222.000000	0.029046
1221.000000	0.028904
1220.000000	0.028772
1219.000000	0.028630
1218.000000	0.028474
1217.000000	0.028330
1216.000000	0.028209
1215.000000	0.028079
1214.000000	0.027921
1213.000000	0.027766
1212.000000	0.027636
1211.000000	0.027512
1210.000000	0.027380
1209.000000	0.027258
1208.000000	0.027157
1207.000000	0.027049
1206.000000	0.026919
1205.000000	0.026793
1204.000000	0.026688
1203.000000	0.026581
1202.000000	0.026456
1201.000000	0.026338
1200.000000	0.026238
1199.000000	0.026125
1198.000000	0.025980
1197.000000	0.025831
1196.000000	0.025708
1195.000000	0.025605
1194.000000	0.025511
1193.000000	0.025442
1192.000000	0.025394
1191.000000	0.025327
1190.000000	0.025220
1189.000000	0.025106
1188.000000	0.025025
1187.000000	0.024975
1186.000000	0.024941
1185.000000	0.024923
1184.000000	0.024906
1183.000000	0.024865
1182.000000	0.024803
1181.000000	0.024763
1180.000000	0.024763
1179.000000	0.024767
1178.000000	0.024754
1177.000000	0.024750
1176.000000	0.024769
1175.000000	0.024783
1174.000000	0.024772
1173.000000	0.024758
1172.000000	0.024754
1171.000000	0.024736
1170.000000	0.024701
1169.000000	0.024686
1168.000000	0.024707
1167.000000	0.024729
1166.000000	0.024729
1165.000000	0.024738
1164.000000	0.024775
1163.000000	0.024805
1162.000000	0.024804
1161.000000	0.024798
1160.000000	0.024809
1159.000000	0.024809
1158.000000	0.024780
1157.000000	0.024752
1156.000000	0.024756
1155.000000	0.024768
1154.000000	0.024760
1153.000000	0.024732
1152.000000	0.024682
1151.000000	0.024585
1150.000000	0.024453
1149.000000	0.024347
1148.000000	0.024286
1147.000000	0.024216
1146.000000	0.024098
1145.000000	0.023965
1144.000000	0.023857
1143.000000	0.023754
1142.000000	0.023633
1141.000000	0.023516
1140.000000	0.023432
1139.000000	0.023362
1138.000000	0.023287
1137.000000	0.023227
1136.000000	0.023189
1135.000000	0.023144
1134.000000	0.023075
1133.000000	0.023017
1132.000000	0.022991
1131.000000	0.022971
1130.000000	0.022940
1129.000000	0.022922
1128.000000	0.022930
1127.000000	0.022937
1126.000000	0.022934
1125.000000	0.022952
1124.000000	0.022994
1123.000000	0.023008
1122.000000	0.022974
1121.000000	0.022942
1120.000000	0.022949
1119.000000	0.022965
1118.000000	0.022964
1117.000000	0.022976
1116.000000	0.023030
1115.000000	0.023093
1114.000000	0.023135
1113.000000	0.023175
1112.000000	0.023220
1111.000000	0.023236
1110.000000	0.023215
1109.000000	0.023209
1108.000000	0.023253
1107.000000	0.023308
1106.000000	0.023344
1105.000000	0.023393
1104.000000	0.023471
1103.000000	0.023533
1102.000000	0.023549
1101.000000	0.023560
1100.000000	0.023597
1099.000000	0.023629
1098.000000	0.023633
1097.000000	0.023656
1096.000000	0.023740
1095.000000	0.023854
1094.000000	0.023952
1093.000000	0.024039
1092.000000	0.024125
1091.000000	0.024194
1090.000000	0.024247
1089.000000	0.024331
1088.000000	0.024454
1087.000000	0.024558
1086.000000	0.024616
1085.000000	0.024673
1084.000000	0.024761
1083.000000	0.024836
1082.000000	0.024865
1081.000000	0.024882
1080.000000	0.024915
1079.000000	0.024937
1078.000000	0.024935
1077.000000	0.024953
1076.000000	0.025007
1075.000000	0.025053
1074.000000	0.025068
1073.000000	0.025090
1072.000000	0.025127
1071.000000	0.025119
1070.000000	0.025053
1069.000000	0.025005
1068.000000	0.025022
1067.000000	0.025051
1066.000000	0.025038
1065.000000	0.025020
1064.000000	0.025031
1063.000000	0.025036
1062.000000	0.025006
1061.000000	0.024994
1060.000000	0.025041
1059.000000	0.025111
1058.000000	0.025162
1057.000000	0.025227
1056.000000	0.025331
1055.000000	0.025431
1054.000000	0.025490
1053.000000	0.025550
1052.000000	0.025658
1051.000000	0.025785
1050.000000	0.025901
1049.000000	0.026027
1048.000000	0.026173
1047.000000	0.026287
1046.000000	0.026351
1045.000000	0.026428
1044.000000	0.026559
1043.000000	0.026696
1042.000000	0.026796
1041.000000	0.026892
1040.000000	0.027013
1039.000000	0.027107
1038.000000	0.027133
1037.000000	0.027137
1036.000000	0.027173
1035.000000	0.027226
1034.000000	0.027268
1033.000000	0.027323
1032.000000	0.027409
1031.000000	0.027490
1030.000000	0.027543
1029.000000	0.027590
1028.000000	0.027625
1027.000000	0.027590
1026.000000	0.027479
1025.000000	0.027388
1024.000000	0.027381
1023.000000	0.027407
1022.000000	0.027400
1021.000000	0.027376
1020.000000	0.027371
1019.000000	0.027359
1018.000000	0.027311
1017.000000	0.027264
1016.000000	0.027243
1015.000000	0.027210
1014.000000	0.027134
1013.000000	0.027055
1012.000000	0.027004
1011.000000	0.026948
1010.000000	0.026857
1009.000000	0.026754
1008.000000	0.026652
1007.000000	0.026520
1006.000000	0.026355
1005.000000	0.026219
1004.000000	0.026136
1003.000000	0.026051
1002.000000	0.025929
1001.000000	0.025812
1000.000000	0.025728
999.000000	0.025633
998.000000	0.025495
997.000000	0.025348
996.000000	0.025223
995.000000	0.025086
994.000000	0.024912
993.000000	0.024741
992.000000	0.024598
991.000000	0.024450
990.000000	0.024282
989.000000	0.024131
988.000000	0.023999
987.000000	0.023830
986.000000	0.023611
985.000000	0.023417
984.000000	0.023285
983.000000	0.023151
982.000000	0.022968
981.000000	0.022787
980.000000	0.022651
979.000000	0.022510
978.000000	0.022318
977.000000	0.022118
976.000000	0.021961
975.000000	0.021811
974.000000	0.021625
973.000000	0.021431
972.000000	0.021272
971.000000	0.021125
970.000000	0.020962
969.000000	0.020801
968.000000	0.020655
967.000000	0.020482
966.000000	0.020269
965.000000	0.020070
964.000000	0.019920
963.000000	0.019783
962.000000	0.019632
961.000000	0.019510
960.000000	0.019428
959.000000	0.019318
958.000000	0.019125
957.000000	0.018903
956.000000	0.018718
955.000000	0.018565
954.000000	0.018424
953.000000	0.018325
952.000000	0.018283
951.000000	0.018235
950.000000	0.018125
949.000000	0.017982
948.000000	0.017862
947.000000	0.017765
946.000000	0.017672
945.000000	0.017593
944.000000	0.017518
943.000000	0.017405
942.000000	0.017249
941.000000	0.017112
940.000000	0.017021
939.000000	0.016928
938.000000	0.016807
937.000000	0.016711
936.000000	0.016665
935.000000	0.016604
934.000000	0.016478
933.000000	0.016325
932.000000	0.016197
931.000000	0.016079
930.000000	0.015953
929.000000	0.015842
928.000000	0.015743
927.000000	0.015597
926.000000	0.015397
925.000000	0.015218
924.000000	0.015107
923.000000	0.015013
922.000000	0.014896
921.000000	0.014805
920.000000	0.014778
919.000000	0.014759
918.000000	0.014688
917.000000	0.014582
916.000000	0.014469
915.000000	0.014326
914.000000	0.014144
913.000000	0.013983
912.000000	0.013878
911.000000	0.013777
910.000000	0.013636
909.000000	0.013485
908.000000	0.013343
907.000000	0.013167
906.000000	0.012942
905.000000	0.012734
904.000000	0.012583
903.000000	0.012435
902.000000	0.012246
901.000000	0.012060
900.000000	0.011915
899.000000	0.011759
898.000000	0.011547
897.000000	0.011323
896.000000	0.011131
895.000000	0.010942
894.000000	0.010730
893.000000	0.010538
892.000000	0.010388
891.000000	0.010233
890.000000	0.010067
889.000000	0.010050
888.000000	0.010437
887.000000	0.011449
886.000000	0.013217
885.000000	0.015711
884.000000	0.018664
883.000000	0.021690
882.000000	0.024605
881.000000	0.027542
880.000000	0.030690
879.000000	0.034040
878.000000	0.037453
877.000000	0.040836
876.000000	0.044130
875.000000	0.047261
874.000000	0.050197
873.000000	0.052929
872.000000	0.055257
871.000000	0.056735
870.000000	0.056992
869.000000	0.056010
868.000000	0.054052
867.000000	0.051442
866.000000	0.048521
865.000000	0.045624
864.000000	0.042938
863.000000	0.040468
862.000000	0.038178
861.000000	0.036101
860.000000	0.034256
859.000000	0.032597
858.000000	0.031101
857.000000	0.029805
856.000000	0.028682
855.000000	0.027611
854.000000	0.026532
853.000000	0.025537
852.000000	0.024770
851.000000	0.024356
850.000000	0.024388
849.000000	0.024801
848.000000	0.025213
847.000000	0.025121
846.000000	0.024391
845.000000	0.023379
844.000000	0.022490
843.000000	0.021814
842.000000	0.021254
841.000000	0.020791
840.000000	0.020437
839.000000	0.020119
838.000000	0.019776
837.000000	0.019467
836.000000	0.019235
835.000000	0.019005
834.000000	0.018723
833.000000	0.018466
832.000000	0.018296
831.000000	0.018138
830.000000	0.017918
829.000000	0.017701
828.000000	0.017543
827.000000	0.017369
826.000000	0.017124
825.000000	0.016893
824.000000	0.016743
823.000000	0.016590
822.000000	0.016371
821.000000	0.016188
820.000000	0.016122
819.000000	0.016078
818.000000	0.015949
817.000000	0.015783
816.000000	0.015662
815.000000	0.015545
814.000000	0.015382
813.000000	0.015248
812.000000	0.015209
811.000000	0.015189
810.000000	0.015104
809.000000	0.015011
808.000000	0.014990
807.000000	0.014990
806.000000	0.014938
805.000000	0.014877
804.000000	0.014863
803.000000	0.014837
802.000000	0.014728
801.000000	0.014592
800.000000	0.014513
799.000000	0.014482
798.000000	0.014463
797.000000	0.014480
796.000000	0.014524
795.000000	0.014500
794.000000	0.014381
793.000000	0.014277
792.000000	0.014268
791.000000	0.014282
790.000000	0.014245
789.000000	0.014207
788.000000	0.014219
787.000000	0.014219
786.000000	0.014156
785.000000	0.014095
784.000000	0.014080
783.000000	0.014038
782.000000	0.013925
781.000000	0.013840
780.000000	0.013866
779.000000	0.013936
778.000000	0.013953
777.000000	0.013934
776.000000	0.013916
775.000000	0.013855
774.000000	0.013724
773.000000	0.013604
772.000000	0.013550
771.000000	0.013496
770.000000	0.013388
769.000000	0.013298
768.000000	0.013284
767.000000	0.013270
766.000000	0.013187
765.000000	0.013101
764.000000	0.013085
763.000000	0.013084
762.000000	0.013031
761.000000	0.012976
760.000000	0.012967
759.000000	0.012940
758.000000	0.012842
757.000000	0.012742
756.000000	0.012711
755.000000	0.012691
754.000000	0.012616
753.000000	0.012542
752.000000	0.012535
751.000000	0.012537
750.000000	0.012484
749.000000	0.012421
748.000000	0.012404
747.000000	0.012393
746.000000	0.012343
745.000000	0.012306
744.000000	0.012315
743.000000	0.012286
742.000000	0.012163
741.000000	0.012034
740.000000	0.011989
739.000000	0.011975
738.000000	0.011910
737.000000	0.011812
736.000000	0.011717
735.000000	0.011587
734.000000	0.011413
733.000000	0.011291
732.000000	0.011280
731.000000	0.011284
730.000000	0.011206
729.000000	0.011105
728.000000	0.011063
727.000000	0.011034
726.000000	0.010942
725.000000	0.010820
724.000000	0.010717
723.000000	0.010596
722.000000	0.010452
721.000000	0.010422
720.000000	0.010642
719.000000	0.011123
718.000000	0.011946
717.000000	0.013484
716.000000	0.016247
715.000000	0.020432
714.000000	0.025548
713.000000	0.030375
712.000000	0.033395
711.000000	0.033692
710.000000	0.031624
709.000000	0.028501
708.000000	0.025537
707.000000	0.023193
706.000000	0.021418
705.000000	0.020132
704.000000	0.019267
703.000000	0.018646
702.000000	0.018105
701.000000	0.017654
700.000000	0.017352
699.000000	0.017125
698.000000	0.016877
697.000000	0.016627
696.000000	0.016406
695.000000	0.016145
694.000000	0.015810
693.000000	0.015515
692.000000	0.015368
691.000000	0.015292
690.000000	0.015164
689.000000	0.014991
688.000000	0.014825
687.000000	0.014649
686.000000	0.014457
685.000000	0.014326
684.000000	0.014286
683.000000	0.014222
682.000000	0.014066
681.000000	0.013930
680.000000	0.013944
679.000000	0.014052
678.000000	0.014111
677.000000	0.014105
676.000000	0.014086
675.000000	0.014026
674.000000	0.013883
673.000000	0.013697
672.000000	0.013487
671.000000	0.013190
670.000000	0.012815
669.000000	0.012596
668.000000	0.012869
667.000000	0.013421
666.000000	0.013609
665.000000	0.013613
664.000000	0.013679
663.000000	0.013679
662.000000	0.013507
661.000000	0.013327
660.000000	0.013304
659.000000	0.013320
658.000000	0.013208
657.000000	0.013055
656.000000	0.012988
655.000000	0.012915
654.000000	0.012747
653.000000	0.012607
652.000000	0.012566
651.000000	0.012470
650.000000	0.012248
649.000000	0.012131
648.000000	0.012295
647.000000	0.012559
646.000000	0.012680
645.000000	0.012682
644.000000	0.012671
643.000000	0.012602
642.000000	0.012463
641.000000	0.012437
640.000000	0.012631
639.000000	0.012843
638.000000	0.012862
637.000000	0.012762
636.000000	0.012703
635.000000	0.012658
634.000000	0.012565
633.000000	0.012507
632.000000	0.012542
631.000000	0.012561
630.000000	0.012508
629.000000	0.012507
628.000000	0.012591
627.000000	0.012568
626.000000	0.012364
625.000000	0.012212
624.000000	0.012280
623.000000	0.012392
622.000000	0.012362
621.000000	0.012297
620.000000	0.012345
619.000000	0.012400
618.000000	0.012333
617.000000	0.012257
616.000000	0.012306
615.000000	0.012373
614.000000	0.012352
613.000000	0.012365
612.000000	0.012512
611.000000	0.012620
610.000000	0.012542
609.000000	0.012429
608.000000	0.012473
607.000000	0.012580
606.000000	0.012598
605.000000	0.012599
604.000000	0.012678
603.000000	0.012715
602.000000	0.012601
601.000000	0.012472
600.000000	0.012460
599.000000	0.012462
598.000000	0.012392
597.000000	0.012394
596.000000	0.012548
595.000000	0.012648
594.000000	0.012531
593.000000	0.012363
592.000000	0.012323
591.000000	0.012288
590.000000	0.012121
589.000000	0.011973
588.000000	0.011981
587.000000	0.011985
586.000000	0.011844
585.000000	0.011740
584.000000	0.011868
583.000000	0.012069
582.000000	0.012110
581.000000	0.012056
580.000000	0.012060
579.000000	0.012054
578.000000	0.011976
577.000000	0.011999
576.000000	0.012233
575.000000	0.012446
574.000000	0.012433
573.000000	0.012342
572.000000	0.012338
571.000000	0.012276
570.000000	0.012038
569.000000	0.011855
568.000000	0.011921
567.000000	0.012006
566.000000	0.011840
565.000000	0.011569
564.000000	0.011457
563.000000	0.011459
562.000000	0.011444
561.000000	0.011526
560.000000	0.011801
559.000000	0.012030
558.000000	0.011994
557.000000	0.011860
556.000000	0.011852
555.000000	0.011846
554.000000	0.011678
553.000000	0.011518
552.000000	0.011562
551.000000	0.011648
550.000000	0.011573
549.000000	0.011489
548.000000	0.011594
547.000000	0.011732
546.000000	0.011691
545.000000	0.011622
544.000000	0.011731
543.000000	0.011884
542.000000	0.011888
541.000000	0.011855
540.000000	0.011931
539.000000	0.011970
538.000000	0.011860
537.000000	0.011835
536.000000	0.012071
535.000000	0.012303
534.000000	0.012264
533.000000	0.012154
532.000000	0.012266
531.000000	0.012471
530.000000	0.012509
529.000000	0.012451
528.000000	0.012479
527.000000	0.012506
526.000000	0.012429
525.000000	0.012437
524.000000	0.012633
523.000000	0.012727
522.000000	0.012508
521.000000	0.012238
520.000000	0.012207
519.000000	0.012267
518.000000	0.012187
517.000000	0.012133
516.000000	0.012300
515.000000	0.012479
514.000000	0.012480
513.000000	0.012499
512.000000	0.012676
511.000000	0.012691
510.000000	0.012282
509.000000	0.011771
508.000000	0.011607
507.000000	0.011728
506.000000	0.011829
505.000000	0.011910
504.000000	0.012056
503.000000	0.012059
502.000000	0.011759
501.000000	0.011436
500.000000	0.011354
499.000000	0.011334
498.000000	0.011220
497.000000	0.011272
496.000000	0.011648
495.000000	0.011959
494.000000	0.011821
493.000000	0.011485
492.000000	0.011379
491.000000	0.011421
490.000000	0.011341
489.000000	0.011256
488.000000	0.011366
487.000000	0.011482
486.000000	0.011387
485.000000	0.011319
484.000000	0.011557
483.000000	0.011876
482.000000	0.011980
481.000000	0.012039
480.000000	0.012251
479.000000	0.012338
478.000000	0.012072
477.000000	0.011840
476.000000	0.012097
475.000000	0.012654
474.000000	0.013086
473.000000	0.013418
472.000000	0.013815
471.000000	0.013994
470.000000	0.013734
469.000000	0.013387
468.000000	0.013267
467.000000	0.013137
466.000000	0.012796
465.000000	0.012602
464.000000	0.012794
463.000000	0.012929
462.000000	0.012600
461.000000	0.012182
460.000000	0.012122
459.000000	0.012143
458.000000	0.011861
457.000000	0.011620
456.000000	0.011752
455.000000	0.011776
454.000000	0.011322
453.000000	0.010854
452.000000	0.010876
451.000000	0.011050
450.000000	0.010927
