PE IR       SUBTECH     SPECTRUM    ASCII       PEDS        4.00        
   -1
P8-Or029_1.ASC
23/06/13
15:50:51.00
23/06/13
16:11:22.00
uco
Sample 029 By uco Date Tuesday, June 13 2023
450.000000
#HDR
-1
-1
#GR
cm-1
A
1.0
0.0
4000.000000
-1.000000
3551
8
0.067040
0.004035
#DATA
4000.000000	0.004780
3999.000000	0.004804
3998.000000	0.004827
3997.000000	0.004842
3996.000000	0.004849
3995.000000	0.004855
3994.000000	0.004864
3993.000000	0.004873
3992.000000	0.004868
3991.000000	0.004844
3990.000000	0.004812
3989.000000	0.004793
3988.000000	0.004803
3987.000000	0.004839
3986.000000	0.004881
3985.000000	0.004904
3984.000000	0.004898
3983.000000	0.004869
3982.000000	0.004840
3981.000000	0.004829
3980.000000	0.004844
3979.000000	0.004875
3978.000000	0.004903
3977.000000	0.004917
3976.000000	0.004914
3975.000000	0.004906
3974.000000	0.004904
3973.000000	0.004914
3972.000000	0.004927
3971.000000	0.004931
3970.000000	0.004921
3969.000000	0.004905
3968.000000	0.004897
3967.000000	0.004908
3966.000000	0.004930
3965.000000	0.004949
3964.000000	0.004953
3963.000000	0.004946
3962.000000	0.004939
3961.000000	0.004938
3960.000000	0.004942
3959.000000	0.004944
3958.000000	0.004937
3957.000000	0.004918
3956.000000	0.004893
3955.000000	0.004871
3954.000000	0.004867
3953.000000	0.004886
3952.000000	0.004928
3951.000000	0.004980
3950.000000	0.005025
3949.000000	0.005051
3948.000000	0.005056
3947.000000	0.005048
3946.000000	0.005032
3945.000000	0.005004
3944.000000	0.004964
3943.000000	0.004916
3942.000000	0.004877
3941.000000	0.004855
3940.000000	0.004850
3939.000000	0.004855
3938.000000	0.004870
3937.000000	0.004902
3936.000000	0.004951
3935.000000	0.005007
3934.000000	0.005051
3933.000000	0.005066
3932.000000	0.005049
3931.000000	0.005015
3930.000000	0.004982
3929.000000	0.004960
3928.000000	0.004947
3927.000000	0.004936
3926.000000	0.004930
3925.000000	0.004933
3924.000000	0.004947
3923.000000	0.004965
3922.000000	0.004982
3921.000000	0.004999
3920.000000	0.005021
3919.000000	0.005047
3918.000000	0.005063
3917.000000	0.005056
3916.000000	0.005030
3915.000000	0.004995
3914.000000	0.004963
3913.000000	0.004937
3912.000000	0.004918
3911.000000	0.004912
3910.000000	0.004922
3909.000000	0.004945
3908.000000	0.004973
3907.000000	0.005000
3906.000000	0.005026
3905.000000	0.005060
3904.000000	0.005105
3903.000000	0.005150
3902.000000	0.005172
3901.000000	0.005154
3900.000000	0.005109
3899.000000	0.005063
3898.000000	0.005038
3897.000000	0.005032
3896.000000	0.005037
3895.000000	0.005043
3894.000000	0.005046
3893.000000	0.005043
3892.000000	0.005043
3891.000000	0.005066
3890.000000	0.005112
3889.000000	0.005158
3888.000000	0.005176
3887.000000	0.005155
3886.000000	0.005110
3885.000000	0.005078
3884.000000	0.005071
3883.000000	0.005066
3882.000000	0.005039
3881.000000	0.004998
3880.000000	0.004978
3879.000000	0.004997
3878.000000	0.005035
3877.000000	0.005056
3876.000000	0.005046
3875.000000	0.005025
3874.000000	0.005031
3873.000000	0.005077
3872.000000	0.005132
3871.000000	0.005158
3870.000000	0.005151
3869.000000	0.005138
3868.000000	0.005129
3867.000000	0.005121
3866.000000	0.005107
3865.000000	0.005089
3864.000000	0.005079
3863.000000	0.005077
3862.000000	0.005075
3861.000000	0.005073
3860.000000	0.005072
3859.000000	0.005078
3858.000000	0.005095
3857.000000	0.005116
3856.000000	0.005128
3855.000000	0.005122
3854.000000	0.005128
3853.000000	0.005176
3852.000000	0.005226
3851.000000	0.005227
3850.000000	0.005192
3849.000000	0.005154
3848.000000	0.005131
3847.000000	0.005122
3846.000000	0.005118
3845.000000	0.005108
3844.000000	0.005097
3843.000000	0.005095
3842.000000	0.005110
3841.000000	0.005134
3840.000000	0.005149
3839.000000	0.005142
3838.000000	0.005116
3837.000000	0.005085
3836.000000	0.005063
3835.000000	0.005056
3834.000000	0.005057
3833.000000	0.005056
3832.000000	0.005045
3831.000000	0.005029
3830.000000	0.005013
3829.000000	0.004992
3828.000000	0.004969
3827.000000	0.004964
3826.000000	0.004998
3825.000000	0.005062
3824.000000	0.005119
3823.000000	0.005126
3822.000000	0.005080
3821.000000	0.005039
3820.000000	0.005053
3819.000000	0.005098
3818.000000	0.005125
3817.000000	0.005117
3816.000000	0.005096
3815.000000	0.005089
3814.000000	0.005093
3813.000000	0.005091
3812.000000	0.005083
3811.000000	0.005078
3810.000000	0.005080
3809.000000	0.005083
3808.000000	0.005087
3807.000000	0.005110
3806.000000	0.005160
3805.000000	0.005204
3804.000000	0.005204
3803.000000	0.005142
3802.000000	0.005051
3801.000000	0.004997
3800.000000	0.004995
3799.000000	0.005008
3798.000000	0.005009
3797.000000	0.005006
3796.000000	0.005015
3795.000000	0.005031
3794.000000	0.005031
3793.000000	0.005002
3792.000000	0.004956
3791.000000	0.004917
3790.000000	0.004901
3789.000000	0.004909
3788.000000	0.004931
3787.000000	0.004953
3786.000000	0.004972
3785.000000	0.004989
3784.000000	0.005006
3783.000000	0.005022
3782.000000	0.005031
3781.000000	0.005022
3780.000000	0.004999
3779.000000	0.004977
3778.000000	0.004966
3777.000000	0.004963
3776.000000	0.004966
3775.000000	0.004979
3774.000000	0.005006
3773.000000	0.005039
3772.000000	0.005063
3771.000000	0.005074
3770.000000	0.005079
3769.000000	0.005089
3768.000000	0.005093
3767.000000	0.005080
3766.000000	0.005053
3765.000000	0.005031
3764.000000	0.005027
3763.000000	0.005032
3762.000000	0.005029
3761.000000	0.005007
3760.000000	0.004980
3759.000000	0.004971
3758.000000	0.004988
3757.000000	0.005022
3756.000000	0.005062
3755.000000	0.005106
3754.000000	0.005156
3753.000000	0.005214
3752.000000	0.005275
3751.000000	0.005337
3750.000000	0.005395
3749.000000	0.005436
3748.000000	0.005460
3747.000000	0.005466
3746.000000	0.005457
3745.000000	0.005437
3744.000000	0.005418
3743.000000	0.005387
3742.000000	0.005325
3741.000000	0.005249
3740.000000	0.005189
3739.000000	0.005166
3738.000000	0.005181
3737.000000	0.005210
3736.000000	0.005202
3735.000000	0.005122
3734.000000	0.005009
3733.000000	0.004936
3732.000000	0.004942
3731.000000	0.004999
3730.000000	0.005064
3729.000000	0.005112
3728.000000	0.005143
3727.000000	0.005162
3726.000000	0.005175
3725.000000	0.005183
3724.000000	0.005183
3723.000000	0.005176
3722.000000	0.005167
3721.000000	0.005155
3720.000000	0.005135
3719.000000	0.005109
3718.000000	0.005090
3717.000000	0.005091
3716.000000	0.005113
3715.000000	0.005148
3714.000000	0.005194
3713.000000	0.005257
3712.000000	0.005335
3711.000000	0.005397
3710.000000	0.005396
3709.000000	0.005315
3708.000000	0.005183
3707.000000	0.005056
3706.000000	0.004970
3705.000000	0.004918
3704.000000	0.004865
3703.000000	0.004792
3702.000000	0.004721
3701.000000	0.004692
3700.000000	0.004716
3699.000000	0.004769
3698.000000	0.004823
3697.000000	0.004870
3696.000000	0.004922
3695.000000	0.004994
3694.000000	0.005080
3693.000000	0.005143
3692.000000	0.005141
3691.000000	0.005060
3690.000000	0.004943
3689.000000	0.004878
3688.000000	0.004908
3687.000000	0.004997
3686.000000	0.005081
3685.000000	0.005123
3684.000000	0.005126
3683.000000	0.005109
3682.000000	0.005085
3681.000000	0.005064
3680.000000	0.005061
3679.000000	0.005082
3678.000000	0.005113
3677.000000	0.005124
3676.000000	0.005123
3675.000000	0.005173
3674.000000	0.005282
3673.000000	0.005381
3672.000000	0.005412
3671.000000	0.005364
3670.000000	0.005280
3669.000000	0.005219
3668.000000	0.005189
3667.000000	0.005164
3666.000000	0.005131
3665.000000	0.005095
3664.000000	0.005068
3663.000000	0.005057
3662.000000	0.005063
3661.000000	0.005088
3660.000000	0.005124
3659.000000	0.005158
3658.000000	0.005177
3657.000000	0.005181
3656.000000	0.005194
3655.000000	0.005234
3654.000000	0.005289
3653.000000	0.005335
3652.000000	0.005362
3651.000000	0.005379
3650.000000	0.005405
3649.000000	0.005440
3648.000000	0.005458
3647.000000	0.005442
3646.000000	0.005409
3645.000000	0.005380
3644.000000	0.005370
3643.000000	0.005382
3642.000000	0.005403
3641.000000	0.005410
3640.000000	0.005393
3639.000000	0.005364
3638.000000	0.005345
3637.000000	0.005346
3636.000000	0.005361
3635.000000	0.005388
3634.000000	0.005433
3633.000000	0.005497
3632.000000	0.005571
3631.000000	0.005642
3630.000000	0.005695
3629.000000	0.005729
3628.000000	0.005746
3627.000000	0.005735
3626.000000	0.005689
3625.000000	0.005621
3624.000000	0.005544
3623.000000	0.005457
3622.000000	0.005347
3621.000000	0.005220
3620.000000	0.005128
3619.000000	0.005149
3618.000000	0.005300
3617.000000	0.005505
3616.000000	0.005678
3615.000000	0.005782
3614.000000	0.005830
3613.000000	0.005855
3612.000000	0.005881
3611.000000	0.005909
3610.000000	0.005928
3609.000000	0.005925
3608.000000	0.005890
3607.000000	0.005829
3606.000000	0.005758
3605.000000	0.005694
3604.000000	0.005652
3603.000000	0.005640
3602.000000	0.005657
3601.000000	0.005685
3600.000000	0.005708
3599.000000	0.005723
3598.000000	0.005737
3597.000000	0.005754
3596.000000	0.005774
3595.000000	0.005798
3594.000000	0.005823
3593.000000	0.005842
3592.000000	0.005852
3591.000000	0.005856
3590.000000	0.005860
3589.000000	0.005866
3588.000000	0.005886
3587.000000	0.005926
3586.000000	0.005977
3585.000000	0.006011
3584.000000	0.006018
3583.000000	0.006012
3582.000000	0.006007
3581.000000	0.006009
3580.000000	0.006010
3579.000000	0.006006
3578.000000	0.005998
3577.000000	0.005991
3576.000000	0.005992
3575.000000	0.006006
3574.000000	0.006030
3573.000000	0.006059
3572.000000	0.006087
3571.000000	0.006119
3570.000000	0.006154
3569.000000	0.006189
3568.000000	0.006219
3567.000000	0.006245
3566.000000	0.006270
3565.000000	0.006287
3564.000000	0.006288
3563.000000	0.006270
3562.000000	0.006243
3561.000000	0.006219
3560.000000	0.006209
3559.000000	0.006224
3558.000000	0.006260
3557.000000	0.006304
3556.000000	0.006341
3555.000000	0.006360
3554.000000	0.006358
3553.000000	0.006341
3552.000000	0.006330
3551.000000	0.006342
3550.000000	0.006376
3549.000000	0.006422
3548.000000	0.006470
3547.000000	0.006518
3546.000000	0.006562
3545.000000	0.006592
3544.000000	0.006605
3543.000000	0.006604
3542.000000	0.006592
3541.000000	0.006566
3540.000000	0.006530
3539.000000	0.006501
3538.000000	0.006498
3537.000000	0.006530
3536.000000	0.006587
3535.000000	0.006651
3534.000000	0.006701
3533.000000	0.006724
3532.000000	0.006726
3531.000000	0.006724
3530.000000	0.006734
3529.000000	0.006759
3528.000000	0.006792
3527.000000	0.006826
3526.000000	0.006854
3525.000000	0.006869
3524.000000	0.006866
3523.000000	0.006854
3522.000000	0.006842
3521.000000	0.006836
3520.000000	0.006834
3519.000000	0.006836
3518.000000	0.006845
3517.000000	0.006861
3516.000000	0.006878
3515.000000	0.006885
3514.000000	0.006879
3513.000000	0.006864
3512.000000	0.006852
3511.000000	0.006858
3510.000000	0.006883
3509.000000	0.006915
3508.000000	0.006944
3507.000000	0.006967
3506.000000	0.006988
3505.000000	0.007014
3504.000000	0.007052
3503.000000	0.007103
3502.000000	0.007156
3501.000000	0.007191
3500.000000	0.007197
3499.000000	0.007183
3498.000000	0.007172
3497.000000	0.007180
3496.000000	0.007209
3495.000000	0.007247
3494.000000	0.007280
3493.000000	0.007297
3492.000000	0.007300
3491.000000	0.007301
3490.000000	0.007306
3489.000000	0.007314
3488.000000	0.007322
3487.000000	0.007334
3486.000000	0.007351
3485.000000	0.007367
3484.000000	0.007378
3483.000000	0.007389
3482.000000	0.007409
3481.000000	0.007440
3480.000000	0.007469
3479.000000	0.007484
3478.000000	0.007482
3477.000000	0.007471
3476.000000	0.007466
3475.000000	0.007479
3474.000000	0.007509
3473.000000	0.007545
3472.000000	0.007572
3471.000000	0.007588
3470.000000	0.007600
3469.000000	0.007619
3468.000000	0.007651
3467.000000	0.007692
3466.000000	0.007730
3465.000000	0.007749
3464.000000	0.007745
3463.000000	0.007727
3462.000000	0.007712
3461.000000	0.007708
3460.000000	0.007719
3459.000000	0.007741
3458.000000	0.007770
3457.000000	0.007804
3456.000000	0.007836
3455.000000	0.007861
3454.000000	0.007870
3453.000000	0.007862
3452.000000	0.007846
3451.000000	0.007839
3450.000000	0.007850
3449.000000	0.007875
3448.000000	0.007908
3447.000000	0.007946
3446.000000	0.007981
3445.000000	0.007999
3444.000000	0.007996
3443.000000	0.007983
3442.000000	0.007975
3441.000000	0.007977
3440.000000	0.007991
3439.000000	0.008015
3438.000000	0.008049
3437.000000	0.008091
3436.000000	0.008132
3435.000000	0.008166
3434.000000	0.008191
3433.000000	0.008205
3432.000000	0.008210
3431.000000	0.008206
3430.000000	0.008192
3429.000000	0.008169
3428.000000	0.008147
3427.000000	0.008136
3426.000000	0.008145
3425.000000	0.008173
3424.000000	0.008217
3423.000000	0.008268
3422.000000	0.008309
3421.000000	0.008331
3420.000000	0.008338
3419.000000	0.008345
3418.000000	0.008363
3417.000000	0.008390
3416.000000	0.008419
3415.000000	0.008441
3414.000000	0.008454
3413.000000	0.008459
3412.000000	0.008467
3411.000000	0.008486
3410.000000	0.008512
3409.000000	0.008535
3408.000000	0.008549
3407.000000	0.008558
3406.000000	0.008564
3405.000000	0.008568
3404.000000	0.008572
3403.000000	0.008577
3402.000000	0.008587
3401.000000	0.008601
3400.000000	0.008617
3399.000000	0.008632
3398.000000	0.008645
3397.000000	0.008655
3396.000000	0.008662
3395.000000	0.008673
3394.000000	0.008688
3393.000000	0.008703
3392.000000	0.008719
3391.000000	0.008733
3390.000000	0.008746
3389.000000	0.008754
3388.000000	0.008764
3387.000000	0.008784
3386.000000	0.008811
3385.000000	0.008832
3384.000000	0.008846
3383.000000	0.008863
3382.000000	0.008896
3381.000000	0.008938
3380.000000	0.008971
3379.000000	0.008982
3378.000000	0.008973
3377.000000	0.008960
3376.000000	0.008956
3375.000000	0.008970
3374.000000	0.008995
3373.000000	0.009021
3372.000000	0.009044
3371.000000	0.009069
3370.000000	0.009102
3369.000000	0.009137
3368.000000	0.009163
3367.000000	0.009176
3366.000000	0.009185
3365.000000	0.009193
3364.000000	0.009202
3363.000000	0.009210
3362.000000	0.009219
3361.000000	0.009232
3360.000000	0.009252
3359.000000	0.009283
3358.000000	0.009322
3357.000000	0.009362
3356.000000	0.009394
3355.000000	0.009413
3354.000000	0.009420
3353.000000	0.009423
3352.000000	0.009427
3351.000000	0.009443
3350.000000	0.009471
3349.000000	0.009504
3348.000000	0.009536
3347.000000	0.009558
3346.000000	0.009567
3345.000000	0.009566
3344.000000	0.009564
3343.000000	0.009574
3342.000000	0.009597
3341.000000	0.009622
3340.000000	0.009635
3339.000000	0.009637
3338.000000	0.009637
3337.000000	0.009640
3336.000000	0.009645
3335.000000	0.009654
3334.000000	0.009671
3333.000000	0.009700
3332.000000	0.009739
3331.000000	0.009787
3330.000000	0.009833
3329.000000	0.009866
3328.000000	0.009877
3327.000000	0.009869
3326.000000	0.009858
3325.000000	0.009860
3324.000000	0.009884
3323.000000	0.009927
3322.000000	0.009979
3321.000000	0.010024
3320.000000	0.010059
3319.000000	0.010082
3318.000000	0.010094
3317.000000	0.010094
3316.000000	0.010081
3315.000000	0.010064
3314.000000	0.010049
3313.000000	0.010042
3312.000000	0.010045
3311.000000	0.010061
3310.000000	0.010088
3309.000000	0.010122
3308.000000	0.010159
3307.000000	0.010195
3306.000000	0.010227
3305.000000	0.010253
3304.000000	0.010278
3303.000000	0.010305
3302.000000	0.010334
3301.000000	0.010356
3300.000000	0.010369
3299.000000	0.010377
3298.000000	0.010386
3297.000000	0.010395
3296.000000	0.010404
3295.000000	0.010413
3294.000000	0.010423
3293.000000	0.010436
3292.000000	0.010451
3291.000000	0.010470
3290.000000	0.010490
3289.000000	0.010503
3288.000000	0.010507
3287.000000	0.010503
3286.000000	0.010492
3285.000000	0.010475
3284.000000	0.010455
3283.000000	0.010437
3282.000000	0.010424
3281.000000	0.010415
3280.000000	0.010408
3279.000000	0.010404
3278.000000	0.010411
3277.000000	0.010428
3276.000000	0.010448
3275.000000	0.010459
3274.000000	0.010450
3273.000000	0.010423
3272.000000	0.010399
3271.000000	0.010398
3270.000000	0.010423
3269.000000	0.010451
3268.000000	0.010455
3267.000000	0.010430
3266.000000	0.010392
3265.000000	0.010362
3264.000000	0.010352
3263.000000	0.010358
3262.000000	0.010369
3261.000000	0.010378
3260.000000	0.010381
3259.000000	0.010376
3258.000000	0.010360
3257.000000	0.010330
3256.000000	0.010291
3255.000000	0.010252
3254.000000	0.010213
3253.000000	0.010173
3252.000000	0.010141
3251.000000	0.010130
3250.000000	0.010138
3249.000000	0.010140
3248.000000	0.010118
3247.000000	0.010080
3246.000000	0.010051
3245.000000	0.010051
3244.000000	0.010077
3243.000000	0.010105
3242.000000	0.010107
3241.000000	0.010068
3240.000000	0.009995
3239.000000	0.009918
3238.000000	0.009863
3237.000000	0.009839
3236.000000	0.009839
3235.000000	0.009851
3234.000000	0.009863
3233.000000	0.009866
3232.000000	0.009862
3231.000000	0.009854
3230.000000	0.009844
3229.000000	0.009830
3228.000000	0.009815
3227.000000	0.009808
3226.000000	0.009808
3225.000000	0.009805
3224.000000	0.009790
3223.000000	0.009770
3222.000000	0.009758
3221.000000	0.009759
3220.000000	0.009774
3219.000000	0.009798
3218.000000	0.009822
3217.000000	0.009831
3216.000000	0.009818
3215.000000	0.009793
3214.000000	0.009764
3213.000000	0.009730
3212.000000	0.009689
3211.000000	0.009650
3210.000000	0.009628
3209.000000	0.009632
3208.000000	0.009650
3207.000000	0.009671
3206.000000	0.009688
3205.000000	0.009699
3204.000000	0.009702
3203.000000	0.009703
3202.000000	0.009706
3201.000000	0.009703
3200.000000	0.009684
3199.000000	0.009647
3198.000000	0.009605
3197.000000	0.009570
3196.000000	0.009544
3195.000000	0.009522
3194.000000	0.009495
3193.000000	0.009463
3192.000000	0.009430
3191.000000	0.009408
3190.000000	0.009400
3189.000000	0.009404
3188.000000	0.009409
3187.000000	0.009407
3186.000000	0.009395
3185.000000	0.009375
3184.000000	0.009348
3183.000000	0.009320
3182.000000	0.009300
3181.000000	0.009290
3180.000000	0.009285
3179.000000	0.009278
3178.000000	0.009269
3177.000000	0.009260
3176.000000	0.009254
3175.000000	0.009243
3174.000000	0.009217
3173.000000	0.009176
3172.000000	0.009131
3171.000000	0.009099
3170.000000	0.009084
3169.000000	0.009076
3168.000000	0.009069
3167.000000	0.009063
3166.000000	0.009058
3165.000000	0.009052
3164.000000	0.009046
3163.000000	0.009043
3162.000000	0.009041
3161.000000	0.009034
3160.000000	0.009017
3159.000000	0.008993
3158.000000	0.008968
3157.000000	0.008943
3156.000000	0.008919
3155.000000	0.008902
3154.000000	0.008895
3153.000000	0.008888
3152.000000	0.008868
3151.000000	0.008833
3150.000000	0.008793
3149.000000	0.008759
3148.000000	0.008741
3147.000000	0.008736
3146.000000	0.008736
3145.000000	0.008731
3144.000000	0.008721
3143.000000	0.008714
3142.000000	0.008707
3141.000000	0.008689
3140.000000	0.008650
3139.000000	0.008602
3138.000000	0.008574
3137.000000	0.008582
3136.000000	0.008619
3135.000000	0.008662
3134.000000	0.008693
3133.000000	0.008701
3132.000000	0.008684
3131.000000	0.008651
3130.000000	0.008612
3129.000000	0.008576
3128.000000	0.008551
3127.000000	0.008539
3126.000000	0.008538
3125.000000	0.008543
3124.000000	0.008548
3123.000000	0.008554
3122.000000	0.008555
3121.000000	0.008546
3120.000000	0.008526
3119.000000	0.008503
3118.000000	0.008496
3117.000000	0.008510
3116.000000	0.008539
3115.000000	0.008566
3114.000000	0.008576
3113.000000	0.008565
3112.000000	0.008544
3111.000000	0.008530
3110.000000	0.008527
3109.000000	0.008522
3108.000000	0.008504
3107.000000	0.008478
3106.000000	0.008459
3105.000000	0.008456
3104.000000	0.008461
3103.000000	0.008465
3102.000000	0.008464
3101.000000	0.008463
3100.000000	0.008466
3099.000000	0.008475
3098.000000	0.008488
3097.000000	0.008499
3096.000000	0.008501
3095.000000	0.008498
3094.000000	0.008495
3093.000000	0.008499
3092.000000	0.008511
3091.000000	0.008530
3090.000000	0.008553
3089.000000	0.008572
3088.000000	0.008583
3087.000000	0.008590
3086.000000	0.008595
3085.000000	0.008601
3084.000000	0.008606
3083.000000	0.008613
3082.000000	0.008619
3081.000000	0.008625
3080.000000	0.008626
3079.000000	0.008624
3078.000000	0.008619
3077.000000	0.008616
3076.000000	0.008616
3075.000000	0.008618
3074.000000	0.008618
3073.000000	0.008609
3072.000000	0.008594
3071.000000	0.008580
3070.000000	0.008579
3069.000000	0.008588
3068.000000	0.008598
3067.000000	0.008601
3066.000000	0.008593
3065.000000	0.008576
3064.000000	0.008559
3063.000000	0.008555
3062.000000	0.008570
3061.000000	0.008597
3060.000000	0.008618
3059.000000	0.008622
3058.000000	0.008611
3057.000000	0.008596
3056.000000	0.008583
3055.000000	0.008577
3054.000000	0.008573
3053.000000	0.008565
3052.000000	0.008544
3051.000000	0.008511
3050.000000	0.008481
3049.000000	0.008464
3048.000000	0.008462
3047.000000	0.008465
3046.000000	0.008462
3045.000000	0.008453
3044.000000	0.008448
3043.000000	0.008455
3042.000000	0.008468
3041.000000	0.008472
3040.000000	0.008459
3039.000000	0.008439
3038.000000	0.008428
3037.000000	0.008428
3036.000000	0.008426
3035.000000	0.008409
3034.000000	0.008386
3033.000000	0.008369
3032.000000	0.008365
3031.000000	0.008368
3030.000000	0.008367
3029.000000	0.008359
3028.000000	0.008343
3027.000000	0.008320
3026.000000	0.008293
3025.000000	0.008268
3024.000000	0.008253
3023.000000	0.008251
3022.000000	0.008260
3021.000000	0.008272
3020.000000	0.008282
3019.000000	0.008284
3018.000000	0.008277
3017.000000	0.008262
3016.000000	0.008249
3015.000000	0.008245
3014.000000	0.008251
3013.000000	0.008259
3012.000000	0.008262
3011.000000	0.008259
3010.000000	0.008257
3009.000000	0.008266
3008.000000	0.008285
3007.000000	0.008306
3006.000000	0.008317
3005.000000	0.008315
3004.000000	0.008301
3003.000000	0.008284
3002.000000	0.008276
3001.000000	0.008285
3000.000000	0.008307
2999.000000	0.008335
2998.000000	0.008360
2997.000000	0.008385
2996.000000	0.008415
2995.000000	0.008452
2994.000000	0.008493
2993.000000	0.008535
2992.000000	0.008583
2991.000000	0.008641
2990.000000	0.008706
2989.000000	0.008775
2988.000000	0.008844
2987.000000	0.008905
2986.000000	0.008954
2985.000000	0.008989
2984.000000	0.009017
2983.000000	0.009052
2982.000000	0.009103
2981.000000	0.009160
2980.000000	0.009215
2979.000000	0.009264
2978.000000	0.009318
2977.000000	0.009391
2976.000000	0.009479
2975.000000	0.009567
2974.000000	0.009643
2973.000000	0.009709
2972.000000	0.009774
2971.000000	0.009846
2970.000000	0.009925
2969.000000	0.010010
2968.000000	0.010100
2967.000000	0.010191
2966.000000	0.010275
2965.000000	0.010346
2964.000000	0.010407
2963.000000	0.010463
2962.000000	0.010514
2961.000000	0.010559
2960.000000	0.010602
2959.000000	0.010650
2958.000000	0.010698
2957.000000	0.010735
2956.000000	0.010748
2955.000000	0.010729
2954.000000	0.010683
2953.000000	0.010621
2952.000000	0.010565
2951.000000	0.010532
2950.000000	0.010519
2949.000000	0.010513
2948.000000	0.010507
2947.000000	0.010510
2946.000000	0.010538
2945.000000	0.010597
2944.000000	0.010680
2943.000000	0.010769
2942.000000	0.010851
2941.000000	0.010920
2940.000000	0.010988
2939.000000	0.011071
2938.000000	0.011171
2937.000000	0.011275
2936.000000	0.011368
2935.000000	0.011449
2934.000000	0.011530
2933.000000	0.011624
2932.000000	0.011731
2931.000000	0.011842
2930.000000	0.011940
2929.000000	0.012008
2928.000000	0.012044
2927.000000	0.012059
2926.000000	0.012073
2925.000000	0.012097
2924.000000	0.012134
2923.000000	0.012178
2922.000000	0.012216
2921.000000	0.012230
2920.000000	0.012211
2919.000000	0.012161
2918.000000	0.012087
2917.000000	0.011991
2916.000000	0.011875
2915.000000	0.011746
2914.000000	0.011612
2913.000000	0.011477
2912.000000	0.011343
2911.000000	0.011219
2910.000000	0.011113
2909.000000	0.011027
2908.000000	0.010957
2907.000000	0.010891
2906.000000	0.010823
2905.000000	0.010749
2904.000000	0.010668
2903.000000	0.010585
2902.000000	0.010506
2901.000000	0.010432
2900.000000	0.010356
2899.000000	0.010274
2898.000000	0.010187
2897.000000	0.010101
2896.000000	0.010021
2895.000000	0.009950
2894.000000	0.009889
2893.000000	0.009835
2892.000000	0.009788
2891.000000	0.009750
2890.000000	0.009723
2889.000000	0.009705
2888.000000	0.009684
2887.000000	0.009660
2886.000000	0.009643
2885.000000	0.009648
2884.000000	0.009681
2883.000000	0.009730
2882.000000	0.009781
2881.000000	0.009823
2880.000000	0.009857
2879.000000	0.009892
2878.000000	0.009936
2877.000000	0.009991
2876.000000	0.010052
2875.000000	0.010108
2874.000000	0.010155
2873.000000	0.010186
2872.000000	0.010203
2871.000000	0.010209
2870.000000	0.010208
2869.000000	0.010198
2868.000000	0.010180
2867.000000	0.010162
2866.000000	0.010158
2865.000000	0.010176
2864.000000	0.010213
2863.000000	0.010258
2862.000000	0.010306
2861.000000	0.010355
2860.000000	0.010401
2859.000000	0.010442
2858.000000	0.010479
2857.000000	0.010514
2856.000000	0.010547
2855.000000	0.010572
2854.000000	0.010579
2853.000000	0.010563
2852.000000	0.010522
2851.000000	0.010460
2850.000000	0.010380
2849.000000	0.010283
2848.000000	0.010170
2847.000000	0.010037
2846.000000	0.009889
2845.000000	0.009730
2844.000000	0.009571
2843.000000	0.009420
2842.000000	0.009287
2841.000000	0.009179
2840.000000	0.009093
2839.000000	0.009023
2838.000000	0.008958
2837.000000	0.008893
2836.000000	0.008831
2835.000000	0.008775
2834.000000	0.008727
2833.000000	0.008684
2832.000000	0.008642
2831.000000	0.008603
2830.000000	0.008569
2829.000000	0.008544
2828.000000	0.008528
2827.000000	0.008519
2826.000000	0.008515
2825.000000	0.008509
2824.000000	0.008498
2823.000000	0.008483
2822.000000	0.008465
2821.000000	0.008444
2820.000000	0.008416
2819.000000	0.008384
2818.000000	0.008360
2817.000000	0.008352
2816.000000	0.008358
2815.000000	0.008364
2814.000000	0.008364
2813.000000	0.008363
2812.000000	0.008362
2811.000000	0.008355
2810.000000	0.008336
2809.000000	0.008306
2808.000000	0.008276
2807.000000	0.008252
2806.000000	0.008232
2805.000000	0.008210
2804.000000	0.008191
2803.000000	0.008179
2802.000000	0.008176
2801.000000	0.008176
2800.000000	0.008174
2799.000000	0.008168
2798.000000	0.008156
2797.000000	0.008141
2796.000000	0.008128
2795.000000	0.008118
2794.000000	0.008110
2793.000000	0.008099
2792.000000	0.008087
2791.000000	0.008080
2790.000000	0.008081
2789.000000	0.008086
2788.000000	0.008088
2787.000000	0.008081
2786.000000	0.008072
2785.000000	0.008066
2784.000000	0.008063
2783.000000	0.008056
2782.000000	0.008041
2781.000000	0.008018
2780.000000	0.007991
2779.000000	0.007972
2778.000000	0.007965
2777.000000	0.007970
2776.000000	0.007982
2775.000000	0.007994
2774.000000	0.008004
2773.000000	0.008011
2772.000000	0.008012
2771.000000	0.008005
2770.000000	0.007992
2769.000000	0.007977
2768.000000	0.007967
2767.000000	0.007964
2766.000000	0.007967
2765.000000	0.007967
2764.000000	0.007955
2763.000000	0.007929
2762.000000	0.007896
2761.000000	0.007871
2760.000000	0.007870
2759.000000	0.007894
2758.000000	0.007932
2757.000000	0.007963
2756.000000	0.007969
2755.000000	0.007954
2754.000000	0.007931
2753.000000	0.007916
2752.000000	0.007909
2751.000000	0.007908
2750.000000	0.007910
2749.000000	0.007912
2748.000000	0.007914
2747.000000	0.007914
2746.000000	0.007916
2745.000000	0.007919
2744.000000	0.007916
2743.000000	0.007903
2742.000000	0.007885
2741.000000	0.007871
2740.000000	0.007865
2739.000000	0.007858
2738.000000	0.007842
2737.000000	0.007823
2736.000000	0.007811
2735.000000	0.007807
2734.000000	0.007812
2733.000000	0.007823
2732.000000	0.007839
2731.000000	0.007854
2730.000000	0.007860
2729.000000	0.007851
2728.000000	0.007833
2727.000000	0.007815
2726.000000	0.007804
2725.000000	0.007799
2724.000000	0.007800
2723.000000	0.007804
2722.000000	0.007811
2721.000000	0.007816
2720.000000	0.007812
2719.000000	0.007797
2718.000000	0.007778
2717.000000	0.007763
2716.000000	0.007755
2715.000000	0.007753
2714.000000	0.007754
2713.000000	0.007759
2712.000000	0.007766
2711.000000	0.007771
2710.000000	0.007772
2709.000000	0.007769
2708.000000	0.007760
2707.000000	0.007748
2706.000000	0.007736
2705.000000	0.007730
2704.000000	0.007732
2703.000000	0.007738
2702.000000	0.007740
2701.000000	0.007734
2700.000000	0.007724
2699.000000	0.007714
2698.000000	0.007709
2697.000000	0.007710
2696.000000	0.007715
2695.000000	0.007724
2694.000000	0.007736
2693.000000	0.007751
2692.000000	0.007764
2691.000000	0.007767
2690.000000	0.007753
2689.000000	0.007727
2688.000000	0.007706
2687.000000	0.007704
2686.000000	0.007723
2685.000000	0.007748
2684.000000	0.007761
2683.000000	0.007753
2682.000000	0.007729
2681.000000	0.007704
2680.000000	0.007687
2679.000000	0.007679
2678.000000	0.007679
2677.000000	0.007685
2676.000000	0.007699
2675.000000	0.007719
2674.000000	0.007737
2673.000000	0.007737
2672.000000	0.007717
2671.000000	0.007686
2670.000000	0.007665
2669.000000	0.007663
2668.000000	0.007675
2667.000000	0.007692
2666.000000	0.007711
2665.000000	0.007730
2664.000000	0.007743
2663.000000	0.007744
2662.000000	0.007740
2661.000000	0.007745
2660.000000	0.007762
2659.000000	0.007778
2658.000000	0.007778
2657.000000	0.007763
2656.000000	0.007742
2655.000000	0.007725
2654.000000	0.007716
2653.000000	0.007710
2652.000000	0.007703
2651.000000	0.007695
2650.000000	0.007688
2649.000000	0.007676
2648.000000	0.007656
2647.000000	0.007631
2646.000000	0.007610
2645.000000	0.007604
2644.000000	0.007607
2643.000000	0.007612
2642.000000	0.007612
2641.000000	0.007605
2640.000000	0.007585
2639.000000	0.007554
2638.000000	0.007529
2637.000000	0.007521
2636.000000	0.007523
2635.000000	0.007511
2634.000000	0.007476
2633.000000	0.007439
2632.000000	0.007428
2631.000000	0.007447
2630.000000	0.007477
2629.000000	0.007494
2628.000000	0.007490
2627.000000	0.007472
2626.000000	0.007444
2625.000000	0.007410
2624.000000	0.007368
2623.000000	0.007326
2622.000000	0.007299
2621.000000	0.007292
2620.000000	0.007294
2619.000000	0.007292
2618.000000	0.007290
2617.000000	0.007302
2616.000000	0.007321
2615.000000	0.007329
2614.000000	0.007318
2613.000000	0.007302
2612.000000	0.007301
2611.000000	0.007311
2610.000000	0.007323
2609.000000	0.007333
2608.000000	0.007347
2607.000000	0.007360
2606.000000	0.007362
2605.000000	0.007352
2604.000000	0.007342
2603.000000	0.007347
2602.000000	0.007368
2601.000000	0.007388
2600.000000	0.007385
2599.000000	0.007348
2598.000000	0.007295
2597.000000	0.007264
2596.000000	0.007281
2595.000000	0.007335
2594.000000	0.007387
2593.000000	0.007402
2592.000000	0.007374
2591.000000	0.007328
2590.000000	0.007296
2589.000000	0.007296
2588.000000	0.007314
2587.000000	0.007322
2586.000000	0.007313
2585.000000	0.007298
2584.000000	0.007293
2583.000000	0.007300
2582.000000	0.007306
2581.000000	0.007303
2580.000000	0.007280
2579.000000	0.007231
2578.000000	0.007164
2577.000000	0.007099
2576.000000	0.007062
2575.000000	0.007063
2574.000000	0.007097
2573.000000	0.007152
2572.000000	0.007209
2571.000000	0.007251
2570.000000	0.007276
2569.000000	0.007291
2568.000000	0.007297
2567.000000	0.007291
2566.000000	0.007268
2565.000000	0.007235
2564.000000	0.007199
2563.000000	0.007163
2562.000000	0.007131
2561.000000	0.007115
2560.000000	0.007121
2559.000000	0.007136
2558.000000	0.007143
2557.000000	0.007135
2556.000000	0.007117
2555.000000	0.007097
2554.000000	0.007086
2553.000000	0.007100
2552.000000	0.007142
2551.000000	0.007189
2550.000000	0.007213
2549.000000	0.007210
2548.000000	0.007200
2547.000000	0.007200
2546.000000	0.007200
2545.000000	0.007190
2544.000000	0.007173
2543.000000	0.007167
2542.000000	0.007179
2541.000000	0.007197
2540.000000	0.007202
2539.000000	0.007193
2538.000000	0.007191
2537.000000	0.007214
2536.000000	0.007262
2535.000000	0.007310
2534.000000	0.007341
2533.000000	0.007362
2532.000000	0.007395
2531.000000	0.007454
2530.000000	0.007534
2529.000000	0.007619
2528.000000	0.007695
2527.000000	0.007761
2526.000000	0.007823
2525.000000	0.007886
2524.000000	0.007956
2523.000000	0.008030
2522.000000	0.008105
2521.000000	0.008170
2520.000000	0.008212
2519.000000	0.008230
2518.000000	0.008233
2517.000000	0.008228
2516.000000	0.008216
2515.000000	0.008202
2514.000000	0.008195
2513.000000	0.008210
2512.000000	0.008243
2511.000000	0.008280
2510.000000	0.008303
2509.000000	0.008298
2508.000000	0.008265
2507.000000	0.008215
2506.000000	0.008166
2505.000000	0.008125
2504.000000	0.008085
2503.000000	0.008035
2502.000000	0.007978
2501.000000	0.007920
2500.000000	0.007855
2499.000000	0.007774
2498.000000	0.007685
2497.000000	0.007615
2496.000000	0.007582
2495.000000	0.007575
2494.000000	0.007570
2493.000000	0.007550
2492.000000	0.007519
2491.000000	0.007488
2490.000000	0.007465
2489.000000	0.007441
2488.000000	0.007406
2487.000000	0.007357
2486.000000	0.007307
2485.000000	0.007274
2484.000000	0.007259
2483.000000	0.007245
2482.000000	0.007223
2481.000000	0.007194
2480.000000	0.007157
2479.000000	0.007109
2478.000000	0.007052
2477.000000	0.007002
2476.000000	0.006971
2475.000000	0.006954
2474.000000	0.006937
2473.000000	0.006915
2472.000000	0.006898
2471.000000	0.006896
2470.000000	0.006911
2469.000000	0.006933
2468.000000	0.006949
2467.000000	0.006956
2466.000000	0.006961
2465.000000	0.006970
2464.000000	0.006979
2463.000000	0.006977
2462.000000	0.006959
2461.000000	0.006930
2460.000000	0.006902
2459.000000	0.006884
2458.000000	0.006883
2457.000000	0.006895
2456.000000	0.006912
2455.000000	0.006928
2454.000000	0.006944
2453.000000	0.006957
2452.000000	0.006961
2451.000000	0.006954
2450.000000	0.006935
2449.000000	0.006902
2448.000000	0.006851
2447.000000	0.006799
2446.000000	0.006777
2445.000000	0.006802
2444.000000	0.006852
2443.000000	0.006895
2442.000000	0.006918
2441.000000	0.006916
2440.000000	0.006889
2439.000000	0.006846
2438.000000	0.006821
2437.000000	0.006843
2436.000000	0.006900
2435.000000	0.006947
2434.000000	0.006951
2433.000000	0.006913
2432.000000	0.006852
2431.000000	0.006798
2430.000000	0.006776
2429.000000	0.006799
2428.000000	0.006845
2427.000000	0.006885
2426.000000	0.006902
2425.000000	0.006902
2424.000000	0.006891
2423.000000	0.006874
2422.000000	0.006858
2421.000000	0.006847
2420.000000	0.006835
2419.000000	0.006819
2418.000000	0.006812
2417.000000	0.006825
2416.000000	0.006840
2415.000000	0.006830
2414.000000	0.006790
2413.000000	0.006748
2412.000000	0.006731
2411.000000	0.006743
2410.000000	0.006770
2409.000000	0.006792
2408.000000	0.006797
2407.000000	0.006784
2406.000000	0.006774
2405.000000	0.006778
2404.000000	0.006786
2403.000000	0.006778
2402.000000	0.006750
2401.000000	0.006712
2400.000000	0.006669
2399.000000	0.006630
2398.000000	0.006613
2397.000000	0.006636
2396.000000	0.006693
2395.000000	0.006758
2394.000000	0.006810
2393.000000	0.006844
2392.000000	0.006856
2391.000000	0.006852
2390.000000	0.006843
2389.000000	0.006839
2388.000000	0.006832
2387.000000	0.006820
2386.000000	0.006806
2385.000000	0.006784
2384.000000	0.006731
2383.000000	0.006625
2382.000000	0.006491
2381.000000	0.006373
2380.000000	0.006305
2379.000000	0.006308
2378.000000	0.006399
2377.000000	0.006559
2376.000000	0.006720
2375.000000	0.006819
2374.000000	0.006853
2373.000000	0.006848
2372.000000	0.006805
2371.000000	0.006718
2370.000000	0.006627
2369.000000	0.006569
2368.000000	0.006544
2367.000000	0.006546
2366.000000	0.006600
2365.000000	0.006712
2364.000000	0.006832
2363.000000	0.006949
2362.000000	0.007098
2361.000000	0.007253
2360.000000	0.007342
2359.000000	0.007317
2358.000000	0.007191
2357.000000	0.007031
2356.000000	0.006912
2355.000000	0.006955
2354.000000	0.007075
2353.000000	0.007064
2352.000000	0.006853
2351.000000	0.006625
2350.000000	0.006574
2349.000000	0.006730
2348.000000	0.006992
2347.000000	0.007179
2346.000000	0.007201
2345.000000	0.007190
2344.000000	0.007296
2343.000000	0.007508
2342.000000	0.007643
2341.000000	0.007594
2340.000000	0.007452
2339.000000	0.007370
2338.000000	0.007384
2337.000000	0.007411
2336.000000	0.007410
2335.000000	0.007366
2334.000000	0.007270
2333.000000	0.007096
2332.000000	0.006963
2331.000000	0.006966
2330.000000	0.007138
2329.000000	0.007340
2328.000000	0.007529
2327.000000	0.007679
2326.000000	0.007788
2325.000000	0.007817
2324.000000	0.007760
2323.000000	0.007661
2322.000000	0.007603
2321.000000	0.007658
2320.000000	0.007859
2319.000000	0.008107
2318.000000	0.008300
2317.000000	0.008354
2316.000000	0.008307
2315.000000	0.008174
2314.000000	0.008002
2313.000000	0.007815
2312.000000	0.007687
2311.000000	0.007613
2310.000000	0.007568
2309.000000	0.007502
2308.000000	0.007424
2307.000000	0.007342
2306.000000	0.007277
2305.000000	0.007241
2304.000000	0.007247
2303.000000	0.007266
2302.000000	0.007279
2301.000000	0.007275
2300.000000	0.007282
2299.000000	0.007291
2298.000000	0.007300
2297.000000	0.007303
2296.000000	0.007326
2295.000000	0.007352
2294.000000	0.007358
2293.000000	0.007333
2292.000000	0.007306
2291.000000	0.007296
2290.000000	0.007299
2289.000000	0.007308
2288.000000	0.007328
2287.000000	0.007360
2286.000000	0.007373
2285.000000	0.007344
2284.000000	0.007281
2283.000000	0.007224
2282.000000	0.007201
2281.000000	0.007209
2280.000000	0.007208
2279.000000	0.007159
2278.000000	0.007068
2277.000000	0.006979
2276.000000	0.006925
2275.000000	0.006893
2274.000000	0.006864
2273.000000	0.006835
2272.000000	0.006810
2271.000000	0.006776
2270.000000	0.006720
2269.000000	0.006661
2268.000000	0.006619
2267.000000	0.006582
2266.000000	0.006528
2265.000000	0.006471
2264.000000	0.006453
2263.000000	0.006485
2262.000000	0.006536
2261.000000	0.006573
2260.000000	0.006589
2259.000000	0.006589
2258.000000	0.006577
2257.000000	0.006559
2256.000000	0.006536
2255.000000	0.006514
2254.000000	0.006514
2253.000000	0.006552
2252.000000	0.006596
2251.000000	0.006585
2250.000000	0.006508
2249.000000	0.006429
2248.000000	0.006410
2247.000000	0.006434
2246.000000	0.006456
2245.000000	0.006470
2244.000000	0.006499
2243.000000	0.006532
2242.000000	0.006540
2241.000000	0.006524
2240.000000	0.006511
2239.000000	0.006506
2238.000000	0.006501
2237.000000	0.006498
2236.000000	0.006501
2235.000000	0.006485
2234.000000	0.006433
2233.000000	0.006370
2232.000000	0.006331
2231.000000	0.006303
2230.000000	0.006260
2229.000000	0.006226
2228.000000	0.006245
2227.000000	0.006303
2226.000000	0.006335
2225.000000	0.006299
2224.000000	0.006210
2223.000000	0.006096
2222.000000	0.005973
2221.000000	0.005863
2220.000000	0.005795
2219.000000	0.005786
2218.000000	0.005846
2217.000000	0.005983
2216.000000	0.006167
2215.000000	0.006330
2214.000000	0.006412
2213.000000	0.006411
2212.000000	0.006364
2211.000000	0.006286
2210.000000	0.006181
2209.000000	0.006068
2208.000000	0.005986
2207.000000	0.005962
2206.000000	0.006002
2205.000000	0.006092
2204.000000	0.006182
2203.000000	0.006214
2202.000000	0.006184
2201.000000	0.006146
2200.000000	0.006133
2199.000000	0.006116
2198.000000	0.006065
2197.000000	0.005987
2196.000000	0.005894
2195.000000	0.005774
2194.000000	0.005650
2193.000000	0.005596
2192.000000	0.005648
2191.000000	0.005747
2190.000000	0.005821
2189.000000	0.005884
2188.000000	0.005995
2187.000000	0.006159
2186.000000	0.006319
2185.000000	0.006401
2184.000000	0.006338
2183.000000	0.006090
2182.000000	0.005706
2181.000000	0.005342
2180.000000	0.005149
2179.000000	0.005151
2178.000000	0.005260
2177.000000	0.005365
2176.000000	0.005379
2175.000000	0.005296
2174.000000	0.005215
2173.000000	0.005272
2172.000000	0.005500
2171.000000	0.005809
2170.000000	0.006103
2169.000000	0.006336
2168.000000	0.006444
2167.000000	0.006352
2166.000000	0.006085
2165.000000	0.005803
2164.000000	0.005643
2163.000000	0.005579
2162.000000	0.005507
2161.000000	0.005353
2160.000000	0.005091
2159.000000	0.004756
2158.000000	0.004513
2157.000000	0.004537
2156.000000	0.004769
2155.000000	0.004983
2154.000000	0.005093
2153.000000	0.005209
2152.000000	0.005400
2151.000000	0.005562
2150.000000	0.005582
2149.000000	0.005501
2148.000000	0.005436
2147.000000	0.005442
2146.000000	0.005514
2145.000000	0.005643
2144.000000	0.005782
2143.000000	0.005840
2142.000000	0.005794
2141.000000	0.005745
2140.000000	0.005798
2139.000000	0.005927
2138.000000	0.006026
2137.000000	0.006029
2136.000000	0.005950
2135.000000	0.005845
2134.000000	0.005787
2133.000000	0.005829
2132.000000	0.005951
2131.000000	0.006071
2130.000000	0.006140
2129.000000	0.006169
2128.000000	0.006178
2127.000000	0.006158
2126.000000	0.006117
2125.000000	0.006107
2124.000000	0.006157
2123.000000	0.006241
2122.000000	0.006329
2121.000000	0.006443
2120.000000	0.006604
2119.000000	0.006769
2118.000000	0.006865
2117.000000	0.006866
2116.000000	0.006799
2115.000000	0.006702
2114.000000	0.006610
2113.000000	0.006563
2112.000000	0.006583
2111.000000	0.006638
2110.000000	0.006669
2109.000000	0.006650
2108.000000	0.006598
2107.000000	0.006561
2106.000000	0.006583
2105.000000	0.006674
2104.000000	0.006782
2103.000000	0.006840
2102.000000	0.006838
2101.000000	0.006830
2100.000000	0.006845
2099.000000	0.006848
2098.000000	0.006793
2097.000000	0.006679
2096.000000	0.006532
2095.000000	0.006373
2094.000000	0.006240
2093.000000	0.006196
2092.000000	0.006263
2091.000000	0.006389
2090.000000	0.006497
2089.000000	0.006555
2088.000000	0.006571
2087.000000	0.006569
2086.000000	0.006584
2085.000000	0.006640
2084.000000	0.006713
2083.000000	0.006745
2082.000000	0.006735
2081.000000	0.006749
2080.000000	0.006826
2079.000000	0.006914
2078.000000	0.006937
2077.000000	0.006883
2076.000000	0.006790
2075.000000	0.006693
2074.000000	0.006612
2073.000000	0.006571
2072.000000	0.006558
2071.000000	0.006522
2070.000000	0.006442
2069.000000	0.006369
2068.000000	0.006356
2067.000000	0.006398
2066.000000	0.006468
2065.000000	0.006549
2064.000000	0.006602
2063.000000	0.006569
2062.000000	0.006457
2061.000000	0.006364
2060.000000	0.006369
2059.000000	0.006440
2058.000000	0.006494
2057.000000	0.006492
2056.000000	0.006438
2055.000000	0.006345
2054.000000	0.006262
2053.000000	0.006280
2052.000000	0.006414
2051.000000	0.006552
2050.000000	0.006555
2049.000000	0.006398
2048.000000	0.006164
2047.000000	0.005946
2046.000000	0.005798
2045.000000	0.005739
2044.000000	0.005731
2043.000000	0.005701
2042.000000	0.005659
2041.000000	0.005716
2040.000000	0.005924
2039.000000	0.006184
2038.000000	0.006368
2037.000000	0.006436
2036.000000	0.006371
2035.000000	0.006122
2034.000000	0.005709
2033.000000	0.005290
2032.000000	0.004996
2031.000000	0.004792
2030.000000	0.004614
2029.000000	0.004509
2028.000000	0.004546
2027.000000	0.004689
2026.000000	0.004862
2025.000000	0.005020
2024.000000	0.005092
2023.000000	0.004994
2022.000000	0.004769
2021.000000	0.004610
2020.000000	0.004642
2019.000000	0.004782
2018.000000	0.004899
2017.000000	0.004975
2016.000000	0.005045
2015.000000	0.005106
2014.000000	0.005158
2013.000000	0.005239
2012.000000	0.005335
2011.000000	0.005373
2010.000000	0.005355
2009.000000	0.005380
2008.000000	0.005470
2007.000000	0.005508
2006.000000	0.005434
2005.000000	0.005358
2004.000000	0.005394
2003.000000	0.005506
2002.000000	0.005599
2001.000000	0.005635
2000.000000	0.005598
1999.000000	0.005472
1998.000000	0.005311
1997.000000	0.005241
1996.000000	0.005299
1995.000000	0.005381
1994.000000	0.005401
1993.000000	0.005391
1992.000000	0.005390
1991.000000	0.005359
1990.000000	0.005287
1989.000000	0.005257
1988.000000	0.005315
1987.000000	0.005384
1986.000000	0.005403
1985.000000	0.005432
1984.000000	0.005524
1983.000000	0.005610
1982.000000	0.005603
1981.000000	0.005521
1980.000000	0.005413
1979.000000	0.005239
1978.000000	0.004969
1977.000000	0.004696
1976.000000	0.004545
1975.000000	0.004528
1974.000000	0.004612
1973.000000	0.004785
1972.000000	0.004969
1971.000000	0.005024
1970.000000	0.004933
1969.000000	0.004843
1968.000000	0.004872
1967.000000	0.004977
1966.000000	0.005078
1965.000000	0.005183
1964.000000	0.005282
1963.000000	0.005293
1962.000000	0.005194
1961.000000	0.005098
1960.000000	0.005099
1959.000000	0.005150
1958.000000	0.005178
1957.000000	0.005202
1956.000000	0.005268
1955.000000	0.005352
1954.000000	0.005409
1953.000000	0.005448
1952.000000	0.005489
1951.000000	0.005518
1950.000000	0.005517
1949.000000	0.005486
1948.000000	0.005418
1947.000000	0.005320
1946.000000	0.005268
1945.000000	0.005364
1944.000000	0.005601
1943.000000	0.005826
1942.000000	0.005895
1941.000000	0.005805
1940.000000	0.005650
1939.000000	0.005513
1938.000000	0.005464
1937.000000	0.005552
1936.000000	0.005744
1935.000000	0.005924
1934.000000	0.006004
1933.000000	0.005974
1932.000000	0.005851
1931.000000	0.005657
1930.000000	0.005463
1929.000000	0.005373
1928.000000	0.005418
1927.000000	0.005526
1926.000000	0.005633
1925.000000	0.005738
1924.000000	0.005842
1923.000000	0.005898
1922.000000	0.005866
1921.000000	0.005781
1920.000000	0.005698
1919.000000	0.005629
1918.000000	0.005581
1917.000000	0.005588
1916.000000	0.005665
1915.000000	0.005777
1914.000000	0.005872
1913.000000	0.005924
1912.000000	0.005914
1911.000000	0.005831
1910.000000	0.005704
1909.000000	0.005602
1908.000000	0.005555
1907.000000	0.005532
1906.000000	0.005508
1905.000000	0.005510
1904.000000	0.005555
1903.000000	0.005603
1902.000000	0.005612
1901.000000	0.005593
1900.000000	0.005575
1899.000000	0.005551
1898.000000	0.005508
1897.000000	0.005457
1896.000000	0.005420
1895.000000	0.005394
1894.000000	0.005379
1893.000000	0.005398
1892.000000	0.005455
1891.000000	0.005507
1890.000000	0.005515
1889.000000	0.005482
1888.000000	0.005433
1887.000000	0.005377
1886.000000	0.005320
1885.000000	0.005287
1884.000000	0.005286
1883.000000	0.005286
1882.000000	0.005260
1881.000000	0.005226
1880.000000	0.005216
1879.000000	0.005229
1878.000000	0.005245
1877.000000	0.005253
1876.000000	0.005247
1875.000000	0.005221
1874.000000	0.005192
1873.000000	0.005194
1872.000000	0.005232
1871.000000	0.005280
1870.000000	0.005332
1869.000000	0.005416
1868.000000	0.005512
1867.000000	0.005551
1866.000000	0.005509
1865.000000	0.005428
1864.000000	0.005350
1863.000000	0.005281
1862.000000	0.005219
1861.000000	0.005181
1860.000000	0.005173
1859.000000	0.005171
1858.000000	0.005152
1857.000000	0.005127
1856.000000	0.005113
1855.000000	0.005106
1854.000000	0.005099
1853.000000	0.005101
1852.000000	0.005108
1851.000000	0.005098
1850.000000	0.005079
1849.000000	0.005101
1848.000000	0.005184
1847.000000	0.005275
1846.000000	0.005312
1845.000000	0.005301
1844.000000	0.005280
1843.000000	0.005239
1842.000000	0.005170
1841.000000	0.005106
1840.000000	0.005068
1839.000000	0.005044
1838.000000	0.005016
1837.000000	0.004982
1836.000000	0.004948
1835.000000	0.004914
1834.000000	0.004887
1833.000000	0.004880
1832.000000	0.004888
1831.000000	0.004897
1830.000000	0.004927
1829.000000	0.004986
1828.000000	0.005046
1827.000000	0.005083
1826.000000	0.005094
1825.000000	0.005095
1824.000000	0.005073
1823.000000	0.005007
1822.000000	0.004920
1821.000000	0.004855
1820.000000	0.004831
1819.000000	0.004826
1818.000000	0.004817
1817.000000	0.004799
1816.000000	0.004783
1815.000000	0.004780
1814.000000	0.004811
1813.000000	0.004888
1812.000000	0.004994
1811.000000	0.005095
1810.000000	0.005169
1809.000000	0.005211
1808.000000	0.005229
1807.000000	0.005241
1806.000000	0.005289
1805.000000	0.005420
1804.000000	0.005651
1803.000000	0.005950
1802.000000	0.006262
1801.000000	0.006546
1800.000000	0.006780
1799.000000	0.006966
1798.000000	0.007114
1797.000000	0.007219
1796.000000	0.007268
1795.000000	0.007254
1794.000000	0.007186
1793.000000	0.007078
1792.000000	0.006910
1791.000000	0.006642
1790.000000	0.006303
1789.000000	0.005977
1788.000000	0.005728
1787.000000	0.005566
1786.000000	0.005456
1785.000000	0.005355
1784.000000	0.005234
1783.000000	0.005098
1782.000000	0.004985
1781.000000	0.004928
1780.000000	0.004912
1779.000000	0.004887
1778.000000	0.004847
1777.000000	0.004831
1776.000000	0.004840
1775.000000	0.004820
1774.000000	0.004737
1773.000000	0.004672
1772.000000	0.004713
1771.000000	0.004814
1770.000000	0.004903
1769.000000	0.004957
1768.000000	0.004948
1767.000000	0.004866
1766.000000	0.004768
1765.000000	0.004724
1764.000000	0.004747
1763.000000	0.004797
1762.000000	0.004857
1761.000000	0.004931
1760.000000	0.005019
1759.000000	0.005113
1758.000000	0.005210
1757.000000	0.005331
1756.000000	0.005462
1755.000000	0.005574
1754.000000	0.005699
1753.000000	0.005910
1752.000000	0.006227
1751.000000	0.006566
1750.000000	0.006831
1749.000000	0.007041
1748.000000	0.007242
1747.000000	0.007412
1746.000000	0.007551
1745.000000	0.007702
1744.000000	0.007863
1743.000000	0.007968
1742.000000	0.007999
1741.000000	0.008027
1740.000000	0.008110
1739.000000	0.008207
1738.000000	0.008269
1737.000000	0.008305
1736.000000	0.008316
1735.000000	0.008287
1734.000000	0.008227
1733.000000	0.008124
1732.000000	0.008024
1731.000000	0.007928
1730.000000	0.007776
1729.000000	0.007571
1728.000000	0.007352
1727.000000	0.007139
1726.000000	0.006948
1725.000000	0.006803
1724.000000	0.006702
1723.000000	0.006612
1722.000000	0.006529
1721.000000	0.006473
1720.000000	0.006422
1719.000000	0.006336
1718.000000	0.006277
1717.000000	0.006293
1716.000000	0.006344
1715.000000	0.006369
1714.000000	0.006312
1713.000000	0.006194
1712.000000	0.006090
1711.000000	0.006039
1710.000000	0.006038
1709.000000	0.006084
1708.000000	0.006163
1707.000000	0.006250
1706.000000	0.006352
1705.000000	0.006487
1704.000000	0.006646
1703.000000	0.006807
1702.000000	0.006936
1701.000000	0.007058
1700.000000	0.007197
1699.000000	0.007285
1698.000000	0.007346
1697.000000	0.007458
1696.000000	0.007666
1695.000000	0.007907
1694.000000	0.008122
1693.000000	0.008331
1692.000000	0.008537
1691.000000	0.008748
1690.000000	0.008982
1689.000000	0.009227
1688.000000	0.009418
1687.000000	0.009524
1686.000000	0.009598
1685.000000	0.009837
1684.000000	0.010331
1683.000000	0.010724
1682.000000	0.010909
1681.000000	0.011069
1680.000000	0.011254
1679.000000	0.011424
1678.000000	0.011556
1677.000000	0.011688
1676.000000	0.011863
1675.000000	0.012053
1674.000000	0.012211
1673.000000	0.012386
1672.000000	0.012618
1671.000000	0.012881
1670.000000	0.013151
1669.000000	0.013400
1668.000000	0.013586
1667.000000	0.013706
1666.000000	0.013802
1665.000000	0.013924
1664.000000	0.014110
1663.000000	0.014358
1662.000000	0.014606
1661.000000	0.014818
1660.000000	0.015011
1659.000000	0.015185
1658.000000	0.015352
1657.000000	0.015529
1656.000000	0.015699
1655.000000	0.015766
1654.000000	0.015827
1653.000000	0.016030
1652.000000	0.016108
1651.000000	0.016124
1650.000000	0.016228
1649.000000	0.016327
1648.000000	0.016434
1647.000000	0.016572
1646.000000	0.016604
1645.000000	0.016488
1644.000000	0.016364
1643.000000	0.016280
1642.000000	0.016191
1641.000000	0.016093
1640.000000	0.016004
1639.000000	0.015910
1638.000000	0.015779
1637.000000	0.015645
1636.000000	0.015600
1635.000000	0.015533
1634.000000	0.015335
1633.000000	0.015101
1632.000000	0.014888
1631.000000	0.014674
1630.000000	0.014453
1629.000000	0.014255
1628.000000	0.014096
1627.000000	0.013930
1626.000000	0.013721
1625.000000	0.013494
1624.000000	0.013291
1623.000000	0.013103
1622.000000	0.012883
1621.000000	0.012655
1620.000000	0.012436
1619.000000	0.012177
1618.000000	0.011858
1617.000000	0.011586
1616.000000	0.011445
1615.000000	0.011368
1614.000000	0.011277
1613.000000	0.011156
1612.000000	0.011020
1611.000000	0.010880
1610.000000	0.010734
1609.000000	0.010603
1608.000000	0.010505
1607.000000	0.010415
1606.000000	0.010303
1605.000000	0.010190
1604.000000	0.010098
1603.000000	0.010008
1602.000000	0.009898
1601.000000	0.009797
1600.000000	0.009735
1599.000000	0.009694
1598.000000	0.009648
1597.000000	0.009604
1596.000000	0.009577
1595.000000	0.009553
1594.000000	0.009515
1593.000000	0.009480
1592.000000	0.009470
1591.000000	0.009471
1590.000000	0.009463
1589.000000	0.009461
1588.000000	0.009486
1587.000000	0.009522
1586.000000	0.009541
1585.000000	0.009549
1584.000000	0.009563
1583.000000	0.009566
1582.000000	0.009547
1581.000000	0.009534
1580.000000	0.009544
1579.000000	0.009529
1578.000000	0.009452
1577.000000	0.009402
1576.000000	0.009487
1575.000000	0.009621
1574.000000	0.009718
1573.000000	0.009792
1572.000000	0.009843
1571.000000	0.009874
1570.000000	0.009930
1569.000000	0.010025
1568.000000	0.010109
1567.000000	0.010158
1566.000000	0.010202
1565.000000	0.010284
1564.000000	0.010408
1563.000000	0.010525
1562.000000	0.010606
1561.000000	0.010679
1560.000000	0.010844
1559.000000	0.011350
1558.000000	0.011687
1557.000000	0.011724
1556.000000	0.011816
1555.000000	0.011955
1554.000000	0.012089
1553.000000	0.012252
1552.000000	0.012486
1551.000000	0.012778
1550.000000	0.013076
1549.000000	0.013334
1548.000000	0.013552
1547.000000	0.013779
1546.000000	0.014057
1545.000000	0.014393
1544.000000	0.014709
1543.000000	0.014902
1542.000000	0.014984
1541.000000	0.015143
1540.000000	0.015531
1539.000000	0.015867
1538.000000	0.016022
1537.000000	0.016184
1536.000000	0.016402
1535.000000	0.016651
1534.000000	0.016958
1533.000000	0.017279
1532.000000	0.017482
1531.000000	0.017585
1530.000000	0.017713
1529.000000	0.017942
1528.000000	0.018255
1527.000000	0.018562
1526.000000	0.018789
1525.000000	0.018937
1524.000000	0.019063
1523.000000	0.019233
1522.000000	0.019546
1521.000000	0.019957
1520.000000	0.020284
1519.000000	0.020532
1518.000000	0.020835
1517.000000	0.021249
1516.000000	0.021635
1515.000000	0.021838
1514.000000	0.021943
1513.000000	0.022098
1512.000000	0.022347
1511.000000	0.022642
1510.000000	0.022931
1509.000000	0.023216
1508.000000	0.023522
1507.000000	0.023909
1506.000000	0.024127
1505.000000	0.024134
1504.000000	0.024208
1503.000000	0.024397
1502.000000	0.024648
1501.000000	0.024957
1500.000000	0.025299
1499.000000	0.025619
1498.000000	0.025944
1497.000000	0.026339
1496.000000	0.026742
1495.000000	0.027053
1494.000000	0.027321
1493.000000	0.027658
1492.000000	0.028100
1491.000000	0.028620
1490.000000	0.029156
1489.000000	0.029606
1488.000000	0.029914
1487.000000	0.030134
1486.000000	0.030341
1485.000000	0.030585
1484.000000	0.030883
1483.000000	0.031226
1482.000000	0.031623
1481.000000	0.032069
1480.000000	0.032514
1479.000000	0.032938
1478.000000	0.033379
1477.000000	0.033875
1476.000000	0.034379
1475.000000	0.034831
1474.000000	0.035268
1473.000000	0.035775
1472.000000	0.036258
1471.000000	0.036571
1470.000000	0.036793
1469.000000	0.037061
1468.000000	0.037402
1467.000000	0.037792
1466.000000	0.038234
1465.000000	0.038733
1464.000000	0.039180
1463.000000	0.039486
1462.000000	0.039739
1461.000000	0.040060
1460.000000	0.040473
1459.000000	0.040935
1458.000000	0.041486
1457.000000	0.042109
1456.000000	0.042531
1455.000000	0.042713
1454.000000	0.042873
1453.000000	0.043100
1452.000000	0.043372
1451.000000	0.043646
1450.000000	0.043945
1449.000000	0.044312
1448.000000	0.044710
1447.000000	0.045032
1446.000000	0.045258
1445.000000	0.045472
1444.000000	0.045722
1443.000000	0.045987
1442.000000	0.046256
1441.000000	0.046561
1440.000000	0.046912
1439.000000	0.047291
1438.000000	0.047710
1437.000000	0.048178
1436.000000	0.048556
1435.000000	0.048730
1434.000000	0.048833
1433.000000	0.049013
1432.000000	0.049279
1431.000000	0.049567
1430.000000	0.049853
1429.000000	0.050146
1428.000000	0.050416
1427.000000	0.050639
1426.000000	0.050864
1425.000000	0.051167
1424.000000	0.051524
1423.000000	0.051830
1422.000000	0.052096
1421.000000	0.052437
1420.000000	0.052902
1419.000000	0.053381
1418.000000	0.053728
1417.000000	0.053949
1416.000000	0.054101
1415.000000	0.054213
1414.000000	0.054353
1413.000000	0.054595
1412.000000	0.054910
1411.000000	0.055198
1410.000000	0.055436
1409.000000	0.055695
1408.000000	0.056003
1407.000000	0.056325
1406.000000	0.056640
1405.000000	0.056950
1404.000000	0.057189
1403.000000	0.057298
1402.000000	0.057359
1401.000000	0.057499
1400.000000	0.057735
1399.000000	0.057978
1398.000000	0.058198
1397.000000	0.058460
1396.000000	0.058771
1395.000000	0.059020
1394.000000	0.059147
1393.000000	0.059229
1392.000000	0.059332
1391.000000	0.059445
1390.000000	0.059567
1389.000000	0.059729
1388.000000	0.059894
1387.000000	0.059952
1386.000000	0.059883
1385.000000	0.059801
1384.000000	0.059771
1383.000000	0.059754
1382.000000	0.059723
1381.000000	0.059703
1380.000000	0.059689
1379.000000	0.059630
1378.000000	0.059521
1377.000000	0.059432
1376.000000	0.059398
1375.000000	0.059367
1374.000000	0.059280
1373.000000	0.059133
1372.000000	0.058961
1371.000000	0.058790
1370.000000	0.058642
1369.000000	0.058534
1368.000000	0.058434
1367.000000	0.058297
1366.000000	0.058163
1365.000000	0.058106
1364.000000	0.058121
1363.000000	0.058100
1362.000000	0.057957
1361.000000	0.057723
1360.000000	0.057470
1359.000000	0.057229
1358.000000	0.057009
1357.000000	0.056826
1356.000000	0.056663
1355.000000	0.056474
1354.000000	0.056258
1353.000000	0.056057
1352.000000	0.055884
1351.000000	0.055710
1350.000000	0.055517
1349.000000	0.055322
1348.000000	0.055131
1347.000000	0.054927
1346.000000	0.054719
1345.000000	0.054547
1344.000000	0.054417
1343.000000	0.054308
1342.000000	0.054221
1341.000000	0.054169
1340.000000	0.054113
1339.000000	0.053972
1338.000000	0.053736
1337.000000	0.053479
1336.000000	0.053239
1335.000000	0.052987
1334.000000	0.052715
1333.000000	0.052465
1332.000000	0.052254
1331.000000	0.052055
1330.000000	0.051847
1329.000000	0.051644
1328.000000	0.051451
1327.000000	0.051248
1326.000000	0.051042
1325.000000	0.050869
1324.000000	0.050730
1323.000000	0.050584
1322.000000	0.050419
1321.000000	0.050268
1320.000000	0.050141
1319.000000	0.049999
1318.000000	0.049822
1317.000000	0.049632
1316.000000	0.049442
1315.000000	0.049233
1314.000000	0.048997
1313.000000	0.048758
1312.000000	0.048515
1311.000000	0.048253
1310.000000	0.047984
1309.000000	0.047745
1308.000000	0.047531
1307.000000	0.047304
1306.000000	0.047056
1305.000000	0.046820
1304.000000	0.046603
1303.000000	0.046375
1302.000000	0.046129
1301.000000	0.045896
1300.000000	0.045676
1299.000000	0.045431
1298.000000	0.045151
1297.000000	0.044867
1296.000000	0.044595
1295.000000	0.044323
1294.000000	0.044058
1293.000000	0.043836
1292.000000	0.043659
1291.000000	0.043484
1290.000000	0.043287
1289.000000	0.043080
1288.000000	0.042862
1287.000000	0.042612
1286.000000	0.042343
1285.000000	0.042106
1284.000000	0.041917
1283.000000	0.041737
1282.000000	0.041542
1281.000000	0.041353
1280.000000	0.041177
1279.000000	0.040993
1278.000000	0.040795
1277.000000	0.040616
1276.000000	0.040470
1275.000000	0.040332
1274.000000	0.040184
1273.000000	0.040046
1272.000000	0.039929
1271.000000	0.039814
1270.000000	0.039705
1269.000000	0.039628
1268.000000	0.039587
1267.000000	0.039548
1266.000000	0.039495
1265.000000	0.039446
1264.000000	0.039399
1263.000000	0.039322
1262.000000	0.039216
1261.000000	0.039130
1260.000000	0.039088
1259.000000	0.039054
1258.000000	0.039001
1257.000000	0.038940
1256.000000	0.038880
1255.000000	0.038796
1254.000000	0.038682
1253.000000	0.038568
1252.000000	0.038468
1251.000000	0.038366
1250.000000	0.038264
1249.000000	0.038184
1248.000000	0.038123
1247.000000	0.038038
1246.000000	0.037922
1245.000000	0.037817
1244.000000	0.037749
1243.000000	0.037694
1242.000000	0.037633
1241.000000	0.037577
1240.000000	0.037528
1239.000000	0.037450
1238.000000	0.037328
1237.000000	0.037181
1236.000000	0.037023
1235.000000	0.036844
1234.000000	0.036650
1233.000000	0.036477
1232.000000	0.036339
1231.000000	0.036207
1230.000000	0.036058
1229.000000	0.035898
1228.000000	0.035726
1227.000000	0.035522
1226.000000	0.035287
1225.000000	0.035046
1224.000000	0.034806
1223.000000	0.034549
1222.000000	0.034285
1221.000000	0.034055
1220.000000	0.033865
1219.000000	0.033675
1218.000000	0.033464
1217.000000	0.033253
1216.000000	0.033048
1215.000000	0.032827
1214.000000	0.032595
1213.000000	0.032389
1212.000000	0.032221
1211.000000	0.032055
1210.000000	0.031873
1209.000000	0.031703
1208.000000	0.031564
1207.000000	0.031431
1206.000000	0.031287
1205.000000	0.031147
1204.000000	0.031019
1203.000000	0.030881
1202.000000	0.030728
1201.000000	0.030589
1200.000000	0.030478
1199.000000	0.030371
1198.000000	0.030254
1197.000000	0.030143
1196.000000	0.030039
1195.000000	0.029922
1194.000000	0.029795
1193.000000	0.029702
1192.000000	0.029659
1191.000000	0.029622
1190.000000	0.029556
1189.000000	0.029480
1188.000000	0.029422
1187.000000	0.029378
1186.000000	0.029341
1185.000000	0.029326
1184.000000	0.029335
1183.000000	0.029348
1182.000000	0.029355
1181.000000	0.029379
1180.000000	0.029419
1179.000000	0.029448
1178.000000	0.029466
1177.000000	0.029506
1176.000000	0.029573
1175.000000	0.029625
1174.000000	0.029641
1173.000000	0.029652
1172.000000	0.029676
1171.000000	0.029693
1170.000000	0.029692
1169.000000	0.029700
1168.000000	0.029726
1167.000000	0.029734
1166.000000	0.029711
1165.000000	0.029696
1164.000000	0.029710
1163.000000	0.029715
1162.000000	0.029677
1161.000000	0.029615
1160.000000	0.029552
1159.000000	0.029477
1158.000000	0.029381
1157.000000	0.029279
1156.000000	0.029169
1155.000000	0.029020
1154.000000	0.028833
1153.000000	0.028651
1152.000000	0.028486
1151.000000	0.028294
1150.000000	0.028055
1149.000000	0.027813
1148.000000	0.027600
1147.000000	0.027384
1146.000000	0.027139
1145.000000	0.026894
1144.000000	0.026673
1143.000000	0.026449
1142.000000	0.026195
1141.000000	0.025940
1140.000000	0.025724
1139.000000	0.025545
1138.000000	0.025388
1137.000000	0.025261
1136.000000	0.025163
1135.000000	0.025060
1134.000000	0.024942
1133.000000	0.024842
1132.000000	0.024779
1131.000000	0.024728
1130.000000	0.024673
1129.000000	0.024632
1128.000000	0.024611
1127.000000	0.024580
1126.000000	0.024526
1125.000000	0.024489
1124.000000	0.024496
1123.000000	0.024513
1122.000000	0.024510
1121.000000	0.024501
1120.000000	0.024501
1119.000000	0.024494
1118.000000	0.024475
1117.000000	0.024477
1116.000000	0.024517
1115.000000	0.024568
1114.000000	0.024614
1113.000000	0.024676
1112.000000	0.024762
1111.000000	0.024841
1110.000000	0.024896
1109.000000	0.024955
1108.000000	0.025017
1107.000000	0.025036
1106.000000	0.024997
1105.000000	0.024954
1104.000000	0.024945
1103.000000	0.024947
1102.000000	0.024935
1101.000000	0.024935
1100.000000	0.024963
1099.000000	0.024997
1098.000000	0.025035
1097.000000	0.025115
1096.000000	0.025250
1095.000000	0.025388
1094.000000	0.025493
1093.000000	0.025582
1092.000000	0.025662
1091.000000	0.025706
1090.000000	0.025714
1089.000000	0.025743
1088.000000	0.025808
1087.000000	0.025846
1086.000000	0.025819
1085.000000	0.025774
1084.000000	0.025753
1083.000000	0.025725
1082.000000	0.025654
1081.000000	0.025565
1080.000000	0.025490
1079.000000	0.025419
1078.000000	0.025342
1077.000000	0.025288
1076.000000	0.025259
1075.000000	0.025207
1074.000000	0.025116
1073.000000	0.025041
1072.000000	0.025017
1071.000000	0.025008
1070.000000	0.024979
1069.000000	0.024953
1068.000000	0.024949
1067.000000	0.024926
1066.000000	0.024859
1065.000000	0.024786
1064.000000	0.024740
1063.000000	0.024700
1062.000000	0.024655
1061.000000	0.024650
1060.000000	0.024704
1059.000000	0.024773
1058.000000	0.024816
1057.000000	0.024861
1056.000000	0.024928
1055.000000	0.024977
1054.000000	0.024980
1053.000000	0.024980
1052.000000	0.025016
1051.000000	0.025061
1050.000000	0.025088
1049.000000	0.025126
1048.000000	0.025199
1047.000000	0.025281
1046.000000	0.025353
1045.000000	0.025452
1044.000000	0.025597
1043.000000	0.025742
1042.000000	0.025852
1041.000000	0.025953
1040.000000	0.026063
1039.000000	0.026147
1038.000000	0.026186
1037.000000	0.026217
1036.000000	0.026263
1035.000000	0.026288
1034.000000	0.026273
1033.000000	0.026265
1032.000000	0.026297
1031.000000	0.026341
1030.000000	0.026372
1029.000000	0.026412
1028.000000	0.026456
1027.000000	0.026444
1026.000000	0.026356
1025.000000	0.026262
1024.000000	0.026217
1023.000000	0.026189
1022.000000	0.026136
1021.000000	0.026075
1020.000000	0.026030
1019.000000	0.025968
1018.000000	0.025865
1017.000000	0.025758
1016.000000	0.025678
1015.000000	0.025593
1014.000000	0.025471
1013.000000	0.025332
1012.000000	0.025204
1011.000000	0.025075
1010.000000	0.024938
1009.000000	0.024815
1008.000000	0.024692
1007.000000	0.024514
1006.000000	0.024271
1005.000000	0.024032
1004.000000	0.023844
1003.000000	0.023676
1002.000000	0.023496
1001.000000	0.023330
1000.000000	0.023195
999.000000	0.023046
998.000000	0.022855
997.000000	0.022653
996.000000	0.022466
995.000000	0.022261
994.000000	0.022014
993.000000	0.021763
992.000000	0.021543
991.000000	0.021337
990.000000	0.021128
989.000000	0.020941
988.000000	0.020777
987.000000	0.020586
986.000000	0.020357
985.000000	0.020148
984.000000	0.019990
983.000000	0.019831
982.000000	0.019628
981.000000	0.019420
980.000000	0.019249
979.000000	0.019088
978.000000	0.018901
977.000000	0.018709
976.000000	0.018541
975.000000	0.018378
974.000000	0.018197
973.000000	0.018023
972.000000	0.017871
971.000000	0.017700
970.000000	0.017485
969.000000	0.017267
968.000000	0.017080
967.000000	0.016897
966.000000	0.016693
965.000000	0.016502
964.000000	0.016358
963.000000	0.016236
962.000000	0.016105
961.000000	0.015975
960.000000	0.015850
959.000000	0.015693
958.000000	0.015491
957.000000	0.015296
956.000000	0.015146
955.000000	0.015005
954.000000	0.014835
953.000000	0.014662
952.000000	0.014525
951.000000	0.014408
950.000000	0.014276
949.000000	0.014133
948.000000	0.013994
947.000000	0.013854
946.000000	0.013715
945.000000	0.013602
944.000000	0.013511
943.000000	0.013395
942.000000	0.013237
941.000000	0.013079
940.000000	0.012938
939.000000	0.012781
938.000000	0.012599
937.000000	0.012446
936.000000	0.012350
935.000000	0.012262
934.000000	0.012135
933.000000	0.011991
932.000000	0.011856
931.000000	0.011710
930.000000	0.011548
929.000000	0.011409
928.000000	0.011307
927.000000	0.011184
926.000000	0.010998
925.000000	0.010787
924.000000	0.010600
923.000000	0.010429
922.000000	0.010261
921.000000	0.010119
920.000000	0.010008
919.000000	0.009878
918.000000	0.009698
917.000000	0.009503
916.000000	0.009320
915.000000	0.009125
914.000000	0.008904
913.000000	0.008696
912.000000	0.008518
911.000000	0.008327
910.000000	0.008096
909.000000	0.007866
908.000000	0.007663
907.000000	0.007451
906.000000	0.007204
905.000000	0.006954
904.000000	0.006727
903.000000	0.006493
902.000000	0.006240
901.000000	0.006020
900.000000	0.005857
899.000000	0.005697
898.000000	0.005496
897.000000	0.005279
896.000000	0.005069
895.000000	0.004838
894.000000	0.004578
893.000000	0.004344
892.000000	0.004176
891.000000	0.004060
890.000000	0.004035
889.000000	0.004297
888.000000	0.005141
887.000000	0.006840
886.000000	0.009542
885.000000	0.013156
884.000000	0.017290
883.000000	0.021442
882.000000	0.025386
881.000000	0.029304
880.000000	0.033478
879.000000	0.037943
878.000000	0.042536
877.000000	0.047086
876.000000	0.051459
875.000000	0.055524
874.000000	0.059212
873.000000	0.062500
872.000000	0.065193
871.000000	0.066842
870.000000	0.067040
869.000000	0.065740
868.000000	0.063232
867.000000	0.059924
866.000000	0.056238
865.000000	0.052551
864.000000	0.049089
863.000000	0.045899
862.000000	0.042963
861.000000	0.040290
860.000000	0.037878
859.000000	0.035685
858.000000	0.033697
857.000000	0.031938
856.000000	0.030381
855.000000	0.028934
854.000000	0.027543
853.000000	0.026250
852.000000	0.025172
851.000000	0.024495
850.000000	0.024427
849.000000	0.024923
848.000000	0.025474
847.000000	0.025402
846.000000	0.024500
845.000000	0.023178
844.000000	0.021946
843.000000	0.020945
842.000000	0.020086
841.000000	0.019356
840.000000	0.018802
839.000000	0.018370
838.000000	0.017959
837.000000	0.017552
836.000000	0.017170
835.000000	0.016776
834.000000	0.016353
833.000000	0.015986
832.000000	0.015735
831.000000	0.015528
830.000000	0.015281
829.000000	0.015018
828.000000	0.014775
827.000000	0.014499
826.000000	0.014160
825.000000	0.013857
824.000000	0.013671
823.000000	0.013525
822.000000	0.013321
821.000000	0.013101
820.000000	0.012933
819.000000	0.012770
818.000000	0.012543
817.000000	0.012286
816.000000	0.012068
815.000000	0.011879
814.000000	0.011696
813.000000	0.011562
812.000000	0.011496
811.000000	0.011423
810.000000	0.011289
809.000000	0.011165
808.000000	0.011116
807.000000	0.011085
806.000000	0.011008
805.000000	0.010932
804.000000	0.010912
803.000000	0.010899
802.000000	0.010831
801.000000	0.010755
800.000000	0.010735
799.000000	0.010743
798.000000	0.010728
797.000000	0.010722
796.000000	0.010742
795.000000	0.010719
794.000000	0.010610
793.000000	0.010493
792.000000	0.010445
791.000000	0.010412
790.000000	0.010329
789.000000	0.010241
788.000000	0.010213
787.000000	0.010210
786.000000	0.010171
785.000000	0.010124
784.000000	0.010111
783.000000	0.010087
782.000000	0.010005
781.000000	0.009913
780.000000	0.009864
779.000000	0.009821
778.000000	0.009738
777.000000	0.009655
776.000000	0.009618
775.000000	0.009582
774.000000	0.009500
773.000000	0.009414
772.000000	0.009364
771.000000	0.009305
770.000000	0.009190
769.000000	0.009076
768.000000	0.009020
767.000000	0.008980
766.000000	0.008900
765.000000	0.008818
764.000000	0.008782
763.000000	0.008746
762.000000	0.008657
761.000000	0.008567
760.000000	0.008542
759.000000	0.008539
758.000000	0.008481
757.000000	0.008389
756.000000	0.008319
755.000000	0.008253
754.000000	0.008158
753.000000	0.008083
752.000000	0.008082
751.000000	0.008102
750.000000	0.008062
749.000000	0.007977
748.000000	0.007918
747.000000	0.007888
746.000000	0.007850
745.000000	0.007817
744.000000	0.007811
743.000000	0.007785
742.000000	0.007689
741.000000	0.007568
740.000000	0.007497
739.000000	0.007464
738.000000	0.007401
737.000000	0.007296
736.000000	0.007183
735.000000	0.007068
734.000000	0.006949
733.000000	0.006867
732.000000	0.006843
731.000000	0.006815
730.000000	0.006703
729.000000	0.006536
728.000000	0.006396
727.000000	0.006281
726.000000	0.006153
725.000000	0.006029
724.000000	0.005953
723.000000	0.005919
722.000000	0.005925
721.000000	0.006062
720.000000	0.006449
719.000000	0.007185
718.000000	0.008480
717.000000	0.010795
716.000000	0.014710
715.000000	0.020450
714.000000	0.027359
713.000000	0.033780
712.000000	0.037693
711.000000	0.037944
710.000000	0.035051
709.000000	0.030720
708.000000	0.026577
707.000000	0.023329
706.000000	0.020949
705.000000	0.019237
704.000000	0.018017
703.000000	0.017092
702.000000	0.016308
701.000000	0.015641
700.000000	0.015127
699.000000	0.014716
698.000000	0.014336
697.000000	0.014007
696.000000	0.013739
695.000000	0.013467
694.000000	0.013111
693.000000	0.012701
692.000000	0.012354
691.000000	0.012097
690.000000	0.011883
689.000000	0.011698
688.000000	0.011555
687.000000	0.011440
686.000000	0.011296
685.000000	0.011104
684.000000	0.010921
683.000000	0.010794
682.000000	0.010698
681.000000	0.010608
680.000000	0.010573
679.000000	0.010623
678.000000	0.010679
677.000000	0.010709
676.000000	0.010738
675.000000	0.010736
674.000000	0.010596
673.000000	0.010239
672.000000	0.009623
671.000000	0.008660
670.000000	0.007255
669.000000	0.005643
668.000000	0.005011
667.000000	0.006213
666.000000	0.007633
665.000000	0.008742
664.000000	0.009668
663.000000	0.010197
662.000000	0.010229
661.000000	0.010034
660.000000	0.009879
659.000000	0.009696
658.000000	0.009372
657.000000	0.009127
656.000000	0.009134
655.000000	0.009207
654.000000	0.009199
653.000000	0.009270
652.000000	0.009462
651.000000	0.009513
650.000000	0.009310
649.000000	0.009162
648.000000	0.009282
647.000000	0.009456
646.000000	0.009503
645.000000	0.009564
644.000000	0.009740
643.000000	0.009871
642.000000	0.009859
641.000000	0.009888
640.000000	0.010084
639.000000	0.010254
638.000000	0.010234
637.000000	0.010152
636.000000	0.010115
635.000000	0.010019
634.000000	0.009849
633.000000	0.009797
632.000000	0.009913
631.000000	0.009972
630.000000	0.009875
629.000000	0.009846
628.000000	0.009996
627.000000	0.010093
626.000000	0.009988
625.000000	0.009878
624.000000	0.009915
623.000000	0.009939
622.000000	0.009821
621.000000	0.009734
620.000000	0.009839
619.000000	0.010007
618.000000	0.010088
617.000000	0.010170
616.000000	0.010337
615.000000	0.010449
614.000000	0.010421
613.000000	0.010415
612.000000	0.010534
611.000000	0.010592
610.000000	0.010445
609.000000	0.010257
608.000000	0.010212
607.000000	0.010221
606.000000	0.010166
605.000000	0.010102
604.000000	0.010051
603.000000	0.009884
602.000000	0.009591
601.000000	0.009399
600.000000	0.009420
599.000000	0.009466
598.000000	0.009395
597.000000	0.009339
596.000000	0.009399
595.000000	0.009442
594.000000	0.009375
593.000000	0.009339
592.000000	0.009409
591.000000	0.009420
590.000000	0.009304
589.000000	0.009249
588.000000	0.009319
587.000000	0.009267
586.000000	0.008960
585.000000	0.008650
584.000000	0.008580
583.000000	0.008642
582.000000	0.008671
581.000000	0.008738
580.000000	0.008885
579.000000	0.008930
578.000000	0.008804
577.000000	0.008737
576.000000	0.008846
575.000000	0.008899
574.000000	0.008756
573.000000	0.008651
572.000000	0.008738
571.000000	0.008771
570.000000	0.008534
569.000000	0.008246
568.000000	0.008171
567.000000	0.008190
566.000000	0.008096
565.000000	0.007972
564.000000	0.007939
563.000000	0.007864
562.000000	0.007656
561.000000	0.007522
560.000000	0.007622
559.000000	0.007767
558.000000	0.007765
557.000000	0.007721
556.000000	0.007733
555.000000	0.007636
554.000000	0.007344
553.000000	0.007097
552.000000	0.007068
551.000000	0.007085
550.000000	0.007010
549.000000	0.007027
548.000000	0.007240
547.000000	0.007393
546.000000	0.007308
545.000000	0.007228
544.000000	0.007358
543.000000	0.007503
542.000000	0.007486
541.000000	0.007507
540.000000	0.007738
539.000000	0.007958
538.000000	0.007956
537.000000	0.007910
536.000000	0.008018
535.000000	0.008108
534.000000	0.008008
533.000000	0.007899
532.000000	0.007960
531.000000	0.008026
530.000000	0.007974
529.000000	0.008037
528.000000	0.008379
527.000000	0.008705
526.000000	0.008698
525.000000	0.008542
524.000000	0.008546
523.000000	0.008644
522.000000	0.008701
521.000000	0.008848
520.000000	0.009140
519.000000	0.009256
518.000000	0.008959
517.000000	0.008524
516.000000	0.008273
515.000000	0.008108
514.000000	0.007897
513.000000	0.007820
512.000000	0.007980
511.000000	0.008080
510.000000	0.007885
509.000000	0.007624
508.000000	0.007583
507.000000	0.007651
506.000000	0.007659
505.000000	0.007739
504.000000	0.007950
503.000000	0.007976
502.000000	0.007618
501.000000	0.007203
500.000000	0.007038
499.000000	0.006948
498.000000	0.006753
497.000000	0.006677
496.000000	0.006875
495.000000	0.007042
494.000000	0.006905
493.000000	0.006721
492.000000	0.006812
491.000000	0.006998
490.000000	0.006986
489.000000	0.006891
488.000000	0.006897
487.000000	0.006859
486.000000	0.006666
485.000000	0.006596
484.000000	0.006842
483.000000	0.007083
482.000000	0.007021
481.000000	0.006872
480.000000	0.006879
479.000000	0.006869
478.000000	0.006747
477.000000	0.006875
476.000000	0.007463
475.000000	0.008116
474.000000	0.008493
473.000000	0.008874
472.000000	0.009531
471.000000	0.010036
470.000000	0.010021
469.000000	0.009825
468.000000	0.009746
467.000000	0.009456
466.000000	0.008722
465.000000	0.008044
464.000000	0.007905
463.000000	0.008038
462.000000	0.008006
461.000000	0.007949
460.000000	0.008086
459.000000	0.008053
458.000000	0.007491
457.000000	0.006816
456.000000	0.006485
455.000000	0.006218
454.000000	0.005781
453.000000	0.005515
452.000000	0.005553
451.000000	0.005273
450.000000	0.004317
