PE IR       SUBTECH     SPECTRUM    ASCII       PEDS        4.00        
   -1
P8-Or033_1.ASC
23/06/13
15:54:23.00
23/06/13
16:11:22.00
uco
Sample 033 By uco Date Tuesday, June 13 2023
450.000000
#HDR
-1
-1
#GR
cm-1
A
1.0
0.0
4000.000000
-1.000000
3551
8
0.060445
0.015813
#DATA
4000.000000	0.018152
3999.000000	0.018168
3998.000000	0.018188
3997.000000	0.018204
3996.000000	0.018211
3995.000000	0.018215
3994.000000	0.018222
3993.000000	0.018230
3992.000000	0.018231
3991.000000	0.018219
3990.000000	0.018200
3989.000000	0.018187
3988.000000	0.018192
3987.000000	0.018219
3986.000000	0.018255
3985.000000	0.018283
3984.000000	0.018284
3983.000000	0.018258
3982.000000	0.018220
3981.000000	0.018192
3980.000000	0.018192
3979.000000	0.018213
3978.000000	0.018236
3977.000000	0.018238
3976.000000	0.018217
3975.000000	0.018192
3974.000000	0.018191
3973.000000	0.018228
3972.000000	0.018291
3971.000000	0.018350
3970.000000	0.018377
3969.000000	0.018366
3968.000000	0.018335
3967.000000	0.018312
3966.000000	0.018308
3965.000000	0.018315
3964.000000	0.018314
3963.000000	0.018293
3962.000000	0.018261
3961.000000	0.018235
3960.000000	0.018228
3959.000000	0.018242
3958.000000	0.018267
3957.000000	0.018292
3956.000000	0.018309
3955.000000	0.018314
3954.000000	0.018309
3953.000000	0.018300
3952.000000	0.018298
3951.000000	0.018312
3950.000000	0.018343
3949.000000	0.018383
3948.000000	0.018414
3947.000000	0.018422
3946.000000	0.018404
3945.000000	0.018366
3944.000000	0.018327
3943.000000	0.018299
3942.000000	0.018289
3941.000000	0.018288
3940.000000	0.018288
3939.000000	0.018292
3938.000000	0.018309
3937.000000	0.018346
3936.000000	0.018398
3935.000000	0.018452
3934.000000	0.018489
3933.000000	0.018491
3932.000000	0.018457
3931.000000	0.018405
3930.000000	0.018362
3929.000000	0.018341
3928.000000	0.018332
3927.000000	0.018319
3926.000000	0.018300
3925.000000	0.018287
3924.000000	0.018296
3923.000000	0.018331
3922.000000	0.018381
3921.000000	0.018435
3920.000000	0.018486
3919.000000	0.018530
3918.000000	0.018556
3917.000000	0.018557
3916.000000	0.018530
3915.000000	0.018482
3914.000000	0.018430
3913.000000	0.018386
3912.000000	0.018360
3911.000000	0.018355
3910.000000	0.018367
3909.000000	0.018388
3908.000000	0.018410
3907.000000	0.018432
3906.000000	0.018457
3905.000000	0.018497
3904.000000	0.018557
3903.000000	0.018619
3902.000000	0.018653
3901.000000	0.018640
3900.000000	0.018590
3899.000000	0.018531
3898.000000	0.018488
3897.000000	0.018468
3896.000000	0.018470
3895.000000	0.018486
3894.000000	0.018506
3893.000000	0.018523
3892.000000	0.018544
3891.000000	0.018576
3890.000000	0.018617
3889.000000	0.018654
3888.000000	0.018675
3887.000000	0.018672
3886.000000	0.018647
3885.000000	0.018618
3884.000000	0.018594
3883.000000	0.018572
3882.000000	0.018539
3881.000000	0.018499
3880.000000	0.018469
3879.000000	0.018461
3878.000000	0.018470
3877.000000	0.018482
3876.000000	0.018488
3875.000000	0.018490
3874.000000	0.018502
3873.000000	0.018529
3872.000000	0.018560
3871.000000	0.018587
3870.000000	0.018611
3869.000000	0.018632
3868.000000	0.018647
3867.000000	0.018654
3866.000000	0.018655
3865.000000	0.018649
3864.000000	0.018636
3863.000000	0.018619
3862.000000	0.018595
3861.000000	0.018572
3860.000000	0.018558
3859.000000	0.018556
3858.000000	0.018558
3857.000000	0.018548
3856.000000	0.018516
3855.000000	0.018461
3854.000000	0.018423
3853.000000	0.018444
3852.000000	0.018484
3851.000000	0.018502
3850.000000	0.018506
3849.000000	0.018509
3848.000000	0.018514
3847.000000	0.018520
3846.000000	0.018525
3845.000000	0.018524
3844.000000	0.018518
3843.000000	0.018515
3842.000000	0.018521
3841.000000	0.018531
3840.000000	0.018535
3839.000000	0.018530
3838.000000	0.018521
3837.000000	0.018510
3836.000000	0.018499
3835.000000	0.018489
3834.000000	0.018483
3833.000000	0.018479
3832.000000	0.018476
3831.000000	0.018476
3830.000000	0.018475
3829.000000	0.018463
3828.000000	0.018438
3827.000000	0.018415
3826.000000	0.018419
3825.000000	0.018455
3824.000000	0.018505
3823.000000	0.018533
3822.000000	0.018526
3821.000000	0.018508
3820.000000	0.018504
3819.000000	0.018503
3818.000000	0.018486
3817.000000	0.018452
3816.000000	0.018415
3815.000000	0.018389
3814.000000	0.018379
3813.000000	0.018379
3812.000000	0.018386
3811.000000	0.018401
3810.000000	0.018423
3809.000000	0.018445
3808.000000	0.018462
3807.000000	0.018486
3806.000000	0.018521
3805.000000	0.018553
3804.000000	0.018553
3803.000000	0.018505
3802.000000	0.018426
3801.000000	0.018365
3800.000000	0.018345
3799.000000	0.018352
3798.000000	0.018369
3797.000000	0.018389
3796.000000	0.018415
3795.000000	0.018440
3794.000000	0.018450
3793.000000	0.018433
3792.000000	0.018394
3791.000000	0.018350
3790.000000	0.018321
3789.000000	0.018313
3788.000000	0.018318
3787.000000	0.018327
3786.000000	0.018339
3785.000000	0.018359
3784.000000	0.018384
3783.000000	0.018408
3782.000000	0.018425
3781.000000	0.018427
3780.000000	0.018413
3779.000000	0.018392
3778.000000	0.018373
3777.000000	0.018360
3776.000000	0.018357
3775.000000	0.018371
3774.000000	0.018402
3773.000000	0.018446
3772.000000	0.018490
3771.000000	0.018522
3770.000000	0.018537
3769.000000	0.018540
3768.000000	0.018536
3767.000000	0.018526
3766.000000	0.018512
3765.000000	0.018494
3764.000000	0.018477
3763.000000	0.018465
3762.000000	0.018454
3761.000000	0.018438
3760.000000	0.018421
3759.000000	0.018415
3758.000000	0.018426
3757.000000	0.018444
3756.000000	0.018462
3755.000000	0.018486
3754.000000	0.018519
3753.000000	0.018559
3752.000000	0.018597
3751.000000	0.018635
3750.000000	0.018679
3749.000000	0.018719
3748.000000	0.018749
3747.000000	0.018762
3746.000000	0.018764
3745.000000	0.018768
3744.000000	0.018775
3743.000000	0.018758
3742.000000	0.018713
3741.000000	0.018658
3740.000000	0.018605
3739.000000	0.018573
3738.000000	0.018573
3737.000000	0.018596
3736.000000	0.018597
3735.000000	0.018532
3734.000000	0.018417
3733.000000	0.018316
3732.000000	0.018277
3731.000000	0.018303
3730.000000	0.018372
3729.000000	0.018461
3728.000000	0.018547
3727.000000	0.018607
3726.000000	0.018630
3725.000000	0.018622
3724.000000	0.018598
3723.000000	0.018567
3722.000000	0.018532
3721.000000	0.018492
3720.000000	0.018446
3719.000000	0.018406
3718.000000	0.018389
3717.000000	0.018407
3716.000000	0.018452
3715.000000	0.018508
3714.000000	0.018569
3713.000000	0.018640
3712.000000	0.018713
3711.000000	0.018754
3710.000000	0.018723
3709.000000	0.018621
3708.000000	0.018490
3707.000000	0.018383
3706.000000	0.018323
3705.000000	0.018295
3704.000000	0.018259
3703.000000	0.018196
3702.000000	0.018122
3701.000000	0.018075
3700.000000	0.018072
3699.000000	0.018103
3698.000000	0.018153
3697.000000	0.018212
3696.000000	0.018281
3695.000000	0.018366
3694.000000	0.018458
3693.000000	0.018521
3692.000000	0.018506
3691.000000	0.018388
3690.000000	0.018215
3689.000000	0.018093
3688.000000	0.018086
3687.000000	0.018170
3686.000000	0.018276
3685.000000	0.018354
3684.000000	0.018390
3683.000000	0.018400
3682.000000	0.018399
3681.000000	0.018398
3680.000000	0.018408
3679.000000	0.018441
3678.000000	0.018495
3677.000000	0.018542
3676.000000	0.018570
3675.000000	0.018597
3674.000000	0.018635
3673.000000	0.018664
3672.000000	0.018662
3671.000000	0.018611
3670.000000	0.018526
3669.000000	0.018445
3668.000000	0.018392
3667.000000	0.018369
3666.000000	0.018368
3665.000000	0.018373
3664.000000	0.018371
3663.000000	0.018363
3662.000000	0.018356
3661.000000	0.018359
3660.000000	0.018374
3659.000000	0.018398
3658.000000	0.018428
3657.000000	0.018467
3656.000000	0.018517
3655.000000	0.018573
3654.000000	0.018627
3653.000000	0.018673
3652.000000	0.018712
3651.000000	0.018745
3650.000000	0.018780
3649.000000	0.018806
3648.000000	0.018797
3647.000000	0.018751
3646.000000	0.018698
3645.000000	0.018658
3644.000000	0.018636
3643.000000	0.018627
3642.000000	0.018616
3641.000000	0.018593
3640.000000	0.018566
3639.000000	0.018552
3638.000000	0.018562
3637.000000	0.018583
3636.000000	0.018603
3635.000000	0.018620
3634.000000	0.018649
3633.000000	0.018708
3632.000000	0.018800
3631.000000	0.018914
3630.000000	0.019028
3629.000000	0.019110
3628.000000	0.019131
3627.000000	0.019090
3626.000000	0.019008
3625.000000	0.018909
3624.000000	0.018802
3623.000000	0.018688
3622.000000	0.018565
3621.000000	0.018447
3620.000000	0.018386
3619.000000	0.018442
3618.000000	0.018606
3617.000000	0.018803
3616.000000	0.018969
3615.000000	0.019087
3614.000000	0.019168
3613.000000	0.019222
3612.000000	0.019247
3611.000000	0.019238
3610.000000	0.019207
3609.000000	0.019168
3608.000000	0.019126
3607.000000	0.019077
3606.000000	0.019017
3605.000000	0.018955
3604.000000	0.018912
3603.000000	0.018907
3602.000000	0.018939
3601.000000	0.018982
3600.000000	0.019006
3599.000000	0.019003
3598.000000	0.018990
3597.000000	0.018986
3596.000000	0.019005
3595.000000	0.019047
3594.000000	0.019096
3593.000000	0.019129
3592.000000	0.019138
3591.000000	0.019136
3590.000000	0.019140
3589.000000	0.019159
3588.000000	0.019196
3587.000000	0.019248
3586.000000	0.019294
3585.000000	0.019316
3584.000000	0.019311
3583.000000	0.019295
3582.000000	0.019286
3581.000000	0.019284
3580.000000	0.019276
3579.000000	0.019255
3578.000000	0.019228
3577.000000	0.019214
3576.000000	0.019229
3575.000000	0.019270
3574.000000	0.019317
3573.000000	0.019349
3572.000000	0.019364
3571.000000	0.019376
3570.000000	0.019401
3569.000000	0.019440
3568.000000	0.019493
3567.000000	0.019553
3566.000000	0.019602
3565.000000	0.019622
3564.000000	0.019607
3563.000000	0.019571
3562.000000	0.019535
3561.000000	0.019514
3560.000000	0.019515
3559.000000	0.019534
3558.000000	0.019559
3557.000000	0.019582
3556.000000	0.019600
3555.000000	0.019611
3554.000000	0.019617
3553.000000	0.019626
3552.000000	0.019652
3551.000000	0.019707
3550.000000	0.019781
3549.000000	0.019852
3548.000000	0.019901
3547.000000	0.019919
3546.000000	0.019909
3545.000000	0.019882
3544.000000	0.019861
3543.000000	0.019861
3542.000000	0.019873
3541.000000	0.019878
3540.000000	0.019865
3539.000000	0.019847
3538.000000	0.019844
3537.000000	0.019865
3536.000000	0.019902
3535.000000	0.019945
3534.000000	0.019981
3533.000000	0.020002
3532.000000	0.020009
3531.000000	0.020009
3530.000000	0.020011
3529.000000	0.020016
3528.000000	0.020025
3527.000000	0.020037
3526.000000	0.020047
3525.000000	0.020050
3524.000000	0.020044
3523.000000	0.020038
3522.000000	0.020041
3521.000000	0.020049
3520.000000	0.020052
3519.000000	0.020053
3518.000000	0.020064
3517.000000	0.020090
3516.000000	0.020130
3515.000000	0.020167
3514.000000	0.020189
3513.000000	0.020188
3512.000000	0.020173
3511.000000	0.020162
3510.000000	0.020169
3509.000000	0.020193
3508.000000	0.020226
3507.000000	0.020261
3506.000000	0.020296
3505.000000	0.020329
3504.000000	0.020352
3503.000000	0.020364
3502.000000	0.020366
3501.000000	0.020365
3500.000000	0.020368
3499.000000	0.020384
3498.000000	0.020420
3497.000000	0.020471
3496.000000	0.020526
3495.000000	0.020571
3494.000000	0.020593
3493.000000	0.020596
3492.000000	0.020593
3491.000000	0.020600
3490.000000	0.020618
3489.000000	0.020634
3488.000000	0.020638
3487.000000	0.020636
3486.000000	0.020642
3485.000000	0.020661
3484.000000	0.020687
3483.000000	0.020709
3482.000000	0.020721
3481.000000	0.020721
3480.000000	0.020712
3479.000000	0.020708
3478.000000	0.020722
3477.000000	0.020754
3476.000000	0.020799
3475.000000	0.020842
3474.000000	0.020872
3473.000000	0.020881
3472.000000	0.020871
3471.000000	0.020854
3470.000000	0.020843
3469.000000	0.020843
3468.000000	0.020857
3467.000000	0.020884
3466.000000	0.020917
3465.000000	0.020947
3464.000000	0.020966
3463.000000	0.020980
3462.000000	0.021001
3461.000000	0.021030
3460.000000	0.021061
3459.000000	0.021086
3458.000000	0.021106
3457.000000	0.021122
3456.000000	0.021137
3455.000000	0.021155
3454.000000	0.021174
3453.000000	0.021191
3452.000000	0.021205
3451.000000	0.021215
3450.000000	0.021219
3449.000000	0.021214
3448.000000	0.021207
3447.000000	0.021215
3446.000000	0.021248
3445.000000	0.021296
3444.000000	0.021341
3443.000000	0.021368
3442.000000	0.021375
3441.000000	0.021367
3440.000000	0.021357
3439.000000	0.021355
3438.000000	0.021364
3437.000000	0.021383
3436.000000	0.021406
3435.000000	0.021425
3434.000000	0.021440
3433.000000	0.021454
3432.000000	0.021478
3431.000000	0.021516
3430.000000	0.021561
3429.000000	0.021600
3428.000000	0.021626
3427.000000	0.021640
3426.000000	0.021645
3425.000000	0.021647
3424.000000	0.021654
3423.000000	0.021669
3422.000000	0.021690
3421.000000	0.021711
3420.000000	0.021728
3419.000000	0.021748
3418.000000	0.021772
3417.000000	0.021796
3416.000000	0.021813
3415.000000	0.021821
3414.000000	0.021818
3413.000000	0.021806
3412.000000	0.021798
3411.000000	0.021805
3410.000000	0.021829
3409.000000	0.021859
3408.000000	0.021879
3407.000000	0.021884
3406.000000	0.021875
3405.000000	0.021862
3404.000000	0.021855
3403.000000	0.021863
3402.000000	0.021887
3401.000000	0.021917
3400.000000	0.021945
3399.000000	0.021969
3398.000000	0.021988
3397.000000	0.021998
3396.000000	0.022000
3395.000000	0.021999
3394.000000	0.022000
3393.000000	0.022011
3392.000000	0.022033
3391.000000	0.022064
3390.000000	0.022098
3389.000000	0.022128
3388.000000	0.022155
3387.000000	0.022186
3386.000000	0.022217
3385.000000	0.022237
3384.000000	0.022240
3383.000000	0.022230
3382.000000	0.022217
3381.000000	0.022203
3380.000000	0.022186
3379.000000	0.022175
3378.000000	0.022183
3377.000000	0.022212
3376.000000	0.022257
3375.000000	0.022307
3374.000000	0.022351
3373.000000	0.022378
3372.000000	0.022386
3371.000000	0.022381
3370.000000	0.022375
3369.000000	0.022378
3368.000000	0.022395
3367.000000	0.022426
3366.000000	0.022466
3365.000000	0.022507
3364.000000	0.022542
3363.000000	0.022576
3362.000000	0.022612
3361.000000	0.022647
3360.000000	0.022672
3359.000000	0.022686
3358.000000	0.022697
3357.000000	0.022716
3356.000000	0.022743
3355.000000	0.022769
3354.000000	0.022777
3353.000000	0.022762
3352.000000	0.022739
3351.000000	0.022733
3350.000000	0.022758
3349.000000	0.022805
3348.000000	0.022851
3347.000000	0.022877
3346.000000	0.022881
3345.000000	0.022878
3344.000000	0.022883
3343.000000	0.022906
3342.000000	0.022939
3341.000000	0.022965
3340.000000	0.022976
3339.000000	0.022977
3338.000000	0.022980
3337.000000	0.022992
3336.000000	0.023010
3335.000000	0.023036
3334.000000	0.023071
3333.000000	0.023116
3332.000000	0.023169
3331.000000	0.023227
3330.000000	0.023280
3329.000000	0.023315
3328.000000	0.023323
3327.000000	0.023306
3326.000000	0.023283
3325.000000	0.023276
3324.000000	0.023299
3323.000000	0.023347
3322.000000	0.023400
3321.000000	0.023437
3320.000000	0.023452
3319.000000	0.023458
3318.000000	0.023470
3317.000000	0.023490
3316.000000	0.023504
3315.000000	0.023503
3314.000000	0.023488
3313.000000	0.023467
3312.000000	0.023454
3311.000000	0.023459
3310.000000	0.023479
3309.000000	0.023505
3308.000000	0.023526
3307.000000	0.023547
3306.000000	0.023573
3305.000000	0.023608
3304.000000	0.023648
3303.000000	0.023689
3302.000000	0.023726
3301.000000	0.023754
3300.000000	0.023769
3299.000000	0.023770
3298.000000	0.023764
3297.000000	0.023759
3296.000000	0.023759
3295.000000	0.023765
3294.000000	0.023777
3293.000000	0.023798
3292.000000	0.023832
3291.000000	0.023875
3290.000000	0.023905
3289.000000	0.023908
3288.000000	0.023889
3287.000000	0.023874
3286.000000	0.023873
3285.000000	0.023877
3284.000000	0.023866
3283.000000	0.023842
3282.000000	0.023821
3281.000000	0.023812
3280.000000	0.023813
3279.000000	0.023814
3278.000000	0.023814
3277.000000	0.023815
3276.000000	0.023817
3275.000000	0.023815
3274.000000	0.023796
3273.000000	0.023761
3272.000000	0.023727
3271.000000	0.023715
3270.000000	0.023725
3269.000000	0.023735
3268.000000	0.023721
3267.000000	0.023683
3266.000000	0.023639
3265.000000	0.023606
3264.000000	0.023588
3263.000000	0.023583
3262.000000	0.023585
3261.000000	0.023588
3260.000000	0.023590
3259.000000	0.023595
3258.000000	0.023602
3257.000000	0.023604
3256.000000	0.023593
3255.000000	0.023567
3254.000000	0.023532
3253.000000	0.023494
3252.000000	0.023462
3251.000000	0.023442
3250.000000	0.023430
3249.000000	0.023409
3248.000000	0.023374
3247.000000	0.023334
3246.000000	0.023310
3245.000000	0.023306
3244.000000	0.023311
3243.000000	0.023303
3242.000000	0.023268
3241.000000	0.023208
3240.000000	0.023144
3239.000000	0.023104
3238.000000	0.023100
3237.000000	0.023116
3236.000000	0.023124
3235.000000	0.023111
3234.000000	0.023085
3233.000000	0.023065
3232.000000	0.023063
3231.000000	0.023078
3230.000000	0.023094
3229.000000	0.023098
3228.000000	0.023091
3227.000000	0.023086
3226.000000	0.023095
3225.000000	0.023110
3224.000000	0.023116
3223.000000	0.023103
3222.000000	0.023071
3221.000000	0.023028
3220.000000	0.022983
3219.000000	0.022947
3218.000000	0.022925
3217.000000	0.022919
3216.000000	0.022923
3215.000000	0.022938
3214.000000	0.022962
3213.000000	0.022984
3212.000000	0.022994
3211.000000	0.022991
3210.000000	0.022981
3209.000000	0.022970
3208.000000	0.022956
3207.000000	0.022936
3206.000000	0.022912
3205.000000	0.022888
3204.000000	0.022870
3203.000000	0.022861
3202.000000	0.022860
3201.000000	0.022857
3200.000000	0.022843
3199.000000	0.022821
3198.000000	0.022801
3197.000000	0.022788
3196.000000	0.022780
3195.000000	0.022769
3194.000000	0.022755
3193.000000	0.022741
3192.000000	0.022727
3191.000000	0.022710
3190.000000	0.022684
3189.000000	0.022653
3188.000000	0.022622
3187.000000	0.022598
3186.000000	0.022581
3185.000000	0.022560
3184.000000	0.022534
3183.000000	0.022510
3182.000000	0.022499
3181.000000	0.022499
3180.000000	0.022500
3179.000000	0.022494
3178.000000	0.022484
3177.000000	0.022472
3176.000000	0.022458
3175.000000	0.022439
3174.000000	0.022411
3173.000000	0.022375
3172.000000	0.022341
3171.000000	0.022319
3170.000000	0.022310
3169.000000	0.022302
3168.000000	0.022285
3167.000000	0.022263
3166.000000	0.022246
3165.000000	0.022236
3164.000000	0.022222
3163.000000	0.022197
3162.000000	0.022164
3161.000000	0.022137
3160.000000	0.022125
3159.000000	0.022125
3158.000000	0.022128
3157.000000	0.022124
3156.000000	0.022112
3155.000000	0.022097
3154.000000	0.022081
3153.000000	0.022066
3152.000000	0.022050
3151.000000	0.022033
3150.000000	0.022011
3149.000000	0.021978
3148.000000	0.021937
3147.000000	0.021897
3146.000000	0.021870
3145.000000	0.021855
3144.000000	0.021845
3143.000000	0.021834
3142.000000	0.021821
3141.000000	0.021803
3140.000000	0.021780
3139.000000	0.021760
3138.000000	0.021754
3137.000000	0.021765
3136.000000	0.021783
3135.000000	0.021794
3134.000000	0.021791
3133.000000	0.021775
3132.000000	0.021752
3131.000000	0.021729
3130.000000	0.021710
3129.000000	0.021695
3128.000000	0.021683
3127.000000	0.021674
3126.000000	0.021671
3125.000000	0.021669
3124.000000	0.021665
3123.000000	0.021659
3122.000000	0.021654
3121.000000	0.021645
3120.000000	0.021628
3119.000000	0.021606
3118.000000	0.021590
3117.000000	0.021582
3116.000000	0.021583
3115.000000	0.021587
3114.000000	0.021591
3113.000000	0.021589
3112.000000	0.021582
3111.000000	0.021577
3110.000000	0.021580
3109.000000	0.021589
3108.000000	0.021596
3107.000000	0.021594
3106.000000	0.021587
3105.000000	0.021580
3104.000000	0.021575
3103.000000	0.021573
3102.000000	0.021573
3101.000000	0.021573
3100.000000	0.021570
3099.000000	0.021567
3098.000000	0.021568
3097.000000	0.021570
3096.000000	0.021565
3095.000000	0.021558
3094.000000	0.021559
3093.000000	0.021576
3092.000000	0.021604
3091.000000	0.021629
3090.000000	0.021639
3089.000000	0.021632
3088.000000	0.021614
3087.000000	0.021598
3086.000000	0.021590
3085.000000	0.021592
3084.000000	0.021599
3083.000000	0.021611
3082.000000	0.021624
3081.000000	0.021632
3080.000000	0.021629
3079.000000	0.021616
3078.000000	0.021608
3077.000000	0.021614
3076.000000	0.021633
3075.000000	0.021653
3074.000000	0.021666
3073.000000	0.021669
3072.000000	0.021667
3071.000000	0.021668
3070.000000	0.021678
3069.000000	0.021697
3068.000000	0.021720
3067.000000	0.021740
3066.000000	0.021752
3065.000000	0.021753
3064.000000	0.021743
3063.000000	0.021730
3062.000000	0.021717
3061.000000	0.021702
3060.000000	0.021683
3059.000000	0.021661
3058.000000	0.021643
3057.000000	0.021634
3056.000000	0.021629
3055.000000	0.021622
3054.000000	0.021613
3053.000000	0.021606
3052.000000	0.021600
3051.000000	0.021592
3050.000000	0.021579
3049.000000	0.021563
3048.000000	0.021547
3047.000000	0.021532
3046.000000	0.021519
3045.000000	0.021507
3044.000000	0.021499
3043.000000	0.021496
3042.000000	0.021493
3041.000000	0.021483
3040.000000	0.021464
3039.000000	0.021447
3038.000000	0.021447
3037.000000	0.021460
3036.000000	0.021473
3035.000000	0.021471
3034.000000	0.021458
3033.000000	0.021441
3032.000000	0.021427
3031.000000	0.021414
3030.000000	0.021402
3029.000000	0.021393
3028.000000	0.021388
3027.000000	0.021379
3026.000000	0.021363
3025.000000	0.021345
3024.000000	0.021335
3023.000000	0.021337
3022.000000	0.021342
3021.000000	0.021336
3020.000000	0.021318
3019.000000	0.021296
3018.000000	0.021286
3017.000000	0.021290
3016.000000	0.021302
3015.000000	0.021315
3014.000000	0.021325
3013.000000	0.021334
3012.000000	0.021338
3011.000000	0.021337
3010.000000	0.021338
3009.000000	0.021342
3008.000000	0.021346
3007.000000	0.021343
3006.000000	0.021332
3005.000000	0.021320
3004.000000	0.021315
3003.000000	0.021318
3002.000000	0.021325
3001.000000	0.021335
3000.000000	0.021348
2999.000000	0.021364
2998.000000	0.021387
2997.000000	0.021415
2996.000000	0.021444
2995.000000	0.021471
2994.000000	0.021497
2993.000000	0.021531
2992.000000	0.021576
2991.000000	0.021626
2990.000000	0.021676
2989.000000	0.021728
2988.000000	0.021786
2987.000000	0.021852
2986.000000	0.021919
2985.000000	0.021979
2984.000000	0.022030
2983.000000	0.022079
2982.000000	0.022133
2981.000000	0.022188
2980.000000	0.022239
2979.000000	0.022289
2978.000000	0.022349
2977.000000	0.022431
2976.000000	0.022527
2975.000000	0.022621
2974.000000	0.022702
2973.000000	0.022772
2972.000000	0.022846
2971.000000	0.022932
2970.000000	0.023026
2969.000000	0.023123
2968.000000	0.023220
2967.000000	0.023322
2966.000000	0.023436
2965.000000	0.023557
2964.000000	0.023675
2963.000000	0.023776
2962.000000	0.023852
2961.000000	0.023910
2960.000000	0.023961
2959.000000	0.024010
2958.000000	0.024056
2957.000000	0.024087
2956.000000	0.024091
2955.000000	0.024068
2954.000000	0.024027
2953.000000	0.023980
2952.000000	0.023936
2951.000000	0.023899
2950.000000	0.023867
2949.000000	0.023842
2948.000000	0.023832
2947.000000	0.023845
2946.000000	0.023884
2945.000000	0.023945
2944.000000	0.024018
2943.000000	0.024098
2942.000000	0.024180
2941.000000	0.024261
2940.000000	0.024342
2939.000000	0.024433
2938.000000	0.024544
2937.000000	0.024674
2936.000000	0.024806
2935.000000	0.024925
2934.000000	0.025021
2933.000000	0.025097
2932.000000	0.025163
2931.000000	0.025222
2930.000000	0.025277
2929.000000	0.025330
2928.000000	0.025385
2927.000000	0.025451
2926.000000	0.025527
2925.000000	0.025601
2924.000000	0.025654
2923.000000	0.025672
2922.000000	0.025656
2921.000000	0.025620
2920.000000	0.025578
2919.000000	0.025533
2918.000000	0.025474
2917.000000	0.025383
2916.000000	0.025261
2915.000000	0.025123
2914.000000	0.024990
2913.000000	0.024868
2912.000000	0.024752
2911.000000	0.024640
2910.000000	0.024536
2909.000000	0.024446
2908.000000	0.024367
2907.000000	0.024294
2906.000000	0.024218
2905.000000	0.024134
2904.000000	0.024044
2903.000000	0.023958
2902.000000	0.023885
2901.000000	0.023827
2900.000000	0.023769
2899.000000	0.023696
2898.000000	0.023603
2897.000000	0.023501
2896.000000	0.023406
2895.000000	0.023327
2894.000000	0.023260
2893.000000	0.023195
2892.000000	0.023125
2891.000000	0.023059
2890.000000	0.023014
2889.000000	0.022995
2888.000000	0.022989
2887.000000	0.022982
2886.000000	0.022973
2885.000000	0.022965
2884.000000	0.022961
2883.000000	0.022964
2882.000000	0.022977
2881.000000	0.023006
2880.000000	0.023048
2879.000000	0.023093
2878.000000	0.023135
2877.000000	0.023178
2876.000000	0.023231
2875.000000	0.023297
2874.000000	0.023369
2873.000000	0.023433
2872.000000	0.023477
2871.000000	0.023496
2870.000000	0.023497
2869.000000	0.023486
2868.000000	0.023473
2867.000000	0.023468
2866.000000	0.023481
2865.000000	0.023513
2864.000000	0.023556
2863.000000	0.023601
2862.000000	0.023645
2861.000000	0.023689
2860.000000	0.023730
2859.000000	0.023765
2858.000000	0.023791
2857.000000	0.023809
2856.000000	0.023818
2855.000000	0.023822
2854.000000	0.023820
2853.000000	0.023811
2852.000000	0.023785
2851.000000	0.023735
2850.000000	0.023668
2849.000000	0.023589
2848.000000	0.023494
2847.000000	0.023375
2846.000000	0.023230
2845.000000	0.023073
2844.000000	0.022916
2843.000000	0.022768
2842.000000	0.022633
2841.000000	0.022518
2840.000000	0.022426
2839.000000	0.022351
2838.000000	0.022283
2837.000000	0.022218
2836.000000	0.022155
2835.000000	0.022096
2834.000000	0.022041
2833.000000	0.021989
2832.000000	0.021940
2831.000000	0.021894
2830.000000	0.021857
2829.000000	0.021831
2828.000000	0.021815
2827.000000	0.021801
2826.000000	0.021778
2825.000000	0.021742
2824.000000	0.021696
2823.000000	0.021652
2822.000000	0.021614
2821.000000	0.021584
2820.000000	0.021560
2819.000000	0.021545
2818.000000	0.021547
2817.000000	0.021564
2816.000000	0.021583
2815.000000	0.021586
2814.000000	0.021570
2813.000000	0.021549
2812.000000	0.021534
2811.000000	0.021525
2810.000000	0.021512
2809.000000	0.021492
2808.000000	0.021470
2807.000000	0.021446
2806.000000	0.021418
2805.000000	0.021387
2804.000000	0.021360
2803.000000	0.021348
2802.000000	0.021351
2801.000000	0.021359
2800.000000	0.021360
2799.000000	0.021347
2798.000000	0.021322
2797.000000	0.021293
2796.000000	0.021273
2795.000000	0.021270
2794.000000	0.021285
2793.000000	0.021300
2792.000000	0.021298
2791.000000	0.021275
2790.000000	0.021244
2789.000000	0.021219
2788.000000	0.021205
2787.000000	0.021200
2786.000000	0.021197
2785.000000	0.021195
2784.000000	0.021195
2783.000000	0.021200
2782.000000	0.021209
2781.000000	0.021216
2780.000000	0.021216
2779.000000	0.021210
2778.000000	0.021204
2777.000000	0.021202
2776.000000	0.021198
2775.000000	0.021187
2774.000000	0.021170
2773.000000	0.021156
2772.000000	0.021149
2771.000000	0.021147
2770.000000	0.021142
2769.000000	0.021130
2768.000000	0.021116
2767.000000	0.021106
2766.000000	0.021104
2765.000000	0.021109
2764.000000	0.021117
2763.000000	0.021123
2762.000000	0.021122
2761.000000	0.021113
2760.000000	0.021099
2759.000000	0.021089
2758.000000	0.021089
2757.000000	0.021094
2756.000000	0.021091
2755.000000	0.021078
2754.000000	0.021067
2753.000000	0.021068
2752.000000	0.021079
2751.000000	0.021089
2750.000000	0.021094
2749.000000	0.021097
2748.000000	0.021100
2747.000000	0.021104
2746.000000	0.021108
2745.000000	0.021108
2744.000000	0.021102
2743.000000	0.021088
2742.000000	0.021074
2741.000000	0.021064
2740.000000	0.021057
2739.000000	0.021046
2738.000000	0.021028
2737.000000	0.021008
2736.000000	0.020987
2735.000000	0.020962
2734.000000	0.020941
2733.000000	0.020938
2732.000000	0.020959
2731.000000	0.020996
2730.000000	0.021031
2729.000000	0.021055
2728.000000	0.021062
2727.000000	0.021056
2726.000000	0.021037
2725.000000	0.021013
2724.000000	0.020994
2723.000000	0.020986
2722.000000	0.020984
2721.000000	0.020981
2720.000000	0.020968
2719.000000	0.020952
2718.000000	0.020943
2717.000000	0.020950
2716.000000	0.020969
2715.000000	0.020989
2714.000000	0.021001
2713.000000	0.021005
2712.000000	0.021003
2711.000000	0.020997
2710.000000	0.020986
2709.000000	0.020969
2708.000000	0.020947
2707.000000	0.020922
2706.000000	0.020899
2705.000000	0.020884
2704.000000	0.020881
2703.000000	0.020887
2702.000000	0.020898
2701.000000	0.020905
2700.000000	0.020904
2699.000000	0.020895
2698.000000	0.020883
2697.000000	0.020872
2696.000000	0.020869
2695.000000	0.020878
2694.000000	0.020901
2693.000000	0.020931
2692.000000	0.020953
2691.000000	0.020950
2690.000000	0.020923
2689.000000	0.020890
2688.000000	0.020876
2687.000000	0.020888
2686.000000	0.020916
2685.000000	0.020939
2684.000000	0.020942
2683.000000	0.020927
2682.000000	0.020903
2681.000000	0.020882
2680.000000	0.020868
2679.000000	0.020863
2678.000000	0.020864
2677.000000	0.020869
2676.000000	0.020880
2675.000000	0.020897
2674.000000	0.020913
2673.000000	0.020918
2672.000000	0.020903
2671.000000	0.020874
2670.000000	0.020849
2669.000000	0.020841
2668.000000	0.020847
2667.000000	0.020860
2666.000000	0.020876
2665.000000	0.020894
2664.000000	0.020906
2663.000000	0.020906
2662.000000	0.020892
2661.000000	0.020874
2660.000000	0.020860
2659.000000	0.020847
2658.000000	0.020828
2657.000000	0.020799
2656.000000	0.020763
2655.000000	0.020733
2654.000000	0.020720
2653.000000	0.020730
2652.000000	0.020751
2651.000000	0.020770
2650.000000	0.020776
2649.000000	0.020764
2648.000000	0.020738
2647.000000	0.020702
2646.000000	0.020671
2645.000000	0.020659
2644.000000	0.020670
2643.000000	0.020696
2642.000000	0.020717
2641.000000	0.020718
2640.000000	0.020691
2639.000000	0.020644
2638.000000	0.020596
2637.000000	0.020566
2636.000000	0.020551
2635.000000	0.020531
2634.000000	0.020499
2633.000000	0.020468
2632.000000	0.020458
2631.000000	0.020476
2630.000000	0.020513
2629.000000	0.020546
2628.000000	0.020563
2627.000000	0.020562
2626.000000	0.020552
2625.000000	0.020540
2624.000000	0.020522
2623.000000	0.020492
2622.000000	0.020454
2621.000000	0.020418
2620.000000	0.020389
2619.000000	0.020372
2618.000000	0.020370
2617.000000	0.020386
2616.000000	0.020409
2615.000000	0.020427
2614.000000	0.020430
2613.000000	0.020420
2612.000000	0.020406
2611.000000	0.020400
2610.000000	0.020411
2609.000000	0.020439
2608.000000	0.020465
2607.000000	0.020472
2606.000000	0.020458
2605.000000	0.020442
2604.000000	0.020443
2603.000000	0.020464
2602.000000	0.020495
2601.000000	0.020513
2600.000000	0.020491
2599.000000	0.020429
2598.000000	0.020359
2597.000000	0.020325
2596.000000	0.020340
2595.000000	0.020380
2594.000000	0.020409
2593.000000	0.020407
2592.000000	0.020377
2591.000000	0.020334
2590.000000	0.020300
2589.000000	0.020291
2588.000000	0.020303
2587.000000	0.020318
2586.000000	0.020323
2585.000000	0.020321
2584.000000	0.020320
2583.000000	0.020322
2582.000000	0.020327
2581.000000	0.020336
2580.000000	0.020343
2579.000000	0.020340
2578.000000	0.020328
2577.000000	0.020314
2576.000000	0.020300
2575.000000	0.020282
2574.000000	0.020257
2573.000000	0.020227
2572.000000	0.020195
2571.000000	0.020170
2570.000000	0.020166
2569.000000	0.020192
2568.000000	0.020234
2567.000000	0.020263
2566.000000	0.020268
2565.000000	0.020258
2564.000000	0.020247
2563.000000	0.020238
2562.000000	0.020236
2561.000000	0.020245
2560.000000	0.020261
2559.000000	0.020265
2558.000000	0.020250
2557.000000	0.020225
2556.000000	0.020205
2555.000000	0.020195
2554.000000	0.020195
2553.000000	0.020208
2552.000000	0.020228
2551.000000	0.020240
2550.000000	0.020234
2549.000000	0.020216
2548.000000	0.020206
2547.000000	0.020212
2546.000000	0.020230
2545.000000	0.020245
2544.000000	0.020251
2543.000000	0.020255
2542.000000	0.020269
2541.000000	0.020291
2540.000000	0.020309
2539.000000	0.020313
2538.000000	0.020313
2537.000000	0.020325
2536.000000	0.020346
2535.000000	0.020358
2534.000000	0.020347
2533.000000	0.020329
2532.000000	0.020329
2531.000000	0.020357
2530.000000	0.020409
2529.000000	0.020477
2528.000000	0.020553
2527.000000	0.020632
2526.000000	0.020709
2525.000000	0.020779
2524.000000	0.020841
2523.000000	0.020891
2522.000000	0.020923
2521.000000	0.020935
2520.000000	0.020936
2519.000000	0.020949
2518.000000	0.020991
2517.000000	0.021055
2516.000000	0.021110
2515.000000	0.021132
2514.000000	0.021123
2513.000000	0.021103
2512.000000	0.021090
2511.000000	0.021089
2510.000000	0.021098
2509.000000	0.021104
2508.000000	0.021089
2507.000000	0.021048
2506.000000	0.020994
2505.000000	0.020945
2504.000000	0.020903
2503.000000	0.020866
2502.000000	0.020837
2501.000000	0.020815
2500.000000	0.020782
2499.000000	0.020719
2498.000000	0.020637
2497.000000	0.020565
2496.000000	0.020521
2495.000000	0.020502
2494.000000	0.020497
2493.000000	0.020497
2492.000000	0.020489
2491.000000	0.020460
2490.000000	0.020423
2489.000000	0.020402
2488.000000	0.020401
2487.000000	0.020401
2486.000000	0.020389
2485.000000	0.020374
2484.000000	0.020373
2483.000000	0.020389
2482.000000	0.020407
2481.000000	0.020410
2480.000000	0.020387
2479.000000	0.020341
2478.000000	0.020284
2477.000000	0.020232
2476.000000	0.020192
2475.000000	0.020163
2474.000000	0.020146
2473.000000	0.020150
2472.000000	0.020169
2471.000000	0.020186
2470.000000	0.020184
2469.000000	0.020163
2468.000000	0.020140
2467.000000	0.020135
2466.000000	0.020158
2465.000000	0.020196
2464.000000	0.020224
2463.000000	0.020225
2462.000000	0.020206
2461.000000	0.020186
2460.000000	0.020176
2459.000000	0.020174
2458.000000	0.020175
2457.000000	0.020181
2456.000000	0.020195
2455.000000	0.020217
2454.000000	0.020238
2453.000000	0.020249
2452.000000	0.020240
2451.000000	0.020222
2450.000000	0.020210
2449.000000	0.020200
2448.000000	0.020169
2447.000000	0.020117
2446.000000	0.020074
2445.000000	0.020063
2444.000000	0.020073
2443.000000	0.020080
2442.000000	0.020082
2441.000000	0.020083
2440.000000	0.020070
2439.000000	0.020034
2438.000000	0.019998
2437.000000	0.020001
2436.000000	0.020044
2435.000000	0.020097
2434.000000	0.020135
2433.000000	0.020153
2432.000000	0.020151
2431.000000	0.020125
2430.000000	0.020084
2429.000000	0.020048
2428.000000	0.020023
2427.000000	0.020011
2426.000000	0.020020
2425.000000	0.020057
2424.000000	0.020106
2423.000000	0.020141
2422.000000	0.020158
2421.000000	0.020165
2420.000000	0.020160
2419.000000	0.020136
2418.000000	0.020110
2417.000000	0.020115
2416.000000	0.020155
2415.000000	0.020197
2414.000000	0.020207
2413.000000	0.020187
2412.000000	0.020162
2411.000000	0.020152
2410.000000	0.020153
2409.000000	0.020148
2408.000000	0.020130
2407.000000	0.020110
2406.000000	0.020111
2405.000000	0.020137
2404.000000	0.020164
2403.000000	0.020168
2402.000000	0.020153
2401.000000	0.020132
2400.000000	0.020111
2399.000000	0.020086
2398.000000	0.020067
2397.000000	0.020067
2396.000000	0.020085
2395.000000	0.020112
2394.000000	0.020147
2393.000000	0.020184
2392.000000	0.020205
2391.000000	0.020200
2390.000000	0.020184
2389.000000	0.020180
2388.000000	0.020189
2387.000000	0.020203
2386.000000	0.020221
2385.000000	0.020233
2384.000000	0.020212
2383.000000	0.020137
2382.000000	0.020037
2381.000000	0.019962
2380.000000	0.019936
2379.000000	0.019972
2378.000000	0.020087
2377.000000	0.020276
2376.000000	0.020463
2375.000000	0.020563
2374.000000	0.020550
2373.000000	0.020457
2372.000000	0.020310
2371.000000	0.020137
2370.000000	0.019989
2369.000000	0.019902
2368.000000	0.019868
2367.000000	0.019888
2366.000000	0.019993
2365.000000	0.020177
2364.000000	0.020352
2363.000000	0.020461
2362.000000	0.020537
2361.000000	0.020604
2360.000000	0.020645
2359.000000	0.020645
2358.000000	0.020612
2357.000000	0.020564
2356.000000	0.020538
2355.000000	0.020612
2354.000000	0.020692
2353.000000	0.020610
2352.000000	0.020392
2351.000000	0.020271
2350.000000	0.020382
2349.000000	0.020662
2348.000000	0.020951
2347.000000	0.021066
2346.000000	0.020952
2345.000000	0.020789
2344.000000	0.020768
2343.000000	0.020869
2342.000000	0.020941
2341.000000	0.020913
2340.000000	0.020854
2339.000000	0.020851
2338.000000	0.020903
2337.000000	0.020937
2336.000000	0.020943
2335.000000	0.020928
2334.000000	0.020862
2333.000000	0.020695
2332.000000	0.020520
2331.000000	0.020454
2330.000000	0.020543
2329.000000	0.020697
2328.000000	0.020868
2327.000000	0.021023
2326.000000	0.021127
2325.000000	0.021134
2324.000000	0.021063
2323.000000	0.020981
2322.000000	0.020972
2321.000000	0.021080
2320.000000	0.021295
2319.000000	0.021519
2318.000000	0.021660
2317.000000	0.021670
2316.000000	0.021592
2315.000000	0.021452
2314.000000	0.021287
2313.000000	0.021123
2312.000000	0.021010
2311.000000	0.020944
2310.000000	0.020892
2309.000000	0.020818
2308.000000	0.020729
2307.000000	0.020637
2306.000000	0.020554
2305.000000	0.020487
2304.000000	0.020451
2303.000000	0.020436
2302.000000	0.020442
2301.000000	0.020476
2300.000000	0.020550
2299.000000	0.020639
2298.000000	0.020716
2297.000000	0.020760
2296.000000	0.020772
2295.000000	0.020741
2294.000000	0.020672
2293.000000	0.020595
2292.000000	0.020551
2291.000000	0.020554
2290.000000	0.020589
2289.000000	0.020647
2288.000000	0.020726
2287.000000	0.020801
2286.000000	0.020829
2285.000000	0.020791
2284.000000	0.020706
2283.000000	0.020615
2282.000000	0.020556
2281.000000	0.020541
2280.000000	0.020539
2279.000000	0.020502
2278.000000	0.020413
2277.000000	0.020309
2276.000000	0.020240
2275.000000	0.020210
2274.000000	0.020191
2273.000000	0.020156
2272.000000	0.020096
2271.000000	0.020019
2270.000000	0.019954
2269.000000	0.019944
2268.000000	0.020000
2267.000000	0.020075
2266.000000	0.020105
2265.000000	0.020081
2264.000000	0.020042
2263.000000	0.020027
2262.000000	0.020040
2261.000000	0.020058
2260.000000	0.020061
2259.000000	0.020051
2258.000000	0.020038
2257.000000	0.020031
2256.000000	0.020015
2255.000000	0.019980
2254.000000	0.019954
2253.000000	0.019956
2252.000000	0.019949
2251.000000	0.019877
2250.000000	0.019765
2249.000000	0.019718
2248.000000	0.019795
2247.000000	0.019931
2246.000000	0.020027
2245.000000	0.020049
2244.000000	0.020022
2243.000000	0.019969
2242.000000	0.019912
2241.000000	0.019884
2240.000000	0.019888
2239.000000	0.019874
2238.000000	0.019802
2237.000000	0.019705
2236.000000	0.019638
2235.000000	0.019614
2234.000000	0.019616
2233.000000	0.019639
2232.000000	0.019678
2231.000000	0.019703
2230.000000	0.019686
2229.000000	0.019636
2228.000000	0.019567
2227.000000	0.019471
2226.000000	0.019351
2225.000000	0.019252
2224.000000	0.019214
2223.000000	0.019222
2222.000000	0.019249
2221.000000	0.019291
2220.000000	0.019353
2219.000000	0.019416
2218.000000	0.019479
2217.000000	0.019565
2216.000000	0.019672
2215.000000	0.019746
2214.000000	0.019764
2213.000000	0.019768
2212.000000	0.019800
2211.000000	0.019822
2210.000000	0.019773
2209.000000	0.019660
2208.000000	0.019549
2207.000000	0.019486
2206.000000	0.019475
2205.000000	0.019497
2204.000000	0.019528
2203.000000	0.019553
2202.000000	0.019576
2201.000000	0.019604
2200.000000	0.019604
2199.000000	0.019531
2198.000000	0.019408
2197.000000	0.019313
2196.000000	0.019270
2195.000000	0.019238
2194.000000	0.019209
2193.000000	0.019241
2192.000000	0.019333
2191.000000	0.019378
2190.000000	0.019294
2189.000000	0.019141
2188.000000	0.019032
2187.000000	0.019000
2186.000000	0.019011
2185.000000	0.019030
2184.000000	0.019016
2183.000000	0.018916
2182.000000	0.018747
2181.000000	0.018631
2180.000000	0.018678
2179.000000	0.018866
2178.000000	0.019080
2177.000000	0.019210
2176.000000	0.019184
2175.000000	0.019005
2174.000000	0.018793
2173.000000	0.018701
2172.000000	0.018753
2171.000000	0.018840
2170.000000	0.018895
2169.000000	0.018972
2168.000000	0.019106
2167.000000	0.019200
2166.000000	0.019146
2165.000000	0.018979
2164.000000	0.018824
2163.000000	0.018746
2162.000000	0.018721
2161.000000	0.018688
2160.000000	0.018592
2159.000000	0.018437
2158.000000	0.018345
2157.000000	0.018415
2156.000000	0.018536
2155.000000	0.018519
2154.000000	0.018368
2153.000000	0.018273
2152.000000	0.018349
2151.000000	0.018517
2150.000000	0.018650
2149.000000	0.018706
2148.000000	0.018696
2147.000000	0.018648
2146.000000	0.018653
2145.000000	0.018805
2144.000000	0.019053
2143.000000	0.019236
2142.000000	0.019283
2141.000000	0.019291
2140.000000	0.019353
2139.000000	0.019440
2138.000000	0.019480
2137.000000	0.019472
2136.000000	0.019445
2135.000000	0.019399
2134.000000	0.019354
2133.000000	0.019373
2132.000000	0.019493
2131.000000	0.019675
2130.000000	0.019859
2129.000000	0.020011
2128.000000	0.020094
2127.000000	0.020063
2126.000000	0.019936
2125.000000	0.019806
2124.000000	0.019742
2123.000000	0.019739
2122.000000	0.019778
2121.000000	0.019884
2120.000000	0.020064
2119.000000	0.020236
2118.000000	0.020295
2117.000000	0.020226
2116.000000	0.020107
2115.000000	0.020021
2114.000000	0.020007
2113.000000	0.020066
2112.000000	0.020175
2111.000000	0.020297
2110.000000	0.020404
2109.000000	0.020490
2108.000000	0.020547
2107.000000	0.020559
2106.000000	0.020544
2105.000000	0.020547
2104.000000	0.020585
2103.000000	0.020619
2102.000000	0.020610
2101.000000	0.020569
2100.000000	0.020534
2099.000000	0.020514
2098.000000	0.020509
2097.000000	0.020517
2096.000000	0.020522
2095.000000	0.020488
2094.000000	0.020397
2093.000000	0.020272
2092.000000	0.020158
2091.000000	0.020094
2090.000000	0.020113
2089.000000	0.020208
2088.000000	0.020310
2087.000000	0.020347
2086.000000	0.020333
2085.000000	0.020339
2084.000000	0.020376
2083.000000	0.020379
2082.000000	0.020341
2081.000000	0.020352
2080.000000	0.020472
2079.000000	0.020624
2078.000000	0.020679
2077.000000	0.020604
2076.000000	0.020477
2075.000000	0.020387
2074.000000	0.020371
2073.000000	0.020400
2072.000000	0.020396
2071.000000	0.020313
2070.000000	0.020203
2069.000000	0.020173
2068.000000	0.020233
2067.000000	0.020280
2066.000000	0.020257
2065.000000	0.020225
2064.000000	0.020251
2063.000000	0.020294
2062.000000	0.020289
2061.000000	0.020245
2060.000000	0.020210
2059.000000	0.020193
2058.000000	0.020190
2057.000000	0.020221
2056.000000	0.020274
2055.000000	0.020290
2054.000000	0.020246
2053.000000	0.020210
2052.000000	0.020223
2051.000000	0.020219
2050.000000	0.020118
2049.000000	0.019944
2048.000000	0.019774
2047.000000	0.019625
2046.000000	0.019481
2045.000000	0.019370
2044.000000	0.019304
2043.000000	0.019234
2042.000000	0.019144
2041.000000	0.019135
2040.000000	0.019281
2039.000000	0.019487
2038.000000	0.019585
2037.000000	0.019513
2036.000000	0.019334
2035.000000	0.019140
2034.000000	0.019010
2033.000000	0.018980
2032.000000	0.018984
2031.000000	0.018900
2030.000000	0.018723
2029.000000	0.018586
2028.000000	0.018549
2027.000000	0.018498
2026.000000	0.018327
2025.000000	0.018087
2024.000000	0.017900
2023.000000	0.017821
2022.000000	0.017875
2021.000000	0.018086
2020.000000	0.018388
2019.000000	0.018622
2018.000000	0.018700
2017.000000	0.018676
2016.000000	0.018629
2015.000000	0.018570
2014.000000	0.018508
2013.000000	0.018481
2012.000000	0.018481
2011.000000	0.018461
2010.000000	0.018445
2009.000000	0.018485
2008.000000	0.018532
2007.000000	0.018495
2006.000000	0.018453
2005.000000	0.018598
2004.000000	0.018920
2003.000000	0.019163
2002.000000	0.019163
2001.000000	0.019025
2000.000000	0.018942
1999.000000	0.018975
1998.000000	0.019089
1997.000000	0.019254
1996.000000	0.019406
1995.000000	0.019429
1994.000000	0.019282
1993.000000	0.019074
1992.000000	0.018934
1991.000000	0.018885
1990.000000	0.018895
1989.000000	0.018961
1988.000000	0.019046
1987.000000	0.019058
1986.000000	0.018979
1985.000000	0.018907
1984.000000	0.018910
1983.000000	0.018912
1982.000000	0.018824
1981.000000	0.018671
1980.000000	0.018525
1979.000000	0.018399
1978.000000	0.018311
1977.000000	0.018330
1976.000000	0.018437
1975.000000	0.018489
1974.000000	0.018409
1973.000000	0.018279
1972.000000	0.018185
1971.000000	0.018104
1970.000000	0.018023
1969.000000	0.017999
1968.000000	0.018056
1967.000000	0.018133
1966.000000	0.018207
1965.000000	0.018330
1964.000000	0.018486
1963.000000	0.018578
1962.000000	0.018575
1961.000000	0.018574
1960.000000	0.018643
1959.000000	0.018746
1958.000000	0.018841
1957.000000	0.018934
1956.000000	0.019002
1955.000000	0.018997
1954.000000	0.018960
1953.000000	0.019006
1952.000000	0.019159
1951.000000	0.019314
1950.000000	0.019375
1949.000000	0.019348
1948.000000	0.019277
1947.000000	0.019191
1946.000000	0.019143
1945.000000	0.019201
1944.000000	0.019342
1943.000000	0.019449
1942.000000	0.019451
1941.000000	0.019401
1940.000000	0.019367
1939.000000	0.019349
1938.000000	0.019342
1937.000000	0.019368
1936.000000	0.019425
1935.000000	0.019466
1934.000000	0.019473
1933.000000	0.019474
1932.000000	0.019482
1931.000000	0.019487
1930.000000	0.019499
1929.000000	0.019539
1928.000000	0.019577
1927.000000	0.019559
1926.000000	0.019502
1925.000000	0.019474
1924.000000	0.019482
1923.000000	0.019472
1922.000000	0.019423
1921.000000	0.019385
1920.000000	0.019373
1919.000000	0.019350
1918.000000	0.019308
1917.000000	0.019309
1916.000000	0.019389
1915.000000	0.019509
1914.000000	0.019621
1913.000000	0.019714
1912.000000	0.019769
1911.000000	0.019751
1910.000000	0.019670
1909.000000	0.019581
1908.000000	0.019512
1907.000000	0.019443
1906.000000	0.019378
1905.000000	0.019359
1904.000000	0.019395
1903.000000	0.019427
1902.000000	0.019414
1901.000000	0.019387
1900.000000	0.019393
1899.000000	0.019421
1898.000000	0.019430
1897.000000	0.019405
1896.000000	0.019354
1895.000000	0.019308
1894.000000	0.019305
1893.000000	0.019365
1892.000000	0.019438
1891.000000	0.019444
1890.000000	0.019369
1889.000000	0.019292
1888.000000	0.019274
1887.000000	0.019283
1886.000000	0.019271
1885.000000	0.019241
1884.000000	0.019216
1883.000000	0.019190
1882.000000	0.019145
1881.000000	0.019097
1880.000000	0.019060
1879.000000	0.019026
1878.000000	0.018986
1877.000000	0.018955
1876.000000	0.018940
1875.000000	0.018928
1874.000000	0.018933
1873.000000	0.018994
1872.000000	0.019107
1871.000000	0.019208
1870.000000	0.019241
1869.000000	0.019219
1868.000000	0.019196
1867.000000	0.019195
1866.000000	0.019191
1865.000000	0.019163
1864.000000	0.019106
1863.000000	0.019021
1862.000000	0.018933
1861.000000	0.018890
1860.000000	0.018908
1859.000000	0.018943
1858.000000	0.018946
1857.000000	0.018907
1856.000000	0.018852
1855.000000	0.018811
1854.000000	0.018806
1853.000000	0.018850
1852.000000	0.018923
1851.000000	0.018970
1850.000000	0.018967
1849.000000	0.018954
1848.000000	0.018975
1847.000000	0.019014
1846.000000	0.019011
1845.000000	0.018939
1844.000000	0.018825
1843.000000	0.018722
1842.000000	0.018661
1841.000000	0.018648
1840.000000	0.018660
1839.000000	0.018654
1838.000000	0.018611
1837.000000	0.018556
1836.000000	0.018527
1835.000000	0.018539
1834.000000	0.018586
1833.000000	0.018654
1832.000000	0.018698
1831.000000	0.018660
1830.000000	0.018555
1829.000000	0.018488
1828.000000	0.018503
1827.000000	0.018536
1826.000000	0.018525
1825.000000	0.018479
1824.000000	0.018435
1823.000000	0.018410
1822.000000	0.018403
1821.000000	0.018415
1820.000000	0.018429
1819.000000	0.018414
1818.000000	0.018375
1817.000000	0.018345
1816.000000	0.018346
1815.000000	0.018375
1814.000000	0.018419
1813.000000	0.018464
1812.000000	0.018480
1811.000000	0.018459
1810.000000	0.018453
1809.000000	0.018504
1808.000000	0.018586
1807.000000	0.018654
1806.000000	0.018700
1805.000000	0.018763
1804.000000	0.018874
1803.000000	0.019032
1802.000000	0.019216
1801.000000	0.019418
1800.000000	0.019630
1799.000000	0.019837
1798.000000	0.020015
1797.000000	0.020140
1796.000000	0.020208
1795.000000	0.020225
1794.000000	0.020188
1793.000000	0.020073
1792.000000	0.019865
1791.000000	0.019611
1790.000000	0.019381
1789.000000	0.019191
1788.000000	0.019024
1787.000000	0.018858
1786.000000	0.018697
1785.000000	0.018565
1784.000000	0.018478
1783.000000	0.018422
1782.000000	0.018366
1781.000000	0.018310
1780.000000	0.018268
1779.000000	0.018244
1778.000000	0.018233
1777.000000	0.018244
1776.000000	0.018279
1775.000000	0.018301
1774.000000	0.018260
1773.000000	0.018168
1772.000000	0.018098
1771.000000	0.018101
1770.000000	0.018149
1769.000000	0.018188
1768.000000	0.018180
1767.000000	0.018135
1766.000000	0.018106
1765.000000	0.018128
1764.000000	0.018178
1763.000000	0.018200
1762.000000	0.018193
1761.000000	0.018228
1760.000000	0.018327
1759.000000	0.018447
1758.000000	0.018556
1757.000000	0.018693
1756.000000	0.018897
1755.000000	0.019132
1754.000000	0.019367
1753.000000	0.019632
1752.000000	0.019958
1751.000000	0.020303
1750.000000	0.020608
1749.000000	0.020890
1748.000000	0.021172
1747.000000	0.021424
1746.000000	0.021630
1745.000000	0.021830
1744.000000	0.022046
1743.000000	0.022245
1742.000000	0.022404
1741.000000	0.022530
1740.000000	0.022618
1739.000000	0.022672
1738.000000	0.022729
1737.000000	0.022810
1736.000000	0.022854
1735.000000	0.022746
1734.000000	0.022461
1733.000000	0.022176
1732.000000	0.021996
1731.000000	0.021825
1730.000000	0.021596
1729.000000	0.021351
1728.000000	0.021140
1727.000000	0.020945
1726.000000	0.020741
1725.000000	0.020549
1724.000000	0.020376
1723.000000	0.020217
1722.000000	0.020093
1721.000000	0.020030
1720.000000	0.019988
1719.000000	0.019877
1718.000000	0.019698
1717.000000	0.019553
1716.000000	0.019483
1715.000000	0.019439
1714.000000	0.019385
1713.000000	0.019338
1712.000000	0.019312
1711.000000	0.019297
1710.000000	0.019289
1709.000000	0.019316
1708.000000	0.019374
1707.000000	0.019415
1706.000000	0.019431
1705.000000	0.019478
1704.000000	0.019590
1703.000000	0.019729
1702.000000	0.019856
1701.000000	0.019960
1700.000000	0.020047
1699.000000	0.020146
1698.000000	0.020275
1697.000000	0.020412
1696.000000	0.020559
1695.000000	0.020737
1694.000000	0.020947
1693.000000	0.021164
1692.000000	0.021363
1691.000000	0.021534
1690.000000	0.021698
1689.000000	0.021885
1688.000000	0.022093
1687.000000	0.022274
1686.000000	0.022416
1685.000000	0.022536
1684.000000	0.022687
1683.000000	0.022889
1682.000000	0.023096
1681.000000	0.023307
1680.000000	0.023539
1679.000000	0.023764
1678.000000	0.023958
1677.000000	0.024139
1676.000000	0.024338
1675.000000	0.024534
1674.000000	0.024706
1673.000000	0.024893
1672.000000	0.025104
1671.000000	0.025295
1670.000000	0.025433
1669.000000	0.025568
1668.000000	0.025750
1667.000000	0.025935
1666.000000	0.026105
1665.000000	0.026288
1664.000000	0.026502
1663.000000	0.026717
1662.000000	0.026902
1661.000000	0.027076
1660.000000	0.027266
1659.000000	0.027451
1658.000000	0.027613
1657.000000	0.027773
1656.000000	0.027945
1655.000000	0.028095
1654.000000	0.028165
1653.000000	0.028232
1652.000000	0.028371
1651.000000	0.028503
1650.000000	0.028602
1649.000000	0.028677
1648.000000	0.028720
1647.000000	0.028711
1646.000000	0.028654
1645.000000	0.028589
1644.000000	0.028534
1643.000000	0.028471
1642.000000	0.028381
1641.000000	0.028287
1640.000000	0.028222
1639.000000	0.028175
1638.000000	0.028109
1637.000000	0.028005
1636.000000	0.027875
1635.000000	0.027717
1634.000000	0.027531
1633.000000	0.027341
1632.000000	0.027161
1631.000000	0.026975
1630.000000	0.026760
1629.000000	0.026531
1628.000000	0.026317
1627.000000	0.026125
1626.000000	0.025930
1625.000000	0.025728
1624.000000	0.025523
1623.000000	0.025317
1622.000000	0.025118
1621.000000	0.024953
1620.000000	0.024813
1619.000000	0.024638
1618.000000	0.024373
1617.000000	0.024057
1616.000000	0.023815
1615.000000	0.023674
1614.000000	0.023551
1613.000000	0.023411
1612.000000	0.023271
1611.000000	0.023143
1610.000000	0.023007
1609.000000	0.022859
1608.000000	0.022718
1607.000000	0.022583
1606.000000	0.022441
1605.000000	0.022318
1604.000000	0.022239
1603.000000	0.022173
1602.000000	0.022082
1601.000000	0.021982
1600.000000	0.021910
1599.000000	0.021857
1598.000000	0.021792
1597.000000	0.021717
1596.000000	0.021660
1595.000000	0.021622
1594.000000	0.021585
1593.000000	0.021547
1592.000000	0.021519
1591.000000	0.021486
1590.000000	0.021428
1589.000000	0.021368
1588.000000	0.021342
1587.000000	0.021349
1586.000000	0.021356
1585.000000	0.021348
1584.000000	0.021340
1583.000000	0.021328
1582.000000	0.021309
1581.000000	0.021312
1580.000000	0.021361
1579.000000	0.021417
1578.000000	0.021412
1577.000000	0.021341
1576.000000	0.021290
1575.000000	0.021313
1574.000000	0.021372
1573.000000	0.021439
1572.000000	0.021498
1571.000000	0.021535
1570.000000	0.021549
1569.000000	0.021592
1568.000000	0.021690
1567.000000	0.021788
1566.000000	0.021847
1565.000000	0.021891
1564.000000	0.021956
1563.000000	0.022031
1562.000000	0.022111
1561.000000	0.022236
1560.000000	0.022451
1559.000000	0.022677
1558.000000	0.022827
1557.000000	0.022932
1556.000000	0.023032
1555.000000	0.023135
1554.000000	0.023245
1553.000000	0.023394
1552.000000	0.023573
1551.000000	0.023749
1550.000000	0.023924
1549.000000	0.024126
1548.000000	0.024350
1547.000000	0.024573
1546.000000	0.024796
1545.000000	0.025034
1544.000000	0.025273
1543.000000	0.025466
1542.000000	0.025609
1541.000000	0.025735
1540.000000	0.025896
1539.000000	0.026085
1538.000000	0.026251
1537.000000	0.026414
1536.000000	0.026590
1535.000000	0.026758
1534.000000	0.026908
1533.000000	0.027050
1532.000000	0.027173
1531.000000	0.027275
1530.000000	0.027382
1529.000000	0.027526
1528.000000	0.027698
1527.000000	0.027866
1526.000000	0.028020
1525.000000	0.028168
1524.000000	0.028302
1523.000000	0.028412
1522.000000	0.028548
1521.000000	0.028770
1520.000000	0.029032
1519.000000	0.029250
1518.000000	0.029431
1517.000000	0.029625
1516.000000	0.029825
1515.000000	0.029964
1514.000000	0.030047
1513.000000	0.030144
1512.000000	0.030284
1511.000000	0.030441
1510.000000	0.030605
1509.000000	0.030793
1508.000000	0.030978
1507.000000	0.031097
1506.000000	0.031203
1505.000000	0.031323
1504.000000	0.031430
1503.000000	0.031526
1502.000000	0.031637
1501.000000	0.031810
1500.000000	0.032042
1499.000000	0.032265
1498.000000	0.032470
1497.000000	0.032707
1496.000000	0.032965
1495.000000	0.033192
1494.000000	0.033401
1493.000000	0.033642
1492.000000	0.033917
1491.000000	0.034188
1490.000000	0.034439
1489.000000	0.034686
1488.000000	0.034917
1487.000000	0.035134
1486.000000	0.035359
1485.000000	0.035604
1484.000000	0.035858
1483.000000	0.036101
1482.000000	0.036356
1481.000000	0.036659
1480.000000	0.036997
1479.000000	0.037324
1478.000000	0.037642
1477.000000	0.037975
1476.000000	0.038308
1475.000000	0.038620
1474.000000	0.038942
1473.000000	0.039330
1472.000000	0.039740
1471.000000	0.040079
1470.000000	0.040361
1469.000000	0.040654
1468.000000	0.040978
1467.000000	0.041318
1466.000000	0.041673
1465.000000	0.042049
1464.000000	0.042396
1463.000000	0.042662
1462.000000	0.042893
1461.000000	0.043161
1460.000000	0.043463
1459.000000	0.043742
1458.000000	0.044000
1457.000000	0.044320
1456.000000	0.044660
1455.000000	0.044903
1454.000000	0.045081
1453.000000	0.045266
1452.000000	0.045466
1451.000000	0.045649
1450.000000	0.045827
1449.000000	0.046045
1448.000000	0.046290
1447.000000	0.046503
1446.000000	0.046671
1445.000000	0.046846
1444.000000	0.047045
1443.000000	0.047238
1442.000000	0.047425
1441.000000	0.047641
1440.000000	0.047879
1439.000000	0.048096
1438.000000	0.048305
1437.000000	0.048561
1436.000000	0.048831
1435.000000	0.049011
1434.000000	0.049126
1433.000000	0.049263
1432.000000	0.049440
1431.000000	0.049605
1430.000000	0.049744
1429.000000	0.049906
1428.000000	0.050103
1427.000000	0.050294
1426.000000	0.050470
1425.000000	0.050676
1424.000000	0.050909
1423.000000	0.051097
1422.000000	0.051235
1421.000000	0.051405
1420.000000	0.051640
1419.000000	0.051856
1418.000000	0.052008
1417.000000	0.052157
1416.000000	0.052309
1415.000000	0.052427
1414.000000	0.052525
1413.000000	0.052661
1412.000000	0.052839
1411.000000	0.052997
1410.000000	0.053124
1409.000000	0.053283
1408.000000	0.053489
1407.000000	0.053701
1406.000000	0.053903
1405.000000	0.054130
1404.000000	0.054367
1403.000000	0.054551
1402.000000	0.054685
1401.000000	0.054828
1400.000000	0.054985
1399.000000	0.055102
1398.000000	0.055189
1397.000000	0.055320
1396.000000	0.055512
1395.000000	0.055702
1394.000000	0.055868
1393.000000	0.056059
1392.000000	0.056265
1391.000000	0.056423
1390.000000	0.056524
1389.000000	0.056621
1388.000000	0.056719
1387.000000	0.056756
1386.000000	0.056722
1385.000000	0.056695
1384.000000	0.056706
1383.000000	0.056717
1382.000000	0.056705
1381.000000	0.056688
1380.000000	0.056663
1379.000000	0.056603
1378.000000	0.056511
1377.000000	0.056427
1376.000000	0.056344
1375.000000	0.056203
1374.000000	0.055998
1373.000000	0.055805
1372.000000	0.055659
1371.000000	0.055525
1370.000000	0.055377
1369.000000	0.055244
1368.000000	0.055141
1367.000000	0.055035
1366.000000	0.054912
1365.000000	0.054789
1364.000000	0.054659
1363.000000	0.054491
1362.000000	0.054294
1361.000000	0.054125
1360.000000	0.053996
1359.000000	0.053865
1358.000000	0.053715
1357.000000	0.053569
1356.000000	0.053429
1355.000000	0.053266
1354.000000	0.053081
1353.000000	0.052911
1352.000000	0.052761
1351.000000	0.052596
1350.000000	0.052399
1349.000000	0.052200
1348.000000	0.052025
1347.000000	0.051864
1346.000000	0.051716
1345.000000	0.051600
1344.000000	0.051508
1343.000000	0.051404
1342.000000	0.051280
1341.000000	0.051163
1340.000000	0.051057
1339.000000	0.050927
1338.000000	0.050775
1337.000000	0.050647
1336.000000	0.050542
1335.000000	0.050404
1334.000000	0.050213
1333.000000	0.050009
1332.000000	0.049822
1331.000000	0.049633
1330.000000	0.049425
1329.000000	0.049221
1328.000000	0.049037
1327.000000	0.048858
1326.000000	0.048672
1325.000000	0.048500
1324.000000	0.048344
1323.000000	0.048176
1322.000000	0.047994
1321.000000	0.047835
1320.000000	0.047713
1319.000000	0.047586
1318.000000	0.047429
1317.000000	0.047267
1316.000000	0.047117
1315.000000	0.046953
1314.000000	0.046756
1313.000000	0.046547
1312.000000	0.046341
1311.000000	0.046133
1310.000000	0.045930
1309.000000	0.045758
1308.000000	0.045606
1307.000000	0.045428
1306.000000	0.045211
1305.000000	0.044994
1304.000000	0.044802
1303.000000	0.044609
1302.000000	0.044406
1301.000000	0.044217
1300.000000	0.044045
1299.000000	0.043855
1298.000000	0.043634
1297.000000	0.043419
1296.000000	0.043225
1295.000000	0.043025
1294.000000	0.042810
1293.000000	0.042619
1292.000000	0.042477
1291.000000	0.042355
1290.000000	0.042222
1289.000000	0.042080
1288.000000	0.041930
1287.000000	0.041747
1286.000000	0.041540
1285.000000	0.041355
1284.000000	0.041209
1283.000000	0.041068
1282.000000	0.040910
1281.000000	0.040767
1280.000000	0.040664
1279.000000	0.040579
1278.000000	0.040485
1277.000000	0.040393
1276.000000	0.040309
1275.000000	0.040213
1274.000000	0.040098
1273.000000	0.039998
1272.000000	0.039935
1271.000000	0.039892
1270.000000	0.039856
1269.000000	0.039848
1268.000000	0.039877
1267.000000	0.039911
1266.000000	0.039934
1265.000000	0.039966
1264.000000	0.040012
1263.000000	0.040031
1262.000000	0.040004
1261.000000	0.039971
1260.000000	0.039973
1259.000000	0.040000
1258.000000	0.040028
1257.000000	0.040056
1256.000000	0.040072
1255.000000	0.040038
1254.000000	0.039948
1253.000000	0.039848
1252.000000	0.039774
1251.000000	0.039714
1250.000000	0.039649
1249.000000	0.039597
1248.000000	0.039566
1247.000000	0.039524
1246.000000	0.039460
1245.000000	0.039403
1244.000000	0.039375
1243.000000	0.039352
1242.000000	0.039315
1241.000000	0.039275
1240.000000	0.039239
1239.000000	0.039179
1238.000000	0.039082
1237.000000	0.038970
1236.000000	0.038853
1235.000000	0.038716
1234.000000	0.038559
1233.000000	0.038418
1232.000000	0.038299
1231.000000	0.038167
1230.000000	0.038000
1229.000000	0.037821
1228.000000	0.037644
1227.000000	0.037452
1226.000000	0.037239
1225.000000	0.037030
1224.000000	0.036831
1223.000000	0.036608
1222.000000	0.036353
1221.000000	0.036114
1220.000000	0.035920
1219.000000	0.035747
1218.000000	0.035566
1217.000000	0.035389
1216.000000	0.035223
1215.000000	0.035044
1214.000000	0.034847
1213.000000	0.034670
1212.000000	0.034540
1211.000000	0.034437
1210.000000	0.034335
1209.000000	0.034242
1208.000000	0.034157
1207.000000	0.034050
1206.000000	0.033916
1205.000000	0.033793
1204.000000	0.033706
1203.000000	0.033634
1202.000000	0.033555
1201.000000	0.033487
1200.000000	0.033440
1199.000000	0.033386
1198.000000	0.033305
1197.000000	0.033219
1196.000000	0.033153
1195.000000	0.033100
1194.000000	0.033052
1193.000000	0.033019
1192.000000	0.032997
1191.000000	0.032962
1190.000000	0.032913
1189.000000	0.032879
1188.000000	0.032871
1187.000000	0.032866
1186.000000	0.032864
1185.000000	0.032893
1184.000000	0.032953
1183.000000	0.033000
1182.000000	0.033024
1181.000000	0.033074
1180.000000	0.033172
1179.000000	0.033282
1178.000000	0.033375
1177.000000	0.033476
1176.000000	0.033596
1175.000000	0.033696
1174.000000	0.033749
1173.000000	0.033778
1172.000000	0.033809
1171.000000	0.033833
1170.000000	0.033854
1169.000000	0.033911
1168.000000	0.034003
1167.000000	0.034078
1166.000000	0.034113
1165.000000	0.034152
1164.000000	0.034221
1163.000000	0.034280
1162.000000	0.034289
1161.000000	0.034270
1160.000000	0.034242
1159.000000	0.034176
1158.000000	0.034051
1157.000000	0.033908
1156.000000	0.033793
1155.000000	0.033689
1154.000000	0.033572
1153.000000	0.033445
1152.000000	0.033302
1151.000000	0.033112
1150.000000	0.032872
1149.000000	0.032640
1148.000000	0.032447
1147.000000	0.032257
1146.000000	0.032036
1145.000000	0.031812
1144.000000	0.031616
1143.000000	0.031421
1142.000000	0.031203
1141.000000	0.030987
1140.000000	0.030797
1139.000000	0.030618
1138.000000	0.030436
1137.000000	0.030277
1136.000000	0.030153
1135.000000	0.030029
1134.000000	0.029892
1133.000000	0.029781
1132.000000	0.029725
1131.000000	0.029691
1130.000000	0.029648
1129.000000	0.029619
1128.000000	0.029618
1127.000000	0.029614
1126.000000	0.029587
1125.000000	0.029572
1124.000000	0.029595
1123.000000	0.029622
1122.000000	0.029624
1121.000000	0.029618
1120.000000	0.029617
1119.000000	0.029595
1118.000000	0.029560
1117.000000	0.029573
1116.000000	0.029663
1115.000000	0.029780
1114.000000	0.029880
1113.000000	0.029987
1112.000000	0.030128
1111.000000	0.030269
1110.000000	0.030378
1109.000000	0.030476
1108.000000	0.030575
1107.000000	0.030631
1106.000000	0.030622
1105.000000	0.030603
1104.000000	0.030619
1103.000000	0.030639
1102.000000	0.030629
1101.000000	0.030614
1100.000000	0.030616
1099.000000	0.030615
1098.000000	0.030603
1097.000000	0.030637
1096.000000	0.030753
1095.000000	0.030896
1094.000000	0.031005
1093.000000	0.031085
1092.000000	0.031161
1091.000000	0.031213
1090.000000	0.031223
1089.000000	0.031225
1088.000000	0.031244
1087.000000	0.031246
1086.000000	0.031208
1085.000000	0.031161
1084.000000	0.031123
1083.000000	0.031053
1082.000000	0.030924
1081.000000	0.030787
1080.000000	0.030697
1079.000000	0.030638
1078.000000	0.030582
1077.000000	0.030540
1076.000000	0.030517
1075.000000	0.030473
1074.000000	0.030394
1073.000000	0.030321
1072.000000	0.030281
1071.000000	0.030245
1070.000000	0.030197
1069.000000	0.030173
1068.000000	0.030180
1067.000000	0.030163
1066.000000	0.030097
1065.000000	0.030035
1064.000000	0.030014
1063.000000	0.029999
1062.000000	0.029960
1061.000000	0.029938
1060.000000	0.029963
1059.000000	0.029998
1058.000000	0.030005
1057.000000	0.030014
1056.000000	0.030051
1055.000000	0.030083
1054.000000	0.030087
1053.000000	0.030112
1052.000000	0.030196
1051.000000	0.030302
1050.000000	0.030386
1049.000000	0.030455
1048.000000	0.030514
1047.000000	0.030532
1046.000000	0.030510
1045.000000	0.030517
1044.000000	0.030587
1043.000000	0.030678
1042.000000	0.030762
1041.000000	0.030876
1040.000000	0.031033
1039.000000	0.031166
1038.000000	0.031224
1037.000000	0.031247
1036.000000	0.031281
1035.000000	0.031304
1034.000000	0.031287
1033.000000	0.031264
1032.000000	0.031272
1031.000000	0.031294
1030.000000	0.031309
1029.000000	0.031335
1028.000000	0.031371
1027.000000	0.031366
1026.000000	0.031304
1025.000000	0.031246
1024.000000	0.031231
1023.000000	0.031221
1022.000000	0.031182
1021.000000	0.031148
1020.000000	0.031144
1019.000000	0.031126
1018.000000	0.031065
1017.000000	0.030997
1016.000000	0.030947
1015.000000	0.030871
1014.000000	0.030738
1013.000000	0.030593
1012.000000	0.030483
1011.000000	0.030386
1010.000000	0.030275
1009.000000	0.030166
1008.000000	0.030065
1007.000000	0.029936
1006.000000	0.029772
1005.000000	0.029625
1004.000000	0.029514
1003.000000	0.029392
1002.000000	0.029241
1001.000000	0.029111
1000.000000	0.029032
999.000000	0.028962
998.000000	0.028866
997.000000	0.028767
996.000000	0.028680
995.000000	0.028561
994.000000	0.028392
993.000000	0.028224
992.000000	0.028094
991.000000	0.027965
990.000000	0.027806
989.000000	0.027653
988.000000	0.027535
987.000000	0.027418
986.000000	0.027283
985.000000	0.027163
984.000000	0.027068
983.000000	0.026954
982.000000	0.026812
981.000000	0.026705
980.000000	0.026658
979.000000	0.026605
978.000000	0.026495
977.000000	0.026366
976.000000	0.026266
975.000000	0.026173
974.000000	0.026055
973.000000	0.025942
972.000000	0.025861
971.000000	0.025780
970.000000	0.025683
969.000000	0.025609
968.000000	0.025574
967.000000	0.025519
966.000000	0.025401
965.000000	0.025264
964.000000	0.025159
963.000000	0.025080
962.000000	0.025010
961.000000	0.024964
960.000000	0.024924
959.000000	0.024817
958.000000	0.024630
957.000000	0.024452
956.000000	0.024356
955.000000	0.024301
954.000000	0.024228
953.000000	0.024147
952.000000	0.024080
951.000000	0.023990
950.000000	0.023852
949.000000	0.023708
948.000000	0.023599
947.000000	0.023503
946.000000	0.023393
945.000000	0.023302
944.000000	0.023257
943.000000	0.023225
942.000000	0.023180
941.000000	0.023145
940.000000	0.023124
939.000000	0.023069
938.000000	0.022964
937.000000	0.022865
936.000000	0.022800
935.000000	0.022720
934.000000	0.022597
933.000000	0.022491
932.000000	0.022450
931.000000	0.022427
930.000000	0.022370
929.000000	0.022305
928.000000	0.022264
927.000000	0.022218
926.000000	0.022135
925.000000	0.022038
924.000000	0.021945
923.000000	0.021820
922.000000	0.021653
921.000000	0.021508
920.000000	0.021424
919.000000	0.021359
918.000000	0.021270
917.000000	0.021181
916.000000	0.021104
915.000000	0.020990
914.000000	0.020811
913.000000	0.020628
912.000000	0.020499
911.000000	0.020401
910.000000	0.020297
909.000000	0.020206
908.000000	0.020137
907.000000	0.020040
906.000000	0.019886
905.000000	0.019719
904.000000	0.019575
903.000000	0.019423
902.000000	0.019241
901.000000	0.019070
900.000000	0.018938
899.000000	0.018807
898.000000	0.018649
897.000000	0.018497
896.000000	0.018369
895.000000	0.018224
894.000000	0.018043
893.000000	0.017867
892.000000	0.017706
891.000000	0.017518
890.000000	0.017336
889.000000	0.017335
888.000000	0.017729
887.000000	0.018682
886.000000	0.020312
885.000000	0.022645
884.000000	0.025484
883.000000	0.028472
882.000000	0.031398
881.000000	0.034354
880.000000	0.037500
879.000000	0.040814
878.000000	0.044149
877.000000	0.047396
876.000000	0.050463
875.000000	0.053234
874.000000	0.055657
873.000000	0.057765
872.000000	0.059465
871.000000	0.060445
870.000000	0.060417
869.000000	0.059358
868.000000	0.057457
867.000000	0.054964
866.000000	0.052180
865.000000	0.049434
864.000000	0.046914
863.000000	0.044613
862.000000	0.042484
861.000000	0.040557
860.000000	0.038860
859.000000	0.037348
858.000000	0.035985
857.000000	0.034799
856.000000	0.033780
855.000000	0.032838
854.000000	0.031914
853.000000	0.031063
852.000000	0.030383
851.000000	0.029981
850.000000	0.029978
849.000000	0.030360
848.000000	0.030778
847.000000	0.030724
846.000000	0.030035
845.000000	0.029048
844.000000	0.028172
843.000000	0.027500
842.000000	0.026933
841.000000	0.026455
840.000000	0.026111
839.000000	0.025850
838.000000	0.025588
837.000000	0.025330
836.000000	0.025096
835.000000	0.024834
834.000000	0.024531
833.000000	0.024294
832.000000	0.024197
831.000000	0.024147
830.000000	0.024020
829.000000	0.023823
828.000000	0.023615
827.000000	0.023375
826.000000	0.023093
825.000000	0.022845
824.000000	0.022678
823.000000	0.022509
822.000000	0.022290
821.000000	0.022110
820.000000	0.022029
819.000000	0.021952
818.000000	0.021790
817.000000	0.021610
816.000000	0.021494
815.000000	0.021394
814.000000	0.021250
813.000000	0.021120
812.000000	0.021066
811.000000	0.021024
810.000000	0.020925
809.000000	0.020828
808.000000	0.020805
807.000000	0.020808
806.000000	0.020771
805.000000	0.020728
804.000000	0.020718
803.000000	0.020678
802.000000	0.020563
801.000000	0.020454
800.000000	0.020439
799.000000	0.020474
798.000000	0.020481
797.000000	0.020473
796.000000	0.020476
795.000000	0.020444
794.000000	0.020368
793.000000	0.020341
792.000000	0.020406
791.000000	0.020461
790.000000	0.020419
789.000000	0.020345
788.000000	0.020323
787.000000	0.020314
786.000000	0.020261
785.000000	0.020211
784.000000	0.020215
783.000000	0.020209
782.000000	0.020136
781.000000	0.020061
780.000000	0.020055
779.000000	0.020070
778.000000	0.020037
777.000000	0.019992
776.000000	0.019982
775.000000	0.019946
774.000000	0.019832
773.000000	0.019701
772.000000	0.019629
771.000000	0.019576
770.000000	0.019491
769.000000	0.019431
768.000000	0.019460
767.000000	0.019520
766.000000	0.019530
765.000000	0.019525
764.000000	0.019567
763.000000	0.019622
762.000000	0.019629
761.000000	0.019611
760.000000	0.019597
759.000000	0.019528
758.000000	0.019364
757.000000	0.019200
756.000000	0.019141
755.000000	0.019158
754.000000	0.019172
753.000000	0.019196
752.000000	0.019271
751.000000	0.019341
750.000000	0.019339
749.000000	0.019303
748.000000	0.019297
747.000000	0.019286
746.000000	0.019212
745.000000	0.019118
744.000000	0.019086
743.000000	0.019101
742.000000	0.019094
741.000000	0.019062
740.000000	0.019036
739.000000	0.018982
738.000000	0.018859
737.000000	0.018709
736.000000	0.018601
735.000000	0.018528
734.000000	0.018452
733.000000	0.018394
732.000000	0.018387
731.000000	0.018390
730.000000	0.018342
729.000000	0.018273
728.000000	0.018245
727.000000	0.018228
726.000000	0.018168
725.000000	0.018088
724.000000	0.018025
723.000000	0.017953
722.000000	0.017878
721.000000	0.017916
720.000000	0.018164
719.000000	0.018619
718.000000	0.019336
717.000000	0.020619
716.000000	0.022895
715.000000	0.026349
714.000000	0.030609
713.000000	0.034706
712.000000	0.037412
711.000000	0.037926
710.000000	0.036439
709.000000	0.033950
708.000000	0.031479
707.000000	0.029456
706.000000	0.027871
705.000000	0.026675
704.000000	0.025832
703.000000	0.025225
702.000000	0.024743
701.000000	0.024377
700.000000	0.024149
699.000000	0.023971
698.000000	0.023763
697.000000	0.023594
696.000000	0.023529
695.000000	0.023479
694.000000	0.023293
693.000000	0.022950
692.000000	0.022586
691.000000	0.022294
690.000000	0.022088
689.000000	0.021972
688.000000	0.021923
687.000000	0.021878
686.000000	0.021773
685.000000	0.021618
684.000000	0.021486
683.000000	0.021394
682.000000	0.021294
681.000000	0.021175
680.000000	0.021107
679.000000	0.021125
678.000000	0.021146
677.000000	0.021152
676.000000	0.021177
675.000000	0.021169
674.000000	0.021014
673.000000	0.020671
672.000000	0.020126
671.000000	0.019250
670.000000	0.017899
669.000000	0.016323
668.000000	0.015813
667.000000	0.017119
666.000000	0.018500
665.000000	0.019527
664.000000	0.020389
663.000000	0.020873
662.000000	0.020860
661.000000	0.020650
660.000000	0.020584
659.000000	0.020599
658.000000	0.020475
657.000000	0.020317
656.000000	0.020276
655.000000	0.020231
654.000000	0.020100
653.000000	0.020082
652.000000	0.020231
651.000000	0.020282
650.000000	0.020125
649.000000	0.020065
648.000000	0.020280
647.000000	0.020502
646.000000	0.020535
645.000000	0.020570
644.000000	0.020750
643.000000	0.020890
642.000000	0.020838
641.000000	0.020778
640.000000	0.020889
639.000000	0.021021
638.000000	0.021025
637.000000	0.021041
636.000000	0.021167
635.000000	0.021233
634.000000	0.021136
633.000000	0.021044
632.000000	0.021060
631.000000	0.021013
630.000000	0.020821
629.000000	0.020715
628.000000	0.020847
627.000000	0.021012
626.000000	0.021041
625.000000	0.021058
624.000000	0.021156
623.000000	0.021172
622.000000	0.021012
621.000000	0.020873
620.000000	0.020899
619.000000	0.020956
618.000000	0.020944
617.000000	0.021024
616.000000	0.021283
615.000000	0.021510
614.000000	0.021562
613.000000	0.021609
612.000000	0.021774
611.000000	0.021861
610.000000	0.021715
609.000000	0.021527
608.000000	0.021503
607.000000	0.021517
606.000000	0.021421
605.000000	0.021328
604.000000	0.021365
603.000000	0.021429
602.000000	0.021412
601.000000	0.021385
600.000000	0.021377
599.000000	0.021241
598.000000	0.020964
597.000000	0.020800
596.000000	0.020860
595.000000	0.020912
594.000000	0.020769
593.000000	0.020586
592.000000	0.020525
591.000000	0.020477
590.000000	0.020340
589.000000	0.020255
588.000000	0.020294
587.000000	0.020270
586.000000	0.020090
585.000000	0.019960
584.000000	0.020013
583.000000	0.020067
582.000000	0.020002
581.000000	0.020000
580.000000	0.020169
579.000000	0.020297
578.000000	0.020263
577.000000	0.020286
576.000000	0.020483
575.000000	0.020592
574.000000	0.020447
573.000000	0.020296
572.000000	0.020327
571.000000	0.020352
570.000000	0.020226
569.000000	0.020177
568.000000	0.020358
567.000000	0.020502
566.000000	0.020388
565.000000	0.020216
564.000000	0.020168
563.000000	0.020042
562.000000	0.019698
561.000000	0.019441
560.000000	0.019552
559.000000	0.019827
558.000000	0.019957
557.000000	0.019980
556.000000	0.020011
555.000000	0.019918
554.000000	0.019659
553.000000	0.019518
552.000000	0.019639
551.000000	0.019727
550.000000	0.019562
549.000000	0.019410
548.000000	0.019507
547.000000	0.019624
546.000000	0.019520
545.000000	0.019413
544.000000	0.019529
543.000000	0.019669
542.000000	0.019637
541.000000	0.019681
540.000000	0.020036
539.000000	0.020442
538.000000	0.020550
537.000000	0.020441
536.000000	0.020335
535.000000	0.020173
534.000000	0.019915
533.000000	0.019811
532.000000	0.019983
531.000000	0.020117
530.000000	0.019983
529.000000	0.019835
528.000000	0.019942
527.000000	0.020116
526.000000	0.020136
525.000000	0.020200
524.000000	0.020460
523.000000	0.020624
522.000000	0.020482
521.000000	0.020333
520.000000	0.020452
519.000000	0.020590
518.000000	0.020442
517.000000	0.020229
516.000000	0.020235
515.000000	0.020275
514.000000	0.020152
513.000000	0.020098
512.000000	0.020295
511.000000	0.020433
510.000000	0.020217
509.000000	0.019891
508.000000	0.019820
507.000000	0.019937
506.000000	0.020067
505.000000	0.020347
504.000000	0.020813
503.000000	0.021039
502.000000	0.020711
501.000000	0.020186
500.000000	0.019905
499.000000	0.019753
498.000000	0.019507
497.000000	0.019357
496.000000	0.019467
495.000000	0.019549
494.000000	0.019354
493.000000	0.019152
492.000000	0.019222
491.000000	0.019311
490.000000	0.019152
489.000000	0.019008
488.000000	0.019184
487.000000	0.019484
486.000000	0.019649
485.000000	0.019819
484.000000	0.020084
483.000000	0.020103
482.000000	0.019748
481.000000	0.019500
480.000000	0.019639
479.000000	0.019710
478.000000	0.019372
477.000000	0.019108
476.000000	0.019417
475.000000	0.019975
474.000000	0.020324
473.000000	0.020722
472.000000	0.021487
471.000000	0.022061
470.000000	0.021903
469.000000	0.021458
468.000000	0.021314
467.000000	0.021219
466.000000	0.020716
465.000000	0.020102
464.000000	0.019849
463.000000	0.019725
462.000000	0.019356
461.000000	0.019090
460.000000	0.019406
459.000000	0.019979
458.000000	0.020182
457.000000	0.020094
456.000000	0.020043
455.000000	0.019760
454.000000	0.019075
453.000000	0.018540
452.000000	0.018567
451.000000	0.018567
450.000000	0.017951
