PE IR       SUBTECH     SPECTRUM    ASCII       PEDS        4.00        
   -1
P8-Or008_1.ASC
23/06/13
15:14:23.00
23/06/13
16:11:22.00
uco
Sample 008 By uco Date Tuesday, June 13 2023
450.000000
#HDR
-1
-1
#GR
cm-1
A
1.0
0.0
4000.000000
-1.000000
3551
8
0.032508
0.005220
#DATA
4000.000000	0.005683
3999.000000	0.005707
3998.000000	0.005740
3997.000000	0.005734
3996.000000	0.005735
3995.000000	0.005723
3994.000000	0.005711
3993.000000	0.005708
3992.000000	0.005711
3991.000000	0.005706
3990.000000	0.005692
3989.000000	0.005675
3988.000000	0.005671
3987.000000	0.005686
3986.000000	0.005712
3985.000000	0.005735
3984.000000	0.005747
3983.000000	0.005747
3982.000000	0.005744
3981.000000	0.005747
3980.000000	0.005761
3979.000000	0.005783
3978.000000	0.005799
3977.000000	0.005801
3976.000000	0.005789
3975.000000	0.005777
3974.000000	0.005780
3973.000000	0.005798
3972.000000	0.005824
3971.000000	0.005844
3970.000000	0.005850
3969.000000	0.005846
3968.000000	0.005840
3967.000000	0.005839
3966.000000	0.005844
3965.000000	0.005855
3964.000000	0.005867
3963.000000	0.005874
3962.000000	0.005869
3961.000000	0.005855
3960.000000	0.005838
3959.000000	0.005826
3958.000000	0.005823
3957.000000	0.005821
3956.000000	0.005809
3955.000000	0.005786
3954.000000	0.005763
3953.000000	0.005756
3952.000000	0.005771
3951.000000	0.005804
3950.000000	0.005841
3949.000000	0.005867
3948.000000	0.005876
3947.000000	0.005872
3946.000000	0.005863
3945.000000	0.005854
3944.000000	0.005846
3943.000000	0.005837
3942.000000	0.005825
3941.000000	0.005811
3940.000000	0.005800
3939.000000	0.005796
3938.000000	0.005799
3937.000000	0.005809
3936.000000	0.005824
3935.000000	0.005842
3934.000000	0.005861
3933.000000	0.005881
3932.000000	0.005896
3931.000000	0.005901
3930.000000	0.005893
3929.000000	0.005876
3928.000000	0.005861
3927.000000	0.005855
3926.000000	0.005858
3925.000000	0.005861
3924.000000	0.005854
3923.000000	0.005837
3922.000000	0.005822
3921.000000	0.005820
3920.000000	0.005837
3919.000000	0.005870
3918.000000	0.005906
3917.000000	0.005929
3916.000000	0.005935
3915.000000	0.005928
3914.000000	0.005916
3913.000000	0.005902
3912.000000	0.005888
3911.000000	0.005874
3910.000000	0.005858
3909.000000	0.005839
3908.000000	0.005818
3907.000000	0.005801
3906.000000	0.005795
3905.000000	0.005799
3904.000000	0.005803
3903.000000	0.005802
3902.000000	0.005797
3901.000000	0.005798
3900.000000	0.005810
3899.000000	0.005830
3898.000000	0.005854
3897.000000	0.005880
3896.000000	0.005901
3895.000000	0.005917
3894.000000	0.005932
3893.000000	0.005950
3892.000000	0.005966
3891.000000	0.005970
3890.000000	0.005964
3889.000000	0.005956
3888.000000	0.005947
3887.000000	0.005924
3886.000000	0.005878
3885.000000	0.005820
3884.000000	0.005775
3883.000000	0.005755
3882.000000	0.005755
3881.000000	0.005765
3880.000000	0.005778
3879.000000	0.005796
3878.000000	0.005822
3877.000000	0.005855
3876.000000	0.005881
3875.000000	0.005892
3874.000000	0.005889
3873.000000	0.005885
3872.000000	0.005887
3871.000000	0.005884
3870.000000	0.005854
3869.000000	0.005800
3868.000000	0.005754
3867.000000	0.005747
3866.000000	0.005777
3865.000000	0.005828
3864.000000	0.005875
3863.000000	0.005903
3862.000000	0.005909
3861.000000	0.005904
3860.000000	0.005896
3859.000000	0.005879
3858.000000	0.005841
3857.000000	0.005777
3856.000000	0.005704
3855.000000	0.005660
3854.000000	0.005675
3853.000000	0.005713
3852.000000	0.005737
3851.000000	0.005756
3850.000000	0.005777
3849.000000	0.005794
3848.000000	0.005803
3847.000000	0.005813
3846.000000	0.005826
3845.000000	0.005844
3844.000000	0.005858
3843.000000	0.005859
3842.000000	0.005849
3841.000000	0.005839
3840.000000	0.005838
3839.000000	0.005841
3838.000000	0.005840
3837.000000	0.005830
3836.000000	0.005818
3835.000000	0.005813
3834.000000	0.005815
3833.000000	0.005817
3832.000000	0.005812
3831.000000	0.005803
3830.000000	0.005796
3829.000000	0.005801
3828.000000	0.005818
3827.000000	0.005836
3826.000000	0.005844
3825.000000	0.005840
3824.000000	0.005831
3823.000000	0.005826
3822.000000	0.005830
3821.000000	0.005834
3820.000000	0.005832
3819.000000	0.005835
3818.000000	0.005847
3817.000000	0.005858
3816.000000	0.005855
3815.000000	0.005843
3814.000000	0.005837
3813.000000	0.005839
3812.000000	0.005834
3811.000000	0.005816
3810.000000	0.005792
3809.000000	0.005779
3808.000000	0.005782
3807.000000	0.005795
3806.000000	0.005810
3805.000000	0.005828
3804.000000	0.005850
3803.000000	0.005861
3802.000000	0.005850
3801.000000	0.005816
3800.000000	0.005790
3799.000000	0.005796
3798.000000	0.005825
3797.000000	0.005853
3796.000000	0.005863
3795.000000	0.005856
3794.000000	0.005843
3793.000000	0.005829
3792.000000	0.005813
3791.000000	0.005797
3790.000000	0.005785
3789.000000	0.005785
3788.000000	0.005801
3787.000000	0.005827
3786.000000	0.005856
3785.000000	0.005876
3784.000000	0.005880
3783.000000	0.005871
3782.000000	0.005859
3781.000000	0.005847
3780.000000	0.005832
3779.000000	0.005807
3778.000000	0.005781
3777.000000	0.005770
3776.000000	0.005775
3775.000000	0.005786
3774.000000	0.005793
3773.000000	0.005799
3772.000000	0.005810
3771.000000	0.005821
3770.000000	0.005819
3769.000000	0.005797
3768.000000	0.005768
3767.000000	0.005746
3766.000000	0.005736
3765.000000	0.005735
3764.000000	0.005743
3763.000000	0.005756
3762.000000	0.005767
3761.000000	0.005771
3760.000000	0.005769
3759.000000	0.005770
3758.000000	0.005775
3757.000000	0.005782
3756.000000	0.005786
3755.000000	0.005786
3754.000000	0.005785
3753.000000	0.005789
3752.000000	0.005801
3751.000000	0.005814
3750.000000	0.005812
3749.000000	0.005800
3748.000000	0.005800
3747.000000	0.005822
3746.000000	0.005865
3745.000000	0.005903
3744.000000	0.005897
3743.000000	0.005860
3742.000000	0.005834
3741.000000	0.005822
3740.000000	0.005804
3739.000000	0.005774
3738.000000	0.005742
3737.000000	0.005724
3736.000000	0.005720
3735.000000	0.005722
3734.000000	0.005727
3733.000000	0.005735
3732.000000	0.005742
3731.000000	0.005746
3730.000000	0.005751
3729.000000	0.005760
3728.000000	0.005771
3727.000000	0.005773
3726.000000	0.005763
3725.000000	0.005753
3724.000000	0.005750
3723.000000	0.005756
3722.000000	0.005764
3721.000000	0.005769
3720.000000	0.005766
3719.000000	0.005757
3718.000000	0.005741
3717.000000	0.005724
3716.000000	0.005719
3715.000000	0.005735
3714.000000	0.005780
3713.000000	0.005848
3712.000000	0.005917
3711.000000	0.005952
3710.000000	0.005934
3709.000000	0.005884
3708.000000	0.005829
3707.000000	0.005789
3706.000000	0.005769
3705.000000	0.005762
3704.000000	0.005754
3703.000000	0.005733
3702.000000	0.005702
3701.000000	0.005676
3700.000000	0.005674
3699.000000	0.005702
3698.000000	0.005746
3697.000000	0.005785
3696.000000	0.005812
3695.000000	0.005831
3694.000000	0.005850
3693.000000	0.005863
3692.000000	0.005853
3691.000000	0.005809
3690.000000	0.005739
3689.000000	0.005668
3688.000000	0.005631
3687.000000	0.005649
3686.000000	0.005709
3685.000000	0.005778
3684.000000	0.005830
3683.000000	0.005855
3682.000000	0.005852
3681.000000	0.005820
3680.000000	0.005764
3679.000000	0.005700
3678.000000	0.005652
3677.000000	0.005638
3676.000000	0.005651
3675.000000	0.005671
3674.000000	0.005697
3673.000000	0.005735
3672.000000	0.005768
3671.000000	0.005774
3670.000000	0.005752
3669.000000	0.005727
3668.000000	0.005725
3667.000000	0.005749
3666.000000	0.005784
3665.000000	0.005814
3664.000000	0.005829
3663.000000	0.005831
3662.000000	0.005822
3661.000000	0.005814
3660.000000	0.005817
3659.000000	0.005833
3658.000000	0.005856
3657.000000	0.005871
3656.000000	0.005870
3655.000000	0.005863
3654.000000	0.005868
3653.000000	0.005893
3652.000000	0.005933
3651.000000	0.005985
3650.000000	0.006033
3649.000000	0.006048
3648.000000	0.006013
3647.000000	0.005951
3646.000000	0.005900
3645.000000	0.005882
3644.000000	0.005895
3643.000000	0.005923
3642.000000	0.005942
3641.000000	0.005943
3640.000000	0.005932
3639.000000	0.005924
3638.000000	0.005929
3637.000000	0.005947
3636.000000	0.005966
3635.000000	0.005976
3634.000000	0.005974
3633.000000	0.005971
3632.000000	0.005975
3631.000000	0.005987
3630.000000	0.006003
3629.000000	0.006011
3628.000000	0.006009
3627.000000	0.006016
3626.000000	0.006035
3625.000000	0.006046
3624.000000	0.006035
3623.000000	0.006002
3622.000000	0.005952
3621.000000	0.005896
3620.000000	0.005851
3619.000000	0.005840
3618.000000	0.005871
3617.000000	0.005934
3616.000000	0.006010
3615.000000	0.006083
3614.000000	0.006139
3613.000000	0.006169
3612.000000	0.006169
3611.000000	0.006147
3610.000000	0.006118
3609.000000	0.006093
3608.000000	0.006072
3607.000000	0.006049
3606.000000	0.006023
3605.000000	0.006002
3604.000000	0.005996
3603.000000	0.006011
3602.000000	0.006048
3601.000000	0.006097
3600.000000	0.006143
3599.000000	0.006172
3598.000000	0.006177
3597.000000	0.006158
3596.000000	0.006130
3595.000000	0.006108
3594.000000	0.006095
3593.000000	0.006085
3592.000000	0.006075
3591.000000	0.006066
3590.000000	0.006069
3589.000000	0.006086
3588.000000	0.006113
3587.000000	0.006135
3586.000000	0.006150
3585.000000	0.006164
3584.000000	0.006180
3583.000000	0.006194
3582.000000	0.006202
3581.000000	0.006202
3580.000000	0.006197
3579.000000	0.006191
3578.000000	0.006187
3577.000000	0.006186
3576.000000	0.006188
3575.000000	0.006192
3574.000000	0.006196
3573.000000	0.006193
3572.000000	0.006181
3571.000000	0.006168
3570.000000	0.006171
3569.000000	0.006203
3568.000000	0.006262
3567.000000	0.006324
3566.000000	0.006365
3565.000000	0.006387
3564.000000	0.006396
3563.000000	0.006396
3562.000000	0.006388
3561.000000	0.006380
3560.000000	0.006380
3559.000000	0.006389
3558.000000	0.006402
3557.000000	0.006413
3556.000000	0.006417
3555.000000	0.006411
3554.000000	0.006395
3553.000000	0.006377
3552.000000	0.006366
3551.000000	0.006369
3550.000000	0.006381
3549.000000	0.006398
3548.000000	0.006417
3547.000000	0.006436
3546.000000	0.006456
3545.000000	0.006476
3544.000000	0.006499
3543.000000	0.006523
3542.000000	0.006541
3541.000000	0.006542
3540.000000	0.006526
3539.000000	0.006506
3538.000000	0.006498
3537.000000	0.006512
3536.000000	0.006541
3535.000000	0.006569
3534.000000	0.006586
3533.000000	0.006591
3532.000000	0.006592
3531.000000	0.006595
3530.000000	0.006603
3529.000000	0.006613
3528.000000	0.006619
3527.000000	0.006620
3526.000000	0.006614
3525.000000	0.006605
3524.000000	0.006592
3523.000000	0.006574
3522.000000	0.006561
3521.000000	0.006562
3520.000000	0.006579
3519.000000	0.006601
3518.000000	0.006615
3517.000000	0.006620
3516.000000	0.006624
3515.000000	0.006634
3514.000000	0.006644
3513.000000	0.006644
3512.000000	0.006635
3511.000000	0.006627
3510.000000	0.006623
3509.000000	0.006622
3508.000000	0.006620
3507.000000	0.006619
3506.000000	0.006623
3505.000000	0.006635
3504.000000	0.006656
3503.000000	0.006682
3502.000000	0.006709
3501.000000	0.006731
3500.000000	0.006745
3499.000000	0.006754
3498.000000	0.006764
3497.000000	0.006782
3496.000000	0.006808
3495.000000	0.006838
3494.000000	0.006862
3493.000000	0.006871
3492.000000	0.006860
3491.000000	0.006835
3490.000000	0.006811
3489.000000	0.006796
3488.000000	0.006795
3487.000000	0.006801
3486.000000	0.006810
3485.000000	0.006818
3484.000000	0.006824
3483.000000	0.006826
3482.000000	0.006828
3481.000000	0.006827
3480.000000	0.006820
3479.000000	0.006809
3478.000000	0.006803
3477.000000	0.006813
3476.000000	0.006838
3475.000000	0.006872
3474.000000	0.006904
3473.000000	0.006928
3472.000000	0.006943
3471.000000	0.006946
3470.000000	0.006937
3469.000000	0.006925
3468.000000	0.006918
3467.000000	0.006918
3466.000000	0.006922
3465.000000	0.006923
3464.000000	0.006922
3463.000000	0.006925
3462.000000	0.006939
3461.000000	0.006961
3460.000000	0.006984
3459.000000	0.006999
3458.000000	0.007002
3457.000000	0.006998
3456.000000	0.006992
3455.000000	0.006992
3454.000000	0.007002
3453.000000	0.007017
3452.000000	0.007027
3451.000000	0.007024
3450.000000	0.007010
3449.000000	0.006993
3448.000000	0.006988
3447.000000	0.006996
3446.000000	0.007014
3445.000000	0.007029
3444.000000	0.007037
3443.000000	0.007042
3442.000000	0.007054
3441.000000	0.007074
3440.000000	0.007092
3439.000000	0.007101
3438.000000	0.007106
3437.000000	0.007115
3436.000000	0.007134
3435.000000	0.007153
3434.000000	0.007166
3433.000000	0.007174
3432.000000	0.007180
3431.000000	0.007185
3430.000000	0.007185
3429.000000	0.007178
3428.000000	0.007165
3427.000000	0.007149
3426.000000	0.007135
3425.000000	0.007133
3424.000000	0.007152
3423.000000	0.007187
3422.000000	0.007226
3421.000000	0.007256
3420.000000	0.007274
3419.000000	0.007281
3418.000000	0.007281
3417.000000	0.007275
3416.000000	0.007268
3415.000000	0.007261
3414.000000	0.007254
3413.000000	0.007250
3412.000000	0.007255
3411.000000	0.007271
3410.000000	0.007295
3409.000000	0.007319
3408.000000	0.007332
3407.000000	0.007331
3406.000000	0.007317
3405.000000	0.007302
3404.000000	0.007295
3403.000000	0.007297
3402.000000	0.007304
3401.000000	0.007311
3400.000000	0.007320
3399.000000	0.007332
3398.000000	0.007348
3397.000000	0.007363
3396.000000	0.007378
3395.000000	0.007390
3394.000000	0.007394
3393.000000	0.007391
3392.000000	0.007386
3391.000000	0.007388
3390.000000	0.007396
3389.000000	0.007406
3388.000000	0.007418
3387.000000	0.007435
3386.000000	0.007458
3385.000000	0.007480
3384.000000	0.007490
3383.000000	0.007487
3382.000000	0.007474
3381.000000	0.007458
3380.000000	0.007440
3379.000000	0.007425
3378.000000	0.007421
3377.000000	0.007433
3376.000000	0.007457
3375.000000	0.007487
3374.000000	0.007511
3373.000000	0.007523
3372.000000	0.007521
3371.000000	0.007515
3370.000000	0.007515
3369.000000	0.007524
3368.000000	0.007536
3367.000000	0.007543
3366.000000	0.007544
3365.000000	0.007546
3364.000000	0.007553
3363.000000	0.007565
3362.000000	0.007578
3361.000000	0.007595
3360.000000	0.007618
3359.000000	0.007643
3358.000000	0.007666
3357.000000	0.007680
3356.000000	0.007683
3355.000000	0.007679
3354.000000	0.007671
3353.000000	0.007666
3352.000000	0.007670
3351.000000	0.007684
3350.000000	0.007707
3349.000000	0.007733
3348.000000	0.007757
3347.000000	0.007770
3346.000000	0.007769
3345.000000	0.007755
3344.000000	0.007738
3343.000000	0.007727
3342.000000	0.007730
3341.000000	0.007744
3340.000000	0.007762
3339.000000	0.007780
3338.000000	0.007796
3337.000000	0.007811
3336.000000	0.007823
3335.000000	0.007826
3334.000000	0.007819
3333.000000	0.007806
3332.000000	0.007797
3331.000000	0.007800
3330.000000	0.007818
3329.000000	0.007843
3328.000000	0.007858
3327.000000	0.007857
3326.000000	0.007851
3325.000000	0.007862
3324.000000	0.007899
3323.000000	0.007946
3322.000000	0.007982
3321.000000	0.007995
3320.000000	0.007989
3319.000000	0.007978
3318.000000	0.007972
3317.000000	0.007971
3316.000000	0.007967
3315.000000	0.007951
3314.000000	0.007925
3313.000000	0.007898
3312.000000	0.007877
3311.000000	0.007865
3310.000000	0.007863
3309.000000	0.007875
3308.000000	0.007905
3307.000000	0.007951
3306.000000	0.008002
3305.000000	0.008046
3304.000000	0.008078
3303.000000	0.008102
3302.000000	0.008119
3301.000000	0.008130
3300.000000	0.008137
3299.000000	0.008144
3298.000000	0.008152
3297.000000	0.008158
3296.000000	0.008155
3295.000000	0.008141
3294.000000	0.008128
3293.000000	0.008135
3292.000000	0.008165
3291.000000	0.008204
3290.000000	0.008229
3289.000000	0.008231
3288.000000	0.008216
3287.000000	0.008196
3286.000000	0.008176
3285.000000	0.008151
3284.000000	0.008123
3283.000000	0.008101
3282.000000	0.008098
3281.000000	0.008114
3280.000000	0.008137
3279.000000	0.008155
3278.000000	0.008163
3277.000000	0.008167
3276.000000	0.008173
3275.000000	0.008181
3274.000000	0.008183
3273.000000	0.008171
3272.000000	0.008150
3271.000000	0.008134
3270.000000	0.008132
3269.000000	0.008142
3268.000000	0.008148
3267.000000	0.008137
3266.000000	0.008115
3265.000000	0.008102
3264.000000	0.008108
3263.000000	0.008127
3262.000000	0.008142
3261.000000	0.008147
3260.000000	0.008144
3259.000000	0.008141
3258.000000	0.008144
3257.000000	0.008149
3256.000000	0.008149
3255.000000	0.008132
3254.000000	0.008094
3253.000000	0.008049
3252.000000	0.008018
3251.000000	0.008009
3250.000000	0.008012
3249.000000	0.008003
3248.000000	0.007979
3247.000000	0.007951
3246.000000	0.007941
3245.000000	0.007954
3244.000000	0.007977
3243.000000	0.007986
3242.000000	0.007969
3241.000000	0.007925
3240.000000	0.007875
3239.000000	0.007841
3238.000000	0.007837
3237.000000	0.007857
3236.000000	0.007879
3235.000000	0.007883
3234.000000	0.007867
3233.000000	0.007843
3232.000000	0.007827
3231.000000	0.007827
3230.000000	0.007840
3229.000000	0.007857
3228.000000	0.007868
3227.000000	0.007868
3226.000000	0.007856
3225.000000	0.007837
3224.000000	0.007818
3223.000000	0.007808
3222.000000	0.007813
3221.000000	0.007833
3220.000000	0.007859
3219.000000	0.007877
3218.000000	0.007880
3217.000000	0.007874
3216.000000	0.007873
3215.000000	0.007881
3214.000000	0.007889
3213.000000	0.007883
3212.000000	0.007861
3211.000000	0.007834
3210.000000	0.007819
3209.000000	0.007817
3208.000000	0.007816
3207.000000	0.007807
3206.000000	0.007792
3205.000000	0.007776
3204.000000	0.007766
3203.000000	0.007759
3202.000000	0.007752
3201.000000	0.007742
3200.000000	0.007725
3199.000000	0.007706
3198.000000	0.007690
3197.000000	0.007685
3196.000000	0.007695
3195.000000	0.007714
3194.000000	0.007728
3193.000000	0.007722
3192.000000	0.007692
3191.000000	0.007647
3190.000000	0.007611
3189.000000	0.007599
3188.000000	0.007608
3187.000000	0.007619
3186.000000	0.007620
3185.000000	0.007609
3184.000000	0.007597
3183.000000	0.007587
3182.000000	0.007583
3181.000000	0.007582
3180.000000	0.007585
3179.000000	0.007591
3178.000000	0.007603
3177.000000	0.007616
3176.000000	0.007619
3175.000000	0.007602
3174.000000	0.007564
3173.000000	0.007521
3172.000000	0.007494
3171.000000	0.007489
3170.000000	0.007493
3169.000000	0.007492
3168.000000	0.007483
3167.000000	0.007476
3166.000000	0.007481
3165.000000	0.007499
3164.000000	0.007518
3163.000000	0.007527
3162.000000	0.007520
3161.000000	0.007503
3160.000000	0.007489
3159.000000	0.007486
3158.000000	0.007493
3157.000000	0.007500
3156.000000	0.007502
3155.000000	0.007503
3154.000000	0.007511
3153.000000	0.007524
3152.000000	0.007529
3151.000000	0.007513
3150.000000	0.007473
3149.000000	0.007422
3148.000000	0.007377
3147.000000	0.007353
3146.000000	0.007347
3145.000000	0.007348
3144.000000	0.007345
3143.000000	0.007333
3142.000000	0.007315
3141.000000	0.007291
3140.000000	0.007262
3139.000000	0.007238
3138.000000	0.007237
3137.000000	0.007271
3136.000000	0.007326
3135.000000	0.007376
3134.000000	0.007399
3133.000000	0.007397
3132.000000	0.007382
3131.000000	0.007366
3130.000000	0.007350
3129.000000	0.007333
3128.000000	0.007317
3127.000000	0.007301
3126.000000	0.007289
3125.000000	0.007287
3124.000000	0.007303
3123.000000	0.007338
3122.000000	0.007380
3121.000000	0.007407
3120.000000	0.007408
3119.000000	0.007386
3118.000000	0.007360
3117.000000	0.007345
3116.000000	0.007342
3115.000000	0.007342
3114.000000	0.007337
3113.000000	0.007331
3112.000000	0.007328
3111.000000	0.007334
3110.000000	0.007348
3109.000000	0.007363
3108.000000	0.007372
3107.000000	0.007369
3106.000000	0.007354
3105.000000	0.007329
3104.000000	0.007300
3103.000000	0.007269
3102.000000	0.007242
3101.000000	0.007228
3100.000000	0.007233
3099.000000	0.007257
3098.000000	0.007287
3097.000000	0.007312
3096.000000	0.007321
3095.000000	0.007311
3094.000000	0.007289
3093.000000	0.007267
3092.000000	0.007257
3091.000000	0.007264
3090.000000	0.007288
3089.000000	0.007318
3088.000000	0.007344
3087.000000	0.007356
3086.000000	0.007358
3085.000000	0.007358
3084.000000	0.007365
3083.000000	0.007381
3082.000000	0.007403
3081.000000	0.007424
3080.000000	0.007435
3079.000000	0.007429
3078.000000	0.007410
3077.000000	0.007394
3076.000000	0.007392
3075.000000	0.007399
3074.000000	0.007397
3073.000000	0.007383
3072.000000	0.007366
3071.000000	0.007359
3070.000000	0.007364
3069.000000	0.007370
3068.000000	0.007368
3067.000000	0.007355
3066.000000	0.007336
3065.000000	0.007318
3064.000000	0.007311
3063.000000	0.007313
3062.000000	0.007319
3061.000000	0.007320
3060.000000	0.007316
3059.000000	0.007310
3058.000000	0.007310
3057.000000	0.007316
3056.000000	0.007327
3055.000000	0.007342
3054.000000	0.007354
3053.000000	0.007355
3052.000000	0.007345
3051.000000	0.007327
3050.000000	0.007313
3049.000000	0.007314
3048.000000	0.007324
3047.000000	0.007329
3046.000000	0.007316
3045.000000	0.007291
3044.000000	0.007274
3043.000000	0.007281
3042.000000	0.007307
3041.000000	0.007334
3040.000000	0.007343
3039.000000	0.007337
3038.000000	0.007329
3037.000000	0.007327
3036.000000	0.007325
3035.000000	0.007312
3034.000000	0.007290
3033.000000	0.007269
3032.000000	0.007251
3031.000000	0.007230
3030.000000	0.007201
3029.000000	0.007173
3028.000000	0.007161
3027.000000	0.007168
3026.000000	0.007183
3025.000000	0.007193
3024.000000	0.007195
3023.000000	0.007195
3022.000000	0.007201
3021.000000	0.007214
3020.000000	0.007231
3019.000000	0.007244
3018.000000	0.007242
3017.000000	0.007222
3016.000000	0.007195
3015.000000	0.007174
3014.000000	0.007167
3013.000000	0.007173
3012.000000	0.007182
3011.000000	0.007186
3010.000000	0.007181
3009.000000	0.007177
3008.000000	0.007178
3007.000000	0.007182
3006.000000	0.007183
3005.000000	0.007173
3004.000000	0.007157
3003.000000	0.007141
3002.000000	0.007131
3001.000000	0.007131
3000.000000	0.007142
2999.000000	0.007157
2998.000000	0.007169
2997.000000	0.007174
2996.000000	0.007174
2995.000000	0.007176
2994.000000	0.007179
2993.000000	0.007184
2992.000000	0.007193
2991.000000	0.007209
2990.000000	0.007232
2989.000000	0.007258
2988.000000	0.007287
2987.000000	0.007318
2986.000000	0.007348
2985.000000	0.007370
2984.000000	0.007384
2983.000000	0.007395
2982.000000	0.007404
2981.000000	0.007408
2980.000000	0.007400
2979.000000	0.007381
2978.000000	0.007363
2977.000000	0.007358
2976.000000	0.007365
2975.000000	0.007370
2974.000000	0.007365
2973.000000	0.007352
2972.000000	0.007343
2971.000000	0.007342
2970.000000	0.007349
2969.000000	0.007360
2968.000000	0.007372
2967.000000	0.007382
2966.000000	0.007393
2965.000000	0.007408
2964.000000	0.007426
2963.000000	0.007438
2962.000000	0.007435
2961.000000	0.007420
2960.000000	0.007405
2959.000000	0.007403
2958.000000	0.007413
2957.000000	0.007427
2956.000000	0.007435
2955.000000	0.007427
2954.000000	0.007406
2953.000000	0.007384
2952.000000	0.007379
2951.000000	0.007398
2950.000000	0.007425
2949.000000	0.007441
2948.000000	0.007437
2947.000000	0.007421
2946.000000	0.007414
2945.000000	0.007423
2944.000000	0.007444
2943.000000	0.007463
2942.000000	0.007471
2941.000000	0.007467
2940.000000	0.007457
2939.000000	0.007447
2938.000000	0.007439
2937.000000	0.007432
2936.000000	0.007422
2935.000000	0.007406
2934.000000	0.007387
2933.000000	0.007378
2932.000000	0.007390
2931.000000	0.007419
2930.000000	0.007449
2929.000000	0.007463
2928.000000	0.007457
2927.000000	0.007441
2926.000000	0.007434
2925.000000	0.007448
2924.000000	0.007485
2923.000000	0.007536
2922.000000	0.007585
2921.000000	0.007621
2920.000000	0.007642
2919.000000	0.007648
2918.000000	0.007639
2917.000000	0.007613
2916.000000	0.007573
2915.000000	0.007526
2914.000000	0.007483
2913.000000	0.007452
2912.000000	0.007439
2911.000000	0.007442
2910.000000	0.007458
2909.000000	0.007482
2908.000000	0.007507
2907.000000	0.007528
2906.000000	0.007537
2905.000000	0.007526
2904.000000	0.007497
2903.000000	0.007463
2902.000000	0.007446
2901.000000	0.007454
2900.000000	0.007476
2899.000000	0.007491
2898.000000	0.007482
2897.000000	0.007454
2896.000000	0.007420
2895.000000	0.007391
2894.000000	0.007371
2893.000000	0.007364
2892.000000	0.007370
2891.000000	0.007388
2890.000000	0.007412
2889.000000	0.007433
2888.000000	0.007445
2887.000000	0.007450
2886.000000	0.007461
2885.000000	0.007487
2884.000000	0.007523
2883.000000	0.007551
2882.000000	0.007554
2881.000000	0.007533
2880.000000	0.007505
2879.000000	0.007485
2878.000000	0.007478
2877.000000	0.007482
2876.000000	0.007495
2875.000000	0.007511
2874.000000	0.007524
2873.000000	0.007532
2872.000000	0.007538
2871.000000	0.007548
2870.000000	0.007559
2869.000000	0.007565
2868.000000	0.007560
2867.000000	0.007551
2866.000000	0.007544
2865.000000	0.007542
2864.000000	0.007542
2863.000000	0.007539
2862.000000	0.007533
2861.000000	0.007527
2860.000000	0.007520
2859.000000	0.007505
2858.000000	0.007478
2857.000000	0.007447
2856.000000	0.007430
2855.000000	0.007436
2854.000000	0.007457
2853.000000	0.007476
2852.000000	0.007480
2851.000000	0.007471
2850.000000	0.007462
2849.000000	0.007464
2848.000000	0.007477
2847.000000	0.007490
2846.000000	0.007489
2845.000000	0.007469
2844.000000	0.007433
2843.000000	0.007390
2842.000000	0.007349
2841.000000	0.007320
2840.000000	0.007307
2839.000000	0.007308
2838.000000	0.007311
2837.000000	0.007307
2836.000000	0.007298
2835.000000	0.007293
2834.000000	0.007296
2833.000000	0.007305
2832.000000	0.007309
2831.000000	0.007302
2830.000000	0.007288
2829.000000	0.007277
2828.000000	0.007278
2827.000000	0.007290
2826.000000	0.007306
2825.000000	0.007316
2824.000000	0.007316
2823.000000	0.007309
2822.000000	0.007298
2821.000000	0.007288
2820.000000	0.007282
2819.000000	0.007280
2818.000000	0.007280
2817.000000	0.007277
2816.000000	0.007268
2815.000000	0.007253
2814.000000	0.007239
2813.000000	0.007232
2812.000000	0.007234
2811.000000	0.007243
2810.000000	0.007254
2809.000000	0.007265
2808.000000	0.007273
2807.000000	0.007272
2806.000000	0.007259
2805.000000	0.007238
2804.000000	0.007220
2803.000000	0.007212
2802.000000	0.007213
2801.000000	0.007210
2800.000000	0.007194
2799.000000	0.007169
2798.000000	0.007149
2797.000000	0.007144
2796.000000	0.007156
2795.000000	0.007180
2794.000000	0.007207
2793.000000	0.007224
2792.000000	0.007227
2791.000000	0.007216
2790.000000	0.007205
2789.000000	0.007203
2788.000000	0.007214
2787.000000	0.007231
2786.000000	0.007242
2785.000000	0.007241
2784.000000	0.007226
2783.000000	0.007209
2782.000000	0.007198
2781.000000	0.007197
2780.000000	0.007198
2779.000000	0.007198
2778.000000	0.007200
2777.000000	0.007209
2776.000000	0.007225
2775.000000	0.007237
2774.000000	0.007240
2773.000000	0.007237
2772.000000	0.007232
2771.000000	0.007223
2770.000000	0.007209
2769.000000	0.007190
2768.000000	0.007175
2767.000000	0.007169
2766.000000	0.007168
2765.000000	0.007168
2764.000000	0.007164
2763.000000	0.007157
2762.000000	0.007150
2761.000000	0.007148
2760.000000	0.007153
2759.000000	0.007163
2758.000000	0.007175
2757.000000	0.007187
2756.000000	0.007197
2755.000000	0.007205
2754.000000	0.007212
2753.000000	0.007213
2752.000000	0.007208
2751.000000	0.007201
2750.000000	0.007201
2749.000000	0.007212
2748.000000	0.007229
2747.000000	0.007241
2746.000000	0.007238
2745.000000	0.007221
2744.000000	0.007195
2743.000000	0.007167
2742.000000	0.007149
2741.000000	0.007149
2740.000000	0.007164
2739.000000	0.007176
2738.000000	0.007172
2737.000000	0.007151
2736.000000	0.007124
2735.000000	0.007106
2734.000000	0.007101
2733.000000	0.007108
2732.000000	0.007121
2731.000000	0.007135
2730.000000	0.007147
2729.000000	0.007156
2728.000000	0.007161
2727.000000	0.007160
2726.000000	0.007151
2725.000000	0.007137
2724.000000	0.007125
2723.000000	0.007122
2722.000000	0.007124
2721.000000	0.007130
2720.000000	0.007136
2719.000000	0.007143
2718.000000	0.007150
2717.000000	0.007156
2716.000000	0.007161
2715.000000	0.007162
2714.000000	0.007160
2713.000000	0.007154
2712.000000	0.007144
2711.000000	0.007130
2710.000000	0.007115
2709.000000	0.007104
2708.000000	0.007098
2707.000000	0.007099
2706.000000	0.007107
2705.000000	0.007117
2704.000000	0.007127
2703.000000	0.007130
2702.000000	0.007122
2701.000000	0.007110
2700.000000	0.007107
2699.000000	0.007119
2698.000000	0.007139
2697.000000	0.007151
2696.000000	0.007150
2695.000000	0.007146
2694.000000	0.007155
2693.000000	0.007177
2692.000000	0.007198
2691.000000	0.007200
2690.000000	0.007181
2689.000000	0.007150
2688.000000	0.007124
2687.000000	0.007115
2686.000000	0.007120
2685.000000	0.007128
2684.000000	0.007130
2683.000000	0.007126
2682.000000	0.007122
2681.000000	0.007121
2680.000000	0.007120
2679.000000	0.007116
2678.000000	0.007109
2677.000000	0.007106
2676.000000	0.007113
2675.000000	0.007128
2674.000000	0.007145
2673.000000	0.007152
2672.000000	0.007146
2671.000000	0.007137
2670.000000	0.007138
2669.000000	0.007151
2668.000000	0.007166
2667.000000	0.007173
2666.000000	0.007177
2665.000000	0.007185
2664.000000	0.007193
2663.000000	0.007192
2662.000000	0.007178
2661.000000	0.007159
2660.000000	0.007141
2659.000000	0.007123
2658.000000	0.007100
2657.000000	0.007079
2656.000000	0.007068
2655.000000	0.007072
2654.000000	0.007080
2653.000000	0.007081
2652.000000	0.007069
2651.000000	0.007049
2650.000000	0.007029
2649.000000	0.007012
2648.000000	0.006997
2647.000000	0.006983
2646.000000	0.006972
2645.000000	0.006966
2644.000000	0.006962
2643.000000	0.006959
2642.000000	0.006953
2641.000000	0.006935
2640.000000	0.006901
2639.000000	0.006859
2638.000000	0.006828
2637.000000	0.006825
2636.000000	0.006838
2635.000000	0.006841
2634.000000	0.006821
2633.000000	0.006790
2632.000000	0.006769
2631.000000	0.006766
2630.000000	0.006774
2629.000000	0.006782
2628.000000	0.006787
2627.000000	0.006790
2626.000000	0.006792
2625.000000	0.006792
2624.000000	0.006787
2623.000000	0.006774
2622.000000	0.006751
2621.000000	0.006725
2620.000000	0.006701
2619.000000	0.006682
2618.000000	0.006669
2617.000000	0.006664
2616.000000	0.006669
2615.000000	0.006681
2614.000000	0.006693
2613.000000	0.006706
2612.000000	0.006721
2611.000000	0.006735
2610.000000	0.006741
2609.000000	0.006731
2608.000000	0.006712
2607.000000	0.006693
2606.000000	0.006681
2605.000000	0.006675
2604.000000	0.006675
2603.000000	0.006681
2602.000000	0.006691
2601.000000	0.006697
2600.000000	0.006689
2599.000000	0.006667
2598.000000	0.006640
2597.000000	0.006623
2596.000000	0.006622
2595.000000	0.006633
2594.000000	0.006640
2593.000000	0.006634
2592.000000	0.006616
2591.000000	0.006598
2590.000000	0.006590
2589.000000	0.006591
2588.000000	0.006598
2587.000000	0.006611
2586.000000	0.006628
2585.000000	0.006644
2584.000000	0.006648
2583.000000	0.006640
2582.000000	0.006633
2581.000000	0.006637
2580.000000	0.006647
2579.000000	0.006649
2578.000000	0.006638
2577.000000	0.006615
2576.000000	0.006585
2575.000000	0.006556
2574.000000	0.006538
2573.000000	0.006531
2572.000000	0.006523
2571.000000	0.006504
2570.000000	0.006484
2569.000000	0.006483
2568.000000	0.006504
2567.000000	0.006535
2566.000000	0.006559
2565.000000	0.006574
2564.000000	0.006583
2563.000000	0.006588
2562.000000	0.006593
2561.000000	0.006601
2560.000000	0.006613
2559.000000	0.006620
2558.000000	0.006615
2557.000000	0.006597
2556.000000	0.006573
2555.000000	0.006555
2554.000000	0.006566
2553.000000	0.006615
2552.000000	0.006682
2551.000000	0.006721
2550.000000	0.006705
2549.000000	0.006653
2548.000000	0.006602
2547.000000	0.006575
2546.000000	0.006566
2545.000000	0.006567
2544.000000	0.006575
2543.000000	0.006592
2542.000000	0.006614
2541.000000	0.006631
2540.000000	0.006639
2539.000000	0.006637
2538.000000	0.006627
2537.000000	0.006621
2536.000000	0.006625
2535.000000	0.006636
2534.000000	0.006644
2533.000000	0.006647
2532.000000	0.006658
2531.000000	0.006691
2530.000000	0.006748
2529.000000	0.006817
2528.000000	0.006882
2527.000000	0.006933
2526.000000	0.006969
2525.000000	0.006992
2524.000000	0.007006
2523.000000	0.007010
2522.000000	0.007004
2521.000000	0.006989
2520.000000	0.006972
2519.000000	0.006975
2518.000000	0.007015
2517.000000	0.007082
2516.000000	0.007143
2515.000000	0.007168
2514.000000	0.007159
2513.000000	0.007138
2512.000000	0.007124
2511.000000	0.007124
2510.000000	0.007137
2509.000000	0.007156
2508.000000	0.007166
2507.000000	0.007152
2506.000000	0.007119
2505.000000	0.007086
2504.000000	0.007062
2503.000000	0.007037
2502.000000	0.007003
2501.000000	0.006963
2500.000000	0.006927
2499.000000	0.006900
2498.000000	0.006886
2497.000000	0.006892
2496.000000	0.006912
2495.000000	0.006931
2494.000000	0.006932
2493.000000	0.006915
2492.000000	0.006889
2491.000000	0.006860
2490.000000	0.006827
2489.000000	0.006794
2488.000000	0.006765
2487.000000	0.006742
2486.000000	0.006729
2485.000000	0.006730
2484.000000	0.006744
2483.000000	0.006753
2482.000000	0.006734
2481.000000	0.006686
2480.000000	0.006627
2479.000000	0.006578
2478.000000	0.006550
2477.000000	0.006538
2476.000000	0.006533
2475.000000	0.006527
2474.000000	0.006519
2473.000000	0.006519
2472.000000	0.006531
2471.000000	0.006545
2470.000000	0.006547
2469.000000	0.006537
2468.000000	0.006533
2467.000000	0.006555
2466.000000	0.006599
2465.000000	0.006640
2464.000000	0.006654
2463.000000	0.006636
2462.000000	0.006600
2461.000000	0.006561
2460.000000	0.006525
2459.000000	0.006493
2458.000000	0.006468
2457.000000	0.006464
2456.000000	0.006488
2455.000000	0.006531
2454.000000	0.006571
2453.000000	0.006586
2452.000000	0.006571
2451.000000	0.006542
2450.000000	0.006518
2449.000000	0.006500
2448.000000	0.006477
2447.000000	0.006445
2446.000000	0.006414
2445.000000	0.006405
2444.000000	0.006424
2443.000000	0.006456
2442.000000	0.006483
2441.000000	0.006489
2440.000000	0.006475
2439.000000	0.006456
2438.000000	0.006458
2437.000000	0.006487
2436.000000	0.006520
2435.000000	0.006528
2434.000000	0.006510
2433.000000	0.006489
2432.000000	0.006481
2431.000000	0.006473
2430.000000	0.006453
2429.000000	0.006425
2428.000000	0.006407
2427.000000	0.006411
2426.000000	0.006435
2425.000000	0.006469
2424.000000	0.006499
2423.000000	0.006512
2422.000000	0.006507
2421.000000	0.006496
2420.000000	0.006488
2419.000000	0.006481
2418.000000	0.006473
2417.000000	0.006470
2416.000000	0.006478
2415.000000	0.006489
2414.000000	0.006490
2413.000000	0.006485
2412.000000	0.006488
2411.000000	0.006505
2410.000000	0.006521
2409.000000	0.006515
2408.000000	0.006489
2407.000000	0.006463
2406.000000	0.006458
2405.000000	0.006472
2404.000000	0.006488
2403.000000	0.006491
2402.000000	0.006477
2401.000000	0.006452
2400.000000	0.006422
2399.000000	0.006400
2398.000000	0.006398
2397.000000	0.006419
2396.000000	0.006455
2395.000000	0.006493
2394.000000	0.006527
2393.000000	0.006549
2392.000000	0.006550
2391.000000	0.006534
2390.000000	0.006518
2389.000000	0.006524
2388.000000	0.006551
2387.000000	0.006582
2386.000000	0.006599
2385.000000	0.006594
2384.000000	0.006565
2383.000000	0.006511
2382.000000	0.006448
2381.000000	0.006394
2380.000000	0.006366
2379.000000	0.006374
2378.000000	0.006424
2377.000000	0.006501
2376.000000	0.006574
2375.000000	0.006616
2374.000000	0.006628
2373.000000	0.006630
2372.000000	0.006634
2371.000000	0.006636
2370.000000	0.006631
2369.000000	0.006611
2368.000000	0.006574
2367.000000	0.006532
2366.000000	0.006514
2365.000000	0.006536
2364.000000	0.006589
2363.000000	0.006662
2362.000000	0.006756
2361.000000	0.006861
2360.000000	0.006948
2359.000000	0.006980
2358.000000	0.006941
2357.000000	0.006851
2356.000000	0.006774
2355.000000	0.006772
2354.000000	0.006808
2353.000000	0.006788
2352.000000	0.006706
2351.000000	0.006654
2350.000000	0.006697
2349.000000	0.006811
2348.000000	0.006921
2347.000000	0.006955
2346.000000	0.006905
2345.000000	0.006857
2344.000000	0.006879
2343.000000	0.006952
2342.000000	0.007002
2341.000000	0.006986
2340.000000	0.006929
2339.000000	0.006882
2338.000000	0.006862
2337.000000	0.006854
2336.000000	0.006844
2335.000000	0.006827
2334.000000	0.006788
2333.000000	0.006719
2332.000000	0.006646
2331.000000	0.006617
2330.000000	0.006648
2329.000000	0.006719
2328.000000	0.006804
2327.000000	0.006882
2326.000000	0.006926
2325.000000	0.006922
2324.000000	0.006878
2323.000000	0.006821
2322.000000	0.006786
2321.000000	0.006804
2320.000000	0.006883
2319.000000	0.006992
2318.000000	0.007083
2317.000000	0.007121
2316.000000	0.007100
2315.000000	0.007027
2314.000000	0.006922
2313.000000	0.006821
2312.000000	0.006756
2311.000000	0.006732
2310.000000	0.006724
2309.000000	0.006708
2308.000000	0.006680
2307.000000	0.006649
2306.000000	0.006626
2305.000000	0.006622
2304.000000	0.006638
2303.000000	0.006660
2302.000000	0.006675
2301.000000	0.006686
2300.000000	0.006704
2299.000000	0.006733
2298.000000	0.006768
2297.000000	0.006797
2296.000000	0.006804
2295.000000	0.006771
2294.000000	0.006694
2293.000000	0.006611
2292.000000	0.006575
2291.000000	0.006603
2290.000000	0.006665
2289.000000	0.006719
2288.000000	0.006749
2287.000000	0.006763
2286.000000	0.006766
2285.000000	0.006753
2284.000000	0.006730
2283.000000	0.006719
2282.000000	0.006741
2281.000000	0.006785
2280.000000	0.006809
2279.000000	0.006777
2278.000000	0.006701
2277.000000	0.006625
2276.000000	0.006567
2275.000000	0.006509
2274.000000	0.006440
2273.000000	0.006386
2272.000000	0.006378
2271.000000	0.006406
2270.000000	0.006434
2269.000000	0.006452
2268.000000	0.006473
2267.000000	0.006495
2266.000000	0.006493
2265.000000	0.006466
2264.000000	0.006454
2263.000000	0.006492
2262.000000	0.006569
2261.000000	0.006637
2260.000000	0.006657
2259.000000	0.006628
2258.000000	0.006575
2257.000000	0.006524
2256.000000	0.006479
2255.000000	0.006438
2254.000000	0.006416
2253.000000	0.006436
2252.000000	0.006486
2251.000000	0.006525
2250.000000	0.006525
2249.000000	0.006507
2248.000000	0.006494
2247.000000	0.006478
2246.000000	0.006435
2245.000000	0.006378
2244.000000	0.006345
2243.000000	0.006354
2242.000000	0.006383
2241.000000	0.006404
2240.000000	0.006400
2239.000000	0.006366
2238.000000	0.006323
2237.000000	0.006312
2236.000000	0.006342
2235.000000	0.006369
2234.000000	0.006347
2233.000000	0.006290
2232.000000	0.006251
2231.000000	0.006241
2230.000000	0.006228
2229.000000	0.006203
2228.000000	0.006206
2227.000000	0.006255
2226.000000	0.006306
2225.000000	0.006304
2224.000000	0.006255
2223.000000	0.006219
2222.000000	0.006234
2221.000000	0.006278
2220.000000	0.006288
2219.000000	0.006234
2218.000000	0.006161
2217.000000	0.006142
2216.000000	0.006201
2215.000000	0.006286
2214.000000	0.006344
2213.000000	0.006382
2212.000000	0.006419
2211.000000	0.006431
2210.000000	0.006377
2209.000000	0.006290
2208.000000	0.006263
2207.000000	0.006339
2206.000000	0.006463
2205.000000	0.006550
2204.000000	0.006563
2203.000000	0.006521
2202.000000	0.006461
2201.000000	0.006421
2200.000000	0.006429
2199.000000	0.006493
2198.000000	0.006596
2197.000000	0.006707
2196.000000	0.006792
2195.000000	0.006816
2194.000000	0.006752
2193.000000	0.006609
2192.000000	0.006419
2191.000000	0.006220
2190.000000	0.006062
2189.000000	0.006008
2188.000000	0.006102
2187.000000	0.006318
2186.000000	0.006569
2185.000000	0.006770
2184.000000	0.006867
2183.000000	0.006830
2182.000000	0.006664
2181.000000	0.006431
2180.000000	0.006228
2179.000000	0.006119
2178.000000	0.006095
2177.000000	0.006107
2176.000000	0.006108
2175.000000	0.006078
2174.000000	0.006023
2173.000000	0.005975
2172.000000	0.005968
2171.000000	0.006034
2170.000000	0.006207
2169.000000	0.006497
2168.000000	0.006833
2167.000000	0.007065
2166.000000	0.007066
2165.000000	0.006836
2164.000000	0.006483
2163.000000	0.006113
2162.000000	0.005764
2161.000000	0.005463
2160.000000	0.005275
2159.000000	0.005286
2158.000000	0.005524
2157.000000	0.005897
2156.000000	0.006229
2155.000000	0.006392
2154.000000	0.006403
2153.000000	0.006372
2152.000000	0.006365
2151.000000	0.006338
2150.000000	0.006217
2149.000000	0.006004
2148.000000	0.005784
2147.000000	0.005650
2146.000000	0.005659
2145.000000	0.005813
2144.000000	0.006039
2143.000000	0.006222
2142.000000	0.006295
2141.000000	0.006287
2140.000000	0.006271
2139.000000	0.006284
2138.000000	0.006324
2137.000000	0.006387
2136.000000	0.006458
2135.000000	0.006502
2134.000000	0.006488
2133.000000	0.006431
2132.000000	0.006366
2131.000000	0.006312
2130.000000	0.006281
2129.000000	0.006288
2128.000000	0.006338
2127.000000	0.006396
2126.000000	0.006410
2125.000000	0.006368
2124.000000	0.006297
2123.000000	0.006229
2122.000000	0.006192
2121.000000	0.006220
2120.000000	0.006333
2119.000000	0.006495
2118.000000	0.006622
2117.000000	0.006657
2116.000000	0.006612
2115.000000	0.006547
2114.000000	0.006516
2113.000000	0.006540
2112.000000	0.006601
2111.000000	0.006643
2110.000000	0.006619
2109.000000	0.006531
2108.000000	0.006442
2107.000000	0.006412
2106.000000	0.006451
2105.000000	0.006530
2104.000000	0.006613
2103.000000	0.006674
2102.000000	0.006693
2101.000000	0.006671
2100.000000	0.006635
2099.000000	0.006618
2098.000000	0.006615
2097.000000	0.006592
2096.000000	0.006527
2095.000000	0.006454
2094.000000	0.006430
2093.000000	0.006474
2092.000000	0.006555
2091.000000	0.006635
2090.000000	0.006711
2089.000000	0.006790
2088.000000	0.006845
2087.000000	0.006850
2086.000000	0.006825
2085.000000	0.006830
2084.000000	0.006885
2083.000000	0.006931
2082.000000	0.006899
2081.000000	0.006775
2080.000000	0.006603
2079.000000	0.006436
2078.000000	0.006308
2077.000000	0.006242
2076.000000	0.006241
2075.000000	0.006290
2074.000000	0.006364
2073.000000	0.006434
2072.000000	0.006468
2071.000000	0.006451
2070.000000	0.006422
2069.000000	0.006458
2068.000000	0.006579
2067.000000	0.006712
2066.000000	0.006772
2065.000000	0.006746
2064.000000	0.006683
2063.000000	0.006615
2062.000000	0.006563
2061.000000	0.006575
2060.000000	0.006691
2059.000000	0.006867
2058.000000	0.006984
2057.000000	0.006967
2056.000000	0.006848
2055.000000	0.006737
2054.000000	0.006725
2053.000000	0.006822
2052.000000	0.006949
2051.000000	0.006987
2050.000000	0.006861
2049.000000	0.006610
2048.000000	0.006356
2047.000000	0.006206
2046.000000	0.006188
2045.000000	0.006263
2044.000000	0.006348
2043.000000	0.006366
2042.000000	0.006326
2041.000000	0.006325
2040.000000	0.006423
2039.000000	0.006547
2038.000000	0.006588
2037.000000	0.006551
2036.000000	0.006527
2035.000000	0.006539
2034.000000	0.006520
2033.000000	0.006431
2032.000000	0.006300
2031.000000	0.006153
2030.000000	0.005992
2029.000000	0.005872
2028.000000	0.005874
2027.000000	0.005979
2026.000000	0.006058
2025.000000	0.006025
2024.000000	0.005915
2023.000000	0.005799
2022.000000	0.005696
2021.000000	0.005606
2020.000000	0.005554
2019.000000	0.005551
2018.000000	0.005579
2017.000000	0.005646
2016.000000	0.005791
2015.000000	0.006008
2014.000000	0.006188
2013.000000	0.006219
2012.000000	0.006112
2011.000000	0.005993
2010.000000	0.005965
2009.000000	0.006018
2008.000000	0.006070
2007.000000	0.006061
2006.000000	0.006007
2005.000000	0.005961
2004.000000	0.005942
2003.000000	0.005920
2002.000000	0.005869
2001.000000	0.005818
2000.000000	0.005825
1999.000000	0.005904
1998.000000	0.006016
1997.000000	0.006107
1996.000000	0.006156
1995.000000	0.006173
1994.000000	0.006180
1993.000000	0.006193
1992.000000	0.006207
1991.000000	0.006190
1990.000000	0.006117
1989.000000	0.005993
1988.000000	0.005867
1987.000000	0.005803
1986.000000	0.005851
1985.000000	0.006006
1984.000000	0.006191
1983.000000	0.006306
1982.000000	0.006321
1981.000000	0.006283
1980.000000	0.006235
1979.000000	0.006149
1978.000000	0.005985
1977.000000	0.005798
1976.000000	0.005712
1975.000000	0.005780
1974.000000	0.005945
1973.000000	0.006115
1972.000000	0.006218
1971.000000	0.006213
1970.000000	0.006103
1969.000000	0.005939
1968.000000	0.005791
1967.000000	0.005698
1966.000000	0.005649
1965.000000	0.005620
1964.000000	0.005602
1963.000000	0.005599
1962.000000	0.005634
1961.000000	0.005726
1960.000000	0.005850
1959.000000	0.005944
1958.000000	0.005967
1957.000000	0.005940
1956.000000	0.005923
1955.000000	0.005960
1954.000000	0.006054
1953.000000	0.006180
1952.000000	0.006292
1951.000000	0.006341
1950.000000	0.006301
1949.000000	0.006197
1948.000000	0.006091
1947.000000	0.006038
1946.000000	0.006060
1945.000000	0.006140
1944.000000	0.006247
1943.000000	0.006345
1942.000000	0.006406
1941.000000	0.006416
1940.000000	0.006383
1939.000000	0.006337
1938.000000	0.006317
1937.000000	0.006345
1936.000000	0.006402
1935.000000	0.006448
1934.000000	0.006461
1933.000000	0.006440
1932.000000	0.006398
1931.000000	0.006347
1930.000000	0.006302
1929.000000	0.006268
1928.000000	0.006235
1927.000000	0.006187
1926.000000	0.006127
1925.000000	0.006078
1924.000000	0.006068
1923.000000	0.006108
1922.000000	0.006180
1921.000000	0.006241
1920.000000	0.006247
1919.000000	0.006191
1918.000000	0.006125
1917.000000	0.006123
1916.000000	0.006208
1915.000000	0.006345
1914.000000	0.006473
1913.000000	0.006542
1912.000000	0.006519
1911.000000	0.006417
1910.000000	0.006296
1909.000000	0.006226
1908.000000	0.006231
1907.000000	0.006277
1906.000000	0.006332
1905.000000	0.006382
1904.000000	0.006414
1903.000000	0.006409
1902.000000	0.006362
1901.000000	0.006306
1900.000000	0.006274
1899.000000	0.006267
1898.000000	0.006264
1897.000000	0.006253
1896.000000	0.006230
1895.000000	0.006200
1894.000000	0.006177
1893.000000	0.006178
1892.000000	0.006200
1891.000000	0.006215
1890.000000	0.006204
1889.000000	0.006179
1888.000000	0.006166
1887.000000	0.006175
1886.000000	0.006202
1885.000000	0.006245
1884.000000	0.006288
1883.000000	0.006296
1882.000000	0.006250
1881.000000	0.006178
1880.000000	0.006135
1879.000000	0.006135
1878.000000	0.006155
1877.000000	0.006163
1876.000000	0.006156
1875.000000	0.006143
1874.000000	0.006134
1873.000000	0.006127
1872.000000	0.006116
1871.000000	0.006097
1870.000000	0.006081
1869.000000	0.006101
1868.000000	0.006173
1867.000000	0.006273
1866.000000	0.006351
1865.000000	0.006384
1864.000000	0.006372
1863.000000	0.006321
1862.000000	0.006249
1861.000000	0.006194
1860.000000	0.006195
1859.000000	0.006252
1858.000000	0.006324
1857.000000	0.006375
1856.000000	0.006401
1855.000000	0.006416
1854.000000	0.006423
1853.000000	0.006420
1852.000000	0.006401
1851.000000	0.006362
1850.000000	0.006301
1849.000000	0.006239
1848.000000	0.006203
1847.000000	0.006198
1846.000000	0.006205
1845.000000	0.006207
1844.000000	0.006213
1843.000000	0.006241
1842.000000	0.006283
1841.000000	0.006313
1840.000000	0.006314
1839.000000	0.006281
1838.000000	0.006224
1837.000000	0.006169
1836.000000	0.006143
1835.000000	0.006161
1834.000000	0.006215
1833.000000	0.006278
1832.000000	0.006311
1831.000000	0.006292
1830.000000	0.006243
1829.000000	0.006208
1828.000000	0.006190
1827.000000	0.006167
1826.000000	0.006144
1825.000000	0.006152
1824.000000	0.006196
1823.000000	0.006241
1822.000000	0.006257
1821.000000	0.006250
1820.000000	0.006238
1819.000000	0.006227
1818.000000	0.006211
1817.000000	0.006193
1816.000000	0.006189
1815.000000	0.006211
1814.000000	0.006254
1813.000000	0.006295
1812.000000	0.006313
1811.000000	0.006312
1810.000000	0.006312
1809.000000	0.006326
1808.000000	0.006356
1807.000000	0.006398
1806.000000	0.006447
1805.000000	0.006493
1804.000000	0.006538
1803.000000	0.006600
1802.000000	0.006706
1801.000000	0.006871
1800.000000	0.007069
1799.000000	0.007254
1798.000000	0.007386
1797.000000	0.007448
1796.000000	0.007454
1795.000000	0.007428
1794.000000	0.007380
1793.000000	0.007300
1792.000000	0.007187
1791.000000	0.007070
1790.000000	0.006969
1789.000000	0.006871
1788.000000	0.006759
1787.000000	0.006631
1786.000000	0.006508
1785.000000	0.006412
1784.000000	0.006357
1783.000000	0.006333
1782.000000	0.006322
1781.000000	0.006321
1780.000000	0.006327
1779.000000	0.006322
1778.000000	0.006296
1777.000000	0.006261
1776.000000	0.006242
1775.000000	0.006247
1774.000000	0.006271
1773.000000	0.006300
1772.000000	0.006312
1771.000000	0.006295
1770.000000	0.006257
1769.000000	0.006222
1768.000000	0.006212
1767.000000	0.006231
1766.000000	0.006261
1765.000000	0.006273
1764.000000	0.006248
1763.000000	0.006191
1762.000000	0.006140
1761.000000	0.006127
1760.000000	0.006128
1759.000000	0.006103
1758.000000	0.006051
1757.000000	0.006013
1756.000000	0.006012
1755.000000	0.006006
1754.000000	0.005950
1753.000000	0.005851
1752.000000	0.005749
1751.000000	0.005679
1750.000000	0.005652
1749.000000	0.005660
1748.000000	0.005686
1747.000000	0.005703
1746.000000	0.005695
1745.000000	0.005669
1744.000000	0.005648
1743.000000	0.005651
1742.000000	0.005690
1741.000000	0.005753
1740.000000	0.005824
1739.000000	0.005895
1738.000000	0.005964
1737.000000	0.006019
1736.000000	0.006050
1735.000000	0.006054
1734.000000	0.006050
1733.000000	0.006073
1732.000000	0.006112
1731.000000	0.006133
1730.000000	0.006144
1729.000000	0.006182
1728.000000	0.006247
1727.000000	0.006298
1726.000000	0.006312
1725.000000	0.006309
1724.000000	0.006313
1723.000000	0.006330
1722.000000	0.006354
1721.000000	0.006378
1720.000000	0.006389
1719.000000	0.006372
1718.000000	0.006339
1717.000000	0.006322
1716.000000	0.006346
1715.000000	0.006398
1714.000000	0.006444
1713.000000	0.006474
1712.000000	0.006494
1711.000000	0.006510
1710.000000	0.006526
1709.000000	0.006559
1708.000000	0.006614
1707.000000	0.006671
1706.000000	0.006715
1705.000000	0.006750
1704.000000	0.006791
1703.000000	0.006839
1702.000000	0.006900
1701.000000	0.006984
1700.000000	0.007081
1699.000000	0.007171
1698.000000	0.007234
1697.000000	0.007281
1696.000000	0.007355
1695.000000	0.007475
1694.000000	0.007601
1693.000000	0.007701
1692.000000	0.007777
1691.000000	0.007846
1690.000000	0.007923
1689.000000	0.008021
1688.000000	0.008135
1687.000000	0.008239
1686.000000	0.008317
1685.000000	0.008365
1684.000000	0.008419
1683.000000	0.008519
1682.000000	0.008635
1681.000000	0.008751
1680.000000	0.008882
1679.000000	0.009017
1678.000000	0.009133
1677.000000	0.009221
1676.000000	0.009291
1675.000000	0.009359
1674.000000	0.009449
1673.000000	0.009572
1672.000000	0.009715
1671.000000	0.009848
1670.000000	0.009943
1669.000000	0.010015
1668.000000	0.010093
1667.000000	0.010177
1666.000000	0.010265
1665.000000	0.010366
1664.000000	0.010480
1663.000000	0.010589
1662.000000	0.010685
1661.000000	0.010787
1660.000000	0.010900
1659.000000	0.011004
1658.000000	0.011079
1657.000000	0.011138
1656.000000	0.011193
1655.000000	0.011256
1654.000000	0.011292
1653.000000	0.011297
1652.000000	0.011333
1651.000000	0.011396
1650.000000	0.011455
1649.000000	0.011501
1648.000000	0.011516
1647.000000	0.011494
1646.000000	0.011453
1645.000000	0.011424
1644.000000	0.011406
1643.000000	0.011380
1642.000000	0.011330
1641.000000	0.011271
1640.000000	0.011230
1639.000000	0.011211
1638.000000	0.011198
1637.000000	0.011167
1636.000000	0.011104
1635.000000	0.011006
1634.000000	0.010884
1633.000000	0.010755
1632.000000	0.010638
1631.000000	0.010537
1630.000000	0.010442
1629.000000	0.010339
1628.000000	0.010230
1627.000000	0.010118
1626.000000	0.009999
1625.000000	0.009869
1624.000000	0.009723
1623.000000	0.009563
1622.000000	0.009411
1621.000000	0.009291
1620.000000	0.009195
1619.000000	0.009096
1618.000000	0.008967
1617.000000	0.008821
1616.000000	0.008707
1615.000000	0.008642
1614.000000	0.008587
1613.000000	0.008524
1612.000000	0.008452
1611.000000	0.008369
1610.000000	0.008269
1609.000000	0.008161
1608.000000	0.008068
1607.000000	0.007996
1606.000000	0.007939
1605.000000	0.007891
1604.000000	0.007843
1603.000000	0.007785
1602.000000	0.007722
1601.000000	0.007678
1600.000000	0.007668
1599.000000	0.007675
1598.000000	0.007676
1597.000000	0.007665
1596.000000	0.007650
1595.000000	0.007634
1594.000000	0.007617
1593.000000	0.007603
1592.000000	0.007594
1591.000000	0.007584
1590.000000	0.007565
1589.000000	0.007551
1588.000000	0.007560
1587.000000	0.007589
1586.000000	0.007618
1585.000000	0.007636
1584.000000	0.007646
1583.000000	0.007651
1582.000000	0.007659
1581.000000	0.007681
1580.000000	0.007721
1579.000000	0.007761
1578.000000	0.007792
1577.000000	0.007817
1576.000000	0.007848
1575.000000	0.007877
1574.000000	0.007898
1573.000000	0.007917
1572.000000	0.007938
1571.000000	0.007956
1570.000000	0.007965
1569.000000	0.007982
1568.000000	0.008024
1567.000000	0.008072
1566.000000	0.008116
1565.000000	0.008162
1564.000000	0.008203
1563.000000	0.008236
1562.000000	0.008267
1561.000000	0.008341
1560.000000	0.008459
1559.000000	0.008540
1558.000000	0.008584
1557.000000	0.008620
1556.000000	0.008645
1555.000000	0.008669
1554.000000	0.008716
1553.000000	0.008788
1552.000000	0.008857
1551.000000	0.008915
1550.000000	0.008999
1549.000000	0.009135
1548.000000	0.009288
1547.000000	0.009402
1546.000000	0.009471
1545.000000	0.009546
1544.000000	0.009674
1543.000000	0.009856
1542.000000	0.010057
1541.000000	0.010223
1540.000000	0.010326
1539.000000	0.010380
1538.000000	0.010420
1537.000000	0.010473
1536.000000	0.010543
1535.000000	0.010616
1534.000000	0.010687
1533.000000	0.010767
1532.000000	0.010861
1531.000000	0.010954
1530.000000	0.011031
1529.000000	0.011088
1528.000000	0.011133
1527.000000	0.011189
1526.000000	0.011284
1525.000000	0.011418
1524.000000	0.011554
1523.000000	0.011651
1522.000000	0.011704
1521.000000	0.011763
1520.000000	0.011868
1519.000000	0.011986
1518.000000	0.012070
1517.000000	0.012123
1516.000000	0.012190
1515.000000	0.012291
1514.000000	0.012399
1513.000000	0.012493
1512.000000	0.012567
1511.000000	0.012638
1510.000000	0.012721
1509.000000	0.012822
1508.000000	0.012928
1507.000000	0.013058
1506.000000	0.013263
1505.000000	0.013500
1504.000000	0.013699
1503.000000	0.013865
1502.000000	0.014020
1501.000000	0.014178
1500.000000	0.014327
1499.000000	0.014446
1498.000000	0.014554
1497.000000	0.014683
1496.000000	0.014844
1495.000000	0.015026
1494.000000	0.015215
1493.000000	0.015393
1492.000000	0.015537
1491.000000	0.015646
1490.000000	0.015761
1489.000000	0.015926
1488.000000	0.016128
1487.000000	0.016331
1486.000000	0.016517
1485.000000	0.016691
1484.000000	0.016861
1483.000000	0.017020
1482.000000	0.017179
1481.000000	0.017356
1480.000000	0.017548
1479.000000	0.017724
1478.000000	0.017868
1477.000000	0.017990
1476.000000	0.018115
1475.000000	0.018256
1474.000000	0.018405
1473.000000	0.018553
1472.000000	0.018702
1471.000000	0.018867
1470.000000	0.019046
1469.000000	0.019226
1468.000000	0.019394
1467.000000	0.019547
1466.000000	0.019694
1465.000000	0.019846
1464.000000	0.020002
1463.000000	0.020154
1462.000000	0.020303
1461.000000	0.020446
1460.000000	0.020563
1459.000000	0.020625
1458.000000	0.020640
1457.000000	0.020687
1456.000000	0.020843
1455.000000	0.021076
1454.000000	0.021323
1453.000000	0.021549
1452.000000	0.021739
1451.000000	0.021898
1450.000000	0.022038
1449.000000	0.022162
1448.000000	0.022272
1447.000000	0.022384
1446.000000	0.022519
1445.000000	0.022672
1444.000000	0.022818
1443.000000	0.022947
1442.000000	0.023076
1441.000000	0.023219
1440.000000	0.023353
1439.000000	0.023444
1438.000000	0.023483
1437.000000	0.023490
1436.000000	0.023510
1435.000000	0.023587
1434.000000	0.023718
1433.000000	0.023866
1432.000000	0.023997
1431.000000	0.024096
1430.000000	0.024185
1429.000000	0.024294
1428.000000	0.024420
1427.000000	0.024538
1426.000000	0.024634
1425.000000	0.024720
1424.000000	0.024810
1423.000000	0.024915
1422.000000	0.025034
1421.000000	0.025143
1420.000000	0.025202
1419.000000	0.025219
1418.000000	0.025281
1417.000000	0.025434
1416.000000	0.025621
1415.000000	0.025801
1414.000000	0.025977
1413.000000	0.026158
1412.000000	0.026324
1411.000000	0.026460
1410.000000	0.026601
1409.000000	0.026778
1408.000000	0.026968
1407.000000	0.027132
1406.000000	0.027267
1405.000000	0.027407
1404.000000	0.027560
1403.000000	0.027707
1402.000000	0.027831
1401.000000	0.027924
1400.000000	0.027969
1399.000000	0.027982
1398.000000	0.028021
1397.000000	0.028120
1396.000000	0.028246
1395.000000	0.028367
1394.000000	0.028508
1393.000000	0.028707
1392.000000	0.028932
1391.000000	0.029123
1390.000000	0.029255
1389.000000	0.029329
1388.000000	0.029349
1387.000000	0.029337
1386.000000	0.029355
1385.000000	0.029429
1384.000000	0.029517
1383.000000	0.029569
1382.000000	0.029587
1381.000000	0.029602
1380.000000	0.029619
1379.000000	0.029626
1378.000000	0.029626
1377.000000	0.029631
1376.000000	0.029622
1375.000000	0.029578
1374.000000	0.029524
1373.000000	0.029509
1372.000000	0.029533
1371.000000	0.029548
1370.000000	0.029533
1369.000000	0.029513
1368.000000	0.029505
1367.000000	0.029492
1366.000000	0.029446
1365.000000	0.029357
1364.000000	0.029230
1363.000000	0.029098
1362.000000	0.029013
1361.000000	0.029002
1360.000000	0.029032
1359.000000	0.029055
1358.000000	0.029052
1357.000000	0.029024
1356.000000	0.028970
1355.000000	0.028891
1354.000000	0.028819
1353.000000	0.028781
1352.000000	0.028766
1351.000000	0.028734
1350.000000	0.028669
1349.000000	0.028594
1348.000000	0.028531
1347.000000	0.028479
1346.000000	0.028429
1345.000000	0.028381
1344.000000	0.028334
1343.000000	0.028270
1342.000000	0.028168
1341.000000	0.028019
1340.000000	0.027843
1339.000000	0.027690
1338.000000	0.027614
1337.000000	0.027623
1336.000000	0.027662
1335.000000	0.027665
1334.000000	0.027608
1333.000000	0.027514
1332.000000	0.027411
1331.000000	0.027312
1330.000000	0.027220
1329.000000	0.027133
1328.000000	0.027048
1327.000000	0.026964
1326.000000	0.026885
1325.000000	0.026814
1324.000000	0.026743
1323.000000	0.026660
1322.000000	0.026570
1321.000000	0.026481
1320.000000	0.026388
1319.000000	0.026288
1318.000000	0.026191
1317.000000	0.026115
1316.000000	0.026054
1315.000000	0.025983
1314.000000	0.025893
1313.000000	0.025798
1312.000000	0.025711
1311.000000	0.025636
1310.000000	0.025572
1309.000000	0.025517
1308.000000	0.025459
1307.000000	0.025391
1306.000000	0.025317
1305.000000	0.025247
1304.000000	0.025175
1303.000000	0.025093
1302.000000	0.025004
1301.000000	0.024918
1300.000000	0.024830
1299.000000	0.024721
1298.000000	0.024593
1297.000000	0.024460
1296.000000	0.024336
1295.000000	0.024229
1294.000000	0.024148
1293.000000	0.024095
1292.000000	0.024049
1291.000000	0.023979
1290.000000	0.023878
1289.000000	0.023766
1288.000000	0.023661
1287.000000	0.023570
1286.000000	0.023485
1285.000000	0.023401
1284.000000	0.023306
1283.000000	0.023199
1282.000000	0.023090
1281.000000	0.022995
1280.000000	0.022920
1279.000000	0.022853
1278.000000	0.022788
1277.000000	0.022720
1276.000000	0.022648
1275.000000	0.022568
1274.000000	0.022481
1273.000000	0.022386
1272.000000	0.022284
1271.000000	0.022181
1270.000000	0.022101
1269.000000	0.022054
1268.000000	0.022023
1267.000000	0.021976
1266.000000	0.021901
1265.000000	0.021811
1264.000000	0.021717
1263.000000	0.021620
1262.000000	0.021519
1261.000000	0.021426
1260.000000	0.021352
1259.000000	0.021304
1258.000000	0.021278
1257.000000	0.021265
1256.000000	0.021250
1255.000000	0.021219
1254.000000	0.021168
1253.000000	0.021101
1252.000000	0.021023
1251.000000	0.020943
1250.000000	0.020872
1249.000000	0.020824
1248.000000	0.020796
1247.000000	0.020772
1246.000000	0.020742
1245.000000	0.020707
1244.000000	0.020678
1243.000000	0.020655
1242.000000	0.020630
1241.000000	0.020596
1240.000000	0.020553
1239.000000	0.020512
1238.000000	0.020472
1237.000000	0.020420
1236.000000	0.020345
1235.000000	0.020262
1234.000000	0.020198
1233.000000	0.020162
1232.000000	0.020143
1231.000000	0.020124
1230.000000	0.020097
1229.000000	0.020058
1228.000000	0.020000
1227.000000	0.019921
1226.000000	0.019831
1225.000000	0.019743
1224.000000	0.019662
1223.000000	0.019587
1222.000000	0.019519
1221.000000	0.019455
1220.000000	0.019383
1219.000000	0.019299
1218.000000	0.019214
1217.000000	0.019136
1216.000000	0.019052
1215.000000	0.018950
1214.000000	0.018836
1213.000000	0.018728
1212.000000	0.018640
1211.000000	0.018571
1210.000000	0.018519
1209.000000	0.018476
1208.000000	0.018432
1207.000000	0.018372
1206.000000	0.018290
1205.000000	0.018193
1204.000000	0.018095
1203.000000	0.018010
1202.000000	0.017943
1201.000000	0.017885
1200.000000	0.017823
1199.000000	0.017752
1198.000000	0.017681
1197.000000	0.017613
1196.000000	0.017542
1195.000000	0.017463
1194.000000	0.017386
1193.000000	0.017323
1192.000000	0.017269
1191.000000	0.017212
1190.000000	0.017142
1189.000000	0.017060
1188.000000	0.016977
1187.000000	0.016912
1186.000000	0.016872
1185.000000	0.016845
1184.000000	0.016812
1183.000000	0.016772
1182.000000	0.016739
1181.000000	0.016716
1180.000000	0.016691
1179.000000	0.016656
1178.000000	0.016619
1177.000000	0.016588
1176.000000	0.016559
1175.000000	0.016524
1174.000000	0.016487
1173.000000	0.016451
1172.000000	0.016414
1171.000000	0.016379
1170.000000	0.016362
1169.000000	0.016362
1168.000000	0.016358
1167.000000	0.016333
1166.000000	0.016297
1165.000000	0.016276
1164.000000	0.016273
1163.000000	0.016276
1162.000000	0.016279
1161.000000	0.016283
1160.000000	0.016289
1159.000000	0.016284
1158.000000	0.016265
1157.000000	0.016238
1156.000000	0.016209
1155.000000	0.016180
1154.000000	0.016153
1153.000000	0.016130
1152.000000	0.016103
1151.000000	0.016059
1150.000000	0.016002
1149.000000	0.015945
1148.000000	0.015900
1147.000000	0.015865
1146.000000	0.015831
1145.000000	0.015795
1144.000000	0.015758
1143.000000	0.015714
1142.000000	0.015659
1141.000000	0.015596
1140.000000	0.015534
1139.000000	0.015487
1138.000000	0.015454
1137.000000	0.015430
1136.000000	0.015409
1135.000000	0.015394
1134.000000	0.015385
1133.000000	0.015371
1132.000000	0.015344
1131.000000	0.015318
1130.000000	0.015312
1129.000000	0.015323
1128.000000	0.015327
1127.000000	0.015306
1126.000000	0.015268
1125.000000	0.015232
1124.000000	0.015207
1123.000000	0.015196
1122.000000	0.015193
1121.000000	0.015185
1120.000000	0.015161
1119.000000	0.015124
1118.000000	0.015089
1117.000000	0.015063
1116.000000	0.015045
1115.000000	0.015035
1114.000000	0.015040
1113.000000	0.015054
1112.000000	0.015056
1111.000000	0.015035
1110.000000	0.015010
1109.000000	0.015015
1108.000000	0.015052
1107.000000	0.015091
1106.000000	0.015104
1105.000000	0.015089
1104.000000	0.015071
1103.000000	0.015076
1102.000000	0.015112
1101.000000	0.015156
1100.000000	0.015171
1099.000000	0.015148
1098.000000	0.015110
1097.000000	0.015096
1096.000000	0.015128
1095.000000	0.015200
1094.000000	0.015286
1093.000000	0.015354
1092.000000	0.015392
1091.000000	0.015424
1090.000000	0.015485
1089.000000	0.015581
1088.000000	0.015675
1087.000000	0.015736
1086.000000	0.015772
1085.000000	0.015818
1084.000000	0.015897
1083.000000	0.015994
1082.000000	0.016077
1081.000000	0.016123
1080.000000	0.016138
1079.000000	0.016152
1078.000000	0.016186
1077.000000	0.016229
1076.000000	0.016248
1075.000000	0.016234
1074.000000	0.016216
1073.000000	0.016221
1072.000000	0.016242
1071.000000	0.016262
1070.000000	0.016282
1069.000000	0.016315
1068.000000	0.016356
1067.000000	0.016384
1066.000000	0.016384
1065.000000	0.016356
1064.000000	0.016312
1063.000000	0.016279
1062.000000	0.016285
1061.000000	0.016331
1060.000000	0.016387
1059.000000	0.016424
1058.000000	0.016444
1057.000000	0.016465
1056.000000	0.016487
1055.000000	0.016500
1054.000000	0.016508
1053.000000	0.016526
1052.000000	0.016562
1051.000000	0.016610
1050.000000	0.016653
1049.000000	0.016672
1048.000000	0.016662
1047.000000	0.016645
1046.000000	0.016661
1045.000000	0.016733
1044.000000	0.016831
1043.000000	0.016905
1042.000000	0.016928
1041.000000	0.016916
1040.000000	0.016895
1039.000000	0.016877
1038.000000	0.016870
1037.000000	0.016874
1036.000000	0.016880
1035.000000	0.016875
1034.000000	0.016858
1033.000000	0.016838
1032.000000	0.016820
1031.000000	0.016803
1030.000000	0.016787
1029.000000	0.016771
1028.000000	0.016739
1027.000000	0.016680
1026.000000	0.016609
1025.000000	0.016562
1024.000000	0.016560
1023.000000	0.016575
1022.000000	0.016560
1021.000000	0.016487
1020.000000	0.016370
1019.000000	0.016245
1018.000000	0.016144
1017.000000	0.016079
1016.000000	0.016045
1015.000000	0.016026
1014.000000	0.016005
1013.000000	0.015970
1012.000000	0.015919
1011.000000	0.015859
1010.000000	0.015797
1009.000000	0.015735
1008.000000	0.015664
1007.000000	0.015579
1006.000000	0.015480
1005.000000	0.015380
1004.000000	0.015291
1003.000000	0.015219
1002.000000	0.015151
1001.000000	0.015068
1000.000000	0.014964
999.000000	0.014850
998.000000	0.014745
997.000000	0.014656
996.000000	0.014575
995.000000	0.014494
994.000000	0.014396
993.000000	0.014268
992.000000	0.014116
991.000000	0.013973
990.000000	0.013863
989.000000	0.013766
988.000000	0.013642
987.000000	0.013488
986.000000	0.013344
985.000000	0.013236
984.000000	0.013144
983.000000	0.013039
982.000000	0.012927
981.000000	0.012839
980.000000	0.012780
979.000000	0.012727
978.000000	0.012658
977.000000	0.012569
976.000000	0.012468
975.000000	0.012361
974.000000	0.012251
973.000000	0.012135
972.000000	0.012017
971.000000	0.011904
970.000000	0.011804
969.000000	0.011717
968.000000	0.011634
967.000000	0.011547
966.000000	0.011456
965.000000	0.011358
964.000000	0.011253
963.000000	0.011145
962.000000	0.011051
961.000000	0.010984
960.000000	0.010934
959.000000	0.010875
958.000000	0.010787
957.000000	0.010672
956.000000	0.010555
955.000000	0.010459
954.000000	0.010394
953.000000	0.010347
952.000000	0.010299
951.000000	0.010238
950.000000	0.010157
949.000000	0.010060
948.000000	0.009960
947.000000	0.009884
946.000000	0.009839
945.000000	0.009801
944.000000	0.009740
943.000000	0.009660
942.000000	0.009592
941.000000	0.009548
940.000000	0.009508
939.000000	0.009454
938.000000	0.009390
937.000000	0.009334
936.000000	0.009290
935.000000	0.009248
934.000000	0.009196
933.000000	0.009135
932.000000	0.009076
931.000000	0.009030
930.000000	0.008992
929.000000	0.008942
928.000000	0.008860
927.000000	0.008753
926.000000	0.008646
925.000000	0.008560
924.000000	0.008498
923.000000	0.008455
922.000000	0.008424
921.000000	0.008388
920.000000	0.008332
919.000000	0.008265
918.000000	0.008200
917.000000	0.008131
916.000000	0.008035
915.000000	0.007911
914.000000	0.007786
913.000000	0.007677
912.000000	0.007574
911.000000	0.007469
910.000000	0.007374
909.000000	0.007288
908.000000	0.007180
907.000000	0.007029
906.000000	0.006862
905.000000	0.006721
904.000000	0.006615
903.000000	0.006525
902.000000	0.006435
901.000000	0.006344
900.000000	0.006255
899.000000	0.006162
898.000000	0.006059
897.000000	0.005946
896.000000	0.005825
895.000000	0.005708
894.000000	0.005609
893.000000	0.005529
892.000000	0.005445
891.000000	0.005340
890.000000	0.005236
889.000000	0.005220
888.000000	0.005437
887.000000	0.006046
886.000000	0.007138
885.000000	0.008653
884.000000	0.010399
883.000000	0.012174
882.000000	0.013900
881.000000	0.015631
880.000000	0.017455
879.000000	0.019393
878.000000	0.021382
877.000000	0.023327
876.000000	0.025160
875.000000	0.026881
874.000000	0.028527
873.000000	0.030078
872.000000	0.031392
871.000000	0.032252
870.000000	0.032508
869.000000	0.032143
868.000000	0.031262
867.000000	0.030031
866.000000	0.028628
865.000000	0.027200
864.000000	0.025831
863.000000	0.024549
862.000000	0.023346
861.000000	0.022200
860.000000	0.021101
859.000000	0.020079
858.000000	0.019184
857.000000	0.018425
856.000000	0.017748
855.000000	0.017094
854.000000	0.016449
853.000000	0.015844
852.000000	0.015327
851.000000	0.014977
850.000000	0.014882
849.000000	0.015032
848.000000	0.015235
847.000000	0.015226
846.000000	0.014891
845.000000	0.014348
844.000000	0.013796
843.000000	0.013337
842.000000	0.012962
841.000000	0.012642
840.000000	0.012375
839.000000	0.012159
838.000000	0.011959
837.000000	0.011740
836.000000	0.011493
835.000000	0.011244
834.000000	0.011040
833.000000	0.010918
832.000000	0.010877
831.000000	0.010870
830.000000	0.010836
829.000000	0.010737
828.000000	0.010569
827.000000	0.010357
826.000000	0.010145
825.000000	0.009968
824.000000	0.009833
823.000000	0.009718
822.000000	0.009618
821.000000	0.009556
820.000000	0.009533
819.000000	0.009502
818.000000	0.009407
817.000000	0.009256
816.000000	0.009114
815.000000	0.009037
814.000000	0.009008
813.000000	0.008972
812.000000	0.008892
811.000000	0.008785
810.000000	0.008699
809.000000	0.008669
808.000000	0.008688
807.000000	0.008714
806.000000	0.008706
805.000000	0.008662
804.000000	0.008606
803.000000	0.008548
802.000000	0.008475
801.000000	0.008374
800.000000	0.008271
799.000000	0.008208
798.000000	0.008200
797.000000	0.008217
796.000000	0.008217
795.000000	0.008191
794.000000	0.008157
793.000000	0.008132
792.000000	0.008114
791.000000	0.008096
790.000000	0.008087
789.000000	0.008100
788.000000	0.008127
787.000000	0.008134
786.000000	0.008091
785.000000	0.008007
784.000000	0.007924
783.000000	0.007878
782.000000	0.007868
781.000000	0.007856
780.000000	0.007811
779.000000	0.007735
778.000000	0.007665
777.000000	0.007629
776.000000	0.007619
775.000000	0.007597
774.000000	0.007538
773.000000	0.007457
772.000000	0.007384
771.000000	0.007333
770.000000	0.007299
769.000000	0.007275
768.000000	0.007254
767.000000	0.007221
766.000000	0.007167
765.000000	0.007105
764.000000	0.007061
763.000000	0.007046
762.000000	0.007039
761.000000	0.007023
760.000000	0.006996
759.000000	0.006953
758.000000	0.006877
757.000000	0.006775
756.000000	0.006685
755.000000	0.006645
754.000000	0.006645
753.000000	0.006645
752.000000	0.006634
751.000000	0.006633
750.000000	0.006654
749.000000	0.006684
748.000000	0.006696
747.000000	0.006678
746.000000	0.006629
745.000000	0.006565
744.000000	0.006520
743.000000	0.006516
742.000000	0.006529
741.000000	0.006511
740.000000	0.006454
739.000000	0.006397
738.000000	0.006370
737.000000	0.006351
736.000000	0.006300
735.000000	0.006214
734.000000	0.006125
733.000000	0.006065
732.000000	0.006044
731.000000	0.006047
730.000000	0.006033
729.000000	0.005969
728.000000	0.005867
727.000000	0.005770
726.000000	0.005700
725.000000	0.005641
724.000000	0.005571
723.000000	0.005502
722.000000	0.005470
721.000000	0.005504
720.000000	0.005624
719.000000	0.005875
718.000000	0.006357
717.000000	0.007265
716.000000	0.008861
715.000000	0.011295
714.000000	0.014325
713.000000	0.017219
712.000000	0.019078
711.000000	0.019401
710.000000	0.018378
709.000000	0.016664
708.000000	0.014919
707.000000	0.013497
706.000000	0.012457
705.000000	0.011717
704.000000	0.011179
703.000000	0.010771
702.000000	0.010445
701.000000	0.010168
700.000000	0.009927
699.000000	0.009711
698.000000	0.009517
697.000000	0.009355
696.000000	0.009236
695.000000	0.009147
694.000000	0.009050
693.000000	0.008918
692.000000	0.008782
691.000000	0.008693
690.000000	0.008643
689.000000	0.008574
688.000000	0.008453
687.000000	0.008310
686.000000	0.008176
685.000000	0.008045
684.000000	0.007928
683.000000	0.007857
682.000000	0.007822
681.000000	0.007778
680.000000	0.007733
679.000000	0.007748
678.000000	0.007808
677.000000	0.007828
676.000000	0.007772
675.000000	0.007688
674.000000	0.007621
673.000000	0.007552
672.000000	0.007431
671.000000	0.007217
670.000000	0.006893
669.000000	0.006504
668.000000	0.006360
667.000000	0.006715
666.000000	0.007152
665.000000	0.007481
664.000000	0.007717
663.000000	0.007818
662.000000	0.007810
661.000000	0.007777
660.000000	0.007767
659.000000	0.007743
658.000000	0.007666
657.000000	0.007580
656.000000	0.007550
655.000000	0.007559
654.000000	0.007562
653.000000	0.007546
652.000000	0.007479
651.000000	0.007326
650.000000	0.007138
649.000000	0.007052
648.000000	0.007129
647.000000	0.007284
646.000000	0.007415
645.000000	0.007497
644.000000	0.007540
643.000000	0.007536
642.000000	0.007497
641.000000	0.007461
640.000000	0.007441
639.000000	0.007411
638.000000	0.007365
637.000000	0.007346
636.000000	0.007370
635.000000	0.007403
634.000000	0.007422
633.000000	0.007437
632.000000	0.007444
631.000000	0.007413
630.000000	0.007353
629.000000	0.007316
628.000000	0.007325
627.000000	0.007345
626.000000	0.007349
625.000000	0.007344
624.000000	0.007327
623.000000	0.007281
622.000000	0.007239
621.000000	0.007261
620.000000	0.007352
619.000000	0.007446
618.000000	0.007489
617.000000	0.007502
616.000000	0.007525
615.000000	0.007565
614.000000	0.007626
613.000000	0.007728
612.000000	0.007851
611.000000	0.007917
610.000000	0.007863
609.000000	0.007722
608.000000	0.007597
607.000000	0.007557
606.000000	0.007592
605.000000	0.007635
604.000000	0.007624
603.000000	0.007566
602.000000	0.007531
601.000000	0.007569
600.000000	0.007672
599.000000	0.007806
598.000000	0.007948
597.000000	0.008071
596.000000	0.008118
595.000000	0.008052
594.000000	0.007929
593.000000	0.007844
592.000000	0.007831
591.000000	0.007861
590.000000	0.007924
589.000000	0.008028
588.000000	0.008121
587.000000	0.008104
586.000000	0.007959
585.000000	0.007800
584.000000	0.007748
583.000000	0.007817
582.000000	0.007927
581.000000	0.007991
580.000000	0.007960
579.000000	0.007858
578.000000	0.007787
577.000000	0.007839
576.000000	0.007984
575.000000	0.008103
574.000000	0.008142
573.000000	0.008158
572.000000	0.008180
571.000000	0.008138
570.000000	0.007989
569.000000	0.007834
568.000000	0.007805
567.000000	0.007901
566.000000	0.008007
565.000000	0.008031
564.000000	0.007973
563.000000	0.007898
562.000000	0.007899
561.000000	0.008034
560.000000	0.008245
559.000000	0.008372
558.000000	0.008314
557.000000	0.008141
556.000000	0.008009
555.000000	0.007989
554.000000	0.008040
553.000000	0.008077
552.000000	0.008041
551.000000	0.007918
550.000000	0.007762
549.000000	0.007665
548.000000	0.007667
547.000000	0.007723
546.000000	0.007785
545.000000	0.007869
544.000000	0.007988
543.000000	0.008080
542.000000	0.008084
541.000000	0.008045
540.000000	0.008061
539.000000	0.008151
538.000000	0.008255
537.000000	0.008339
536.000000	0.008435
535.000000	0.008546
534.000000	0.008612
533.000000	0.008575
532.000000	0.008464
531.000000	0.008359
530.000000	0.008316
529.000000	0.008333
528.000000	0.008378
527.000000	0.008414
526.000000	0.008411
525.000000	0.008382
524.000000	0.008370
523.000000	0.008403
522.000000	0.008458
521.000000	0.008482
520.000000	0.008416
519.000000	0.008245
518.000000	0.008027
517.000000	0.007871
516.000000	0.007857
515.000000	0.007975
514.000000	0.008128
513.000000	0.008198
512.000000	0.008131
511.000000	0.007980
510.000000	0.007844
509.000000	0.007761
508.000000	0.007700
507.000000	0.007654
506.000000	0.007661
505.000000	0.007733
504.000000	0.007790
503.000000	0.007746
502.000000	0.007609
501.000000	0.007450
500.000000	0.007295
499.000000	0.007120
498.000000	0.006959
497.000000	0.006903
496.000000	0.006973
495.000000	0.007063
494.000000	0.007063
493.000000	0.007000
492.000000	0.007012
491.000000	0.007173
490.000000	0.007382
489.000000	0.007446
488.000000	0.007280
487.000000	0.007004
486.000000	0.006839
485.000000	0.006877
484.000000	0.007004
483.000000	0.007081
482.000000	0.007130
481.000000	0.007255
480.000000	0.007434
479.000000	0.007534
478.000000	0.007530
477.000000	0.007571
476.000000	0.007785
475.000000	0.008143
474.000000	0.008560
473.000000	0.009000
472.000000	0.009394
471.000000	0.009571
470.000000	0.009431
469.000000	0.009045
468.000000	0.008544
467.000000	0.008029
466.000000	0.007596
465.000000	0.007328
464.000000	0.007243
463.000000	0.007314
462.000000	0.007543
461.000000	0.007905
460.000000	0.008202
459.000000	0.008097
458.000000	0.007462
457.000000	0.006664
456.000000	0.006156
455.000000	0.005939
454.000000	0.005803
453.000000	0.005719
452.000000	0.005791
451.000000	0.005880
450.000000	0.005670
