PE UV       SUBTECH     SPECTRUM    ASCII       PEDS        4.00        
   -1
TDAgneauUK 62.Sample.asc
18/03/01
12:25:15.00
18/03/01
12:25:15.00
Administrator

200.000000
1
Lambda 750
750N8071901
PerkinElmer UV WinLab 6.0.4.0738 / 1.61.00 Lambda 900

0
0
3350/servo 860.8/2
0
0
UV/VIS
1
1
1
CommonBeamDepol,150mm sphere / downward view
0
0
0
0
Program
Program
3350/servo 860.8/2
3350/0.2 860.8/0.2
3350/0.2 860.8/0.2
0
1
 
 
 
0
 
860.8
319.2
860.8
Front
100
on
 
 
0
0
0
 
0
 
 
 
0
 
 
0
0
0
0
0
 
 
 
 
0
0


0
0
#HDR
-1
-1
#GR
nm
%T
1.0
0.0
2350.000000
-1.000000
2151
8
29.337511
0.044158
#DATA
2350.000000	8.940239
2349.000000	9.627696
2348.000000	9.483940
2347.000000	10.124496
2346.000000	9.501220
2345.000000	9.288757
2344.000000	9.400087
2343.000000	9.157923
2342.000000	8.992190
2341.000000	9.541755
2340.000000	9.682162
2339.000000	9.704003
2338.000000	10.021683
2337.000000	9.693876
2336.000000	10.026092
2335.000000	10.061386
2334.000000	9.705570
2333.000000	9.812389
2332.000000	9.891685
2331.000000	9.931857
2330.000000	10.081512
2329.000000	9.836745
2328.000000	9.930042
2327.000000	9.795313
2326.000000	9.681812
2325.000000	9.813546
2324.000000	9.672015
2323.000000	9.659464
2322.000000	9.518764
2321.000000	9.501523
2320.000000	9.530385
2319.000000	9.331197
2318.000000	9.675246
2317.000000	9.450412
2316.000000	9.458827
2315.000000	9.134756
2314.000000	9.404365
2313.000000	9.624763
2312.000000	9.556088
2311.000000	9.307262
2310.000000	9.147271
2309.000000	9.102620
2308.000000	9.220788
2307.000000	9.086607
2306.000000	9.073595
2305.000000	8.936437
2304.000000	9.099369
2303.000000	9.165165
2302.000000	9.133215
2301.000000	8.985816
2300.000000	8.942694
2299.000000	8.863184
2298.000000	8.744541
2297.000000	8.586770
2296.000000	8.609494
2295.000000	8.762051
2294.000000	8.624428
2293.000000	8.592058
2292.000000	8.466083
2291.000000	8.337524
2290.000000	8.420561
2289.000000	8.409055
2288.000000	8.477386
2287.000000	8.517208
2286.000000	8.413023
2285.000000	8.336145
2284.000000	8.444551
2283.000000	8.234450
2282.000000	8.238596
2281.000000	8.162929
2280.000000	8.183584
2279.000000	8.220770
2278.000000	8.361393
2277.000000	8.449944
2276.000000	8.513284
2275.000000	8.540403
2274.000000	8.393556
2273.000000	8.427936
2272.000000	8.563433
2271.000000	8.626947
2270.000000	8.557729
2269.000000	8.497693
2268.000000	8.537744
2267.000000	8.584073
2266.000000	8.525962
2265.000000	8.577609
2264.000000	8.759899
2263.000000	8.911539
2262.000000	8.931501
2261.000000	9.011197
2260.000000	9.164145
2259.000000	9.229730
2258.000000	9.323105
2257.000000	9.459472
2256.000000	9.590529
2255.000000	9.617829
2254.000000	9.599454
2253.000000	9.748776
2252.000000	9.824006
2251.000000	10.046292
2250.000000	10.214478
2249.000000	10.195050
2248.000000	10.309060
2247.000000	10.452885
2246.000000	10.582193
2245.000000	10.753622
2244.000000	10.818572
2243.000000	10.920809
2242.000000	11.105742
2241.000000	11.102664
2240.000000	11.191057
2239.000000	11.276168
2238.000000	11.235410
2237.000000	11.366379
2236.000000	11.424853
2235.000000	11.506442
2234.000000	11.665814
2233.000000	11.653392
2232.000000	11.701773
2231.000000	11.735782
2230.000000	11.638570
2229.000000	11.735504
2228.000000	11.834962
2227.000000	11.746773
2226.000000	11.753562
2225.000000	11.694484
2224.000000	11.792459
2223.000000	11.797118
2222.000000	11.752616
2221.000000	11.679927
2220.000000	11.735323
2219.000000	11.581396
2218.000000	11.600448
2217.000000	11.631310
2216.000000	11.511605
2215.000000	11.412841
2214.000000	11.508304
2213.000000	11.665877
2212.000000	11.586510
2211.000000	11.460225
2210.000000	11.400923
2209.000000	11.335843
2208.000000	11.204946
2207.000000	11.219912
2206.000000	11.287915
2205.000000	11.232562
2204.000000	11.155509
2203.000000	11.147553
2202.000000	11.174128
2201.000000	11.105099
2200.000000	11.038523
2199.000000	11.012826
2198.000000	10.981004
2197.000000	10.751038
2196.000000	10.784094
2195.000000	10.740041
2194.000000	10.773798
2193.000000	10.626868
2192.000000	10.511787
2191.000000	10.502676
2190.000000	10.428376
2189.000000	10.509845
2188.000000	10.481951
2187.000000	10.603546
2186.000000	10.466658
2185.000000	10.371860
2184.000000	10.389826
2183.000000	10.304075
2182.000000	10.356508
2181.000000	10.314567
2180.000000	10.354859
2179.000000	10.107369
2178.000000	10.145572
2177.000000	10.187481
2176.000000	10.120020
2175.000000	10.247344
2174.000000	10.181750
2173.000000	10.144528
2172.000000	10.328276
2171.000000	10.371339
2170.000000	10.379261
2169.000000	10.347400
2168.000000	10.333288
2167.000000	10.442923
2166.000000	10.344459
2165.000000	10.373696
2164.000000	10.413588
2163.000000	10.537215
2162.000000	10.807793
2161.000000	10.811525
2160.000000	10.742285
2159.000000	10.896027
2158.000000	11.040343
2157.000000	10.974743
2156.000000	11.073216
2155.000000	11.316807
2154.000000	11.359164
2153.000000	11.453661
2152.000000	11.367026
2151.000000	11.372249
2150.000000	11.388189
2149.000000	11.691872
2148.000000	11.610854
2147.000000	11.763827
2146.000000	11.986238
2145.000000	12.102684
2144.000000	12.011697
2143.000000	12.039364
2142.000000	12.220651
2141.000000	12.303214
2140.000000	12.415779
2139.000000	12.297117
2138.000000	12.730900
2137.000000	12.640726
2136.000000	12.642506
2135.000000	12.713036
2134.000000	12.667060
2133.000000	12.804714
2132.000000	12.948623
2131.000000	13.009511
2130.000000	13.292712
2129.000000	13.084614
2128.000000	13.169773
2127.000000	13.166101
2126.000000	13.091497
2125.000000	13.258266
2124.000000	13.102541
2123.000000	13.058165
2122.000000	13.187781
2121.000000	13.394857
2120.000000	13.204066
2119.000000	13.328201
2118.000000	13.441407
2117.000000	13.501757
2116.000000	13.501274
2115.000000	13.526171
2114.000000	13.547931
2113.000000	13.561337
2112.000000	13.526420
2111.000000	13.528911
2110.000000	13.593683
2109.000000	13.566109
2108.000000	13.575236
2107.000000	13.484750
2106.000000	13.648756
2105.000000	13.724229
2104.000000	13.739727
2103.000000	13.632521
2102.000000	13.675284
2101.000000	13.684888
2100.000000	13.852354
2099.000000	13.695474
2098.000000	13.598872
2097.000000	13.610905
2096.000000	13.766706
2095.000000	13.733977
2094.000000	13.715598
2093.000000	13.693777
2092.000000	13.707426
2091.000000	13.738064
2090.000000	13.761247
2089.000000	13.631657
2088.000000	13.683640
2087.000000	13.688466
2086.000000	13.674328
2085.000000	13.674056
2084.000000	13.644569
2083.000000	13.535731
2082.000000	13.442078
2081.000000	13.418964
2080.000000	13.399648
2079.000000	13.505246
2078.000000	13.330116
2077.000000	13.254820
2076.000000	13.249908
2075.000000	13.208927
2074.000000	13.206182
2073.000000	13.144271
2072.000000	12.942533
2071.000000	12.929958
2070.000000	12.894824
2069.000000	12.748263
2068.000000	12.683454
2067.000000	12.613506
2066.000000	12.463945
2065.000000	12.367984
2064.000000	12.274670
2063.000000	12.195265
2062.000000	12.182905
2061.000000	12.135877
2060.000000	12.017688
2059.000000	11.870073
2058.000000	11.797250
2057.000000	11.768709
2056.000000	11.703531
2055.000000	11.578947
2054.000000	11.459149
2053.000000	11.388210
2052.000000	11.296475
2051.000000	11.207083
2050.000000	11.161407
2049.000000	11.173557
2048.000000	11.105678
2047.000000	10.991003
2046.000000	10.922783
2045.000000	10.948791
2044.000000	10.993122
2043.000000	10.976240
2042.000000	10.958207
2041.000000	10.961997
2040.000000	10.996204
2039.000000	11.014036
2038.000000	11.014592
2037.000000	11.063568
2036.000000	11.085375
2035.000000	11.152211
2034.000000	11.273138
2033.000000	11.353358
2032.000000	11.453526
2031.000000	11.492591
2030.000000	11.573099
2029.000000	11.678445
2028.000000	11.721880
2027.000000	11.764074
2026.000000	11.852497
2025.000000	11.962124
2024.000000	12.080433
2023.000000	12.129663
2022.000000	12.178835
2021.000000	12.241695
2020.000000	12.268815
2019.000000	12.336768
2018.000000	12.408286
2017.000000	12.453191
2016.000000	12.448638
2015.000000	12.448313
2014.000000	12.472634
2013.000000	12.453861
2012.000000	12.431719
2011.000000	12.481176
2010.000000	12.471053
2009.000000	12.403030
2008.000000	12.359502
2007.000000	12.399840
2006.000000	12.390088
2005.000000	12.373280
2004.000000	12.350908
2003.000000	12.295505
2002.000000	12.267811
2001.000000	12.265562
2000.000000	12.236414
1999.000000	12.172944
1998.000000	12.086864
1997.000000	12.038431
1996.000000	12.021118
1995.000000	12.003343
1994.000000	11.934505
1993.000000	11.821704
1992.000000	11.760723
1991.000000	11.738521
1990.000000	11.675123
1989.000000	11.637496
1988.000000	11.574515
1987.000000	11.523362
1986.000000	11.508598
1985.000000	11.460711
1984.000000	11.413046
1983.000000	11.367130
1982.000000	11.336764
1981.000000	11.289215
1980.000000	11.204677
1979.000000	11.178252
1978.000000	11.080754
1977.000000	11.031183
1976.000000	10.978037
1975.000000	10.960759
1974.000000	10.921952
1973.000000	10.882591
1972.000000	10.832950
1971.000000	10.761062
1970.000000	10.701263
1969.000000	10.681720
1968.000000	10.653523
1967.000000	10.588360
1966.000000	10.586195
1965.000000	10.523168
1964.000000	10.463655
1963.000000	10.407276
1962.000000	10.353066
1961.000000	10.294409
1960.000000	10.229411
1959.000000	10.167468
1958.000000	10.175975
1957.000000	10.083859
1956.000000	10.006773
1955.000000	10.005383
1954.000000	9.973508
1953.000000	9.954852
1952.000000	9.906545
1951.000000	9.924838
1950.000000	9.863408
1949.000000	9.755308
1948.000000	9.765935
1947.000000	9.790475
1946.000000	9.760370
1945.000000	9.874850
1944.000000	9.802009
1943.000000	9.807223
1942.000000	9.877198
1941.000000	9.887304
1940.000000	9.824264
1939.000000	9.927826
1938.000000	9.919991
1937.000000	9.970762
1936.000000	10.066345
1935.000000	10.164871
1934.000000	10.160642
1933.000000	10.241750
1932.000000	10.251549
1931.000000	10.321606
1930.000000	10.451591
1929.000000	10.488217
1928.000000	10.670106
1927.000000	10.798788
1926.000000	10.943606
1925.000000	11.084760
1924.000000	11.156661
1923.000000	11.269036
1922.000000	11.443713
1921.000000	11.660587
1920.000000	11.800802
1919.000000	11.964759
1918.000000	12.188271
1917.000000	12.375953
1916.000000	12.443626
1915.000000	12.633869
1914.000000	12.938099
1913.000000	13.150780
1912.000000	13.364547
1911.000000	13.584973
1910.000000	13.769504
1909.000000	13.968588
1908.000000	14.269943
1907.000000	14.508305
1906.000000	14.680496
1905.000000	15.026774
1904.000000	15.269328
1903.000000	15.564562
1902.000000	15.845142
1901.000000	16.194039
1900.000000	16.416498
1899.000000	16.675776
1898.000000	17.000493
1897.000000	17.271000
1896.000000	17.569113
1895.000000	17.838028
1894.000000	18.074774
1893.000000	18.398132
1892.000000	18.624338
1891.000000	18.909336
1890.000000	19.209786
1889.000000	19.452993
1888.000000	19.706054
1887.000000	19.962808
1886.000000	20.203062
1885.000000	20.413700
1884.000000	20.643079
1883.000000	20.866308
1882.000000	21.016696
1881.000000	21.200053
1880.000000	21.374950
1879.000000	21.546655
1878.000000	21.739020
1877.000000	21.882914
1876.000000	22.015166
1875.000000	22.151004
1874.000000	22.263882
1873.000000	22.397759
1872.000000	22.487845
1871.000000	22.598305
1870.000000	22.691093
1869.000000	22.748195
1868.000000	22.807099
1867.000000	22.869912
1866.000000	22.878224
1865.000000	22.944581
1864.000000	22.978443
1863.000000	23.058908
1862.000000	23.053977
1861.000000	23.084092
1860.000000	23.102355
1859.000000	23.143138
1858.000000	23.156098
1857.000000	23.173957
1856.000000	23.209957
1855.000000	23.229735
1854.000000	23.222732
1853.000000	23.266164
1852.000000	23.225803
1851.000000	23.201723
1850.000000	23.255229
1849.000000	23.240610
1848.000000	23.220514
1847.000000	23.222719
1846.000000	23.231863
1845.000000	23.210856
1844.000000	23.160051
1843.000000	23.146891
1842.000000	23.144666
1841.000000	23.127755
1840.000000	23.110271
1839.000000	23.095336
1838.000000	23.095686
1837.000000	23.040000
1836.000000	23.012128
1835.000000	22.974271
1834.000000	22.942272
1833.000000	22.896097
1832.000000	22.875725
1831.000000	22.854497
1830.000000	22.827882
1829.000000	22.777370
1828.000000	22.740861
1827.000000	22.737890
1826.000000	22.732351
1825.000000	22.704636
1824.000000	22.673767
1823.000000	22.645391
1822.000000	22.624567
1821.000000	22.593247
1820.000000	22.573995
1819.000000	22.558461
1818.000000	22.526446
1817.000000	22.509670
1816.000000	22.513870
1815.000000	22.479184
1814.000000	22.434329
1813.000000	22.433788
1812.000000	22.424664
1811.000000	22.394375
1810.000000	22.366812
1809.000000	22.347274
1808.000000	22.324828
1807.000000	22.300467
1806.000000	22.273667
1805.000000	22.250251
1804.000000	22.226679
1803.000000	22.215135
1802.000000	22.216974
1801.000000	22.204164
1800.000000	22.196893
1799.000000	22.165759
1798.000000	22.151856
1797.000000	22.165461
1796.000000	22.153671
1795.000000	22.146208
1794.000000	22.137830
1793.000000	22.122262
1792.000000	22.090144
1791.000000	22.075964
1790.000000	22.075307
1789.000000	22.069555
1788.000000	22.066317
1787.000000	22.033132
1786.000000	22.022724
1785.000000	22.028115
1784.000000	21.997088
1783.000000	21.940752
1782.000000	21.932648
1781.000000	21.929420
1780.000000	21.886433
1779.000000	21.862120
1778.000000	21.830099
1777.000000	21.779566
1776.000000	21.721563
1775.000000	21.689268
1774.000000	21.655553
1773.000000	21.617433
1772.000000	21.594164
1771.000000	21.556659
1770.000000	21.526471
1769.000000	21.459353
1768.000000	21.419612
1767.000000	21.399638
1766.000000	21.356249
1765.000000	21.301232
1764.000000	21.257273
1763.000000	21.212771
1762.000000	21.169213
1761.000000	21.112081
1760.000000	21.085387
1759.000000	21.038348
1758.000000	20.989210
1757.000000	20.950691
1756.000000	20.946955
1755.000000	20.912805
1754.000000	20.835856
1753.000000	20.796555
1752.000000	20.771371
1751.000000	20.726675
1750.000000	20.677293
1749.000000	20.640475
1748.000000	20.590210
1747.000000	20.542036
1746.000000	20.503195
1745.000000	20.453401
1744.000000	20.413890
1743.000000	20.383087
1742.000000	20.326894
1741.000000	20.307446
1740.000000	20.269245
1739.000000	20.215788
1738.000000	20.211990
1737.000000	20.200226
1736.000000	20.144442
1735.000000	20.143344
1734.000000	20.122637
1733.000000	20.133138
1732.000000	20.130985
1731.000000	20.135174
1730.000000	20.133706
1729.000000	20.153919
1728.000000	20.187311
1727.000000	20.204391
1726.000000	20.249597
1725.000000	20.267563
1724.000000	20.324048
1723.000000	20.368580
1722.000000	20.432379
1721.000000	20.496643
1720.000000	20.569329
1719.000000	20.643025
1718.000000	20.693062
1717.000000	20.722802
1716.000000	20.789540
1715.000000	20.865572
1714.000000	20.885046
1713.000000	20.917228
1712.000000	20.946657
1711.000000	20.986179
1710.000000	21.062182
1709.000000	21.079616
1708.000000	21.122055
1707.000000	21.162488
1706.000000	21.189255
1705.000000	21.172997
1704.000000	21.225407
1703.000000	21.198121
1702.000000	21.210125
1701.000000	21.230281
1700.000000	21.226029
1699.000000	21.229290
1698.000000	21.266316
1697.000000	21.289614
1696.000000	21.341332
1695.000000	21.376906
1694.000000	21.338037
1693.000000	21.409811
1692.000000	21.448089
1691.000000	21.477936
1690.000000	21.541394
1689.000000	21.585073
1688.000000	21.671636
1687.000000	21.729397
1686.000000	21.820260
1685.000000	21.911491
1684.000000	21.988287
1683.000000	22.087657
1682.000000	22.184141
1681.000000	22.315223
1680.000000	22.426690
1679.000000	22.532314
1678.000000	22.656078
1677.000000	22.752940
1676.000000	22.882795
1675.000000	23.026941
1674.000000	23.088097
1673.000000	23.207269
1672.000000	23.313219
1671.000000	23.404875
1670.000000	23.528026
1669.000000	23.624602
1668.000000	23.715900
1667.000000	23.826888
1666.000000	23.844388
1665.000000	23.870223
1664.000000	23.946894
1663.000000	24.013632
1662.000000	24.060344
1661.000000	24.112084
1660.000000	24.157066
1659.000000	24.194866
1658.000000	24.220956
1657.000000	24.270614
1656.000000	24.281682
1655.000000	24.315425
1654.000000	24.334956
1653.000000	24.333347
1652.000000	24.346231
1651.000000	24.345662
1650.000000	24.345897
1649.000000	24.345996
1648.000000	24.352643
1647.000000	24.342533
1646.000000	24.337407
1645.000000	24.334069
1644.000000	24.327802
1643.000000	24.293254
1642.000000	24.279409
1641.000000	24.275772
1640.000000	24.249228
1639.000000	24.228129
1638.000000	24.214621
1637.000000	24.209696
1636.000000	24.177180
1635.000000	24.138624
1634.000000	24.121853
1633.000000	24.106887
1632.000000	24.072423
1631.000000	24.061812
1630.000000	24.042070
1629.000000	24.018477
1628.000000	23.992102
1627.000000	23.965641
1626.000000	23.934165
1625.000000	23.915748
1624.000000	23.899935
1623.000000	23.869586
1622.000000	23.840962
1621.000000	23.797401
1620.000000	23.769532
1619.000000	23.743006
1618.000000	23.706438
1617.000000	23.667456
1616.000000	23.644136
1615.000000	23.618310
1614.000000	23.580413
1613.000000	23.542171
1612.000000	23.520668
1611.000000	23.481385
1610.000000	23.452194
1609.000000	23.424712
1608.000000	23.394201
1607.000000	23.362062
1606.000000	23.324694
1605.000000	23.290195
1604.000000	23.248922
1603.000000	23.211314
1602.000000	23.173534
1601.000000	23.144668
1600.000000	23.109188
1599.000000	23.062073
1598.000000	23.031513
1597.000000	23.013776
1596.000000	22.968957
1595.000000	22.931833
1594.000000	22.906626
1593.000000	22.880912
1592.000000	22.851567
1591.000000	22.813441
1590.000000	22.778109
1589.000000	22.761188
1588.000000	22.744117
1587.000000	22.714864
1586.000000	22.684566
1585.000000	22.648948
1584.000000	22.615634
1583.000000	22.599616
1582.000000	22.584022
1581.000000	22.553276
1580.000000	22.530607
1579.000000	22.509927
1578.000000	22.479975
1577.000000	22.439280
1576.000000	22.408308
1575.000000	22.382653
1574.000000	22.351093
1573.000000	22.326739
1572.000000	22.300337
1571.000000	22.285826
1570.000000	22.255178
1569.000000	22.226572
1568.000000	22.212283
1567.000000	22.190313
1566.000000	22.165053
1565.000000	22.155666
1564.000000	22.144748
1563.000000	22.124611
1562.000000	22.102052
1561.000000	22.080808
1560.000000	22.073985
1559.000000	22.055804
1558.000000	22.038306
1557.000000	22.041472
1556.000000	22.020831
1555.000000	22.006158
1554.000000	21.996501
1553.000000	21.970974
1552.000000	21.945961
1551.000000	21.934998
1550.000000	21.902874
1549.000000	21.884060
1548.000000	21.855938
1547.000000	21.813768
1546.000000	21.785358
1545.000000	21.740493
1544.000000	21.690031
1543.000000	21.637031
1542.000000	21.601522
1541.000000	21.560782
1540.000000	21.499415
1539.000000	21.445072
1538.000000	21.405595
1537.000000	21.348132
1536.000000	21.281016
1535.000000	21.227900
1534.000000	21.161835
1533.000000	21.114783
1532.000000	21.057055
1531.000000	20.986758
1530.000000	20.944678
1529.000000	20.899349
1528.000000	20.852719
1527.000000	20.796086
1526.000000	20.741025
1525.000000	20.697905
1524.000000	20.647600
1523.000000	20.617234
1522.000000	20.586604
1521.000000	20.544779
1520.000000	20.510429
1519.000000	20.476238
1518.000000	20.464391
1517.000000	20.436993
1516.000000	20.415426
1515.000000	20.385375
1514.000000	20.358032
1513.000000	20.307219
1512.000000	20.310665
1511.000000	20.307412
1510.000000	20.283439
1509.000000	20.265623
1508.000000	20.244637
1507.000000	20.228166
1506.000000	20.223512
1505.000000	20.219493
1504.000000	20.232143
1503.000000	20.217039
1502.000000	20.220528
1501.000000	20.259394
1500.000000	20.267206
1499.000000	20.264317
1498.000000	20.271970
1497.000000	20.280220
1496.000000	20.278389
1495.000000	20.286316
1494.000000	20.296146
1493.000000	20.326188
1492.000000	20.377536
1491.000000	20.406069
1490.000000	20.423747
1489.000000	20.449384
1488.000000	20.499028
1487.000000	20.558073
1486.000000	20.607123
1485.000000	20.648453
1484.000000	20.704979
1483.000000	20.757415
1482.000000	20.773785
1481.000000	20.865680
1480.000000	20.921086
1479.000000	20.966785
1478.000000	21.012968
1477.000000	21.055363
1476.000000	21.110172
1475.000000	21.172797
1474.000000	21.219780
1473.000000	21.266336
1472.000000	21.305594
1471.000000	21.355783
1470.000000	21.393884
1469.000000	21.484388
1468.000000	21.532207
1467.000000	21.558760
1466.000000	21.606383
1465.000000	21.624573
1464.000000	21.690815
1463.000000	21.732465
1462.000000	21.764934
1461.000000	21.776368
1460.000000	21.806683
1459.000000	21.879186
1458.000000	21.913260
1457.000000	21.931584
1456.000000	21.948349
1455.000000	22.018966
1454.000000	22.049414
1453.000000	22.062663
1452.000000	22.101367
1451.000000	22.154691
1450.000000	22.196283
1449.000000	22.251097
1448.000000	22.267466
1447.000000	22.302675
1446.000000	22.341683
1445.000000	22.419994
1444.000000	22.469359
1443.000000	22.509465
1442.000000	22.535297
1441.000000	22.569645
1440.000000	22.618626
1439.000000	22.662987
1438.000000	22.745165
1437.000000	22.817889
1436.000000	22.854215
1435.000000	22.892654
1434.000000	22.947526
1433.000000	22.994414
1432.000000	23.072728
1431.000000	23.115658
1430.000000	23.189281
1429.000000	23.250602
1428.000000	23.316658
1427.000000	23.383654
1426.000000	23.452919
1425.000000	23.551276
1424.000000	23.630011
1423.000000	23.720377
1422.000000	23.801303
1421.000000	23.876242
1420.000000	23.969956
1419.000000	24.046580
1418.000000	24.111741
1417.000000	24.205087
1416.000000	24.310383
1415.000000	24.404631
1414.000000	24.498381
1413.000000	24.591988
1412.000000	24.678785
1411.000000	24.759034
1410.000000	24.847827
1409.000000	24.953778
1408.000000	25.056642
1407.000000	25.148462
1406.000000	25.244788
1405.000000	25.327899
1404.000000	25.381760
1403.000000	25.459177
1402.000000	25.555261
1401.000000	25.650417
1400.000000	25.724708
1399.000000	25.800831
1398.000000	25.877383
1397.000000	25.950175
1396.000000	26.021287
1395.000000	26.097567
1394.000000	26.166434
1393.000000	26.234496
1392.000000	26.321616
1391.000000	26.411704
1390.000000	26.471180
1389.000000	26.519882
1388.000000	26.578720
1387.000000	26.641709
1386.000000	26.705413
1385.000000	26.758627
1384.000000	26.803648
1383.000000	26.871419
1382.000000	26.912706
1381.000000	26.926599
1380.000000	26.969302
1379.000000	27.016213
1378.000000	27.043751
1377.000000	27.088972
1376.000000	27.139299
1375.000000	27.164480
1374.000000	27.177711
1373.000000	27.199317
1372.000000	27.242371
1371.000000	27.280080
1370.000000	27.299873
1369.000000	27.318463
1368.000000	27.338921
1367.000000	27.358943
1366.000000	27.381641
1365.000000	27.407592
1364.000000	27.441614
1363.000000	27.461080
1362.000000	27.478153
1361.000000	27.508733
1360.000000	27.530534
1359.000000	27.569294
1358.000000	27.621557
1357.000000	27.642495
1356.000000	27.647767
1355.000000	27.663610
1354.000000	27.684497
1353.000000	27.716439
1352.000000	27.756336
1351.000000	27.793140
1350.000000	27.830478
1349.000000	27.849653
1348.000000	27.858642
1347.000000	27.870302
1346.000000	27.911781
1345.000000	27.948579
1344.000000	27.975574
1343.000000	27.997277
1342.000000	28.004530
1341.000000	28.030187
1340.000000	28.050802
1339.000000	28.070243
1338.000000	28.085654
1337.000000	28.090899
1336.000000	28.137138
1335.000000	28.182825
1334.000000	28.191672
1333.000000	28.194834
1332.000000	28.210014
1331.000000	28.209028
1330.000000	28.217554
1329.000000	28.236040
1328.000000	28.262494
1327.000000	28.274996
1326.000000	28.289649
1325.000000	28.295169
1324.000000	28.298067
1323.000000	28.294850
1322.000000	28.298398
1321.000000	28.318946
1320.000000	28.340435
1319.000000	28.352547
1318.000000	28.329154
1317.000000	28.325289
1316.000000	28.339431
1315.000000	28.368692
1314.000000	28.392041
1313.000000	28.390065
1312.000000	28.370498
1311.000000	28.370406
1310.000000	28.376193
1309.000000	28.397438
1308.000000	28.390137
1307.000000	28.380495
1306.000000	28.401610
1305.000000	28.417402
1304.000000	28.420889
1303.000000	28.411623
1302.000000	28.409728
1301.000000	28.420700
1300.000000	28.423051
1299.000000	28.420645
1298.000000	28.452904
1297.000000	28.444532
1296.000000	28.430073
1295.000000	28.425788
1294.000000	28.423809
1293.000000	28.427499
1292.000000	28.443876
1291.000000	28.422163
1290.000000	28.381148
1289.000000	28.372186
1288.000000	28.376613
1287.000000	28.378650
1286.000000	28.386385
1285.000000	28.390590
1284.000000	28.395603
1283.000000	28.383045
1282.000000	28.374925
1281.000000	28.338122
1280.000000	28.332542
1279.000000	28.339932
1278.000000	28.351495
1277.000000	28.338872
1276.000000	28.344317
1275.000000	28.342469
1274.000000	28.338675
1273.000000	28.337767
1272.000000	28.342196
1271.000000	28.342035
1270.000000	28.338473
1269.000000	28.354426
1268.000000	28.376814
1267.000000	28.394463
1266.000000	28.382725
1265.000000	28.358096
1264.000000	28.389060
1263.000000	28.372954
1262.000000	28.380238
1261.000000	28.392217
1260.000000	28.409923
1259.000000	28.406224
1258.000000	28.382505
1257.000000	28.388901
1256.000000	28.395730
1255.000000	28.398189
1254.000000	28.393492
1253.000000	28.414555
1252.000000	28.443535
1251.000000	28.430831
1250.000000	28.433197
1249.000000	28.435631
1248.000000	28.434279
1247.000000	28.418031
1246.000000	28.416672
1245.000000	28.421487
1244.000000	28.368396
1243.000000	28.369965
1242.000000	28.368416
1241.000000	28.369179
1240.000000	28.360712
1239.000000	28.332364
1238.000000	28.301310
1237.000000	28.305027
1236.000000	28.306120
1235.000000	28.259569
1234.000000	28.251649
1233.000000	28.251879
1232.000000	28.246640
1231.000000	28.210083
1230.000000	28.204140
1229.000000	28.201185
1228.000000	28.203360
1227.000000	28.197417
1226.000000	28.178672
1225.000000	28.125844
1224.000000	28.112677
1223.000000	28.109966
1222.000000	28.093609
1221.000000	28.071654
1220.000000	28.069864
1219.000000	28.062812
1218.000000	28.048070
1217.000000	28.038217
1216.000000	28.037340
1215.000000	28.046332
1214.000000	28.023429
1213.000000	27.975437
1212.000000	27.962563
1211.000000	27.957228
1210.000000	27.943500
1209.000000	27.918575
1208.000000	27.911568
1207.000000	27.899154
1206.000000	27.868729
1205.000000	27.862446
1204.000000	27.850455
1203.000000	27.821637
1202.000000	27.791850
1201.000000	27.794249
1200.000000	27.786975
1199.000000	27.750602
1198.000000	27.726629
1197.000000	27.711667
1196.000000	27.706498
1195.000000	27.704232
1194.000000	27.697781
1193.000000	27.684072
1192.000000	27.665781
1191.000000	27.648861
1190.000000	27.629195
1189.000000	27.598157
1188.000000	27.580808
1187.000000	27.589196
1186.000000	27.580472
1185.000000	27.581364
1184.000000	27.575982
1183.000000	27.579842
1182.000000	27.598767
1181.000000	27.619372
1180.000000	27.634232
1179.000000	27.665377
1178.000000	27.682817
1177.000000	27.702204
1176.000000	27.723052
1175.000000	27.749367
1174.000000	27.782740
1173.000000	27.814478
1172.000000	27.847732
1171.000000	27.870285
1170.000000	27.895804
1169.000000	27.932646
1168.000000	27.969071
1167.000000	28.002975
1166.000000	28.039283
1165.000000	28.082979
1164.000000	28.117560
1163.000000	28.124582
1162.000000	28.139555
1161.000000	28.182352
1160.000000	28.215619
1159.000000	28.252292
1158.000000	28.293960
1157.000000	28.321809
1156.000000	28.344745
1155.000000	28.388333
1154.000000	28.418771
1153.000000	28.442385
1152.000000	28.481305
1151.000000	28.510529
1150.000000	28.525719
1149.000000	28.536965
1148.000000	28.557081
1147.000000	28.586377
1146.000000	28.609949
1145.000000	28.632880
1144.000000	28.656299
1143.000000	28.679205
1142.000000	28.697309
1141.000000	28.718241
1140.000000	28.734134
1139.000000	28.749051
1138.000000	28.768529
1137.000000	28.758123
1136.000000	28.756321
1135.000000	28.779547
1134.000000	28.809880
1133.000000	28.830225
1132.000000	28.844852
1131.000000	28.858881
1130.000000	28.884301
1129.000000	28.898712
1128.000000	28.914329
1127.000000	28.913121
1126.000000	28.932385
1125.000000	28.950900
1124.000000	28.953021
1123.000000	28.949688
1122.000000	28.930222
1121.000000	28.933577
1120.000000	28.941239
1119.000000	28.944068
1118.000000	28.956931
1117.000000	28.950202
1116.000000	28.969518
1115.000000	28.976107
1114.000000	28.972488
1113.000000	28.969944
1112.000000	28.977620
1111.000000	28.990630
1110.000000	28.997081
1109.000000	28.989571
1108.000000	28.994413
1107.000000	28.997664
1106.000000	28.963325
1105.000000	28.954743
1104.000000	28.966272
1103.000000	28.977980
1102.000000	28.982617
1101.000000	28.993354
1100.000000	28.983577
1099.000000	28.981060
1098.000000	28.994802
1097.000000	28.958827
1096.000000	28.958079
1095.000000	28.979620
1094.000000	28.982244
1093.000000	28.978898
1092.000000	28.983554
1091.000000	28.984692
1090.000000	28.963330
1089.000000	28.962423
1088.000000	28.956887
1087.000000	28.955965
1086.000000	28.972425
1085.000000	28.975727
1084.000000	28.981516
1083.000000	28.960459
1082.000000	28.944850
1081.000000	28.944556
1080.000000	28.950680
1079.000000	28.957579
1078.000000	28.956433
1077.000000	28.930820
1076.000000	28.913048
1075.000000	28.920557
1074.000000	28.919884
1073.000000	28.930686
1072.000000	28.941723
1071.000000	28.918933
1070.000000	28.929561
1069.000000	28.905824
1068.000000	28.876520
1067.000000	28.904278
1066.000000	28.909940
1065.000000	28.912002
1064.000000	28.910806
1063.000000	28.917980
1062.000000	28.875787
1061.000000	28.867603
1060.000000	28.864975
1059.000000	28.878187
1058.000000	28.880815
1057.000000	28.881984
1056.000000	28.848321
1055.000000	28.851255
1054.000000	28.848664
1053.000000	28.866897
1052.000000	28.846720
1051.000000	28.827540
1050.000000	28.834304
1049.000000	28.836191
1048.000000	28.818103
1047.000000	28.799619
1046.000000	28.815074
1045.000000	28.809030
1044.000000	28.829052
1043.000000	28.839746
1042.000000	28.797028
1041.000000	28.813456
1040.000000	28.820134
1039.000000	28.818799
1038.000000	28.788945
1037.000000	28.797370
1036.000000	28.796257
1035.000000	28.798620
1034.000000	28.780947
1033.000000	28.781427
1032.000000	28.777743
1031.000000	28.792843
1030.000000	28.768180
1029.000000	28.772146
1028.000000	28.799338
1027.000000	28.799808
1026.000000	28.785026
1025.000000	28.784552
1024.000000	28.779207
1023.000000	28.761243
1022.000000	28.757446
1021.000000	28.794203
1020.000000	28.773563
1019.000000	28.781319
1018.000000	28.790624
1017.000000	28.804101
1016.000000	28.795350
1015.000000	28.796209
1014.000000	28.772910
1013.000000	28.787304
1012.000000	28.805110
1011.000000	28.818098
1010.000000	28.793246
1009.000000	28.790451
1008.000000	28.818181
1007.000000	28.825000
1006.000000	28.825785
1005.000000	28.826677
1004.000000	28.844693
1003.000000	28.863945
1002.000000	28.868899
1001.000000	28.877330
1000.000000	28.902586
999.000000	28.907870
998.000000	28.914736
997.000000	28.917625
996.000000	28.917598
995.000000	28.925218
994.000000	28.926384
993.000000	28.935563
992.000000	28.953019
991.000000	28.947310
990.000000	28.952308
989.000000	28.958019
988.000000	28.952778
987.000000	28.951706
986.000000	28.966425
985.000000	28.983694
984.000000	28.985439
983.000000	28.982833
982.000000	28.996337
981.000000	29.010200
980.000000	28.994890
979.000000	28.983535
978.000000	28.983175
977.000000	28.996052
976.000000	29.006788
975.000000	29.008428
974.000000	29.013175
973.000000	29.005879
972.000000	29.004083
971.000000	29.036003
970.000000	29.039124
969.000000	29.038160
968.000000	29.048272
967.000000	29.044721
966.000000	29.049210
965.000000	29.045961
964.000000	29.037781
963.000000	29.048775
962.000000	29.058151
961.000000	29.075936
960.000000	29.086054
959.000000	29.078118
958.000000	29.080145
957.000000	29.086776
956.000000	29.089288
955.000000	29.100452
954.000000	29.108810
953.000000	29.113374
952.000000	29.112829
951.000000	29.101409
950.000000	29.106117
949.000000	29.113988
948.000000	29.125269
947.000000	29.111563
946.000000	29.114731
945.000000	29.134806
944.000000	29.137531
943.000000	29.123122
942.000000	29.117524
941.000000	29.133486
940.000000	29.143991
939.000000	29.141957
938.000000	29.141708
937.000000	29.136158
936.000000	29.121314
935.000000	29.132034
934.000000	29.145904
933.000000	29.153329
932.000000	29.147479
931.000000	29.152780
930.000000	29.144239
929.000000	29.146189
928.000000	29.151238
927.000000	29.145235
926.000000	29.164353
925.000000	29.155809
924.000000	29.161935
923.000000	29.161027
922.000000	29.164944
921.000000	29.180870
920.000000	29.173095
919.000000	29.166550
918.000000	29.177785
917.000000	29.173778
916.000000	29.144334
915.000000	29.149402
914.000000	29.171244
913.000000	29.162172
912.000000	29.157634
911.000000	29.183685
910.000000	29.194562
909.000000	29.180432
908.000000	29.190724
907.000000	29.188562
906.000000	29.178286
905.000000	29.147733
904.000000	29.170158
903.000000	29.219740
902.000000	29.199928
901.000000	29.183541
900.000000	29.207417
899.000000	29.207249
898.000000	29.227502
897.000000	29.239606
896.000000	29.235865
895.000000	29.250252
894.000000	29.270635
893.000000	29.226195
892.000000	29.257646
891.000000	29.222758
890.000000	29.199471
889.000000	29.200875
888.000000	29.215436
887.000000	29.222352
886.000000	29.278776
885.000000	29.266204
884.000000	29.261764
883.000000	29.276819
882.000000	29.316485
881.000000	29.282823
880.000000	29.309951
879.000000	29.235328
878.000000	29.269995
877.000000	29.261156
876.000000	29.246611
875.000000	29.295149
874.000000	29.306470
873.000000	29.335349
872.000000	29.291510
871.000000	29.329381
870.000000	29.284657
869.000000	29.286373
868.000000	29.214930
867.000000	29.253053
866.000000	29.324901
865.000000	29.337511
864.000000	29.302857
863.000000	29.218240
862.000000	29.260527
861.000000	29.156570
860.000000	29.290471
859.000000	28.845235
858.000000	28.876510
857.000000	28.860836
856.000000	28.907895
855.000000	28.865881
854.000000	28.786568
853.000000	28.959189
852.000000	28.970755
851.000000	28.921320
850.000000	28.799231
849.000000	28.913779
848.000000	28.955294
847.000000	28.676290
846.000000	28.781715
845.000000	28.752716
844.000000	28.955088
843.000000	28.843102
842.000000	28.761282
841.000000	28.774334
840.000000	28.917748
839.000000	28.843671
838.000000	28.839882
837.000000	28.761777
836.000000	28.839042
835.000000	28.828573
834.000000	28.879285
833.000000	28.861242
832.000000	28.758258
831.000000	28.882596
830.000000	28.805874
829.000000	28.799345
828.000000	28.790776
827.000000	28.797002
826.000000	28.866836
825.000000	28.783595
824.000000	28.814071
823.000000	28.756161
822.000000	28.840598
821.000000	28.781832
820.000000	28.852403
819.000000	28.802533
818.000000	28.808972
817.000000	28.817429
816.000000	28.756081
815.000000	28.796847
814.000000	28.807955
813.000000	28.744248
812.000000	28.788050
811.000000	28.837600
810.000000	28.767474
809.000000	28.779741
808.000000	28.830292
807.000000	28.861048
806.000000	28.810181
805.000000	28.844096
804.000000	28.787500
803.000000	28.849040
802.000000	28.778562
801.000000	28.848842
800.000000	28.775614
799.000000	28.844252
798.000000	28.727835
797.000000	28.784514
796.000000	28.761437
795.000000	28.871335
794.000000	28.782597
793.000000	28.757688
792.000000	28.723080
791.000000	28.783932
790.000000	28.790846
789.000000	28.755101
788.000000	28.818130
787.000000	28.886829
786.000000	28.792769
785.000000	28.795304
784.000000	28.704497
783.000000	28.731950
782.000000	28.720806
781.000000	28.750310
780.000000	28.725241
779.000000	28.711041
778.000000	28.708552
777.000000	28.673569
776.000000	28.707114
775.000000	28.760922
774.000000	28.729823
773.000000	28.773426
772.000000	28.754165
771.000000	28.752184
770.000000	28.757817
769.000000	28.740865
768.000000	28.725059
767.000000	28.756724
766.000000	28.737963
765.000000	28.742943
764.000000	28.697961
763.000000	28.758538
762.000000	28.761580
761.000000	28.720613
760.000000	28.715589
759.000000	28.728178
758.000000	28.722294
757.000000	28.744883
756.000000	28.726852
755.000000	28.757034
754.000000	28.750697
753.000000	28.694326
752.000000	28.691776
751.000000	28.685037
750.000000	28.719604
749.000000	28.752971
748.000000	28.745908
747.000000	28.727687
746.000000	28.737874
745.000000	28.733634
744.000000	28.693713
743.000000	28.705124
742.000000	28.690796
741.000000	28.688539
740.000000	28.735137
739.000000	28.692302
738.000000	28.669423
737.000000	28.699832
736.000000	28.713666
735.000000	28.674308
734.000000	28.658908
733.000000	28.707672
732.000000	28.694480
731.000000	28.672219
730.000000	28.691957
729.000000	28.683880
728.000000	28.688740
727.000000	28.688594
726.000000	28.645508
725.000000	28.633113
724.000000	28.622920
723.000000	28.645432
722.000000	28.666872
721.000000	28.661158
720.000000	28.653723
719.000000	28.620432
718.000000	28.615594
717.000000	28.666417
716.000000	28.647310
715.000000	28.617005
714.000000	28.611328
713.000000	28.609311
712.000000	28.627940
711.000000	28.621381
710.000000	28.610189
709.000000	28.607270
708.000000	28.592161
707.000000	28.609784
706.000000	28.623139
705.000000	28.586953
704.000000	28.558069
703.000000	28.556900
702.000000	28.567621
701.000000	28.585936
700.000000	28.579300
699.000000	28.550117
698.000000	28.555543
697.000000	28.563174
696.000000	28.555281
695.000000	28.573506
694.000000	28.574841
693.000000	28.548555
692.000000	28.564489
691.000000	28.593049
690.000000	28.579058
689.000000	28.547009
688.000000	28.526174
687.000000	28.517221
686.000000	28.517626
685.000000	28.497280
684.000000	28.482885
683.000000	28.517861
682.000000	28.483205
681.000000	28.477278
680.000000	28.471582
679.000000	28.462461
678.000000	28.472530
677.000000	28.454517
676.000000	28.467224
675.000000	28.457830
674.000000	28.429290
673.000000	28.449350
672.000000	28.446086
671.000000	28.431359
670.000000	28.435275
669.000000	28.436260
668.000000	28.457054
667.000000	28.445202
666.000000	28.412746
665.000000	28.396866
664.000000	28.409288
663.000000	28.408614
662.000000	28.397188
661.000000	28.401062
660.000000	28.395631
659.000000	28.383250
658.000000	28.377751
657.000000	28.387974
656.000000	28.370321
655.000000	28.376636
654.000000	28.371983
653.000000	28.319047
652.000000	28.326448
651.000000	28.327394
650.000000	28.329893
649.000000	28.338675
648.000000	28.330391
647.000000	28.316827
646.000000	28.303609
645.000000	28.315644
644.000000	28.281744
643.000000	28.272624
642.000000	28.275484
641.000000	28.270006
640.000000	28.277101
639.000000	28.280474
638.000000	28.264563
637.000000	28.286394
636.000000	28.240178
635.000000	28.271259
634.000000	28.232344
633.000000	28.229861
632.000000	28.219621
631.000000	28.238292
630.000000	28.215633
629.000000	28.209104
628.000000	28.168742
627.000000	28.185722
626.000000	28.186744
625.000000	28.165891
624.000000	28.164357
623.000000	28.134796
622.000000	28.151744
621.000000	28.173388
620.000000	28.129812
619.000000	28.131260
618.000000	28.129905
617.000000	28.121146
616.000000	28.106498
615.000000	28.074543
614.000000	28.101135
613.000000	28.080474
612.000000	28.069835
611.000000	28.074341
610.000000	28.050789
609.000000	28.060212
608.000000	28.035389
607.000000	28.029953
606.000000	27.983021
605.000000	28.011809
604.000000	27.980721
603.000000	27.999907
602.000000	27.996959
601.000000	27.976326
600.000000	27.948962
599.000000	27.962971
598.000000	27.925175
597.000000	27.916156
596.000000	27.915585
595.000000	27.863740
594.000000	27.892561
593.000000	27.878449
592.000000	27.892306
591.000000	27.857061
590.000000	27.819202
589.000000	27.832465
588.000000	27.823179
587.000000	27.825024
586.000000	27.788695
585.000000	27.758431
584.000000	27.786889
583.000000	27.731372
582.000000	27.760678
581.000000	27.722397
580.000000	27.728991
579.000000	27.714515
578.000000	27.683662
577.000000	27.708525
576.000000	27.664310
575.000000	27.662237
574.000000	27.623572
573.000000	27.652427
572.000000	27.587804
571.000000	27.603668
570.000000	27.579283
569.000000	27.584743
568.000000	27.532512
567.000000	27.529322
566.000000	27.502635
565.000000	27.501939
564.000000	27.479962
563.000000	27.482812
562.000000	27.467880
561.000000	27.438199
560.000000	27.400692
559.000000	27.396789
558.000000	27.405606
557.000000	27.379731
556.000000	27.334221
555.000000	27.354248
554.000000	27.316773
553.000000	27.281829
552.000000	27.274155
551.000000	27.284796
550.000000	27.234105
549.000000	27.237697
548.000000	27.207016
547.000000	27.200828
546.000000	27.162696
545.000000	27.152195
544.000000	27.132696
543.000000	27.116267
542.000000	27.086190
541.000000	27.054639
540.000000	27.041052
539.000000	27.032482
538.000000	27.017325
537.000000	26.996600
536.000000	26.949597
535.000000	26.926674
534.000000	26.920826
533.000000	26.897497
532.000000	26.868067
531.000000	26.858257
530.000000	26.831241
529.000000	26.780575
528.000000	26.777751
527.000000	26.762781
526.000000	26.734585
525.000000	26.700279
524.000000	26.652194
523.000000	26.640081
522.000000	26.594858
521.000000	26.604698
520.000000	26.551902
519.000000	26.517629
518.000000	26.488283
517.000000	26.465226
516.000000	26.440226
515.000000	26.428838
514.000000	26.383819
513.000000	26.362379
512.000000	26.312501
511.000000	26.273921
510.000000	26.268890
509.000000	26.235414
508.000000	26.190235
507.000000	26.149106
506.000000	26.111257
505.000000	26.075715
504.000000	26.048545
503.000000	26.033763
502.000000	26.003645
501.000000	25.978281
500.000000	25.936815
499.000000	25.887600
498.000000	25.843339
497.000000	25.825065
496.000000	25.781984
495.000000	25.732217
494.000000	25.718697
493.000000	25.706938
492.000000	25.655925
491.000000	25.622436
490.000000	25.579911
489.000000	25.557826
488.000000	25.511663
487.000000	25.484120
486.000000	25.438693
485.000000	25.391180
484.000000	25.362258
483.000000	25.347482
482.000000	25.295097
481.000000	25.246777
480.000000	25.200953
479.000000	25.164778
478.000000	25.117188
477.000000	25.063065
476.000000	25.027179
475.000000	24.972496
474.000000	24.911074
473.000000	24.878290
472.000000	24.837927
471.000000	24.770710
470.000000	24.719833
469.000000	24.674925
468.000000	24.627294
467.000000	24.585898
466.000000	24.531698
465.000000	24.475936
464.000000	24.411460
463.000000	24.357470
462.000000	24.307035
461.000000	24.254746
460.000000	24.187890
459.000000	24.116782
458.000000	24.064927
457.000000	24.001359
456.000000	23.931483
455.000000	23.883420
454.000000	23.830867
453.000000	23.763620
452.000000	23.694185
451.000000	23.617431
450.000000	23.560729
449.000000	23.493365
448.000000	23.413281
447.000000	23.349855
446.000000	23.288971
445.000000	23.213518
444.000000	23.135225
443.000000	23.053258
442.000000	22.980170
441.000000	22.900775
440.000000	22.819541
439.000000	22.743186
438.000000	22.642014
437.000000	22.559559
436.000000	22.469756
435.000000	22.367311
434.000000	22.277393
433.000000	22.185753
432.000000	22.108364
431.000000	22.018375
430.000000	21.917296
429.000000	21.819924
428.000000	21.686166
427.000000	21.576093
426.000000	21.494262
425.000000	21.392620
424.000000	21.254398
423.000000	21.143302
422.000000	21.047834
421.000000	20.925682
420.000000	20.835949
419.000000	20.719803
418.000000	20.579116
417.000000	20.472004
416.000000	20.343447
415.000000	20.200791
414.000000	20.072966
413.000000	19.965659
412.000000	19.829585
411.000000	19.701211
410.000000	19.585584
409.000000	19.426837
408.000000	19.299646
407.000000	19.146741
406.000000	18.991795
405.000000	18.875694
404.000000	18.734317
403.000000	18.604274
402.000000	18.477393
401.000000	18.328101
400.000000	18.157349
399.000000	18.010350
398.000000	17.887622
397.000000	17.722610
396.000000	17.579369
395.000000	17.428840
394.000000	17.252812
393.000000	17.120771
392.000000	16.946922
391.000000	16.806772
390.000000	16.658798
389.000000	16.465170
388.000000	16.304196
387.000000	16.153666
386.000000	16.003959
385.000000	15.837847
384.000000	15.694489
383.000000	15.515439
382.000000	15.337715
381.000000	15.169666
380.000000	15.002047
379.000000	14.813909
378.000000	14.608266
377.000000	14.449338
376.000000	14.370771
375.000000	14.092306
374.000000	13.954960
373.000000	13.790721
372.000000	13.654021
371.000000	13.421024
370.000000	13.252859
369.000000	13.015718
368.000000	12.838825
367.000000	12.685642
366.000000	12.460151
365.000000	12.318258
364.000000	12.090423
363.000000	11.948473
362.000000	11.773443
361.000000	11.625430
360.000000	11.441038
359.000000	11.247894
358.000000	11.089526
357.000000	10.974471
356.000000	10.769668
355.000000	10.618778
354.000000	10.472768
353.000000	10.333426
352.000000	10.178049
351.000000	9.990420
350.000000	9.849158
349.000000	9.689898
348.000000	9.507423
347.000000	9.329054
346.000000	9.212016
345.000000	9.063035
344.000000	8.795035
343.000000	8.677137
342.000000	8.436835
341.000000	8.229673
340.000000	8.052370
339.000000	7.930045
338.000000	7.692135
337.000000	7.447586
336.000000	7.227864
335.000000	7.021803
334.000000	6.842038
333.000000	6.530643
332.000000	6.291692
331.000000	6.106178
330.000000	5.927114
329.000000	5.683763
328.000000	5.444519
327.000000	5.238085
326.000000	5.129760
325.000000	4.922722
324.000000	4.756337
323.000000	4.628942
322.000000	4.526185
321.000000	4.361702
320.000000	4.229020
319.000000	4.177977
318.000000	4.091515
317.000000	3.972268
316.000000	3.918377
315.000000	3.808433
314.000000	3.765386
313.000000	3.683339
312.000000	3.610687
311.000000	3.531516
310.000000	3.488511
309.000000	3.408419
308.000000	3.380546
307.000000	3.301933
306.000000	3.240889
305.000000	3.200495
304.000000	3.130612
303.000000	3.062620
302.000000	2.990292
301.000000	2.926621
300.000000	2.879901
299.000000	2.804375
298.000000	2.720127
297.000000	2.663449
296.000000	2.529085
295.000000	2.430301
294.000000	2.294575
293.000000	2.114126
292.000000	1.974142
291.000000	1.802676
290.000000	1.660262
289.000000	1.513499
288.000000	1.409039
287.000000	1.325128
286.000000	1.258408
285.000000	1.238108
284.000000	1.217719
283.000000	1.193094
282.000000	1.221948
281.000000	1.217108
280.000000	1.211369
279.000000	1.203875
278.000000	1.226284
277.000000	1.249829
276.000000	1.256292
275.000000	1.268377
274.000000	1.290814
273.000000	1.337906
272.000000	1.363269
271.000000	1.358778
270.000000	1.366770
269.000000	1.381463
268.000000	1.397370
267.000000	1.429049
266.000000	1.463274
265.000000	1.492269
264.000000	1.517542
263.000000	1.558568
262.000000	1.606897
261.000000	1.637388
260.000000	1.663070
259.000000	1.672149
258.000000	1.717880
257.000000	1.770505
256.000000	1.789628
255.000000	1.813167
254.000000	1.801272
253.000000	1.758501
252.000000	1.716210
251.000000	1.680348
250.000000	1.624827
249.000000	1.523506
248.000000	1.412298
247.000000	1.300319
246.000000	1.177250
245.000000	1.061948
244.000000	0.956137
243.000000	0.834193
242.000000	0.724993
241.000000	0.635009
240.000000	0.563790
239.000000	0.504010
238.000000	0.445250
237.000000	0.396575
236.000000	0.350972
235.000000	0.323827
234.000000	0.304189
233.000000	0.272621
232.000000	0.248891
231.000000	0.231841
230.000000	0.212592
229.000000	0.180891
228.000000	0.155227
227.000000	0.144481
226.000000	0.127404
225.000000	0.110685
224.000000	0.108229
223.000000	0.110105
222.000000	0.100966
221.000000	0.091827
220.000000	0.093763
219.000000	0.089272
218.000000	0.075244
217.000000	0.082074
216.000000	0.071336
215.000000	0.057272
214.000000	0.061295
213.000000	0.064921
212.000000	0.059988
211.000000	0.072964
210.000000	0.084272
209.000000	0.075215
208.000000	0.056295
207.000000	0.067201
206.000000	0.113052
205.000000	0.075626
204.000000	0.044158
203.000000	0.067094
202.000000	0.063304
201.000000	0.091507
200.000000	0.100820
