PE UV       SUBTECH     SPECTRUM    ASCII       PEDS        4.00        
   -1
TDAgneauUK 42.Sample.asc
18/03/01
12:04:14.00
18/03/01
12:04:14.00
Administrator

200.000000
1
Lambda 750
750N8071901
PerkinElmer UV WinLab 6.0.4.0738 / 1.61.00 Lambda 900

0
0
3350/servo 860.8/2
0
0
UV/VIS
1
1
1
CommonBeamDepol,150mm sphere / downward view
0
0
0
0
Program
Program
3350/servo 860.8/2
3350/0.2 860.8/0.2
3350/0.2 860.8/0.2
0
1
 
 
 
0
 
860.8
319.2
860.8
Front
100
on
 
 
0
0
0
 
0
 
 
 
0
 
 
0
0
0
0
0
 
 
 
 
0
0


0
0
#HDR
-1
-1
#GR
nm
%T
1.0
0.0
2350.000000
-1.000000
2151
8
30.438247
0.037912
#DATA
2350.000000	9.175869
2349.000000	9.166185
2348.000000	8.896024
2347.000000	9.605444
2346.000000	9.077712
2345.000000	9.024455
2344.000000	8.844748
2343.000000	8.360435
2342.000000	8.719193
2341.000000	9.018868
2340.000000	9.098907
2339.000000	9.303877
2338.000000	9.212371
2337.000000	9.250130
2336.000000	9.339606
2335.000000	9.604472
2334.000000	9.448495
2333.000000	9.594049
2332.000000	9.848558
2331.000000	9.974080
2330.000000	9.775855
2329.000000	9.739327
2328.000000	9.547053
2327.000000	9.454370
2326.000000	9.693786
2325.000000	9.406610
2324.000000	9.430826
2323.000000	9.255057
2322.000000	9.067839
2321.000000	9.007390
2320.000000	9.377610
2319.000000	9.248500
2318.000000	9.210807
2317.000000	9.236604
2316.000000	9.239007
2315.000000	9.093963
2314.000000	9.301726
2313.000000	9.179268
2312.000000	9.057536
2311.000000	9.250244
2310.000000	9.175263
2309.000000	9.046671
2308.000000	8.995342
2307.000000	9.009600
2306.000000	9.036555
2305.000000	8.727607
2304.000000	8.696290
2303.000000	8.888198
2302.000000	8.682842
2301.000000	8.602700
2300.000000	8.539813
2299.000000	8.413362
2298.000000	8.440445
2297.000000	8.273859
2296.000000	8.238365
2295.000000	8.185811
2294.000000	8.223289
2293.000000	8.237823
2292.000000	8.190839
2291.000000	8.230486
2290.000000	8.181284
2289.000000	7.966468
2288.000000	8.070048
2287.000000	8.051286
2286.000000	8.107903
2285.000000	7.970704
2284.000000	7.914938
2283.000000	7.898882
2282.000000	7.742070
2281.000000	7.847129
2280.000000	7.984683
2279.000000	8.039588
2278.000000	7.789186
2277.000000	7.926561
2276.000000	8.121952
2275.000000	8.183878
2274.000000	8.133387
2273.000000	8.216737
2272.000000	8.279429
2271.000000	8.226232
2270.000000	8.074309
2269.000000	7.902829
2268.000000	7.957625
2267.000000	8.004345
2266.000000	8.272767
2265.000000	8.321713
2264.000000	8.469713
2263.000000	8.575273
2262.000000	8.593215
2261.000000	8.709924
2260.000000	8.806797
2259.000000	8.826638
2258.000000	8.871943
2257.000000	9.100240
2256.000000	9.217115
2255.000000	9.156261
2254.000000	9.130746
2253.000000	9.348474
2252.000000	9.556999
2251.000000	9.628200
2250.000000	9.791074
2249.000000	9.889246
2248.000000	9.963443
2247.000000	10.071794
2246.000000	10.346424
2245.000000	10.475638
2244.000000	10.513600
2243.000000	10.634511
2242.000000	10.671744
2241.000000	10.726673
2240.000000	10.910605
2239.000000	11.099620
2238.000000	11.033944
2237.000000	11.013407
2236.000000	11.117643
2235.000000	11.192756
2234.000000	11.089722
2233.000000	11.237123
2232.000000	11.417687
2231.000000	11.402752
2230.000000	11.516197
2229.000000	11.457124
2228.000000	11.481221
2227.000000	11.513804
2226.000000	11.458254
2225.000000	11.408810
2224.000000	11.359059
2223.000000	11.324848
2222.000000	11.466305
2221.000000	11.356500
2220.000000	11.381746
2219.000000	11.443050
2218.000000	11.387121
2217.000000	11.310298
2216.000000	11.359965
2215.000000	11.289838
2214.000000	11.317893
2213.000000	11.343974
2212.000000	11.314916
2211.000000	11.177763
2210.000000	10.891063
2209.000000	10.887089
2208.000000	10.914150
2207.000000	10.953326
2206.000000	10.975439
2205.000000	10.940755
2204.000000	10.798945
2203.000000	10.690486
2202.000000	10.566132
2201.000000	10.683445
2200.000000	10.810753
2199.000000	10.652308
2198.000000	10.528778
2197.000000	10.584566
2196.000000	10.433372
2195.000000	10.153658
2194.000000	10.258972
2193.000000	10.213006
2192.000000	10.245956
2191.000000	10.085011
2190.000000	10.134406
2189.000000	10.173418
2188.000000	10.107813
2187.000000	9.853272
2186.000000	9.936135
2185.000000	10.063028
2184.000000	10.055559
2183.000000	10.007986
2182.000000	10.047646
2181.000000	9.956118
2180.000000	9.992772
2179.000000	9.796473
2178.000000	9.759820
2177.000000	9.960758
2176.000000	9.908434
2175.000000	9.822055
2174.000000	9.738885
2173.000000	9.748397
2172.000000	9.771919
2171.000000	9.988887
2170.000000	10.086241
2169.000000	10.125196
2168.000000	10.250962
2167.000000	10.108986
2166.000000	10.036577
2165.000000	10.096184
2164.000000	10.039286
2163.000000	10.153627
2162.000000	10.259318
2161.000000	10.391840
2160.000000	10.399553
2159.000000	10.359975
2158.000000	10.478451
2157.000000	10.668495
2156.000000	10.699894
2155.000000	10.778540
2154.000000	10.944204
2153.000000	11.058308
2152.000000	11.078428
2151.000000	11.311831
2150.000000	11.287707
2149.000000	11.233705
2148.000000	11.329333
2147.000000	11.429693
2146.000000	11.335859
2145.000000	11.662844
2144.000000	11.693155
2143.000000	11.654686
2142.000000	11.785498
2141.000000	11.986766
2140.000000	12.036219
2139.000000	12.165854
2138.000000	12.147123
2137.000000	12.293082
2136.000000	12.425691
2135.000000	12.390265
2134.000000	12.639468
2133.000000	12.430595
2132.000000	12.679250
2131.000000	12.678979
2130.000000	12.663936
2129.000000	12.809311
2128.000000	12.775171
2127.000000	12.769229
2126.000000	12.867047
2125.000000	12.840817
2124.000000	12.703478
2123.000000	13.019278
2122.000000	12.984065
2121.000000	12.946810
2120.000000	12.984486
2119.000000	13.066300
2118.000000	13.100801
2117.000000	13.291967
2116.000000	13.270157
2115.000000	13.177713
2114.000000	13.181188
2113.000000	13.233281
2112.000000	13.287089
2111.000000	13.343513
2110.000000	13.305195
2109.000000	13.394399
2108.000000	13.297563
2107.000000	13.270329
2106.000000	13.225626
2105.000000	13.218886
2104.000000	13.306302
2103.000000	13.345601
2102.000000	13.318081
2101.000000	13.391427
2100.000000	13.432218
2099.000000	13.459041
2098.000000	13.477808
2097.000000	13.422859
2096.000000	13.399392
2095.000000	13.412838
2094.000000	13.394502
2093.000000	13.329224
2092.000000	13.452661
2091.000000	13.366562
2090.000000	13.330855
2089.000000	13.366665
2088.000000	13.340077
2087.000000	13.402962
2086.000000	13.451606
2085.000000	13.365542
2084.000000	13.260688
2083.000000	13.197098
2082.000000	13.157578
2081.000000	13.061978
2080.000000	13.022307
2079.000000	13.053419
2078.000000	13.031783
2077.000000	12.987020
2076.000000	12.965476
2075.000000	12.816149
2074.000000	12.856659
2073.000000	12.758674
2072.000000	12.659882
2071.000000	12.584355
2070.000000	12.550250
2069.000000	12.459449
2068.000000	12.383613
2067.000000	12.336972
2066.000000	12.154774
2065.000000	12.049658
2064.000000	11.937124
2063.000000	11.887686
2062.000000	11.830566
2061.000000	11.683493
2060.000000	11.505494
2059.000000	11.397704
2058.000000	11.384434
2057.000000	11.322775
2056.000000	11.326324
2055.000000	11.237113
2054.000000	11.099881
2053.000000	11.014881
2052.000000	10.923802
2051.000000	10.842106
2050.000000	10.803568
2049.000000	10.772827
2048.000000	10.711386
2047.000000	10.643198
2046.000000	10.653029
2045.000000	10.684344
2044.000000	10.649912
2043.000000	10.610663
2042.000000	10.600209
2041.000000	10.634308
2040.000000	10.629535
2039.000000	10.643826
2038.000000	10.669066
2037.000000	10.767198
2036.000000	10.825891
2035.000000	10.857850
2034.000000	10.930880
2033.000000	11.016700
2032.000000	11.098370
2031.000000	11.143334
2030.000000	11.218344
2029.000000	11.312088
2028.000000	11.379076
2027.000000	11.468691
2026.000000	11.609110
2025.000000	11.702021
2024.000000	11.727358
2023.000000	11.790765
2022.000000	11.896205
2021.000000	11.899130
2020.000000	11.956055
2019.000000	11.987844
2018.000000	12.021408
2017.000000	12.078521
2016.000000	12.094342
2015.000000	12.109466
2014.000000	12.129186
2013.000000	12.155226
2012.000000	12.153826
2011.000000	12.185162
2010.000000	12.187339
2009.000000	12.183094
2008.000000	12.175248
2007.000000	12.098523
2006.000000	12.069090
2005.000000	12.037965
2004.000000	11.990102
2003.000000	11.984634
2002.000000	11.938791
2001.000000	11.889751
2000.000000	11.852260
1999.000000	11.843998
1998.000000	11.796513
1997.000000	11.772663
1996.000000	11.731404
1995.000000	11.656279
1994.000000	11.609385
1993.000000	11.540445
1992.000000	11.505918
1991.000000	11.440504
1990.000000	11.355771
1989.000000	11.285279
1988.000000	11.266621
1987.000000	11.268032
1986.000000	11.174618
1985.000000	11.123082
1984.000000	11.059726
1983.000000	11.018742
1982.000000	11.001857
1981.000000	10.988157
1980.000000	10.905730
1979.000000	10.840401
1978.000000	10.759180
1977.000000	10.712138
1976.000000	10.660155
1975.000000	10.625973
1974.000000	10.536163
1973.000000	10.480804
1972.000000	10.484893
1971.000000	10.410934
1970.000000	10.381912
1969.000000	10.346774
1968.000000	10.264051
1967.000000	10.208380
1966.000000	10.152563
1965.000000	10.123340
1964.000000	10.074457
1963.000000	10.027371
1962.000000	9.951395
1961.000000	9.916584
1960.000000	9.855254
1959.000000	9.760225
1958.000000	9.745710
1957.000000	9.745415
1956.000000	9.712301
1955.000000	9.652917
1954.000000	9.628701
1953.000000	9.525192
1952.000000	9.520809
1951.000000	9.542786
1950.000000	9.484788
1949.000000	9.482977
1948.000000	9.427582
1947.000000	9.420099
1946.000000	9.382931
1945.000000	9.446859
1944.000000	9.383651
1943.000000	9.444669
1942.000000	9.423479
1941.000000	9.493959
1940.000000	9.503904
1939.000000	9.511217
1938.000000	9.504477
1937.000000	9.600851
1936.000000	9.629966
1935.000000	9.714688
1934.000000	9.801790
1933.000000	9.851025
1932.000000	9.965359
1931.000000	9.979263
1930.000000	10.066159
1929.000000	10.228121
1928.000000	10.317568
1927.000000	10.398491
1926.000000	10.564590
1925.000000	10.683381
1924.000000	10.827892
1923.000000	10.966269
1922.000000	11.236659
1921.000000	11.322100
1920.000000	11.421449
1919.000000	11.563901
1918.000000	11.803294
1917.000000	12.104493
1916.000000	12.146177
1915.000000	12.441935
1914.000000	12.585723
1913.000000	12.869779
1912.000000	13.049710
1911.000000	13.275597
1910.000000	13.452832
1909.000000	13.692345
1908.000000	13.881107
1907.000000	14.207837
1906.000000	14.436779
1905.000000	14.753096
1904.000000	14.969500
1903.000000	15.262231
1902.000000	15.617414
1901.000000	15.920415
1900.000000	16.184130
1899.000000	16.503088
1898.000000	16.836320
1897.000000	17.113224
1896.000000	17.351280
1895.000000	17.645948
1894.000000	17.910898
1893.000000	18.228236
1892.000000	18.521007
1891.000000	18.824597
1890.000000	19.145129
1889.000000	19.419102
1888.000000	19.618286
1887.000000	19.882763
1886.000000	20.136795
1885.000000	20.377798
1884.000000	20.638213
1883.000000	20.881724
1882.000000	21.056436
1881.000000	21.266039
1880.000000	21.459184
1879.000000	21.607598
1878.000000	21.795991
1877.000000	21.990322
1876.000000	22.090501
1875.000000	22.233784
1874.000000	22.379942
1873.000000	22.472969
1872.000000	22.600276
1871.000000	22.737374
1870.000000	22.836402
1869.000000	22.911721
1868.000000	22.966605
1867.000000	23.029419
1866.000000	23.045247
1865.000000	23.156406
1864.000000	23.167546
1863.000000	23.205306
1862.000000	23.259905
1861.000000	23.301810
1860.000000	23.328240
1859.000000	23.314974
1858.000000	23.336344
1857.000000	23.365156
1856.000000	23.387990
1855.000000	23.415585
1854.000000	23.450140
1853.000000	23.459341
1852.000000	23.417422
1851.000000	23.442645
1850.000000	23.447024
1849.000000	23.413756
1848.000000	23.411672
1847.000000	23.408147
1846.000000	23.392543
1845.000000	23.378797
1844.000000	23.349468
1843.000000	23.345652
1842.000000	23.368023
1841.000000	23.310796
1840.000000	23.288163
1839.000000	23.289888
1838.000000	23.269619
1837.000000	23.212203
1836.000000	23.201693
1835.000000	23.189398
1834.000000	23.128149
1833.000000	23.080886
1832.000000	23.040676
1831.000000	23.007884
1830.000000	23.002695
1829.000000	22.946383
1828.000000	22.910671
1827.000000	22.916781
1826.000000	22.891352
1825.000000	22.849634
1824.000000	22.823357
1823.000000	22.795592
1822.000000	22.770913
1821.000000	22.754012
1820.000000	22.726045
1819.000000	22.714174
1818.000000	22.687124
1817.000000	22.658193
1816.000000	22.640283
1815.000000	22.629163
1814.000000	22.592833
1813.000000	22.566400
1812.000000	22.555436
1811.000000	22.532643
1810.000000	22.510815
1809.000000	22.484403
1808.000000	22.461336
1807.000000	22.436554
1806.000000	22.412396
1805.000000	22.376481
1804.000000	22.365602
1803.000000	22.356425
1802.000000	22.321507
1801.000000	22.291319
1800.000000	22.299597
1799.000000	22.289677
1798.000000	22.269050
1797.000000	22.261436
1796.000000	22.243143
1795.000000	22.234987
1794.000000	22.220123
1793.000000	22.196326
1792.000000	22.193258
1791.000000	22.180392
1790.000000	22.167540
1789.000000	22.153564
1788.000000	22.147080
1787.000000	22.144067
1786.000000	22.119752
1785.000000	22.108081
1784.000000	22.071757
1783.000000	22.045254
1782.000000	22.023538
1781.000000	22.012510
1780.000000	21.976623
1779.000000	21.926819
1778.000000	21.915838
1777.000000	21.869246
1776.000000	21.817242
1775.000000	21.782282
1774.000000	21.737091
1773.000000	21.699295
1772.000000	21.663741
1771.000000	21.633543
1770.000000	21.569844
1769.000000	21.505361
1768.000000	21.465417
1767.000000	21.430313
1766.000000	21.382760
1765.000000	21.345212
1764.000000	21.304408
1763.000000	21.237348
1762.000000	21.202426
1761.000000	21.153829
1760.000000	21.095035
1759.000000	21.052872
1758.000000	20.995406
1757.000000	20.939621
1756.000000	20.904298
1755.000000	20.867702
1754.000000	20.829355
1753.000000	20.806408
1752.000000	20.755223
1751.000000	20.701288
1750.000000	20.662669
1749.000000	20.602801
1748.000000	20.576094
1747.000000	20.536146
1746.000000	20.503195
1745.000000	20.441115
1744.000000	20.399874
1743.000000	20.323975
1742.000000	20.269927
1741.000000	20.262359
1740.000000	20.215624
1739.000000	20.204007
1738.000000	20.183864
1737.000000	20.148347
1736.000000	20.109017
1735.000000	20.099475
1734.000000	20.089734
1733.000000	20.087939
1732.000000	20.084981
1731.000000	20.087739
1730.000000	20.078579
1729.000000	20.087518
1728.000000	20.108207
1727.000000	20.176664
1726.000000	20.205331
1725.000000	20.244204
1724.000000	20.308208
1723.000000	20.356904
1722.000000	20.403233
1721.000000	20.480497
1720.000000	20.554711
1719.000000	20.624134
1718.000000	20.643303
1717.000000	20.699753
1716.000000	20.771874
1715.000000	20.864049
1714.000000	20.898851
1713.000000	20.920071
1712.000000	20.973363
1711.000000	21.022227
1710.000000	21.064010
1709.000000	21.097386
1708.000000	21.131192
1707.000000	21.168682
1706.000000	21.174941
1705.000000	21.216457
1704.000000	21.232210
1703.000000	21.207461
1702.000000	21.230734
1701.000000	21.242973
1700.000000	21.287648
1699.000000	21.266351
1698.000000	21.321963
1697.000000	21.327683
1696.000000	21.350165
1695.000000	21.348477
1694.000000	21.414780
1693.000000	21.439050
1692.000000	21.483831
1691.000000	21.531542
1690.000000	21.568912
1689.000000	21.634613
1688.000000	21.701585
1687.000000	21.785034
1686.000000	21.895193
1685.000000	21.971075
1684.000000	22.077705
1683.000000	22.179022
1682.000000	22.296423
1681.000000	22.436943
1680.000000	22.549656
1679.000000	22.664292
1678.000000	22.801975
1677.000000	22.881062
1676.000000	23.005541
1675.000000	23.158255
1674.000000	23.276907
1673.000000	23.392477
1672.000000	23.510941
1671.000000	23.634549
1670.000000	23.729419
1669.000000	23.841646
1668.000000	23.914488
1667.000000	24.026420
1666.000000	24.085902
1665.000000	24.144760
1664.000000	24.228926
1663.000000	24.298503
1662.000000	24.336979
1661.000000	24.390316
1660.000000	24.441012
1659.000000	24.496655
1658.000000	24.524486
1657.000000	24.568731
1656.000000	24.593910
1655.000000	24.617189
1654.000000	24.660249
1653.000000	24.653673
1652.000000	24.687778
1651.000000	24.685212
1650.000000	24.660134
1649.000000	24.661720
1648.000000	24.649401
1647.000000	24.652658
1646.000000	24.648285
1645.000000	24.626825
1644.000000	24.622396
1643.000000	24.595852
1642.000000	24.590415
1641.000000	24.579305
1640.000000	24.566704
1639.000000	24.539779
1638.000000	24.522523
1637.000000	24.508387
1636.000000	24.479080
1635.000000	24.444307
1634.000000	24.419473
1633.000000	24.385196
1632.000000	24.379628
1631.000000	24.353826
1630.000000	24.327607
1629.000000	24.299369
1628.000000	24.264649
1627.000000	24.235632
1626.000000	24.214276
1625.000000	24.190007
1624.000000	24.166110
1623.000000	24.135041
1622.000000	24.094614
1621.000000	24.046708
1620.000000	24.023195
1619.000000	23.994826
1618.000000	23.979664
1617.000000	23.939368
1616.000000	23.888659
1615.000000	23.860382
1614.000000	23.832119
1613.000000	23.799553
1612.000000	23.757381
1611.000000	23.702874
1610.000000	23.675273
1609.000000	23.644130
1608.000000	23.614655
1607.000000	23.573569
1606.000000	23.523934
1605.000000	23.473624
1604.000000	23.429506
1603.000000	23.397285
1602.000000	23.364072
1601.000000	23.327807
1600.000000	23.282180
1599.000000	23.234631
1598.000000	23.208917
1597.000000	23.181854
1596.000000	23.140674
1595.000000	23.108329
1594.000000	23.076034
1593.000000	23.046346
1592.000000	23.012341
1591.000000	22.969674
1590.000000	22.940432
1589.000000	22.911330
1588.000000	22.867476
1587.000000	22.832843
1586.000000	22.809657
1585.000000	22.789255
1584.000000	22.757960
1583.000000	22.738699
1582.000000	22.711320
1581.000000	22.656328
1580.000000	22.619150
1579.000000	22.599792
1578.000000	22.584958
1577.000000	22.546079
1576.000000	22.519182
1575.000000	22.494946
1574.000000	22.448058
1573.000000	22.411027
1572.000000	22.388381
1571.000000	22.371340
1570.000000	22.348093
1569.000000	22.322322
1568.000000	22.291087
1567.000000	22.267179
1566.000000	22.239078
1565.000000	22.229692
1564.000000	22.219495
1563.000000	22.207775
1562.000000	22.180137
1561.000000	22.162749
1560.000000	22.139906
1559.000000	22.119998
1558.000000	22.097027
1557.000000	22.079000
1556.000000	22.071742
1555.000000	22.063256
1554.000000	22.050151
1553.000000	22.033347
1552.000000	22.017964
1551.000000	21.995643
1550.000000	21.971025
1549.000000	21.942575
1548.000000	21.903297
1547.000000	21.860515
1546.000000	21.829672
1545.000000	21.793943
1544.000000	21.743174
1543.000000	21.702647
1542.000000	21.643604
1541.000000	21.590087
1540.000000	21.533487
1539.000000	21.471337
1538.000000	21.424052
1537.000000	21.359286
1536.000000	21.294298
1535.000000	21.230029
1534.000000	21.172077
1533.000000	21.120461
1532.000000	21.057461
1531.000000	20.977938
1530.000000	20.926123
1529.000000	20.880694
1528.000000	20.830815
1527.000000	20.783002
1526.000000	20.732708
1525.000000	20.674580
1524.000000	20.624073
1523.000000	20.590359
1522.000000	20.544822
1521.000000	20.512932
1520.000000	20.469666
1519.000000	20.435877
1518.000000	20.395839
1517.000000	20.374519
1516.000000	20.343724
1515.000000	20.309428
1514.000000	20.291403
1513.000000	20.280040
1512.000000	20.256703
1511.000000	20.220510
1510.000000	20.223092
1509.000000	20.178914
1508.000000	20.188148
1507.000000	20.181819
1506.000000	20.149772
1505.000000	20.151225
1504.000000	20.131824
1503.000000	20.124949
1502.000000	20.128134
1501.000000	20.124595
1500.000000	20.125936
1499.000000	20.140079
1498.000000	20.166391
1497.000000	20.193310
1496.000000	20.226159
1495.000000	20.243620
1494.000000	20.247059
1493.000000	20.250542
1492.000000	20.281104
1491.000000	20.304754
1490.000000	20.366248
1489.000000	20.382463
1488.000000	20.421156
1487.000000	20.499556
1486.000000	20.542824
1485.000000	20.577989
1484.000000	20.630458
1483.000000	20.688256
1482.000000	20.730595
1481.000000	20.796940
1480.000000	20.871101
1479.000000	20.922277
1478.000000	20.967856
1477.000000	21.027586
1476.000000	21.103379
1475.000000	21.156476
1474.000000	21.203154
1473.000000	21.262078
1472.000000	21.320395
1471.000000	21.364095
1470.000000	21.405746
1469.000000	21.455690
1468.000000	21.497635
1467.000000	21.542539
1466.000000	21.612872
1465.000000	21.663001
1464.000000	21.684227
1463.000000	21.754974
1462.000000	21.794132
1461.000000	21.827661
1460.000000	21.857165
1459.000000	21.887703
1458.000000	21.931310
1457.000000	21.987443
1456.000000	22.012114
1455.000000	22.047356
1454.000000	22.080645
1453.000000	22.133613
1452.000000	22.186720
1451.000000	22.231323
1450.000000	22.267343
1449.000000	22.330287
1448.000000	22.370354
1447.000000	22.396339
1446.000000	22.432411
1445.000000	22.478282
1444.000000	22.511123
1443.000000	22.608833
1442.000000	22.663640
1441.000000	22.701630
1440.000000	22.753945
1439.000000	22.799196
1438.000000	22.843065
1437.000000	22.901710
1436.000000	22.940561
1435.000000	23.020754
1434.000000	23.111748
1433.000000	23.177779
1432.000000	23.230551
1431.000000	23.296584
1430.000000	23.359776
1429.000000	23.430004
1428.000000	23.516415
1427.000000	23.592931
1426.000000	23.676471
1425.000000	23.768030
1424.000000	23.850713
1423.000000	23.934083
1422.000000	24.010217
1421.000000	24.084025
1420.000000	24.180777
1419.000000	24.281788
1418.000000	24.388339
1417.000000	24.493198
1416.000000	24.616047
1415.000000	24.715808
1414.000000	24.815582
1413.000000	24.891733
1412.000000	24.996229
1411.000000	25.125772
1410.000000	25.245187
1409.000000	25.352396
1408.000000	25.439552
1407.000000	25.520817
1406.000000	25.621961
1405.000000	25.726052
1404.000000	25.842724
1403.000000	25.951609
1402.000000	26.045736
1401.000000	26.135246
1400.000000	26.217641
1399.000000	26.308274
1398.000000	26.404399
1397.000000	26.485810
1396.000000	26.569337
1395.000000	26.651860
1394.000000	26.731316
1393.000000	26.808455
1392.000000	26.898520
1391.000000	26.980238
1390.000000	27.048805
1389.000000	27.135528
1388.000000	27.216182
1387.000000	27.285806
1386.000000	27.356977
1385.000000	27.424528
1384.000000	27.467596
1383.000000	27.529271
1382.000000	27.593336
1381.000000	27.618865
1380.000000	27.650646
1379.000000	27.697138
1378.000000	27.748662
1377.000000	27.784512
1376.000000	27.829786
1375.000000	27.884289
1374.000000	27.910287
1373.000000	27.927470
1372.000000	27.958235
1371.000000	27.997889
1370.000000	28.041218
1369.000000	28.073312
1368.000000	28.098071
1367.000000	28.117019
1366.000000	28.140285
1365.000000	28.174966
1364.000000	28.205877
1363.000000	28.235383
1362.000000	28.267762
1361.000000	28.291644
1360.000000	28.319197
1359.000000	28.348418
1358.000000	28.372342
1357.000000	28.419952
1356.000000	28.477140
1355.000000	28.497992
1354.000000	28.513055
1353.000000	28.540192
1352.000000	28.576702
1351.000000	28.616017
1350.000000	28.664470
1349.000000	28.691893
1348.000000	28.706699
1347.000000	28.735043
1346.000000	28.759408
1345.000000	28.787447
1344.000000	28.845726
1343.000000	28.870375
1342.000000	28.897350
1341.000000	28.940719
1340.000000	28.957625
1339.000000	28.986824
1338.000000	29.008471
1337.000000	29.019087
1336.000000	29.045992
1335.000000	29.057707
1334.000000	29.082557
1333.000000	29.117713
1332.000000	29.144165
1331.000000	29.150053
1330.000000	29.161571
1329.000000	29.152070
1328.000000	29.174592
1327.000000	29.205017
1326.000000	29.213627
1325.000000	29.243219
1324.000000	29.264995
1323.000000	29.274305
1322.000000	29.253144
1321.000000	29.260584
1320.000000	29.308868
1319.000000	29.316991
1318.000000	29.303570
1317.000000	29.301626
1316.000000	29.300612
1315.000000	29.302628
1314.000000	29.344949
1313.000000	29.371052
1312.000000	29.351388
1311.000000	29.339969
1310.000000	29.341434
1309.000000	29.367354
1308.000000	29.369020
1307.000000	29.369747
1306.000000	29.368817
1305.000000	29.375118
1304.000000	29.395872
1303.000000	29.396235
1302.000000	29.395643
1301.000000	29.380405
1300.000000	29.374398
1299.000000	29.382872
1298.000000	29.365828
1297.000000	29.379551
1296.000000	29.374657
1295.000000	29.371132
1294.000000	29.374709
1293.000000	29.380993
1292.000000	29.362640
1291.000000	29.371234
1290.000000	29.391578
1289.000000	29.385695
1288.000000	29.383899
1287.000000	29.371474
1286.000000	29.371259
1285.000000	29.361048
1284.000000	29.362028
1283.000000	29.303617
1282.000000	29.304039
1281.000000	29.292737
1280.000000	29.293822
1279.000000	29.305021
1278.000000	29.318695
1277.000000	29.307305
1276.000000	29.316168
1275.000000	29.298442
1274.000000	29.302743
1273.000000	29.303487
1272.000000	29.306994
1271.000000	29.298518
1270.000000	29.310423
1269.000000	29.309117
1268.000000	29.302557
1267.000000	29.298078
1266.000000	29.336255
1265.000000	29.337288
1264.000000	29.356014
1263.000000	29.360970
1262.000000	29.347622
1261.000000	29.331312
1260.000000	29.339298
1259.000000	29.356737
1258.000000	29.358371
1257.000000	29.369413
1256.000000	29.370066
1255.000000	29.372613
1254.000000	29.364771
1253.000000	29.364915
1252.000000	29.374948
1251.000000	29.364522
1250.000000	29.368397
1249.000000	29.368336
1248.000000	29.355143
1247.000000	29.369533
1246.000000	29.351367
1245.000000	29.345683
1244.000000	29.346373
1243.000000	29.349573
1242.000000	29.352046
1241.000000	29.340229
1240.000000	29.329690
1239.000000	29.277749
1238.000000	29.263783
1237.000000	29.261100
1236.000000	29.217746
1235.000000	29.213700
1234.000000	29.202296
1233.000000	29.202199
1232.000000	29.157279
1231.000000	29.135153
1230.000000	29.132115
1229.000000	29.140626
1228.000000	29.113608
1227.000000	29.066246
1226.000000	29.066807
1225.000000	29.051975
1224.000000	29.059484
1223.000000	29.048658
1222.000000	29.041286
1221.000000	29.020685
1220.000000	29.003323
1219.000000	28.979338
1218.000000	28.967952
1217.000000	28.948821
1216.000000	28.921377
1215.000000	28.903452
1214.000000	28.916152
1213.000000	28.898261
1212.000000	28.873803
1211.000000	28.843620
1210.000000	28.834806
1209.000000	28.815466
1208.000000	28.779977
1207.000000	28.765928
1206.000000	28.761609
1205.000000	28.733188
1204.000000	28.709854
1203.000000	28.691995
1202.000000	28.650261
1201.000000	28.624774
1200.000000	28.618712
1199.000000	28.602255
1198.000000	28.573284
1197.000000	28.554842
1196.000000	28.527678
1195.000000	28.495644
1194.000000	28.474142
1193.000000	28.474254
1192.000000	28.495881
1191.000000	28.499856
1190.000000	28.450805
1189.000000	28.371025
1188.000000	28.371944
1187.000000	28.377229
1186.000000	28.367703
1185.000000	28.377264
1184.000000	28.378982
1183.000000	28.381730
1182.000000	28.397722
1181.000000	28.429590
1180.000000	28.449084
1179.000000	28.473657
1178.000000	28.494652
1177.000000	28.513071
1176.000000	28.542108
1175.000000	28.577220
1174.000000	28.616314
1173.000000	28.654623
1172.000000	28.687083
1171.000000	28.711700
1170.000000	28.748350
1169.000000	28.792318
1168.000000	28.825540
1167.000000	28.858297
1166.000000	28.904145
1165.000000	28.950582
1164.000000	28.990596
1163.000000	29.037538
1162.000000	29.077233
1161.000000	29.115950
1160.000000	29.164775
1159.000000	29.203230
1158.000000	29.244054
1157.000000	29.285376
1156.000000	29.316298
1155.000000	29.362088
1154.000000	29.372202
1153.000000	29.376813
1152.000000	29.405818
1151.000000	29.437703
1150.000000	29.477587
1149.000000	29.513599
1148.000000	29.541756
1147.000000	29.565164
1146.000000	29.593922
1145.000000	29.620276
1144.000000	29.645519
1143.000000	29.673188
1142.000000	29.694166
1141.000000	29.722571
1140.000000	29.747160
1139.000000	29.759357
1138.000000	29.786119
1137.000000	29.815560
1136.000000	29.837550
1135.000000	29.859897
1134.000000	29.888693
1133.000000	29.876785
1132.000000	29.866627
1131.000000	29.881587
1130.000000	29.902050
1129.000000	29.933169
1128.000000	29.961620
1127.000000	29.974140
1126.000000	29.982455
1125.000000	29.996567
1124.000000	30.002992
1123.000000	30.004632
1122.000000	30.018237
1121.000000	30.035066
1120.000000	30.039113
1119.000000	30.042860
1118.000000	30.044657
1117.000000	30.028364
1116.000000	30.022065
1115.000000	30.027979
1114.000000	30.035649
1113.000000	30.043993
1112.000000	30.042050
1111.000000	30.049823
1110.000000	30.055709
1109.000000	30.062060
1108.000000	30.062266
1107.000000	30.057889
1106.000000	30.066128
1105.000000	30.071812
1104.000000	30.038913
1103.000000	30.033225
1102.000000	30.040258
1101.000000	30.047525
1100.000000	30.055554
1099.000000	30.064557
1098.000000	30.064709
1097.000000	30.071481
1096.000000	30.067078
1095.000000	30.036334
1094.000000	30.018716
1093.000000	30.027370
1092.000000	30.040814
1091.000000	30.055922
1090.000000	30.054121
1089.000000	30.057906
1088.000000	30.030157
1087.000000	30.023068
1086.000000	30.019716
1085.000000	30.017819
1084.000000	30.034537
1083.000000	30.046340
1082.000000	30.046132
1081.000000	30.002476
1080.000000	30.004374
1079.000000	30.008241
1078.000000	30.012602
1077.000000	30.014516
1076.000000	30.002613
1075.000000	30.015068
1074.000000	29.978599
1073.000000	29.978346
1072.000000	29.966474
1071.000000	29.987178
1070.000000	29.983220
1069.000000	29.995953
1068.000000	29.987681
1067.000000	29.952560
1066.000000	29.948664
1065.000000	29.957826
1064.000000	29.956152
1063.000000	29.953076
1062.000000	29.964969
1061.000000	29.973042
1060.000000	29.927938
1059.000000	29.914912
1058.000000	29.914861
1057.000000	29.917866
1056.000000	29.928060
1055.000000	29.878072
1054.000000	29.899640
1053.000000	29.900739
1052.000000	29.897628
1051.000000	29.903977
1050.000000	29.863952
1049.000000	29.866228
1048.000000	29.852279
1047.000000	29.872276
1046.000000	29.879885
1045.000000	29.852941
1044.000000	29.846311
1043.000000	29.845734
1042.000000	29.854791
1041.000000	29.840796
1040.000000	29.834078
1039.000000	29.839465
1038.000000	29.841848
1037.000000	29.848547
1036.000000	29.813922
1035.000000	29.815372
1034.000000	29.819614
1033.000000	29.794929
1032.000000	29.810358
1031.000000	29.817489
1030.000000	29.813072
1029.000000	29.810878
1028.000000	29.808872
1027.000000	29.820797
1026.000000	29.818073
1025.000000	29.799871
1024.000000	29.800942
1023.000000	29.819910
1022.000000	29.795539
1021.000000	29.805749
1020.000000	29.810048
1019.000000	29.799965
1018.000000	29.816409
1017.000000	29.826035
1016.000000	29.830072
1015.000000	29.816281
1014.000000	29.820514
1013.000000	29.818778
1012.000000	29.830324
1011.000000	29.841169
1010.000000	29.848029
1009.000000	29.841851
1008.000000	29.835132
1007.000000	29.845169
1006.000000	29.863587
1005.000000	29.851851
1004.000000	29.882228
1003.000000	29.914016
1002.000000	29.904346
1001.000000	29.913907
1000.000000	29.929641
999.000000	29.938921
998.000000	29.959262
997.000000	29.957852
996.000000	29.960146
995.000000	29.964715
994.000000	29.966752
993.000000	29.978167
992.000000	29.978274
991.000000	29.984004
990.000000	29.985845
989.000000	29.995290
988.000000	30.008215
987.000000	30.014139
986.000000	30.002575
985.000000	30.001616
984.000000	30.020498
983.000000	30.020200
982.000000	30.025589
981.000000	30.040926
980.000000	30.031609
979.000000	30.030637
978.000000	30.038563
977.000000	30.057860
976.000000	30.044958
975.000000	30.044794
974.000000	30.052232
973.000000	30.042543
972.000000	30.045721
971.000000	30.052291
970.000000	30.064335
969.000000	30.073964
968.000000	30.087340
967.000000	30.081847
966.000000	30.078351
965.000000	30.102626
964.000000	30.104495
963.000000	30.100305
962.000000	30.105586
961.000000	30.106661
960.000000	30.116071
959.000000	30.131140
958.000000	30.124851
957.000000	30.128932
956.000000	30.127462
955.000000	30.127836
954.000000	30.149153
953.000000	30.151878
952.000000	30.145400
951.000000	30.151118
950.000000	30.151674
949.000000	30.146300
948.000000	30.152168
947.000000	30.158475
946.000000	30.163593
945.000000	30.173255
944.000000	30.176546
943.000000	30.159378
942.000000	30.153187
941.000000	30.174052
940.000000	30.195731
939.000000	30.210566
938.000000	30.204153
937.000000	30.193250
936.000000	30.191399
935.000000	30.183160
934.000000	30.192416
933.000000	30.197036
932.000000	30.186311
931.000000	30.192954
930.000000	30.200089
929.000000	30.192279
928.000000	30.184845
927.000000	30.196358
926.000000	30.204311
925.000000	30.199761
924.000000	30.181394
923.000000	30.178394
922.000000	30.186256
921.000000	30.214788
920.000000	30.206715
919.000000	30.191294
918.000000	30.205589
917.000000	30.191663
916.000000	30.199560
915.000000	30.221866
914.000000	30.223936
913.000000	30.211705
912.000000	30.162195
911.000000	30.152052
910.000000	30.198945
909.000000	30.213770
908.000000	30.220146
907.000000	30.220091
906.000000	30.192519
905.000000	30.182779
904.000000	30.212784
903.000000	30.220903
902.000000	30.215168
901.000000	30.227174
900.000000	30.267647
899.000000	30.241212
898.000000	30.246291
897.000000	30.250485
896.000000	30.241760
895.000000	30.290730
894.000000	30.294163
893.000000	30.248768
892.000000	30.213127
891.000000	30.278311
890.000000	30.270057
889.000000	30.260308
888.000000	30.294061
887.000000	30.263539
886.000000	30.258752
885.000000	30.307269
884.000000	30.336120
883.000000	30.349960
882.000000	30.378419
881.000000	30.397638
880.000000	30.366595
879.000000	30.374809
878.000000	30.382583
877.000000	30.290422
876.000000	30.300328
875.000000	30.356328
874.000000	30.342826
873.000000	30.329083
872.000000	30.438247
871.000000	30.363575
870.000000	30.336191
869.000000	30.256576
868.000000	30.236896
867.000000	30.312972
866.000000	30.269267
865.000000	30.321660
864.000000	30.373298
863.000000	30.299509
862.000000	30.350800
861.000000	30.222878
860.000000	30.273899
859.000000	30.331149
858.000000	30.185185
857.000000	30.323507
856.000000	30.223593
855.000000	30.124663
854.000000	29.969366
853.000000	30.258846
852.000000	30.161138
851.000000	30.135831
850.000000	30.193171
849.000000	30.236654
848.000000	30.182068
847.000000	30.090034
846.000000	30.231714
845.000000	30.071903
844.000000	30.157990
843.000000	30.162719
842.000000	30.091045
841.000000	30.016571
840.000000	30.136693
839.000000	30.107324
838.000000	30.173176
837.000000	30.052299
836.000000	30.114060
835.000000	30.074768
834.000000	30.126271
833.000000	30.062636
832.000000	30.151153
831.000000	30.058307
830.000000	30.077119
829.000000	30.070086
828.000000	29.967082
827.000000	30.047745
826.000000	30.108108
825.000000	29.951363
824.000000	30.056611
823.000000	30.052352
822.000000	30.086406
821.000000	30.077384
820.000000	30.069175
819.000000	30.026458
818.000000	30.070059
817.000000	29.989737
816.000000	30.036025
815.000000	30.046984
814.000000	29.990098
813.000000	30.009939
812.000000	29.985878
811.000000	30.034503
810.000000	30.041337
809.000000	29.948763
808.000000	30.057597
807.000000	30.076782
806.000000	30.050066
805.000000	30.009823
804.000000	30.043040
803.000000	30.040755
802.000000	30.067503
801.000000	30.052513
800.000000	30.071623
799.000000	30.067531
798.000000	29.977808
797.000000	30.117014
796.000000	30.053703
795.000000	30.060262
794.000000	29.993201
793.000000	30.068735
792.000000	30.073928
791.000000	30.046653
790.000000	29.978566
789.000000	29.954480
788.000000	30.079217
787.000000	30.066478
786.000000	30.031836
785.000000	30.054354
784.000000	30.035071
783.000000	30.036343
782.000000	29.951122
781.000000	30.017448
780.000000	29.980375
779.000000	29.973126
778.000000	29.948158
777.000000	29.919047
776.000000	29.998970
775.000000	29.968038
774.000000	29.976377
773.000000	29.985880
772.000000	29.964636
771.000000	30.020858
770.000000	29.994308
769.000000	30.023987
768.000000	30.004405
767.000000	30.006342
766.000000	29.926709
765.000000	29.981122
764.000000	29.975604
763.000000	29.985863
762.000000	29.967715
761.000000	29.939724
760.000000	29.946317
759.000000	29.968381
758.000000	29.992113
757.000000	29.972603
756.000000	29.982521
755.000000	29.937465
754.000000	29.965892
753.000000	29.951010
752.000000	29.927168
751.000000	29.949464
750.000000	29.923026
749.000000	29.939735
748.000000	29.981492
747.000000	29.988024
746.000000	29.950030
745.000000	29.952434
744.000000	29.952269
743.000000	29.931634
742.000000	29.924639
741.000000	29.949670
740.000000	29.937073
739.000000	29.909637
738.000000	29.918025
737.000000	29.910434
736.000000	29.926492
735.000000	29.940825
734.000000	29.943917
733.000000	29.961267
732.000000	29.928938
731.000000	29.930760
730.000000	29.912085
729.000000	29.896879
728.000000	29.907542
727.000000	29.906764
726.000000	29.870039
725.000000	29.890845
724.000000	29.912522
723.000000	29.917631
722.000000	29.890351
721.000000	29.887757
720.000000	29.901445
719.000000	29.880724
718.000000	29.854041
717.000000	29.864660
716.000000	29.845941
715.000000	29.851731
714.000000	29.859796
713.000000	29.853760
712.000000	29.860305
711.000000	29.842834
710.000000	29.832240
709.000000	29.829735
708.000000	29.831200
707.000000	29.861114
706.000000	29.840207
705.000000	29.808699
704.000000	29.823148
703.000000	29.846500
702.000000	29.837901
701.000000	29.813965
700.000000	29.807345
699.000000	29.798898
698.000000	29.798706
697.000000	29.822104
696.000000	29.815320
695.000000	29.780308
694.000000	29.796568
693.000000	29.777115
692.000000	29.760984
691.000000	29.780470
690.000000	29.802782
689.000000	29.773880
688.000000	29.743062
687.000000	29.743217
686.000000	29.713876
685.000000	29.714843
684.000000	29.698144
683.000000	29.707373
682.000000	29.703036
681.000000	29.704467
680.000000	29.680109
679.000000	29.665724
678.000000	29.675558
677.000000	29.678056
676.000000	29.684752
675.000000	29.656760
674.000000	29.653200
673.000000	29.656748
672.000000	29.652407
671.000000	29.652815
670.000000	29.630959
669.000000	29.630986
668.000000	29.644988
667.000000	29.649139
666.000000	29.641568
665.000000	29.632674
664.000000	29.632573
663.000000	29.644123
662.000000	29.619538
661.000000	29.605123
660.000000	29.565106
659.000000	29.582490
658.000000	29.595925
657.000000	29.588039
656.000000	29.578861
655.000000	29.582645
654.000000	29.578174
653.000000	29.567742
652.000000	29.539898
651.000000	29.536912
650.000000	29.551943
649.000000	29.526875
648.000000	29.491739
647.000000	29.497600
646.000000	29.518093
645.000000	29.509368
644.000000	29.504244
643.000000	29.492528
642.000000	29.494888
641.000000	29.458429
640.000000	29.489782
639.000000	29.493533
638.000000	29.476663
637.000000	29.476472
636.000000	29.421040
635.000000	29.461648
634.000000	29.410191
633.000000	29.408125
632.000000	29.431969
631.000000	29.444682
630.000000	29.427261
629.000000	29.416236
628.000000	29.399319
627.000000	29.374023
626.000000	29.389529
625.000000	29.369847
624.000000	29.375261
623.000000	29.338281
622.000000	29.333648
621.000000	29.364351
620.000000	29.335433
619.000000	29.303018
618.000000	29.280800
617.000000	29.283539
616.000000	29.283473
615.000000	29.286587
614.000000	29.269699
613.000000	29.272940
612.000000	29.251599
611.000000	29.233348
610.000000	29.234742
609.000000	29.237636
608.000000	29.247340
607.000000	29.197597
606.000000	29.187200
605.000000	29.194319
604.000000	29.171463
603.000000	29.182989
602.000000	29.196049
601.000000	29.143639
600.000000	29.088695
599.000000	29.130990
598.000000	29.099489
597.000000	29.110020
596.000000	29.082384
595.000000	29.059103
594.000000	29.083800
593.000000	29.059988
592.000000	29.030380
591.000000	29.014700
590.000000	29.006401
589.000000	29.022217
588.000000	28.974475
587.000000	28.992531
586.000000	28.983406
585.000000	28.919758
584.000000	28.935037
583.000000	28.895047
582.000000	28.911359
581.000000	28.901003
580.000000	28.879583
579.000000	28.881375
578.000000	28.841135
577.000000	28.853251
576.000000	28.816808
575.000000	28.812622
574.000000	28.785626
573.000000	28.797394
572.000000	28.734206
571.000000	28.740723
570.000000	28.741939
569.000000	28.751811
568.000000	28.676381
567.000000	28.690409
566.000000	28.660980
565.000000	28.650167
564.000000	28.628811
563.000000	28.625083
562.000000	28.596954
561.000000	28.594002
560.000000	28.550914
559.000000	28.555180
558.000000	28.522401
557.000000	28.514591
556.000000	28.491474
555.000000	28.476651
554.000000	28.430956
553.000000	28.413305
552.000000	28.398372
551.000000	28.412017
550.000000	28.349857
549.000000	28.371377
548.000000	28.308026
547.000000	28.288151
546.000000	28.284362
545.000000	28.285443
544.000000	28.260443
543.000000	28.230195
542.000000	28.196096
541.000000	28.161112
540.000000	28.120470
539.000000	28.131228
538.000000	28.111264
537.000000	28.092170
536.000000	28.059904
535.000000	28.027206
534.000000	28.010955
533.000000	27.984067
532.000000	27.942298
531.000000	27.930160
530.000000	27.925583
529.000000	27.881125
528.000000	27.852157
527.000000	27.825375
526.000000	27.779329
525.000000	27.769065
524.000000	27.719649
523.000000	27.711086
522.000000	27.662874
521.000000	27.645983
520.000000	27.615300
519.000000	27.566452
518.000000	27.537789
517.000000	27.519365
516.000000	27.482592
515.000000	27.454039
514.000000	27.418942
513.000000	27.383809
512.000000	27.339111
511.000000	27.318560
510.000000	27.294159
509.000000	27.258567
508.000000	27.220351
507.000000	27.202469
506.000000	27.145036
505.000000	27.092541
504.000000	27.053048
503.000000	27.044962
502.000000	27.002771
501.000000	26.970142
500.000000	26.929331
499.000000	26.896863
498.000000	26.843880
497.000000	26.822057
496.000000	26.799382
495.000000	26.760167
494.000000	26.685778
493.000000	26.629083
492.000000	26.593847
491.000000	26.596027
490.000000	26.535612
489.000000	26.503698
488.000000	26.468644
487.000000	26.411000
486.000000	26.375007
485.000000	26.319106
484.000000	26.292086
483.000000	26.260504
482.000000	26.213945
481.000000	26.164146
480.000000	26.098590
479.000000	26.054983
478.000000	26.002580
477.000000	25.960076
476.000000	25.919518
475.000000	25.857378
474.000000	25.801272
473.000000	25.755128
472.000000	25.691628
471.000000	25.628970
470.000000	25.575395
469.000000	25.519680
468.000000	25.474314
467.000000	25.421635
466.000000	25.348776
465.000000	25.278288
464.000000	25.226869
463.000000	25.185318
462.000000	25.117304
461.000000	25.059437
460.000000	24.993894
459.000000	24.923766
458.000000	24.859431
457.000000	24.795275
456.000000	24.738080
455.000000	24.687612
454.000000	24.616738
453.000000	24.527360
452.000000	24.448104
451.000000	24.380496
450.000000	24.302684
449.000000	24.200474
448.000000	24.113495
447.000000	24.043534
446.000000	23.984851
445.000000	23.914101
444.000000	23.848824
443.000000	23.761318
442.000000	23.676587
441.000000	23.600282
440.000000	23.491981
439.000000	23.417299
438.000000	23.302090
437.000000	23.198047
436.000000	23.092968
435.000000	22.994559
434.000000	22.930496
433.000000	22.821189
432.000000	22.693614
431.000000	22.604152
430.000000	22.500739
429.000000	22.385536
428.000000	22.271472
427.000000	22.152337
426.000000	22.067265
425.000000	21.980497
424.000000	21.830807
423.000000	21.722586
422.000000	21.607160
421.000000	21.444688
420.000000	21.361483
419.000000	21.232953
418.000000	21.090698
417.000000	20.982818
416.000000	20.861119
415.000000	20.717995
414.000000	20.594310
413.000000	20.457734
412.000000	20.310563
411.000000	20.176553
410.000000	19.992943
409.000000	19.849425
408.000000	19.730962
407.000000	19.593672
406.000000	19.453549
405.000000	19.302735
404.000000	19.160809
403.000000	19.037142
402.000000	18.893297
401.000000	18.725576
400.000000	18.565793
399.000000	18.426358
398.000000	18.261557
397.000000	18.110990
396.000000	17.969909
395.000000	17.800452
394.000000	17.620473
393.000000	17.480088
392.000000	17.295607
391.000000	17.152360
390.000000	17.035075
389.000000	16.843064
388.000000	16.682136
387.000000	16.505908
386.000000	16.356643
385.000000	16.182293
384.000000	15.990032
383.000000	15.852133
382.000000	15.672914
381.000000	15.473393
380.000000	15.303196
379.000000	15.115727
378.000000	14.907901
377.000000	14.790790
376.000000	14.519526
375.000000	14.386048
374.000000	14.234290
373.000000	14.064520
372.000000	13.836577
371.000000	13.720447
370.000000	13.549397
369.000000	13.314238
368.000000	13.180415
367.000000	12.959477
366.000000	12.746662
365.000000	12.548157
364.000000	12.388127
363.000000	12.201127
362.000000	12.013943
361.000000	11.870424
360.000000	11.717622
359.000000	11.523249
358.000000	11.362454
357.000000	11.133222
356.000000	11.053744
355.000000	10.899573
354.000000	10.711186
353.000000	10.512369
352.000000	10.304507
351.000000	10.195963
350.000000	10.049806
349.000000	9.845010
348.000000	9.704881
347.000000	9.508561
346.000000	9.415592
345.000000	9.209215
344.000000	9.030147
343.000000	8.817214
342.000000	8.653317
341.000000	8.408473
340.000000	8.216121
339.000000	8.025085
338.000000	7.872653
337.000000	7.602536
336.000000	7.387853
335.000000	7.143144
334.000000	6.919377
333.000000	6.662345
332.000000	6.483721
331.000000	6.250763
330.000000	5.975161
329.000000	5.724733
328.000000	5.603766
327.000000	5.335004
326.000000	5.165778
325.000000	5.001267
324.000000	4.856928
323.000000	4.676419
322.000000	4.531856
321.000000	4.389562
320.000000	4.295895
319.000000	4.133544
318.000000	4.069716
317.000000	3.982307
316.000000	3.900991
315.000000	3.808990
314.000000	3.708223
313.000000	3.623010
312.000000	3.509702
311.000000	3.457588
310.000000	3.389578
309.000000	3.282378
308.000000	3.187691
307.000000	3.113530
306.000000	3.021196
305.000000	2.966990
304.000000	2.902550
303.000000	2.806253
302.000000	2.758165
301.000000	2.640698
300.000000	2.564934
299.000000	2.457822
298.000000	2.371835
297.000000	2.272910
296.000000	2.153032
295.000000	2.039162
294.000000	1.884197
293.000000	1.718094
292.000000	1.551498
291.000000	1.412217
290.000000	1.297176
289.000000	1.189894
288.000000	1.088058
287.000000	1.021543
286.000000	0.973258
285.000000	0.953020
284.000000	0.947745
283.000000	0.961564
282.000000	0.965800
281.000000	0.961415
280.000000	0.955467
279.000000	0.962988
278.000000	0.975959
277.000000	0.994809
276.000000	1.019855
275.000000	1.036421
274.000000	1.061789
273.000000	1.087191
272.000000	1.099917
271.000000	1.111390
270.000000	1.131269
269.000000	1.157237
268.000000	1.182804
267.000000	1.213911
266.000000	1.237693
265.000000	1.253048
264.000000	1.285009
263.000000	1.320900
262.000000	1.343351
261.000000	1.364163
260.000000	1.381190
259.000000	1.398784
258.000000	1.444157
257.000000	1.482457
256.000000	1.505183
255.000000	1.495382
254.000000	1.490521
253.000000	1.481061
252.000000	1.442878
251.000000	1.398801
250.000000	1.348324
249.000000	1.288098
248.000000	1.194256
247.000000	1.098203
246.000000	1.005254
245.000000	0.909076
244.000000	0.817346
243.000000	0.732753
242.000000	0.637306
241.000000	0.554390
240.000000	0.496164
239.000000	0.450264
238.000000	0.403476
237.000000	0.370123
236.000000	0.340504
235.000000	0.308143
234.000000	0.282907
233.000000	0.266474
232.000000	0.249402
231.000000	0.220708
230.000000	0.201564
229.000000	0.182832
228.000000	0.164009
227.000000	0.147860
226.000000	0.141378
225.000000	0.127983
224.000000	0.107818
223.000000	0.087857
222.000000	0.090518
221.000000	0.090063
220.000000	0.083888
219.000000	0.076668
218.000000	0.069915
217.000000	0.071383
216.000000	0.074063
215.000000	0.076363
214.000000	0.076199
213.000000	0.074075
212.000000	0.067368
211.000000	0.065467
210.000000	0.073778
209.000000	0.081164
208.000000	0.067469
207.000000	0.057265
206.000000	0.060116
205.000000	0.062897
204.000000	0.037912
203.000000	0.068071
202.000000	0.094142
201.000000	0.084191
200.000000	0.134025
