PE UV       SUBTECH     SPECTRUM    ASCII       PEDS        4.00        
   -1
TDChevreUK 62.Sample.asc
18/03/01
16:53:53.00
18/03/01
16:53:53.00
Administrator

200.000000
1
Lambda 750
750N8071901
PerkinElmer UV WinLab 6.0.4.0738 / 1.61.00 Lambda 900

0
0
3350/servo 860.8/2
0
0
UV/VIS
1
1
1
CommonBeamDepol,150mm sphere / downward view
0
0
0
0
Program
Program
3350/servo 860.8/2
3350/0.2 860.8/0.2
3350/0.2 860.8/0.2
0
1
 
 
 
0
 
860.8
319.2
860.8
Front
100
on
 
 
0
0
0
 
0
 
 
 
0
 
 
0
0
0
0
0
 
 
 
 
0
0


0
0
#HDR
-1
-1
#GR
nm
%T
1.0
0.0
2350.000000
-1.000000
2151
8
41.782855
0.252930
#DATA
2350.000000	12.660192
2349.000000	12.774517
2348.000000	12.711283
2347.000000	13.384912
2346.000000	12.962549
2345.000000	12.352351
2344.000000	12.227612
2343.000000	12.433272
2342.000000	12.634727
2341.000000	12.520661
2340.000000	12.814555
2339.000000	12.872896
2338.000000	13.215918
2337.000000	13.167879
2336.000000	13.342216
2335.000000	13.113058
2334.000000	13.645362
2333.000000	13.708319
2332.000000	13.590117
2331.000000	13.248035
2330.000000	13.295425
2329.000000	13.376854
2328.000000	13.158873
2327.000000	12.935861
2326.000000	13.281554
2325.000000	13.055393
2324.000000	13.189524
2323.000000	13.276746
2322.000000	13.200235
2321.000000	12.928653
2320.000000	13.181286
2319.000000	13.120596
2318.000000	12.877014
2317.000000	12.941661
2316.000000	12.835322
2315.000000	12.786812
2314.000000	12.943400
2313.000000	12.685724
2312.000000	12.314804
2311.000000	12.535779
2310.000000	12.372534
2309.000000	12.309996
2308.000000	12.116295
2307.000000	12.264066
2306.000000	12.248578
2305.000000	12.143995
2304.000000	12.168950
2303.000000	12.078716
2302.000000	11.990788
2301.000000	12.032249
2300.000000	11.856870
2299.000000	11.765651
2298.000000	11.809222
2297.000000	11.867656
2296.000000	11.772833
2295.000000	11.418356
2294.000000	11.478107
2293.000000	11.464663
2292.000000	11.160413
2291.000000	11.319360
2290.000000	11.302777
2289.000000	11.072811
2288.000000	11.181850
2287.000000	11.300667
2286.000000	11.244434
2285.000000	11.063932
2284.000000	11.035366
2283.000000	11.374371
2282.000000	11.171890
2281.000000	11.244202
2280.000000	11.071260
2279.000000	11.049511
2278.000000	11.188203
2277.000000	11.230188
2276.000000	11.199003
2275.000000	11.284311
2274.000000	11.341282
2273.000000	11.324198
2272.000000	11.440207
2271.000000	11.631022
2270.000000	11.607287
2269.000000	11.597420
2268.000000	11.572759
2267.000000	11.422389
2266.000000	11.616722
2265.000000	11.728243
2264.000000	11.765057
2263.000000	11.974042
2262.000000	12.078838
2261.000000	12.139843
2260.000000	12.246794
2259.000000	12.543594
2258.000000	12.678637
2257.000000	12.869775
2256.000000	12.992717
2255.000000	13.012073
2254.000000	13.114860
2253.000000	13.319749
2252.000000	13.644272
2251.000000	13.848204
2250.000000	13.873295
2249.000000	13.987139
2248.000000	14.197358
2247.000000	14.338229
2246.000000	14.639834
2245.000000	14.833965
2244.000000	14.899964
2243.000000	15.020019
2242.000000	15.107866
2241.000000	15.282806
2240.000000	15.340592
2239.000000	15.427321
2238.000000	15.598704
2237.000000	15.714694
2236.000000	15.740181
2235.000000	15.821074
2234.000000	15.892029
2233.000000	16.035595
2232.000000	16.142966
2231.000000	16.102436
2230.000000	16.169959
2229.000000	16.311878
2228.000000	16.194541
2227.000000	16.092191
2226.000000	16.173401
2225.000000	16.239417
2224.000000	16.194609
2223.000000	16.144913
2222.000000	16.150891
2221.000000	16.198702
2220.000000	16.140036
2219.000000	16.021308
2218.000000	16.061341
2217.000000	16.064722
2216.000000	16.054861
2215.000000	16.067751
2214.000000	15.927576
2213.000000	15.929354
2212.000000	15.813054
2211.000000	15.774491
2210.000000	15.681642
2209.000000	15.598976
2208.000000	15.613941
2207.000000	15.628205
2206.000000	15.538968
2205.000000	15.505537
2204.000000	15.469335
2203.000000	15.202687
2202.000000	15.134329
2201.000000	15.135514
2200.000000	15.037121
2199.000000	15.136849
2198.000000	15.066049
2197.000000	14.954685
2196.000000	14.869414
2195.000000	14.764470
2194.000000	14.644909
2193.000000	14.557344
2192.000000	14.504532
2191.000000	14.401811
2190.000000	14.417410
2189.000000	14.286897
2188.000000	14.256981
2187.000000	14.201642
2186.000000	14.180678
2185.000000	14.222304
2184.000000	14.177865
2183.000000	14.195608
2182.000000	14.029380
2181.000000	13.966479
2180.000000	14.052036
2179.000000	14.017210
2178.000000	13.940160
2177.000000	14.001935
2176.000000	13.975005
2175.000000	14.128667
2174.000000	14.065118
2173.000000	14.004967
2172.000000	14.132980
2171.000000	14.067280
2170.000000	14.154476
2169.000000	14.205956
2168.000000	14.442734
2167.000000	14.298859
2166.000000	14.216870
2165.000000	14.353968
2164.000000	14.464425
2163.000000	14.556763
2162.000000	14.542573
2161.000000	14.483696
2160.000000	14.921833
2159.000000	14.991127
2158.000000	15.063886
2157.000000	15.108710
2156.000000	15.275738
2155.000000	15.262992
2154.000000	15.668529
2153.000000	15.598553
2152.000000	15.758858
2151.000000	15.883700
2150.000000	15.933199
2149.000000	16.023054
2148.000000	16.183214
2147.000000	16.196656
2146.000000	16.159128
2145.000000	16.414602
2144.000000	16.822689
2143.000000	16.831798
2142.000000	16.965090
2141.000000	17.156070
2140.000000	17.137760
2139.000000	17.281395
2138.000000	17.413064
2137.000000	17.637221
2136.000000	17.499001
2135.000000	17.643886
2134.000000	17.485438
2133.000000	17.722557
2132.000000	18.133464
2131.000000	18.127661
2130.000000	18.184468
2129.000000	18.497130
2128.000000	18.129953
2127.000000	18.133338
2126.000000	18.213927
2125.000000	18.313478
2124.000000	18.397294
2123.000000	18.263956
2122.000000	18.543427
2121.000000	18.439565
2120.000000	18.667598
2119.000000	18.648366
2118.000000	18.792752
2117.000000	18.762167
2116.000000	18.890561
2115.000000	18.961143
2114.000000	18.834549
2113.000000	18.929163
2112.000000	18.749099
2111.000000	18.934241
2110.000000	18.920782
2109.000000	18.919949
2108.000000	18.909771
2107.000000	18.989843
2106.000000	19.012872
2105.000000	19.018228
2104.000000	19.021859
2103.000000	19.014668
2102.000000	19.150355
2101.000000	19.003697
2100.000000	19.124314
2099.000000	19.114242
2098.000000	19.095604
2097.000000	19.057109
2096.000000	19.084548
2095.000000	19.150694
2094.000000	19.087188
2093.000000	19.093102
2092.000000	19.112954
2091.000000	19.042155
2090.000000	18.985199
2089.000000	19.068274
2088.000000	19.020140
2087.000000	18.872964
2086.000000	18.858861
2085.000000	18.879560
2084.000000	18.914007
2083.000000	18.826760
2082.000000	18.728057
2081.000000	18.668239
2080.000000	18.534857
2079.000000	18.523227
2078.000000	18.491558
2077.000000	18.379796
2076.000000	18.349698
2075.000000	18.254151
2074.000000	18.192048
2073.000000	18.115908
2072.000000	18.063281
2071.000000	17.947204
2070.000000	17.850802
2069.000000	17.704419
2068.000000	17.569530
2067.000000	17.463988
2066.000000	17.288835
2065.000000	17.208833
2064.000000	17.108094
2063.000000	16.975685
2062.000000	16.884350
2061.000000	16.679758
2060.000000	16.514494
2059.000000	16.501072
2058.000000	16.363130
2057.000000	16.230880
2056.000000	16.056565
2055.000000	15.974830
2054.000000	15.890523
2053.000000	15.784867
2052.000000	15.665278
2051.000000	15.487980
2050.000000	15.457044
2049.000000	15.425052
2048.000000	15.323696
2047.000000	15.256892
2046.000000	15.219034
2045.000000	15.160514
2044.000000	15.122227
2043.000000	15.140052
2042.000000	15.197733
2041.000000	15.236422
2040.000000	15.227279
2039.000000	15.198400
2038.000000	15.243416
2037.000000	15.307729
2036.000000	15.339759
2035.000000	15.431364
2034.000000	15.470229
2033.000000	15.534814
2032.000000	15.693423
2031.000000	15.743647
2030.000000	15.804189
2029.000000	15.919015
2028.000000	16.054356
2027.000000	16.205506
2026.000000	16.382141
2025.000000	16.464886
2024.000000	16.513795
2023.000000	16.622975
2022.000000	16.688944
2021.000000	16.774471
2020.000000	16.879107
2019.000000	16.926490
2018.000000	16.947392
2017.000000	16.969216
2016.000000	16.981852
2015.000000	16.982493
2014.000000	17.012766
2013.000000	17.056824
2012.000000	17.057575
2011.000000	17.061520
2010.000000	17.034953
2009.000000	16.975804
2008.000000	16.930719
2007.000000	16.880780
2006.000000	16.833590
2005.000000	16.805827
2004.000000	16.727242
2003.000000	16.672542
2002.000000	16.611885
2001.000000	16.555714
2000.000000	16.475459
1999.000000	16.386365
1998.000000	16.359623
1997.000000	16.302359
1996.000000	16.237427
1995.000000	16.105327
1994.000000	16.006934
1993.000000	15.959058
1992.000000	15.879361
1991.000000	15.791121
1990.000000	15.737612
1989.000000	15.645763
1988.000000	15.554186
1987.000000	15.455870
1986.000000	15.372844
1985.000000	15.351516
1984.000000	15.282646
1983.000000	15.235136
1982.000000	15.155014
1981.000000	15.111169
1980.000000	15.020741
1979.000000	14.917933
1978.000000	14.849513
1977.000000	14.776093
1976.000000	14.706321
1975.000000	14.612521
1974.000000	14.566165
1973.000000	14.486921
1972.000000	14.441355
1971.000000	14.392068
1970.000000	14.295934
1969.000000	14.242005
1968.000000	14.187672
1967.000000	14.123130
1966.000000	14.049482
1965.000000	14.012532
1964.000000	13.955247
1963.000000	13.894905
1962.000000	13.821480
1961.000000	13.779083
1960.000000	13.675546
1959.000000	13.634599
1958.000000	13.571998
1957.000000	13.528834
1956.000000	13.515116
1955.000000	13.414904
1954.000000	13.380402
1953.000000	13.360008
1952.000000	13.304285
1951.000000	13.282053
1950.000000	13.267236
1949.000000	13.207645
1948.000000	13.221917
1947.000000	13.173619
1946.000000	13.165770
1945.000000	13.195164
1944.000000	13.167910
1943.000000	13.227000
1942.000000	13.164634
1941.000000	13.250912
1940.000000	13.397351
1939.000000	13.412521
1938.000000	13.481729
1937.000000	13.557730
1936.000000	13.616721
1935.000000	13.614342
1934.000000	13.710612
1933.000000	13.852988
1932.000000	13.944554
1931.000000	14.012276
1930.000000	14.220550
1929.000000	14.339458
1928.000000	14.528235
1927.000000	14.661122
1926.000000	14.800353
1925.000000	15.037335
1924.000000	15.193966
1923.000000	15.359828
1922.000000	15.615232
1921.000000	15.806795
1920.000000	16.064250
1919.000000	16.333312
1918.000000	16.602272
1917.000000	16.847672
1916.000000	16.976814
1915.000000	17.393787
1914.000000	17.684398
1913.000000	18.052208
1912.000000	18.281659
1911.000000	18.577387
1910.000000	18.946022
1909.000000	19.267308
1908.000000	19.535475
1907.000000	19.892050
1906.000000	20.335252
1905.000000	20.634890
1904.000000	21.049709
1903.000000	21.458732
1902.000000	21.825934
1901.000000	22.254208
1900.000000	22.710654
1899.000000	23.096148
1898.000000	23.539873
1897.000000	23.865846
1896.000000	24.344184
1895.000000	24.740966
1894.000000	25.127570
1893.000000	25.519130
1892.000000	25.920495
1891.000000	26.251516
1890.000000	26.714272
1889.000000	27.085204
1888.000000	27.407287
1887.000000	27.773784
1886.000000	28.143886
1885.000000	28.464372
1884.000000	28.861730
1883.000000	29.184925
1882.000000	29.406558
1881.000000	29.670569
1880.000000	29.961630
1879.000000	30.135187
1878.000000	30.487525
1877.000000	30.754897
1876.000000	30.970209
1875.000000	31.142266
1874.000000	31.329946
1873.000000	31.547990
1872.000000	31.699625
1871.000000	31.864904
1870.000000	31.959161
1869.000000	32.102113
1868.000000	32.234336
1867.000000	32.354908
1866.000000	32.412888
1865.000000	32.469732
1864.000000	32.502175
1863.000000	32.628226
1862.000000	32.679414
1861.000000	32.708086
1860.000000	32.753111
1859.000000	32.767467
1858.000000	32.793939
1857.000000	32.811163
1856.000000	32.848500
1855.000000	32.879245
1854.000000	32.868662
1853.000000	32.884432
1852.000000	32.910536
1851.000000	32.913510
1850.000000	32.915631
1849.000000	32.913281
1848.000000	32.887188
1847.000000	32.912293
1846.000000	32.867552
1845.000000	32.856750
1844.000000	32.841682
1843.000000	32.825026
1842.000000	32.783312
1841.000000	32.725477
1840.000000	32.694186
1839.000000	32.673013
1838.000000	32.664533
1837.000000	32.616521
1836.000000	32.573539
1835.000000	32.519641
1834.000000	32.483764
1833.000000	32.421245
1832.000000	32.365349
1831.000000	32.314919
1830.000000	32.307917
1829.000000	32.282992
1828.000000	32.210245
1827.000000	32.167230
1826.000000	32.132228
1825.000000	32.087908
1824.000000	32.047509
1823.000000	32.021615
1822.000000	31.985742
1821.000000	31.941650
1820.000000	31.889336
1819.000000	31.855312
1818.000000	31.812155
1817.000000	31.756593
1816.000000	31.715293
1815.000000	31.704765
1814.000000	31.669511
1813.000000	31.615313
1812.000000	31.572131
1811.000000	31.551187
1810.000000	31.525781
1809.000000	31.505757
1808.000000	31.467602
1807.000000	31.421578
1806.000000	31.384235
1805.000000	31.336792
1804.000000	31.310149
1803.000000	31.300895
1802.000000	31.264524
1801.000000	31.221690
1800.000000	31.210581
1799.000000	31.194532
1798.000000	31.149013
1797.000000	31.126984
1796.000000	31.124206
1795.000000	31.094350
1794.000000	31.077450
1793.000000	31.049272
1792.000000	31.027681
1791.000000	31.005381
1790.000000	30.982494
1789.000000	30.976153
1788.000000	30.944372
1787.000000	30.903998
1786.000000	30.884959
1785.000000	30.847900
1784.000000	30.812901
1783.000000	30.787940
1782.000000	30.765831
1781.000000	30.731554
1780.000000	30.702184
1779.000000	30.682402
1778.000000	30.617496
1777.000000	30.553072
1776.000000	30.490510
1775.000000	30.412716
1774.000000	30.373176
1773.000000	30.317540
1772.000000	30.235514
1771.000000	30.178803
1770.000000	30.116609
1769.000000	30.044033
1768.000000	29.972471
1767.000000	29.932476
1766.000000	29.878334
1765.000000	29.816147
1764.000000	29.760756
1763.000000	29.664441
1762.000000	29.606017
1761.000000	29.544049
1760.000000	29.484702
1759.000000	29.401803
1758.000000	29.363714
1757.000000	29.325104
1756.000000	29.260286
1755.000000	29.214584
1754.000000	29.138952
1753.000000	29.055251
1752.000000	29.011944
1751.000000	28.969780
1750.000000	28.911753
1749.000000	28.833663
1748.000000	28.759782
1747.000000	28.682398
1746.000000	28.613560
1745.000000	28.549193
1744.000000	28.508191
1743.000000	28.435131
1742.000000	28.360584
1741.000000	28.287361
1740.000000	28.242400
1739.000000	28.182045
1738.000000	28.144922
1737.000000	28.109264
1736.000000	28.057725
1735.000000	28.026542
1734.000000	28.003931
1733.000000	27.992196
1732.000000	27.953458
1731.000000	27.945751
1730.000000	27.971038
1729.000000	27.985042
1728.000000	28.014355
1727.000000	28.080423
1726.000000	28.100127
1725.000000	28.145205
1724.000000	28.219037
1723.000000	28.293533
1722.000000	28.368038
1721.000000	28.445171
1720.000000	28.534372
1719.000000	28.663800
1718.000000	28.728562
1717.000000	28.815392
1716.000000	28.914617
1715.000000	28.969232
1714.000000	29.045135
1713.000000	29.137701
1712.000000	29.213628
1711.000000	29.284824
1710.000000	29.351594
1709.000000	29.364308
1708.000000	29.436861
1707.000000	29.497711
1706.000000	29.517580
1705.000000	29.562443
1704.000000	29.579349
1703.000000	29.616076
1702.000000	29.619975
1701.000000	29.627791
1700.000000	29.668295
1699.000000	29.652974
1698.000000	29.724047
1697.000000	29.737855
1696.000000	29.817588
1695.000000	29.836452
1694.000000	29.854054
1693.000000	29.925352
1692.000000	29.955839
1691.000000	30.044070
1690.000000	30.099194
1689.000000	30.205037
1688.000000	30.302112
1687.000000	30.415008
1686.000000	30.528445
1685.000000	30.661912
1684.000000	30.808855
1683.000000	30.938616
1682.000000	31.096987
1681.000000	31.276795
1680.000000	31.445845
1679.000000	31.600924
1678.000000	31.753049
1677.000000	31.936212
1676.000000	32.122400
1675.000000	32.290330
1674.000000	32.458558
1673.000000	32.620862
1672.000000	32.782469
1671.000000	32.946400
1670.000000	33.102831
1669.000000	33.272797
1668.000000	33.399962
1667.000000	33.561657
1666.000000	33.625969
1665.000000	33.691408
1664.000000	33.823906
1663.000000	33.916024
1662.000000	33.992326
1661.000000	34.096312
1660.000000	34.144879
1659.000000	34.205452
1658.000000	34.271005
1657.000000	34.323105
1656.000000	34.363204
1655.000000	34.400824
1654.000000	34.419593
1653.000000	34.427944
1652.000000	34.447144
1651.000000	34.464528
1650.000000	34.479619
1649.000000	34.471014
1648.000000	34.446856
1647.000000	34.450974
1646.000000	34.438839
1645.000000	34.412089
1644.000000	34.390726
1643.000000	34.363249
1642.000000	34.357604
1641.000000	34.338920
1640.000000	34.300341
1639.000000	34.277310
1638.000000	34.253530
1637.000000	34.219795
1636.000000	34.184641
1635.000000	34.162395
1634.000000	34.111332
1633.000000	34.054771
1632.000000	34.033564
1631.000000	33.996883
1630.000000	33.950300
1629.000000	33.910248
1628.000000	33.869339
1627.000000	33.821973
1626.000000	33.779245
1625.000000	33.744175
1624.000000	33.691703
1623.000000	33.654076
1622.000000	33.617329
1621.000000	33.558707
1620.000000	33.508218
1619.000000	33.464885
1618.000000	33.406817
1617.000000	33.360776
1616.000000	33.310213
1615.000000	33.256649
1614.000000	33.203074
1613.000000	33.164270
1612.000000	33.114427
1611.000000	33.045813
1610.000000	32.990926
1609.000000	32.929799
1608.000000	32.879045
1607.000000	32.836326
1606.000000	32.774964
1605.000000	32.707384
1604.000000	32.639839
1603.000000	32.578794
1602.000000	32.523187
1601.000000	32.464689
1600.000000	32.401192
1599.000000	32.345025
1598.000000	32.280391
1597.000000	32.232990
1596.000000	32.182587
1595.000000	32.128860
1594.000000	32.073256
1593.000000	32.010361
1592.000000	31.954993
1591.000000	31.905939
1590.000000	31.864345
1589.000000	31.808733
1588.000000	31.754437
1587.000000	31.711414
1586.000000	31.658425
1585.000000	31.607313
1584.000000	31.570452
1583.000000	31.525859
1582.000000	31.473453
1581.000000	31.425731
1580.000000	31.386416
1579.000000	31.345207
1578.000000	31.310275
1577.000000	31.267482
1576.000000	31.208893
1575.000000	31.168341
1574.000000	31.127952
1573.000000	31.076715
1572.000000	31.034954
1571.000000	30.998525
1570.000000	30.962496
1569.000000	30.920486
1568.000000	30.880284
1567.000000	30.848014
1566.000000	30.815066
1565.000000	30.780708
1564.000000	30.751632
1563.000000	30.730821
1562.000000	30.698206
1561.000000	30.659650
1560.000000	30.632452
1559.000000	30.601342
1558.000000	30.580549
1557.000000	30.563300
1556.000000	30.532619
1555.000000	30.508895
1554.000000	30.471018
1553.000000	30.444988
1552.000000	30.427874
1551.000000	30.395842
1550.000000	30.366222
1549.000000	30.337720
1548.000000	30.286725
1547.000000	30.225200
1546.000000	30.172573
1545.000000	30.123776
1544.000000	30.063743
1543.000000	29.989970
1542.000000	29.919125
1541.000000	29.853341
1540.000000	29.784043
1539.000000	29.699118
1538.000000	29.611618
1537.000000	29.540068
1536.000000	29.452186
1535.000000	29.371638
1534.000000	29.281431
1533.000000	29.205115
1532.000000	29.112277
1531.000000	29.035167
1530.000000	28.942636
1529.000000	28.852843
1528.000000	28.786727
1527.000000	28.721426
1526.000000	28.635382
1525.000000	28.562752
1524.000000	28.500341
1523.000000	28.450723
1522.000000	28.382883
1521.000000	28.322187
1520.000000	28.268985
1519.000000	28.229658
1518.000000	28.190403
1517.000000	28.132913
1516.000000	28.103929
1515.000000	28.049684
1514.000000	28.027387
1513.000000	27.992780
1512.000000	27.951833
1511.000000	27.937445
1510.000000	27.901463
1509.000000	27.868710
1508.000000	27.847093
1507.000000	27.841968
1506.000000	27.824223
1505.000000	27.788512
1504.000000	27.795091
1503.000000	27.804436
1502.000000	27.757980
1501.000000	27.765142
1500.000000	27.777041
1499.000000	27.805211
1498.000000	27.826608
1497.000000	27.868200
1496.000000	27.851792
1495.000000	27.873596
1494.000000	27.873534
1493.000000	27.895295
1492.000000	27.933016
1491.000000	27.954946
1490.000000	28.010246
1489.000000	28.042454
1488.000000	28.114410
1487.000000	28.155563
1486.000000	28.189177
1485.000000	28.265572
1484.000000	28.325065
1483.000000	28.411459
1482.000000	28.459612
1481.000000	28.566629
1480.000000	28.611670
1479.000000	28.677547
1478.000000	28.772421
1477.000000	28.825128
1476.000000	28.889478
1475.000000	28.949789
1474.000000	29.018723
1473.000000	29.084943
1472.000000	29.153642
1471.000000	29.220532
1470.000000	29.266617
1469.000000	29.329486
1468.000000	29.403490
1467.000000	29.452216
1466.000000	29.513171
1465.000000	29.572743
1464.000000	29.616536
1463.000000	29.652599
1462.000000	29.723716
1461.000000	29.800350
1460.000000	29.833811
1459.000000	29.875724
1458.000000	29.911456
1457.000000	29.988695
1456.000000	30.056249
1455.000000	30.090059
1454.000000	30.127932
1453.000000	30.200925
1452.000000	30.279208
1451.000000	30.321186
1450.000000	30.362682
1449.000000	30.414318
1448.000000	30.503261
1447.000000	30.559651
1446.000000	30.609596
1445.000000	30.669589
1444.000000	30.728420
1443.000000	30.796412
1442.000000	30.883100
1441.000000	30.962709
1440.000000	31.025412
1439.000000	31.097995
1438.000000	31.155471
1437.000000	31.242103
1436.000000	31.326622
1435.000000	31.407139
1434.000000	31.492573
1433.000000	31.580252
1432.000000	31.704556
1431.000000	31.813965
1430.000000	31.916422
1429.000000	32.005552
1428.000000	32.114079
1427.000000	32.201715
1426.000000	32.328589
1425.000000	32.434029
1424.000000	32.548989
1423.000000	32.674549
1422.000000	32.798482
1421.000000	32.932433
1420.000000	33.078487
1419.000000	33.215123
1418.000000	33.358777
1417.000000	33.508756
1416.000000	33.651781
1415.000000	33.788853
1414.000000	33.942647
1413.000000	34.103341
1412.000000	34.269675
1411.000000	34.429837
1410.000000	34.579854
1409.000000	34.712136
1408.000000	34.878927
1407.000000	35.045376
1406.000000	35.197858
1405.000000	35.347290
1404.000000	35.498524
1403.000000	35.654022
1402.000000	35.802826
1401.000000	35.948332
1400.000000	36.077861
1399.000000	36.210862
1398.000000	36.348525
1397.000000	36.482127
1396.000000	36.598760
1395.000000	36.718610
1394.000000	36.853777
1393.000000	36.972606
1392.000000	37.082519
1391.000000	37.196747
1390.000000	37.313763
1389.000000	37.417674
1388.000000	37.519509
1387.000000	37.631691
1386.000000	37.743250
1385.000000	37.847423
1384.000000	37.934955
1383.000000	38.013866
1382.000000	38.095675
1381.000000	38.185128
1380.000000	38.268326
1379.000000	38.341050
1378.000000	38.408259
1377.000000	38.474880
1376.000000	38.527201
1375.000000	38.574746
1374.000000	38.633518
1373.000000	38.673990
1372.000000	38.724483
1371.000000	38.790622
1370.000000	38.832816
1369.000000	38.873581
1368.000000	38.924880
1367.000000	38.967171
1366.000000	38.998032
1365.000000	39.034948
1364.000000	39.084477
1363.000000	39.135340
1362.000000	39.186891
1361.000000	39.247492
1360.000000	39.304282
1359.000000	39.373620
1358.000000	39.436367
1357.000000	39.468401
1356.000000	39.507992
1355.000000	39.553074
1354.000000	39.608391
1353.000000	39.657647
1352.000000	39.718345
1351.000000	39.760128
1350.000000	39.817497
1349.000000	39.862040
1348.000000	39.918965
1347.000000	39.980224
1346.000000	40.019514
1345.000000	40.066909
1344.000000	40.110400
1343.000000	40.148363
1342.000000	40.198023
1341.000000	40.257359
1340.000000	40.308457
1339.000000	40.351370
1338.000000	40.386738
1337.000000	40.405811
1336.000000	40.435362
1335.000000	40.478951
1334.000000	40.498254
1333.000000	40.519894
1332.000000	40.548298
1331.000000	40.589906
1330.000000	40.622223
1329.000000	40.640362
1328.000000	40.656784
1327.000000	40.687648
1326.000000	40.722016
1325.000000	40.743871
1324.000000	40.748009
1323.000000	40.765430
1322.000000	40.768925
1321.000000	40.777857
1320.000000	40.797119
1319.000000	40.841169
1318.000000	40.850321
1317.000000	40.835984
1316.000000	40.836470
1315.000000	40.835999
1314.000000	40.838717
1313.000000	40.872344
1312.000000	40.896271
1311.000000	40.889732
1310.000000	40.884131
1309.000000	40.875514
1308.000000	40.893991
1307.000000	40.908031
1306.000000	40.925207
1305.000000	40.911318
1304.000000	40.929768
1303.000000	40.948839
1302.000000	40.951995
1301.000000	40.949840
1300.000000	40.945836
1299.000000	40.956437
1298.000000	40.949884
1297.000000	40.932094
1296.000000	40.936564
1295.000000	40.938567
1294.000000	40.934302
1293.000000	40.928090
1292.000000	40.908705
1291.000000	40.898702
1290.000000	40.903563
1289.000000	40.907668
1288.000000	40.896624
1287.000000	40.892702
1286.000000	40.903107
1285.000000	40.892096
1284.000000	40.866117
1283.000000	40.833854
1282.000000	40.814919
1281.000000	40.816662
1280.000000	40.832760
1279.000000	40.815632
1278.000000	40.813898
1277.000000	40.813049
1276.000000	40.816471
1275.000000	40.810889
1274.000000	40.801871
1273.000000	40.799023
1272.000000	40.813880
1271.000000	40.796952
1270.000000	40.803828
1269.000000	40.805301
1268.000000	40.807248
1267.000000	40.803626
1266.000000	40.805715
1265.000000	40.796300
1264.000000	40.829008
1263.000000	40.847790
1262.000000	40.852245
1261.000000	40.825373
1260.000000	40.848530
1259.000000	40.820865
1258.000000	40.858523
1257.000000	40.884985
1256.000000	40.872560
1255.000000	40.860887
1254.000000	40.864592
1253.000000	40.859999
1252.000000	40.847508
1251.000000	40.857352
1250.000000	40.860282
1249.000000	40.845964
1248.000000	40.829715
1247.000000	40.837397
1246.000000	40.833954
1245.000000	40.817915
1244.000000	40.808269
1243.000000	40.798520
1242.000000	40.775858
1241.000000	40.765351
1240.000000	40.735078
1239.000000	40.690498
1238.000000	40.679894
1237.000000	40.635258
1236.000000	40.608702
1235.000000	40.589318
1234.000000	40.565951
1233.000000	40.533560
1232.000000	40.525972
1231.000000	40.482334
1230.000000	40.447962
1229.000000	40.441856
1228.000000	40.410964
1227.000000	40.348527
1226.000000	40.325636
1225.000000	40.306609
1224.000000	40.286445
1223.000000	40.264807
1222.000000	40.252398
1221.000000	40.221732
1220.000000	40.196892
1219.000000	40.155780
1218.000000	40.123860
1217.000000	40.093851
1216.000000	40.074487
1215.000000	40.052669
1214.000000	40.009355
1213.000000	39.996319
1212.000000	39.963473
1211.000000	39.931189
1210.000000	39.906507
1209.000000	39.868249
1208.000000	39.838561
1207.000000	39.780045
1206.000000	39.748567
1205.000000	39.731486
1204.000000	39.701218
1203.000000	39.653888
1202.000000	39.615690
1201.000000	39.582032
1200.000000	39.555372
1199.000000	39.527185
1198.000000	39.508232
1197.000000	39.450797
1196.000000	39.417548
1195.000000	39.406718
1194.000000	39.366065
1193.000000	39.338579
1192.000000	39.317551
1191.000000	39.301768
1190.000000	39.268301
1189.000000	39.230383
1188.000000	39.230421
1187.000000	39.229941
1186.000000	39.213733
1185.000000	39.225714
1184.000000	39.226288
1183.000000	39.226465
1182.000000	39.249654
1181.000000	39.268830
1180.000000	39.296288
1179.000000	39.339847
1178.000000	39.368395
1177.000000	39.405917
1176.000000	39.442965
1175.000000	39.485576
1174.000000	39.516790
1173.000000	39.545468
1172.000000	39.600153
1171.000000	39.660365
1170.000000	39.719027
1169.000000	39.777429
1168.000000	39.844250
1167.000000	39.917253
1166.000000	39.987973
1165.000000	40.061533
1164.000000	40.127105
1163.000000	40.188316
1162.000000	40.256862
1161.000000	40.317757
1160.000000	40.382341
1159.000000	40.451069
1158.000000	40.510399
1157.000000	40.560836
1156.000000	40.608107
1155.000000	40.661418
1154.000000	40.710927
1153.000000	40.767390
1152.000000	40.826352
1151.000000	40.871866
1150.000000	40.915673
1149.000000	40.958840
1148.000000	40.996498
1147.000000	41.033946
1146.000000	41.071942
1145.000000	41.105148
1144.000000	41.119856
1143.000000	41.155577
1142.000000	41.197544
1141.000000	41.240028
1140.000000	41.278565
1139.000000	41.307113
1138.000000	41.346982
1137.000000	41.395750
1136.000000	41.420885
1135.000000	41.446677
1134.000000	41.482863
1133.000000	41.506285
1132.000000	41.522594
1131.000000	41.553041
1130.000000	41.596000
1129.000000	41.630135
1128.000000	41.626628
1127.000000	41.634118
1126.000000	41.659079
1125.000000	41.674612
1124.000000	41.685067
1123.000000	41.695260
1122.000000	41.715540
1121.000000	41.729892
1120.000000	41.733641
1119.000000	41.747854
1118.000000	41.761893
1117.000000	41.764134
1116.000000	41.760920
1115.000000	41.756282
1114.000000	41.758900
1113.000000	41.774086
1112.000000	41.780329
1111.000000	41.780441
1110.000000	41.757165
1109.000000	41.745412
1108.000000	41.749346
1107.000000	41.762319
1106.000000	41.782855
1105.000000	41.767775
1104.000000	41.759775
1103.000000	41.773923
1102.000000	41.764903
1101.000000	41.771888
1100.000000	41.782431
1099.000000	41.756260
1098.000000	41.749365
1097.000000	41.751090
1096.000000	41.745523
1095.000000	41.746466
1094.000000	41.756597
1093.000000	41.746806
1092.000000	41.717663
1091.000000	41.720365
1090.000000	41.722039
1089.000000	41.717200
1088.000000	41.729655
1087.000000	41.732300
1086.000000	41.718883
1085.000000	41.690476
1084.000000	41.689377
1083.000000	41.701246
1082.000000	41.703908
1081.000000	41.685823
1080.000000	41.673392
1079.000000	41.677620
1078.000000	41.640069
1077.000000	41.641717
1076.000000	41.642837
1075.000000	41.647679
1074.000000	41.614332
1073.000000	41.622234
1072.000000	41.631627
1071.000000	41.578674
1070.000000	41.580852
1069.000000	41.581498
1068.000000	41.584851
1067.000000	41.576474
1066.000000	41.564215
1065.000000	41.569552
1064.000000	41.515561
1063.000000	41.528453
1062.000000	41.515336
1061.000000	41.528709
1060.000000	41.506018
1059.000000	41.509958
1058.000000	41.488114
1057.000000	41.465256
1056.000000	41.439851
1055.000000	41.446386
1054.000000	41.435853
1053.000000	41.442369
1052.000000	41.412191
1051.000000	41.404948
1050.000000	41.401307
1049.000000	41.426260
1048.000000	41.345693
1047.000000	41.367831
1046.000000	41.379963
1045.000000	41.356513
1044.000000	41.355681
1043.000000	41.315814
1042.000000	41.307863
1041.000000	41.309518
1040.000000	41.327244
1039.000000	41.284551
1038.000000	41.287168
1037.000000	41.288981
1036.000000	41.298182
1035.000000	41.297662
1034.000000	41.269058
1033.000000	41.263683
1032.000000	41.264542
1031.000000	41.228568
1030.000000	41.239212
1029.000000	41.239077
1028.000000	41.248532
1027.000000	41.240179
1026.000000	41.234694
1025.000000	41.235048
1024.000000	41.234388
1023.000000	41.229364
1022.000000	41.222101
1021.000000	41.198577
1020.000000	41.195404
1019.000000	41.214626
1018.000000	41.221852
1017.000000	41.209738
1016.000000	41.215155
1015.000000	41.213861
1014.000000	41.219344
1013.000000	41.228289
1012.000000	41.228122
1011.000000	41.217662
1010.000000	41.222580
1009.000000	41.226871
1008.000000	41.225273
1007.000000	41.230855
1006.000000	41.237300
1005.000000	41.248494
1004.000000	41.270385
1003.000000	41.288407
1002.000000	41.280020
1001.000000	41.283337
1000.000000	41.302018
999.000000	41.318625
998.000000	41.321647
997.000000	41.314889
996.000000	41.322240
995.000000	41.320959
994.000000	41.327354
993.000000	41.342806
992.000000	41.346449
991.000000	41.337896
990.000000	41.337253
989.000000	41.342642
988.000000	41.352378
987.000000	41.359536
986.000000	41.367171
985.000000	41.365084
984.000000	41.372171
983.000000	41.382170
982.000000	41.370601
981.000000	41.386030
980.000000	41.382765
979.000000	41.373893
978.000000	41.386758
977.000000	41.387505
976.000000	41.396053
975.000000	41.407239
974.000000	41.411977
973.000000	41.399916
972.000000	41.395618
971.000000	41.418226
970.000000	41.426226
969.000000	41.423449
968.000000	41.427922
967.000000	41.436873
966.000000	41.431663
965.000000	41.436984
964.000000	41.443194
963.000000	41.446571
962.000000	41.453149
961.000000	41.441413
960.000000	41.436235
959.000000	41.449123
958.000000	41.449970
957.000000	41.459521
956.000000	41.472367
955.000000	41.468828
954.000000	41.462565
953.000000	41.468021
952.000000	41.470286
951.000000	41.473625
950.000000	41.476798
949.000000	41.464855
948.000000	41.468911
947.000000	41.475925
946.000000	41.481901
945.000000	41.465738
944.000000	41.452058
943.000000	41.447833
942.000000	41.452059
941.000000	41.469856
940.000000	41.457590
939.000000	41.473115
938.000000	41.488592
937.000000	41.465534
936.000000	41.453869
935.000000	41.443984
934.000000	41.453696
933.000000	41.455038
932.000000	41.436899
931.000000	41.441173
930.000000	41.440563
929.000000	41.439044
928.000000	41.433887
927.000000	41.417625
926.000000	41.409462
925.000000	41.420502
924.000000	41.439590
923.000000	41.430177
922.000000	41.425462
921.000000	41.404029
920.000000	41.381074
919.000000	41.391366
918.000000	41.383279
917.000000	41.390457
916.000000	41.382068
915.000000	41.383478
914.000000	41.371380
913.000000	41.340016
912.000000	41.383774
911.000000	41.409742
910.000000	41.414641
909.000000	41.394205
908.000000	41.380039
907.000000	41.387824
906.000000	41.368840
905.000000	41.331950
904.000000	41.339983
903.000000	41.378765
902.000000	41.365706
901.000000	41.360080
900.000000	41.382098
899.000000	41.396235
898.000000	41.368643
897.000000	41.343816
896.000000	41.383253
895.000000	41.405685
894.000000	41.436766
893.000000	41.413490
892.000000	41.384945
891.000000	41.382733
890.000000	41.352194
889.000000	41.389347
888.000000	41.468223
887.000000	41.444740
886.000000	41.418345
885.000000	41.451422
884.000000	41.425686
883.000000	41.369648
882.000000	41.365324
881.000000	41.435107
880.000000	41.431748
879.000000	41.410484
878.000000	41.446351
877.000000	41.389086
876.000000	41.468955
875.000000	41.419290
874.000000	41.425771
873.000000	41.436830
872.000000	41.350496
871.000000	41.424158
870.000000	41.383003
869.000000	41.369052
868.000000	41.383967
867.000000	41.374142
866.000000	41.387310
865.000000	41.351876
864.000000	41.397869
863.000000	41.311122
862.000000	41.309453
861.000000	41.354345
860.000000	41.272268
859.000000	41.255360
858.000000	41.301507
857.000000	41.453389
856.000000	41.400291
855.000000	41.128729
854.000000	41.206549
853.000000	41.279228
852.000000	41.301747
851.000000	41.348241
850.000000	41.319028
849.000000	41.049683
848.000000	41.203146
847.000000	41.277992
846.000000	41.312706
845.000000	41.028125
844.000000	41.213374
843.000000	41.175356
842.000000	41.282270
841.000000	41.230988
840.000000	41.165222
839.000000	41.225355
838.000000	41.067839
837.000000	41.210280
836.000000	41.142786
835.000000	41.191773
834.000000	41.083721
833.000000	41.101682
832.000000	41.184384
831.000000	41.093690
830.000000	41.169239
829.000000	41.152038
828.000000	41.230721
827.000000	41.054212
826.000000	41.046122
825.000000	40.962181
824.000000	41.033752
823.000000	40.934840
822.000000	40.833808
821.000000	40.979177
820.000000	40.997914
819.000000	41.032812
818.000000	40.994968
817.000000	41.057952
816.000000	40.910410
815.000000	40.742217
814.000000	40.945012
813.000000	40.803714
812.000000	41.045254
811.000000	40.767981
810.000000	40.856070
809.000000	40.942399
808.000000	40.803276
807.000000	40.821798
806.000000	40.886292
805.000000	40.755853
804.000000	40.785528
803.000000	40.846779
802.000000	40.814982
801.000000	40.783790
800.000000	40.827519
799.000000	40.765871
798.000000	40.736135
797.000000	40.764262
796.000000	40.743419
795.000000	40.679741
794.000000	40.731250
793.000000	40.674135
792.000000	40.713389
791.000000	40.654123
790.000000	40.594179
789.000000	40.629195
788.000000	40.614111
787.000000	40.654927
786.000000	40.535102
785.000000	40.571208
784.000000	40.621293
783.000000	40.601688
782.000000	40.536778
781.000000	40.592122
780.000000	40.526058
779.000000	40.505836
778.000000	40.420067
777.000000	40.484869
776.000000	40.436297
775.000000	40.422720
774.000000	40.458308
773.000000	40.490247
772.000000	40.449788
771.000000	40.433935
770.000000	40.472527
769.000000	40.339682
768.000000	40.316782
767.000000	40.355172
766.000000	40.350891
765.000000	40.323836
764.000000	40.316254
763.000000	40.262258
762.000000	40.261997
761.000000	40.240837
760.000000	40.224390
759.000000	40.306347
758.000000	40.296839
757.000000	40.277415
756.000000	40.238016
755.000000	40.194778
754.000000	40.206463
753.000000	40.148818
752.000000	40.148726
751.000000	40.190037
750.000000	40.143154
749.000000	40.137845
748.000000	40.128261
747.000000	40.095228
746.000000	40.087668
745.000000	40.052000
744.000000	40.001966
743.000000	40.010789
742.000000	40.036144
741.000000	40.022033
740.000000	39.950544
739.000000	39.929679
738.000000	39.940857
737.000000	39.971912
736.000000	39.942885
735.000000	39.934346
734.000000	39.911817
733.000000	39.845573
732.000000	39.809878
731.000000	39.794781
730.000000	39.767994
729.000000	39.752042
728.000000	39.738619
727.000000	39.745910
726.000000	39.740667
725.000000	39.732144
724.000000	39.729119
723.000000	39.703340
722.000000	39.669993
721.000000	39.665889
720.000000	39.661952
719.000000	39.615980
718.000000	39.567798
717.000000	39.552069
716.000000	39.529941
715.000000	39.526028
714.000000	39.505535
713.000000	39.508775
712.000000	39.543579
711.000000	39.519085
710.000000	39.426715
709.000000	39.376499
708.000000	39.398473
707.000000	39.403263
706.000000	39.390092
705.000000	39.326859
704.000000	39.284808
703.000000	39.293730
702.000000	39.274809
701.000000	39.201675
700.000000	39.171120
699.000000	39.185610
698.000000	39.183449
697.000000	39.164473
696.000000	39.141412
695.000000	39.121749
694.000000	39.103568
693.000000	39.063249
692.000000	39.065160
691.000000	39.038049
690.000000	39.010544
689.000000	38.961753
688.000000	38.883490
687.000000	38.870120
686.000000	38.844523
685.000000	38.827832
684.000000	38.759381
683.000000	38.728979
682.000000	38.702353
681.000000	38.695590
680.000000	38.694757
679.000000	38.654098
678.000000	38.612705
677.000000	38.588272
676.000000	38.568033
675.000000	38.548288
674.000000	38.485190
673.000000	38.441553
672.000000	38.420234
671.000000	38.431221
670.000000	38.400691
669.000000	38.363710
668.000000	38.317379
667.000000	38.271750
666.000000	38.271888
665.000000	38.263485
664.000000	38.208807
663.000000	38.160601
662.000000	38.149005
661.000000	38.149427
660.000000	38.103396
659.000000	38.069155
658.000000	38.044788
657.000000	38.024094
656.000000	38.000201
655.000000	37.926305
654.000000	37.902764
653.000000	37.883116
652.000000	37.857844
651.000000	37.844324
650.000000	37.800699
649.000000	37.781203
648.000000	37.744031
647.000000	37.715733
646.000000	37.663403
645.000000	37.609079
644.000000	37.571426
643.000000	37.555247
642.000000	37.542549
641.000000	37.510446
640.000000	37.457044
639.000000	37.428133
638.000000	37.414390
637.000000	37.359491
636.000000	37.341135
635.000000	37.306357
634.000000	37.250271
633.000000	37.218685
632.000000	37.162573
631.000000	37.152348
630.000000	37.120658
629.000000	37.073193
628.000000	37.031770
627.000000	37.016750
626.000000	36.957562
625.000000	36.929465
624.000000	36.912149
623.000000	36.836815
622.000000	36.791854
621.000000	36.787694
620.000000	36.719724
619.000000	36.708787
618.000000	36.677568
617.000000	36.649183
616.000000	36.579261
615.000000	36.544865
614.000000	36.521705
613.000000	36.488539
612.000000	36.432554
611.000000	36.375807
610.000000	36.342025
609.000000	36.305585
608.000000	36.311733
607.000000	36.295930
606.000000	36.237266
605.000000	36.177962
604.000000	36.118399
603.000000	36.047977
602.000000	36.039513
601.000000	35.992011
600.000000	35.937218
599.000000	35.913211
598.000000	35.875449
597.000000	35.809033
596.000000	35.770553
595.000000	35.756561
594.000000	35.671379
593.000000	35.651015
592.000000	35.577654
591.000000	35.576066
590.000000	35.522071
589.000000	35.487668
588.000000	35.466794
587.000000	35.422302
586.000000	35.350240
585.000000	35.300121
584.000000	35.257303
583.000000	35.266405
582.000000	35.163285
581.000000	35.145165
580.000000	35.102860
579.000000	35.044680
578.000000	34.944101
577.000000	34.921937
576.000000	34.913972
575.000000	34.815572
574.000000	34.784980
573.000000	34.741421
572.000000	34.676748
571.000000	34.657114
570.000000	34.591869
569.000000	34.564957
568.000000	34.486043
567.000000	34.486553
566.000000	34.398218
565.000000	34.362247
564.000000	34.320146
563.000000	34.221432
562.000000	34.178754
561.000000	34.126027
560.000000	34.082122
559.000000	34.066406
558.000000	34.001392
557.000000	33.934467
556.000000	33.901875
555.000000	33.847852
554.000000	33.802825
553.000000	33.727617
552.000000	33.694109
551.000000	33.643014
550.000000	33.587650
549.000000	33.499194
548.000000	33.431446
547.000000	33.417378
546.000000	33.343744
545.000000	33.279726
544.000000	33.231260
543.000000	33.157024
542.000000	33.087818
541.000000	33.020341
540.000000	32.972477
539.000000	32.938836
538.000000	32.862084
537.000000	32.817554
536.000000	32.738299
535.000000	32.659507
534.000000	32.606584
533.000000	32.577351
532.000000	32.487659
531.000000	32.419628
530.000000	32.351038
529.000000	32.272431
528.000000	32.199586
527.000000	32.121217
526.000000	32.060397
525.000000	32.009428
524.000000	31.944684
523.000000	31.873153
522.000000	31.822656
521.000000	31.757928
520.000000	31.684665
519.000000	31.607449
518.000000	31.499064
517.000000	31.420065
516.000000	31.376758
515.000000	31.307462
514.000000	31.241019
513.000000	31.166289
512.000000	31.069311
511.000000	30.994718
510.000000	30.923053
509.000000	30.854543
508.000000	30.770600
507.000000	30.697464
506.000000	30.600428
505.000000	30.528569
504.000000	30.441002
503.000000	30.359752
502.000000	30.247555
501.000000	30.188016
500.000000	30.104906
499.000000	30.022719
498.000000	29.920617
497.000000	29.835667
496.000000	29.752243
495.000000	29.645640
494.000000	29.528879
493.000000	29.445395
492.000000	29.367024
491.000000	29.265080
490.000000	29.160616
489.000000	29.054024
488.000000	28.948823
487.000000	28.819631
486.000000	28.715558
485.000000	28.620403
484.000000	28.562879
483.000000	28.472640
482.000000	28.361544
481.000000	28.264961
480.000000	28.132827
479.000000	28.034584
478.000000	27.919295
477.000000	27.806734
476.000000	27.709076
475.000000	27.578786
474.000000	27.446220
473.000000	27.319004
472.000000	27.202874
471.000000	27.087067
470.000000	26.983676
469.000000	26.843811
468.000000	26.705757
467.000000	26.599484
466.000000	26.461914
465.000000	26.331747
464.000000	26.215008
463.000000	26.082300
462.000000	25.950043
461.000000	25.826528
460.000000	25.688589
459.000000	25.535991
458.000000	25.397349
457.000000	25.238422
456.000000	25.099509
455.000000	24.983113
454.000000	24.845409
453.000000	24.673444
452.000000	24.529139
451.000000	24.402434
450.000000	24.236550
449.000000	24.078711
448.000000	23.933453
447.000000	23.766307
446.000000	23.615555
445.000000	23.468353
444.000000	23.302808
443.000000	23.151802
442.000000	23.002663
441.000000	22.840083
440.000000	22.669460
439.000000	22.499920
438.000000	22.360419
437.000000	22.184017
436.000000	22.020649
435.000000	21.831021
434.000000	21.659046
433.000000	21.503749
432.000000	21.326757
431.000000	21.160576
430.000000	20.987796
429.000000	20.816628
428.000000	20.645007
427.000000	20.461700
426.000000	20.304342
425.000000	20.126764
424.000000	19.954090
423.000000	19.774643
422.000000	19.585417
421.000000	19.411979
420.000000	19.240634
419.000000	19.066889
418.000000	18.906872
417.000000	18.754669
416.000000	18.595837
415.000000	18.436968
414.000000	18.297759
413.000000	18.156997
412.000000	18.038555
411.000000	17.912970
410.000000	17.778385
409.000000	17.642092
408.000000	17.537183
407.000000	17.446018
406.000000	17.299675
405.000000	17.151462
404.000000	17.042311
403.000000	16.902737
402.000000	16.810267
401.000000	16.682194
400.000000	16.569483
399.000000	16.445778
398.000000	16.313703
397.000000	16.156397
396.000000	16.022865
395.000000	15.880930
394.000000	15.744461
393.000000	15.590659
392.000000	15.445036
391.000000	15.314227
390.000000	15.169684
389.000000	15.015737
388.000000	14.861917
387.000000	14.697776
386.000000	14.516030
385.000000	14.342304
384.000000	14.164958
383.000000	14.002226
382.000000	13.847194
381.000000	13.647397
380.000000	13.478335
379.000000	13.331989
378.000000	13.096282
377.000000	12.878779
376.000000	12.817819
375.000000	12.633954
374.000000	12.440130
373.000000	12.295173
372.000000	12.055497
371.000000	11.892163
370.000000	11.728808
369.000000	11.591373
368.000000	11.362353
367.000000	11.214476
366.000000	11.051918
365.000000	10.844617
364.000000	10.708712
363.000000	10.522893
362.000000	10.387569
361.000000	10.203955
360.000000	10.044726
359.000000	9.868312
358.000000	9.697830
357.000000	9.562573
356.000000	9.330953
355.000000	9.255904
354.000000	9.069364
353.000000	8.923453
352.000000	8.806620
351.000000	8.630847
350.000000	8.452283
349.000000	8.293571
348.000000	8.140617
347.000000	7.978248
346.000000	7.847842
345.000000	7.657375
344.000000	7.510749
343.000000	7.365853
342.000000	7.226571
341.000000	7.080743
340.000000	6.975231
339.000000	6.741633
338.000000	6.614887
337.000000	6.496956
336.000000	6.362527
335.000000	6.218240
334.000000	6.077880
333.000000	5.950008
332.000000	5.774910
331.000000	5.668984
330.000000	5.578032
329.000000	5.450841
328.000000	5.329417
327.000000	5.161338
326.000000	5.096921
325.000000	4.931868
324.000000	4.814788
323.000000	4.731867
322.000000	4.577360
321.000000	4.521947
320.000000	4.434839
319.000000	4.321201
318.000000	4.173964
317.000000	4.070043
316.000000	3.944910
315.000000	3.846505
314.000000	3.750693
313.000000	3.630945
312.000000	3.493249
311.000000	3.373689
310.000000	3.244733
309.000000	3.100284
308.000000	2.964684
307.000000	2.831313
306.000000	2.654022
305.000000	2.475354
304.000000	2.314522
303.000000	2.128483
302.000000	1.959926
301.000000	1.763845
300.000000	1.546204
299.000000	1.373154
298.000000	1.214138
297.000000	1.039851
296.000000	0.922293
295.000000	0.814857
294.000000	0.720437
293.000000	0.651344
292.000000	0.609425
291.000000	0.569519
290.000000	0.538979
289.000000	0.507106
288.000000	0.502306
287.000000	0.492181
286.000000	0.494933
285.000000	0.487721
284.000000	0.495781
283.000000	0.494710
282.000000	0.503144
281.000000	0.495215
280.000000	0.505948
279.000000	0.517009
278.000000	0.514374
277.000000	0.518400
276.000000	0.513208
275.000000	0.518576
274.000000	0.517124
273.000000	0.530906
272.000000	0.535126
271.000000	0.534406
270.000000	0.540987
269.000000	0.536668
268.000000	0.529218
267.000000	0.538899
266.000000	0.548038
265.000000	0.554865
264.000000	0.563964
263.000000	0.563693
262.000000	0.571475
261.000000	0.572321
260.000000	0.571438
259.000000	0.583199
258.000000	0.579151
257.000000	0.582464
256.000000	0.583752
255.000000	0.585531
254.000000	0.587180
253.000000	0.584496
252.000000	0.577917
251.000000	0.582196
250.000000	0.573787
249.000000	0.565084
248.000000	0.564407
247.000000	0.558893
246.000000	0.537531
245.000000	0.526395
244.000000	0.509127
243.000000	0.498243
242.000000	0.498411
241.000000	0.484550
240.000000	0.481772
239.000000	0.484833
238.000000	0.486955
237.000000	0.505432
236.000000	0.531697
235.000000	0.549630
234.000000	0.567025
233.000000	0.581224
232.000000	0.580936
231.000000	0.560917
230.000000	0.560429
229.000000	0.549520
228.000000	0.528169
227.000000	0.498822
226.000000	0.468227
225.000000	0.453176
224.000000	0.429065
223.000000	0.400936
222.000000	0.384139
221.000000	0.366876
220.000000	0.344939
219.000000	0.328425
218.000000	0.327107
217.000000	0.318290
216.000000	0.301330
215.000000	0.295256
214.000000	0.292597
213.000000	0.288504
212.000000	0.283122
211.000000	0.268133
210.000000	0.270948
209.000000	0.273960
208.000000	0.265239
207.000000	0.266151
206.000000	0.261658
205.000000	0.252930
204.000000	0.278695
203.000000	0.305943
202.000000	0.330346
201.000000	0.297339
200.000000	0.273205
