PE UV       SUBTECH     SPECTRUM    ASCII       PEDS        4.00        
   -1
TDVeauAl 52.Sample.asc
18/03/01
11:05:28.00
18/03/01
11:05:28.00
Administrator

200.000000
1
Lambda 750
750N8071901
PerkinElmer UV WinLab 6.0.4.0738 / 1.61.00 Lambda 900

0
0
3350/servo 860.8/2
0
0
UV/VIS
1
1
1
CommonBeamDepol,150mm sphere / downward view
0
0
0
0
Program
Program
3350/servo 860.8/2
3350/0.2 860.8/0.2
3350/0.2 860.8/0.2
0
1
 
 
 
0
 
860.8
319.2
860.8
Front
100
on
 
 
0
0
0
 
0
 
 
 
0
 
 
0
0
0
0
0
 
 
 
 
0
0


0
0
#HDR
-1
-1
#GR
nm
%T
1.0
0.0
2350.000000
-1.000000
2151
8
40.518858
0.102368
#DATA
2350.000000	11.656032
2349.000000	11.343160
2348.000000	11.663642
2347.000000	12.017329
2346.000000	11.466541
2345.000000	11.358334
2344.000000	11.455360
2343.000000	11.462664
2342.000000	11.654517
2341.000000	11.853350
2340.000000	11.531733
2339.000000	12.166710
2338.000000	12.087825
2337.000000	12.424278
2336.000000	12.162075
2335.000000	12.325177
2334.000000	12.526230
2333.000000	12.393540
2332.000000	12.637165
2331.000000	12.561012
2330.000000	12.346349
2329.000000	12.247525
2328.000000	12.451404
2327.000000	12.182723
2326.000000	12.264475
2325.000000	12.018063
2324.000000	12.042984
2323.000000	11.957334
2322.000000	11.843050
2321.000000	11.936099
2320.000000	12.075628
2319.000000	12.212444
2318.000000	11.952435
2317.000000	12.029553
2316.000000	11.844878
2315.000000	11.498636
2314.000000	11.577310
2313.000000	11.705533
2312.000000	11.384315
2311.000000	11.619291
2310.000000	11.663298
2309.000000	11.586185
2308.000000	11.509089
2307.000000	11.346987
2306.000000	11.367901
2305.000000	11.285519
2304.000000	11.228455
2303.000000	11.225853
2302.000000	11.184873
2301.000000	11.020094
2300.000000	10.565968
2299.000000	10.794915
2298.000000	10.650631
2297.000000	10.498349
2296.000000	10.516187
2295.000000	10.540320
2294.000000	10.647429
2293.000000	10.645693
2292.000000	10.541484
2291.000000	10.638025
2290.000000	10.470581
2289.000000	10.396243
2288.000000	10.453354
2287.000000	10.318735
2286.000000	10.288603
2285.000000	10.400830
2284.000000	10.411744
2283.000000	10.324133
2282.000000	10.128134
2281.000000	10.206368
2280.000000	10.169455
2279.000000	10.228159
2278.000000	10.180457
2277.000000	10.274711
2276.000000	10.308371
2275.000000	10.396744
2274.000000	10.432742
2273.000000	10.411611
2272.000000	10.415328
2271.000000	10.360583
2270.000000	10.331991
2269.000000	10.475273
2268.000000	10.657927
2267.000000	10.681604
2266.000000	10.626309
2265.000000	10.724112
2264.000000	10.896376
2263.000000	10.903576
2262.000000	10.972856
2261.000000	11.138904
2260.000000	11.414406
2259.000000	11.543009
2258.000000	11.563927
2257.000000	11.672661
2256.000000	11.812302
2255.000000	12.056145
2254.000000	12.202433
2253.000000	12.264768
2252.000000	12.375433
2251.000000	12.401588
2250.000000	12.629876
2249.000000	12.908692
2248.000000	12.957945
2247.000000	13.137435
2246.000000	13.387124
2245.000000	13.562692
2244.000000	13.558368
2243.000000	13.653694
2242.000000	13.897348
2241.000000	13.927353
2240.000000	13.950916
2239.000000	14.041476
2238.000000	14.116067
2237.000000	14.297535
2236.000000	14.338028
2235.000000	14.318680
2234.000000	14.447084
2233.000000	14.378169
2232.000000	14.391735
2231.000000	14.485833
2230.000000	14.576124
2229.000000	14.634102
2228.000000	14.644750
2227.000000	14.630590
2226.000000	14.572614
2225.000000	14.624996
2224.000000	14.622827
2223.000000	14.590814
2222.000000	14.779095
2221.000000	14.723421
2220.000000	14.754153
2219.000000	14.606855
2218.000000	14.480108
2217.000000	14.474470
2216.000000	14.545524
2215.000000	14.495290
2214.000000	14.368821
2213.000000	14.342665
2212.000000	14.282504
2211.000000	14.235018
2210.000000	14.080803
2209.000000	14.021072
2208.000000	14.051591
2207.000000	13.990034
2206.000000	13.861133
2205.000000	13.882337
2204.000000	13.834345
2203.000000	13.742454
2202.000000	13.818517
2201.000000	13.721698
2200.000000	13.565104
2199.000000	13.581023
2198.000000	13.606667
2197.000000	13.422085
2196.000000	13.276321
2195.000000	13.421257
2194.000000	13.384775
2193.000000	13.311916
2192.000000	13.211883
2191.000000	13.018082
2190.000000	13.119132
2189.000000	13.019537
2188.000000	12.941964
2187.000000	12.991700
2186.000000	12.948090
2185.000000	12.766694
2184.000000	12.757771
2183.000000	12.880928
2182.000000	12.753038
2181.000000	12.645601
2180.000000	12.604307
2179.000000	12.637267
2178.000000	12.656706
2177.000000	12.793179
2176.000000	12.622162
2175.000000	12.772309
2174.000000	12.648303
2173.000000	12.738551
2172.000000	12.854936
2171.000000	12.825435
2170.000000	12.813864
2169.000000	13.079882
2168.000000	12.974773
2167.000000	13.019716
2166.000000	13.023528
2165.000000	13.067184
2164.000000	13.224838
2163.000000	13.193872
2162.000000	13.325512
2161.000000	13.227134
2160.000000	13.408186
2159.000000	13.562276
2158.000000	13.586274
2157.000000	13.750536
2156.000000	13.842326
2155.000000	13.807071
2154.000000	14.221739
2153.000000	14.103238
2152.000000	14.286709
2151.000000	14.416334
2150.000000	14.458573
2149.000000	14.577710
2148.000000	14.608474
2147.000000	14.831485
2146.000000	14.849117
2145.000000	15.050463
2144.000000	15.057212
2143.000000	15.017517
2142.000000	15.457102
2141.000000	15.339386
2140.000000	15.363285
2139.000000	15.492919
2138.000000	15.574584
2137.000000	15.800984
2136.000000	15.959102
2135.000000	16.030880
2134.000000	16.110370
2133.000000	16.021473
2132.000000	16.163969
2131.000000	16.333667
2130.000000	16.428931
2129.000000	16.363935
2128.000000	16.431945
2127.000000	16.396594
2126.000000	16.334051
2125.000000	16.433910
2124.000000	16.693913
2123.000000	16.599874
2122.000000	16.703393
2121.000000	16.661348
2120.000000	16.828200
2119.000000	16.788027
2118.000000	16.882067
2117.000000	16.927451
2116.000000	16.947374
2115.000000	16.860973
2114.000000	16.895844
2113.000000	16.928708
2112.000000	16.926220
2111.000000	16.932081
2110.000000	17.144401
2109.000000	17.022217
2108.000000	17.014414
2107.000000	17.020235
2106.000000	17.144824
2105.000000	17.119400
2104.000000	17.270703
2103.000000	17.440457
2102.000000	17.357666
2101.000000	17.222885
2100.000000	17.314710
2099.000000	17.323253
2098.000000	17.362638
2097.000000	17.325366
2096.000000	17.317274
2095.000000	17.273280
2094.000000	17.216337
2093.000000	17.219474
2092.000000	17.360865
2091.000000	17.213973
2090.000000	17.127503
2089.000000	17.277791
2088.000000	17.334713
2087.000000	17.199690
2086.000000	17.224329
2085.000000	17.237783
2084.000000	17.110721
2083.000000	17.104275
2082.000000	17.099534
2081.000000	16.941437
2080.000000	16.874379
2079.000000	16.850461
2078.000000	16.769905
2077.000000	16.750186
2076.000000	16.755309
2075.000000	16.654835
2074.000000	16.548728
2073.000000	16.515393
2072.000000	16.390736
2071.000000	16.305573
2070.000000	16.253205
2069.000000	16.070128
2068.000000	15.951236
2067.000000	15.789303
2066.000000	15.637983
2065.000000	15.627007
2064.000000	15.545238
2063.000000	15.394711
2062.000000	15.251815
2061.000000	15.134441
2060.000000	15.020744
2059.000000	14.901868
2058.000000	14.798885
2057.000000	14.664043
2056.000000	14.586448
2055.000000	14.502913
2054.000000	14.380948
2053.000000	14.297222
2052.000000	14.177791
2051.000000	14.081086
2050.000000	13.980094
2049.000000	13.927435
2048.000000	13.854285
2047.000000	13.821125
2046.000000	13.771048
2045.000000	13.717640
2044.000000	13.726756
2043.000000	13.774854
2042.000000	13.781516
2041.000000	13.772249
2040.000000	13.792810
2039.000000	13.771064
2038.000000	13.843406
2037.000000	13.952289
2036.000000	13.986005
2035.000000	14.044688
2034.000000	14.141014
2033.000000	14.219355
2032.000000	14.318579
2031.000000	14.460777
2030.000000	14.623769
2029.000000	14.727465
2028.000000	14.850665
2027.000000	14.950587
2026.000000	15.059185
2025.000000	15.143148
2024.000000	15.208951
2023.000000	15.326231
2022.000000	15.418131
2021.000000	15.473401
2020.000000	15.548328
2019.000000	15.647036
2018.000000	15.721387
2017.000000	15.734858
2016.000000	15.721692
2015.000000	15.725429
2014.000000	15.740006
2013.000000	15.749093
2012.000000	15.763788
2011.000000	15.784286
2010.000000	15.769929
2009.000000	15.738585
2008.000000	15.710969
2007.000000	15.663089
2006.000000	15.592969
2005.000000	15.597277
2004.000000	15.529445
2003.000000	15.451007
2002.000000	15.454797
2001.000000	15.409566
2000.000000	15.293818
1999.000000	15.265202
1998.000000	15.200754
1997.000000	15.112274
1996.000000	15.097126
1995.000000	15.051877
1994.000000	14.973697
1993.000000	14.858386
1992.000000	14.785695
1991.000000	14.757479
1990.000000	14.695656
1989.000000	14.574775
1988.000000	14.526274
1987.000000	14.456350
1986.000000	14.380339
1985.000000	14.314668
1984.000000	14.255444
1983.000000	14.192616
1982.000000	14.141370
1981.000000	14.070165
1980.000000	13.990076
1979.000000	13.885025
1978.000000	13.858284
1977.000000	13.802133
1976.000000	13.743169
1975.000000	13.706919
1974.000000	13.605614
1973.000000	13.544240
1972.000000	13.508500
1971.000000	13.443178
1970.000000	13.375792
1969.000000	13.312452
1968.000000	13.253320
1967.000000	13.191151
1966.000000	13.126849
1965.000000	13.097078
1964.000000	13.076116
1963.000000	12.960211
1962.000000	12.910110
1961.000000	12.889924
1960.000000	12.798116
1959.000000	12.723176
1958.000000	12.687803
1957.000000	12.608481
1956.000000	12.560253
1955.000000	12.564678
1954.000000	12.478710
1953.000000	12.433772
1952.000000	12.439351
1951.000000	12.419344
1950.000000	12.377159
1949.000000	12.299227
1948.000000	12.292159
1947.000000	12.300229
1946.000000	12.276159
1945.000000	12.345973
1944.000000	12.316518
1943.000000	12.289682
1942.000000	12.296697
1941.000000	12.330182
1940.000000	12.377102
1939.000000	12.436613
1938.000000	12.498973
1937.000000	12.496004
1936.000000	12.553127
1935.000000	12.662632
1934.000000	12.712365
1933.000000	12.835087
1932.000000	12.949523
1931.000000	13.029321
1930.000000	13.159959
1929.000000	13.188583
1928.000000	13.448650
1927.000000	13.632822
1926.000000	13.774870
1925.000000	13.953963
1924.000000	14.106258
1923.000000	14.312103
1922.000000	14.468039
1921.000000	14.737297
1920.000000	14.963971
1919.000000	15.101528
1918.000000	15.410045
1917.000000	15.580152
1916.000000	15.688668
1915.000000	16.059264
1914.000000	16.382827
1913.000000	16.675577
1912.000000	16.886177
1911.000000	17.198490
1910.000000	17.562061
1909.000000	17.786627
1908.000000	18.092754
1907.000000	18.456696
1906.000000	18.846194
1905.000000	19.209151
1904.000000	19.575047
1903.000000	19.931620
1902.000000	20.339329
1901.000000	20.692856
1900.000000	21.050779
1899.000000	21.428897
1898.000000	21.850007
1897.000000	22.198976
1896.000000	22.540209
1895.000000	22.942047
1894.000000	23.269252
1893.000000	23.695946
1892.000000	24.113059
1891.000000	24.430347
1890.000000	24.835541
1889.000000	25.195102
1888.000000	25.560420
1887.000000	25.872660
1886.000000	26.223063
1885.000000	26.530660
1884.000000	26.823969
1883.000000	27.096778
1882.000000	27.398823
1881.000000	27.658268
1880.000000	27.897658
1879.000000	28.193906
1878.000000	28.379635
1877.000000	28.573240
1876.000000	28.804444
1875.000000	29.001645
1874.000000	29.167249
1873.000000	29.318857
1872.000000	29.398043
1871.000000	29.603700
1870.000000	29.762186
1869.000000	29.869797
1868.000000	29.945136
1867.000000	30.003344
1866.000000	30.115488
1865.000000	30.146048
1864.000000	30.220499
1863.000000	30.312606
1862.000000	30.316202
1861.000000	30.338249
1860.000000	30.412403
1859.000000	30.448323
1858.000000	30.443713
1857.000000	30.490294
1856.000000	30.555158
1855.000000	30.554843
1854.000000	30.562053
1853.000000	30.575601
1852.000000	30.576427
1851.000000	30.589839
1850.000000	30.580681
1849.000000	30.579553
1848.000000	30.577761
1847.000000	30.593005
1846.000000	30.559267
1845.000000	30.524426
1844.000000	30.472620
1843.000000	30.462330
1842.000000	30.443278
1841.000000	30.442512
1840.000000	30.409393
1839.000000	30.375174
1838.000000	30.367308
1837.000000	30.330532
1836.000000	30.280209
1835.000000	30.243253
1834.000000	30.184579
1833.000000	30.125590
1832.000000	30.090043
1831.000000	30.077323
1830.000000	30.053732
1829.000000	29.983647
1828.000000	29.914273
1827.000000	29.926901
1826.000000	29.913701
1825.000000	29.846580
1824.000000	29.805685
1823.000000	29.772851
1822.000000	29.738384
1821.000000	29.705467
1820.000000	29.657734
1819.000000	29.626949
1818.000000	29.600935
1817.000000	29.566511
1816.000000	29.546110
1815.000000	29.528331
1814.000000	29.491486
1813.000000	29.451162
1812.000000	29.426146
1811.000000	29.390625
1810.000000	29.367320
1809.000000	29.340422
1808.000000	29.290660
1807.000000	29.259918
1806.000000	29.229294
1805.000000	29.198707
1804.000000	29.177169
1803.000000	29.160488
1802.000000	29.122248
1801.000000	29.097318
1800.000000	29.085486
1799.000000	29.059961
1798.000000	29.041306
1797.000000	29.021938
1796.000000	28.994285
1795.000000	28.980194
1794.000000	28.967781
1793.000000	28.953245
1792.000000	28.932913
1791.000000	28.892230
1790.000000	28.865858
1789.000000	28.850373
1788.000000	28.823195
1787.000000	28.795678
1786.000000	28.792773
1785.000000	28.767127
1784.000000	28.700883
1783.000000	28.673160
1782.000000	28.651743
1781.000000	28.605181
1780.000000	28.550912
1779.000000	28.521907
1778.000000	28.488882
1777.000000	28.420056
1776.000000	28.379143
1775.000000	28.317383
1774.000000	28.257477
1773.000000	28.199597
1772.000000	28.126409
1771.000000	28.068670
1770.000000	28.023184
1769.000000	27.953862
1768.000000	27.879855
1767.000000	27.828722
1766.000000	27.760950
1765.000000	27.707142
1764.000000	27.669908
1763.000000	27.592679
1762.000000	27.533485
1761.000000	27.448122
1760.000000	27.411735
1759.000000	27.356475
1758.000000	27.290077
1757.000000	27.266560
1756.000000	27.215269
1755.000000	27.152037
1754.000000	27.116201
1753.000000	27.037807
1752.000000	26.970852
1751.000000	26.911836
1750.000000	26.863034
1749.000000	26.824971
1748.000000	26.768928
1747.000000	26.699143
1746.000000	26.612248
1745.000000	26.544065
1744.000000	26.499756
1743.000000	26.437033
1742.000000	26.374515
1741.000000	26.317051
1740.000000	26.273435
1739.000000	26.237393
1738.000000	26.170222
1737.000000	26.113997
1736.000000	26.083519
1735.000000	26.059464
1734.000000	26.080033
1733.000000	26.051601
1732.000000	26.036086
1731.000000	26.056621
1730.000000	26.047442
1729.000000	26.079894
1728.000000	26.115659
1727.000000	26.176666
1726.000000	26.204328
1725.000000	26.282388
1724.000000	26.336621
1723.000000	26.424338
1722.000000	26.527178
1721.000000	26.591868
1720.000000	26.664223
1719.000000	26.760651
1718.000000	26.846621
1717.000000	26.920218
1716.000000	27.000451
1715.000000	27.087623
1714.000000	27.121134
1713.000000	27.214553
1712.000000	27.260680
1711.000000	27.348138
1710.000000	27.417340
1709.000000	27.462771
1708.000000	27.516873
1707.000000	27.574401
1706.000000	27.578863
1705.000000	27.606211
1704.000000	27.663444
1703.000000	27.643737
1702.000000	27.661469
1701.000000	27.713297
1700.000000	27.725583
1699.000000	27.738331
1698.000000	27.831146
1697.000000	27.822756
1696.000000	27.844514
1695.000000	27.890129
1694.000000	27.922038
1693.000000	27.997429
1692.000000	28.061318
1691.000000	28.108188
1690.000000	28.207844
1689.000000	28.260470
1688.000000	28.381612
1687.000000	28.484724
1686.000000	28.627809
1685.000000	28.746163
1684.000000	28.880713
1683.000000	29.033182
1682.000000	29.181772
1681.000000	29.346919
1680.000000	29.519379
1679.000000	29.687557
1678.000000	29.849808
1677.000000	29.998030
1676.000000	30.182628
1675.000000	30.358173
1674.000000	30.503554
1673.000000	30.671136
1672.000000	30.842192
1671.000000	31.003395
1670.000000	31.129484
1669.000000	31.277657
1668.000000	31.416693
1667.000000	31.556561
1666.000000	31.623154
1665.000000	31.714214
1664.000000	31.809302
1663.000000	31.887225
1662.000000	31.971638
1661.000000	32.039452
1660.000000	32.115685
1659.000000	32.179791
1658.000000	32.228917
1657.000000	32.260094
1656.000000	32.296833
1655.000000	32.336417
1654.000000	32.360432
1653.000000	32.365251
1652.000000	32.399677
1651.000000	32.405442
1650.000000	32.427059
1649.000000	32.421579
1648.000000	32.398504
1647.000000	32.383746
1646.000000	32.371007
1645.000000	32.352440
1644.000000	32.350643
1643.000000	32.334213
1642.000000	32.315248
1641.000000	32.306265
1640.000000	32.274099
1639.000000	32.241646
1638.000000	32.225358
1637.000000	32.197043
1636.000000	32.160088
1635.000000	32.137317
1634.000000	32.095904
1633.000000	32.055666
1632.000000	32.015332
1631.000000	31.981189
1630.000000	31.934836
1629.000000	31.912063
1628.000000	31.882790
1627.000000	31.824214
1626.000000	31.788212
1625.000000	31.752276
1624.000000	31.714398
1623.000000	31.663961
1622.000000	31.622602
1621.000000	31.588523
1620.000000	31.542778
1619.000000	31.490679
1618.000000	31.436613
1617.000000	31.390655
1616.000000	31.346129
1615.000000	31.299364
1614.000000	31.250495
1613.000000	31.199306
1612.000000	31.147852
1611.000000	31.098456
1610.000000	31.038803
1609.000000	30.993175
1608.000000	30.951219
1607.000000	30.887154
1606.000000	30.831807
1605.000000	30.780750
1604.000000	30.704591
1603.000000	30.647600
1602.000000	30.598915
1601.000000	30.547833
1600.000000	30.496908
1599.000000	30.449188
1598.000000	30.392318
1597.000000	30.332210
1596.000000	30.275823
1595.000000	30.238847
1594.000000	30.195407
1593.000000	30.139487
1592.000000	30.085367
1591.000000	30.039850
1590.000000	30.002171
1589.000000	29.957950
1588.000000	29.905401
1587.000000	29.867931
1586.000000	29.832633
1585.000000	29.784812
1584.000000	29.732036
1583.000000	29.700894
1582.000000	29.673772
1581.000000	29.639724
1580.000000	29.591840
1579.000000	29.552045
1578.000000	29.520841
1577.000000	29.471897
1576.000000	29.431915
1575.000000	29.390242
1574.000000	29.349458
1573.000000	29.324524
1572.000000	29.293023
1571.000000	29.246589
1570.000000	29.209198
1569.000000	29.164934
1568.000000	29.114511
1567.000000	29.094757
1566.000000	29.067308
1565.000000	29.037780
1564.000000	29.017637
1563.000000	29.016214
1562.000000	28.980340
1561.000000	28.948684
1560.000000	28.943728
1559.000000	28.929677
1558.000000	28.900777
1557.000000	28.884178
1556.000000	28.858757
1555.000000	28.840373
1554.000000	28.819046
1553.000000	28.805894
1552.000000	28.766316
1551.000000	28.749944
1550.000000	28.715106
1549.000000	28.676998
1548.000000	28.641228
1547.000000	28.591391
1546.000000	28.522609
1545.000000	28.467020
1544.000000	28.423201
1543.000000	28.352168
1542.000000	28.272333
1541.000000	28.215063
1540.000000	28.133762
1539.000000	28.057012
1538.000000	27.968515
1537.000000	27.897959
1536.000000	27.806247
1535.000000	27.723276
1534.000000	27.641275
1533.000000	27.560410
1532.000000	27.484878
1531.000000	27.394481
1530.000000	27.323646
1529.000000	27.252404
1528.000000	27.187418
1527.000000	27.112378
1526.000000	27.058732
1525.000000	26.987342
1524.000000	26.918958
1523.000000	26.855901
1522.000000	26.799772
1521.000000	26.764593
1520.000000	26.709431
1519.000000	26.679032
1518.000000	26.638867
1517.000000	26.607817
1516.000000	26.563147
1515.000000	26.539357
1514.000000	26.497326
1513.000000	26.479277
1512.000000	26.451841
1511.000000	26.420677
1510.000000	26.416231
1509.000000	26.373168
1508.000000	26.363391
1507.000000	26.339606
1506.000000	26.341900
1505.000000	26.334529
1504.000000	26.331912
1503.000000	26.330933
1502.000000	26.315368
1501.000000	26.321085
1500.000000	26.325381
1499.000000	26.352466
1498.000000	26.393115
1497.000000	26.424422
1496.000000	26.437228
1495.000000	26.442228
1494.000000	26.465314
1493.000000	26.490573
1492.000000	26.520812
1491.000000	26.563932
1490.000000	26.594680
1489.000000	26.638749
1488.000000	26.704737
1487.000000	26.770422
1486.000000	26.835039
1485.000000	26.871510
1484.000000	26.959370
1483.000000	27.040574
1482.000000	27.082793
1481.000000	27.187341
1480.000000	27.257546
1479.000000	27.326046
1478.000000	27.396781
1477.000000	27.459705
1476.000000	27.529841
1475.000000	27.616846
1474.000000	27.674523
1473.000000	27.736006
1472.000000	27.798791
1471.000000	27.870534
1470.000000	27.935574
1469.000000	27.994889
1468.000000	28.053084
1467.000000	28.097557
1466.000000	28.177712
1465.000000	28.249952
1464.000000	28.279133
1463.000000	28.363145
1462.000000	28.409493
1461.000000	28.455158
1460.000000	28.488102
1459.000000	28.538924
1458.000000	28.615249
1457.000000	28.679062
1456.000000	28.712776
1455.000000	28.753890
1454.000000	28.800013
1453.000000	28.870737
1452.000000	28.948668
1451.000000	29.001375
1450.000000	29.043320
1449.000000	29.130160
1448.000000	29.192477
1447.000000	29.243542
1446.000000	29.300536
1445.000000	29.349715
1444.000000	29.434090
1443.000000	29.516119
1442.000000	29.586372
1441.000000	29.637364
1440.000000	29.713054
1439.000000	29.774029
1438.000000	29.848367
1437.000000	29.930419
1436.000000	30.013773
1435.000000	30.121705
1434.000000	30.223180
1433.000000	30.310362
1432.000000	30.401095
1431.000000	30.490446
1430.000000	30.588155
1429.000000	30.676731
1428.000000	30.783583
1427.000000	30.895623
1426.000000	30.997655
1425.000000	31.109285
1424.000000	31.237441
1423.000000	31.369690
1422.000000	31.503259
1421.000000	31.622243
1420.000000	31.736694
1419.000000	31.882813
1418.000000	32.031806
1417.000000	32.175589
1416.000000	32.326912
1415.000000	32.490902
1414.000000	32.618442
1413.000000	32.743628
1412.000000	32.900154
1411.000000	33.058170
1410.000000	33.207864
1409.000000	33.363828
1408.000000	33.513050
1407.000000	33.636951
1406.000000	33.773975
1405.000000	33.924594
1404.000000	34.073115
1403.000000	34.216535
1402.000000	34.353664
1401.000000	34.488203
1400.000000	34.614276
1399.000000	34.741965
1398.000000	34.850005
1397.000000	34.968411
1396.000000	35.090846
1395.000000	35.220605
1394.000000	35.345667
1393.000000	35.445126
1392.000000	35.549550
1391.000000	35.664056
1390.000000	35.779597
1389.000000	35.883260
1388.000000	35.971230
1387.000000	36.064165
1386.000000	36.159505
1385.000000	36.249327
1384.000000	36.331596
1383.000000	36.416484
1382.000000	36.492590
1381.000000	36.544028
1380.000000	36.622959
1379.000000	36.699881
1378.000000	36.742491
1377.000000	36.782661
1376.000000	36.837769
1375.000000	36.910910
1374.000000	36.952337
1373.000000	36.973421
1372.000000	37.023153
1371.000000	37.078881
1370.000000	37.126383
1369.000000	37.161915
1368.000000	37.202219
1367.000000	37.249603
1366.000000	37.294549
1365.000000	37.334442
1364.000000	37.380871
1363.000000	37.423840
1362.000000	37.469289
1361.000000	37.521023
1360.000000	37.559380
1359.000000	37.588749
1358.000000	37.653996
1357.000000	37.723961
1356.000000	37.762926
1355.000000	37.794491
1354.000000	37.839035
1353.000000	37.888704
1352.000000	37.933396
1351.000000	37.988381
1350.000000	38.058916
1349.000000	38.106665
1348.000000	38.130328
1347.000000	38.165641
1346.000000	38.201976
1345.000000	38.240584
1344.000000	38.309046
1343.000000	38.360960
1342.000000	38.383642
1341.000000	38.422620
1340.000000	38.460192
1339.000000	38.495897
1338.000000	38.539839
1337.000000	38.557865
1336.000000	38.595581
1335.000000	38.622339
1334.000000	38.659799
1333.000000	38.704389
1332.000000	38.735776
1331.000000	38.739394
1330.000000	38.764291
1329.000000	38.779186
1328.000000	38.794393
1327.000000	38.823968
1326.000000	38.827713
1325.000000	38.850630
1324.000000	38.877749
1323.000000	38.883949
1322.000000	38.894356
1321.000000	38.916048
1320.000000	38.926339
1319.000000	38.929171
1318.000000	38.932450
1317.000000	38.941899
1316.000000	38.950357
1315.000000	38.976018
1314.000000	38.974254
1313.000000	38.973984
1312.000000	38.996781
1311.000000	39.003530
1310.000000	38.988884
1309.000000	39.018270
1308.000000	39.035377
1307.000000	39.043867
1306.000000	39.058789
1305.000000	39.072852
1304.000000	39.072577
1303.000000	39.066955
1302.000000	39.077439
1301.000000	39.067487
1300.000000	39.079849
1299.000000	39.062291
1298.000000	39.061139
1297.000000	39.069574
1296.000000	39.066279
1295.000000	39.056516
1294.000000	39.050294
1293.000000	39.063701
1292.000000	39.053823
1291.000000	39.051091
1290.000000	39.058126
1289.000000	39.049682
1288.000000	39.051501
1287.000000	39.050169
1286.000000	39.035828
1285.000000	39.024183
1284.000000	39.025367
1283.000000	39.011776
1282.000000	38.967188
1281.000000	38.970414
1280.000000	38.960087
1279.000000	38.970868
1278.000000	38.977355
1277.000000	38.961933
1276.000000	38.967286
1275.000000	38.966564
1274.000000	38.945142
1273.000000	38.975946
1272.000000	38.957299
1271.000000	38.958516
1270.000000	38.951954
1269.000000	38.958467
1268.000000	38.952098
1267.000000	38.968752
1266.000000	38.992744
1265.000000	38.993682
1264.000000	39.016262
1263.000000	39.023516
1262.000000	39.014796
1261.000000	39.002513
1260.000000	39.021545
1259.000000	39.031632
1258.000000	39.036839
1257.000000	39.041340
1256.000000	39.054230
1255.000000	39.055451
1254.000000	39.037366
1253.000000	39.042732
1252.000000	39.038732
1251.000000	39.050737
1250.000000	39.080232
1249.000000	39.086848
1248.000000	39.075259
1247.000000	39.071056
1246.000000	39.048306
1245.000000	38.999862
1244.000000	39.016490
1243.000000	39.001773
1242.000000	38.982132
1241.000000	38.957976
1240.000000	38.953657
1239.000000	38.907731
1238.000000	38.891743
1237.000000	38.882990
1236.000000	38.846889
1235.000000	38.814238
1234.000000	38.813381
1233.000000	38.794270
1232.000000	38.776220
1231.000000	38.728564
1230.000000	38.708682
1229.000000	38.690047
1228.000000	38.677056
1227.000000	38.649777
1226.000000	38.618323
1225.000000	38.579193
1224.000000	38.564036
1223.000000	38.548570
1222.000000	38.538926
1221.000000	38.525711
1220.000000	38.499836
1219.000000	38.468211
1218.000000	38.451464
1217.000000	38.423171
1216.000000	38.391730
1215.000000	38.382744
1214.000000	38.380044
1213.000000	38.336460
1212.000000	38.294955
1211.000000	38.268492
1210.000000	38.241559
1209.000000	38.196164
1208.000000	38.154605
1207.000000	38.141520
1206.000000	38.119936
1205.000000	38.087751
1204.000000	38.048128
1203.000000	38.024368
1202.000000	37.976555
1201.000000	37.943133
1200.000000	37.926719
1199.000000	37.902365
1198.000000	37.872898
1197.000000	37.829256
1196.000000	37.807993
1195.000000	37.790271
1194.000000	37.785648
1193.000000	37.778407
1192.000000	37.758488
1191.000000	37.737253
1190.000000	37.701186
1189.000000	37.648060
1188.000000	37.634889
1187.000000	37.645648
1186.000000	37.639917
1185.000000	37.642461
1184.000000	37.651934
1183.000000	37.663382
1182.000000	37.684742
1181.000000	37.707196
1180.000000	37.735158
1179.000000	37.770488
1178.000000	37.803998
1177.000000	37.840511
1176.000000	37.886853
1175.000000	37.921999
1174.000000	37.964662
1173.000000	38.023644
1172.000000	38.080165
1171.000000	38.120930
1170.000000	38.170491
1169.000000	38.225584
1168.000000	38.281391
1167.000000	38.341325
1166.000000	38.416027
1165.000000	38.483970
1164.000000	38.534199
1163.000000	38.591420
1162.000000	38.655142
1161.000000	38.723583
1160.000000	38.790838
1159.000000	38.853029
1158.000000	38.914555
1157.000000	38.968151
1156.000000	39.018867
1155.000000	39.066396
1154.000000	39.102520
1153.000000	39.151414
1152.000000	39.202001
1151.000000	39.231099
1150.000000	39.248081
1149.000000	39.285066
1148.000000	39.327202
1147.000000	39.368985
1146.000000	39.410379
1145.000000	39.447098
1144.000000	39.484470
1143.000000	39.525580
1142.000000	39.562979
1141.000000	39.598448
1140.000000	39.632203
1139.000000	39.662035
1138.000000	39.701929
1137.000000	39.737745
1136.000000	39.772612
1135.000000	39.793327
1134.000000	39.823808
1133.000000	39.848500
1132.000000	39.870473
1131.000000	39.886844
1130.000000	39.900308
1129.000000	39.918601
1128.000000	39.946324
1127.000000	39.964553
1126.000000	39.990852
1125.000000	40.011169
1124.000000	40.017229
1123.000000	40.028752
1122.000000	40.042856
1121.000000	40.056490
1120.000000	40.065384
1119.000000	40.074179
1118.000000	40.088674
1117.000000	40.085941
1116.000000	40.093637
1115.000000	40.074190
1114.000000	40.069518
1113.000000	40.076014
1112.000000	40.086977
1111.000000	40.091273
1110.000000	40.092495
1109.000000	40.092236
1108.000000	40.094572
1107.000000	40.100520
1106.000000	40.109372
1105.000000	40.119045
1104.000000	40.121729
1103.000000	40.115395
1102.000000	40.091832
1101.000000	40.083955
1100.000000	40.087705
1099.000000	40.101269
1098.000000	40.101137
1097.000000	40.104017
1096.000000	40.107082
1095.000000	40.111543
1094.000000	40.075184
1093.000000	40.074986
1092.000000	40.084537
1091.000000	40.103417
1090.000000	40.097825
1089.000000	40.092510
1088.000000	40.094603
1087.000000	40.080008
1086.000000	40.050339
1085.000000	40.054701
1084.000000	40.078387
1083.000000	40.083309
1082.000000	40.082198
1081.000000	40.069322
1080.000000	40.039368
1079.000000	40.046444
1078.000000	40.049236
1077.000000	40.054031
1076.000000	40.054980
1075.000000	40.035123
1074.000000	40.053129
1073.000000	40.012232
1072.000000	40.006493
1071.000000	39.987337
1070.000000	40.000714
1069.000000	40.012658
1068.000000	39.997362
1067.000000	40.015830
1066.000000	39.972274
1065.000000	39.962406
1064.000000	39.973616
1063.000000	39.969874
1062.000000	39.956924
1061.000000	39.946560
1060.000000	39.951318
1059.000000	39.914436
1058.000000	39.921395
1057.000000	39.912720
1056.000000	39.922648
1055.000000	39.924497
1054.000000	39.881680
1053.000000	39.895439
1052.000000	39.881001
1051.000000	39.866831
1050.000000	39.894624
1049.000000	39.860587
1048.000000	39.821009
1047.000000	39.857249
1046.000000	39.852056
1045.000000	39.820762
1044.000000	39.826619
1043.000000	39.820285
1042.000000	39.832979
1041.000000	39.840284
1040.000000	39.817774
1039.000000	39.809900
1038.000000	39.820884
1037.000000	39.820648
1036.000000	39.796428
1035.000000	39.790350
1034.000000	39.807146
1033.000000	39.803359
1032.000000	39.797019
1031.000000	39.796015
1030.000000	39.798080
1029.000000	39.806052
1028.000000	39.800943
1027.000000	39.770916
1026.000000	39.783415
1025.000000	39.773241
1024.000000	39.778678
1023.000000	39.782636
1022.000000	39.799578
1021.000000	39.783281
1020.000000	39.796838
1019.000000	39.809478
1018.000000	39.781230
1017.000000	39.784627
1016.000000	39.805466
1015.000000	39.802894
1014.000000	39.820886
1013.000000	39.815610
1012.000000	39.820881
1011.000000	39.821615
1010.000000	39.836279
1009.000000	39.828874
1008.000000	39.836538
1007.000000	39.849541
1006.000000	39.865334
1005.000000	39.884453
1004.000000	39.882452
1003.000000	39.901824
1002.000000	39.912695
1001.000000	39.922047
1000.000000	39.941556
999.000000	39.953527
998.000000	39.958133
997.000000	39.968401
996.000000	39.959398
995.000000	39.966037
994.000000	39.984541
993.000000	39.993574
992.000000	39.998622
991.000000	40.009681
990.000000	40.003200
989.000000	40.007482
988.000000	40.019801
987.000000	40.028084
986.000000	40.040931
985.000000	40.057738
984.000000	40.057673
983.000000	40.057361
982.000000	40.065697
981.000000	40.074120
980.000000	40.072179
979.000000	40.078784
978.000000	40.088529
977.000000	40.101098
976.000000	40.095450
975.000000	40.112366
974.000000	40.116003
973.000000	40.096388
972.000000	40.096022
971.000000	40.113874
970.000000	40.136573
969.000000	40.154482
968.000000	40.149939
967.000000	40.156418
966.000000	40.165492
965.000000	40.175328
964.000000	40.167158
963.000000	40.173534
962.000000	40.170209
961.000000	40.173415
960.000000	40.199631
959.000000	40.212402
958.000000	40.205482
957.000000	40.225297
956.000000	40.220254
955.000000	40.213471
954.000000	40.229827
953.000000	40.237223
952.000000	40.230438
951.000000	40.216813
950.000000	40.231558
949.000000	40.254075
948.000000	40.266080
947.000000	40.276727
946.000000	40.287023
945.000000	40.285189
944.000000	40.262943
943.000000	40.250323
942.000000	40.268290
941.000000	40.281665
940.000000	40.280105
939.000000	40.288314
938.000000	40.293414
937.000000	40.288262
936.000000	40.289328
935.000000	40.302955
934.000000	40.308887
933.000000	40.278335
932.000000	40.259384
931.000000	40.271272
930.000000	40.272921
929.000000	40.268885
928.000000	40.262870
927.000000	40.271836
926.000000	40.292893
925.000000	40.288212
924.000000	40.256814
923.000000	40.271173
922.000000	40.288387
921.000000	40.277366
920.000000	40.277795
919.000000	40.289801
918.000000	40.275049
917.000000	40.260479
916.000000	40.260350
915.000000	40.273442
914.000000	40.278324
913.000000	40.278380
912.000000	40.263179
911.000000	40.258040
910.000000	40.253859
909.000000	40.252054
908.000000	40.273620
907.000000	40.282820
906.000000	40.276438
905.000000	40.270771
904.000000	40.266327
903.000000	40.294568
902.000000	40.302653
901.000000	40.304366
900.000000	40.335567
899.000000	40.293048
898.000000	40.341530
897.000000	40.348757
896.000000	40.356400
895.000000	40.391320
894.000000	40.333040
893.000000	40.346746
892.000000	40.392821
891.000000	40.326021
890.000000	40.361771
889.000000	40.400728
888.000000	40.421695
887.000000	40.366571
886.000000	40.361887
885.000000	40.354244
884.000000	40.387220
883.000000	40.447664
882.000000	40.390902
881.000000	40.324490
880.000000	40.483994
879.000000	40.441421
878.000000	40.477513
877.000000	40.358469
876.000000	40.355185
875.000000	40.420570
874.000000	40.438439
873.000000	40.429993
872.000000	40.495445
871.000000	40.402198
870.000000	40.480757
869.000000	40.411931
868.000000	40.503253
867.000000	40.518858
866.000000	40.468275
865.000000	40.503775
864.000000	40.426741
863.000000	40.363114
862.000000	40.482272
861.000000	40.463432
860.000000	40.477059
859.000000	40.035167
858.000000	40.100923
857.000000	40.444928
856.000000	40.225035
855.000000	40.236608
854.000000	40.271519
853.000000	40.382398
852.000000	40.166979
851.000000	40.399205
850.000000	40.258685
849.000000	40.101579
848.000000	40.217019
847.000000	40.197882
846.000000	40.259849
845.000000	40.175762
844.000000	40.192040
843.000000	40.138605
842.000000	40.124676
841.000000	40.081609
840.000000	40.144498
839.000000	40.230290
838.000000	40.367394
837.000000	40.176141
836.000000	40.148386
835.000000	40.153792
834.000000	40.162154
833.000000	40.216476
832.000000	40.205079
831.000000	40.204250
830.000000	40.172005
829.000000	40.077620
828.000000	40.103658
827.000000	40.092353
826.000000	40.119785
825.000000	40.037188
824.000000	40.147600
823.000000	39.950975
822.000000	40.148789
821.000000	40.216794
820.000000	40.135774
819.000000	40.106463
818.000000	40.109398
817.000000	40.160053
816.000000	40.078661
815.000000	40.096508
814.000000	40.160665
813.000000	40.061472
812.000000	40.160889
811.000000	40.120076
810.000000	40.073644
809.000000	39.940590
808.000000	40.091273
807.000000	40.148677
806.000000	40.087242
805.000000	40.031533
804.000000	40.083059
803.000000	40.153810
802.000000	40.127725
801.000000	40.146095
800.000000	40.045819
799.000000	40.065225
798.000000	39.980401
797.000000	40.092093
796.000000	40.036366
795.000000	40.038358
794.000000	40.051648
793.000000	40.034962
792.000000	40.078726
791.000000	40.010848
790.000000	40.030161
789.000000	40.031988
788.000000	40.070236
787.000000	40.073348
786.000000	40.039148
785.000000	40.181747
784.000000	40.025474
783.000000	40.039989
782.000000	40.005684
781.000000	40.004694
780.000000	40.034998
779.000000	39.975051
778.000000	40.000177
777.000000	39.958792
776.000000	40.064575
775.000000	40.088803
774.000000	40.006290
773.000000	40.006264
772.000000	39.948934
771.000000	40.045244
770.000000	40.018954
769.000000	40.054534
768.000000	40.049062
767.000000	40.052339
766.000000	39.993777
765.000000	39.958852
764.000000	40.004590
763.000000	40.033102
762.000000	39.985667
761.000000	39.948947
760.000000	40.010615
759.000000	40.039590
758.000000	39.961192
757.000000	39.988790
756.000000	40.029306
755.000000	39.998816
754.000000	40.020542
753.000000	39.973083
752.000000	39.928012
751.000000	39.962047
750.000000	39.978141
749.000000	39.997175
748.000000	39.995137
747.000000	39.993854
746.000000	40.045148
745.000000	39.988428
744.000000	39.984564
743.000000	40.027945
742.000000	39.939192
741.000000	39.884265
740.000000	39.973096
739.000000	39.977371
738.000000	39.967279
737.000000	39.959442
736.000000	39.945496
735.000000	39.953050
734.000000	39.902081
733.000000	39.949291
732.000000	39.961504
731.000000	39.918217
730.000000	39.972928
729.000000	39.940351
728.000000	39.946833
727.000000	39.952906
726.000000	39.930599
725.000000	39.921769
724.000000	39.900583
723.000000	39.914950
722.000000	39.896374
721.000000	39.900535
720.000000	39.886951
719.000000	39.869626
718.000000	39.918019
717.000000	39.878239
716.000000	39.824774
715.000000	39.885236
714.000000	39.875208
713.000000	39.841384
712.000000	39.849019
711.000000	39.853553
710.000000	39.854006
709.000000	39.870736
708.000000	39.874054
707.000000	39.845492
706.000000	39.824545
705.000000	39.808408
704.000000	39.788314
703.000000	39.805163
702.000000	39.793392
701.000000	39.813627
700.000000	39.828993
699.000000	39.781833
698.000000	39.776987
697.000000	39.784656
696.000000	39.800706
695.000000	39.805434
694.000000	39.786895
693.000000	39.741461
692.000000	39.728975
691.000000	39.764732
690.000000	39.780008
689.000000	39.749901
688.000000	39.684958
687.000000	39.689641
686.000000	39.673412
685.000000	39.643710
684.000000	39.640694
683.000000	39.673945
682.000000	39.679079
681.000000	39.653583
680.000000	39.602528
679.000000	39.607325
678.000000	39.639513
677.000000	39.627373
676.000000	39.627797
675.000000	39.588736
674.000000	39.559084
673.000000	39.569082
672.000000	39.579054
671.000000	39.583672
670.000000	39.570945
669.000000	39.526774
668.000000	39.550843
667.000000	39.547869
666.000000	39.528001
665.000000	39.529061
664.000000	39.555674
663.000000	39.535735
662.000000	39.514297
661.000000	39.505593
660.000000	39.454876
659.000000	39.476959
658.000000	39.473464
657.000000	39.481027
656.000000	39.445842
655.000000	39.436012
654.000000	39.462349
653.000000	39.381082
652.000000	39.377939
651.000000	39.383408
650.000000	39.382140
649.000000	39.407972
648.000000	39.389125
647.000000	39.386256
646.000000	39.366608
645.000000	39.356576
644.000000	39.370603
643.000000	39.333048
642.000000	39.339731
641.000000	39.302305
640.000000	39.320323
639.000000	39.328402
638.000000	39.273625
637.000000	39.256817
636.000000	39.236506
635.000000	39.255204
634.000000	39.223184
633.000000	39.218375
632.000000	39.218120
631.000000	39.225768
630.000000	39.191934
629.000000	39.198989
628.000000	39.183970
627.000000	39.159789
626.000000	39.142806
625.000000	39.140428
624.000000	39.134577
623.000000	39.097723
622.000000	39.089648
621.000000	39.102890
620.000000	39.074454
619.000000	39.025118
618.000000	39.046523
617.000000	39.000716
616.000000	38.988633
615.000000	39.004866
614.000000	38.996071
613.000000	38.969949
612.000000	38.936144
611.000000	38.931484
610.000000	38.925875
609.000000	38.935324
608.000000	38.890988
607.000000	38.884870
606.000000	38.823224
605.000000	38.848746
604.000000	38.821316
603.000000	38.781618
602.000000	38.791548
601.000000	38.779191
600.000000	38.702488
599.000000	38.736619
598.000000	38.708347
597.000000	38.711917
596.000000	38.690889
595.000000	38.630529
594.000000	38.635308
593.000000	38.628843
592.000000	38.609297
591.000000	38.584973
590.000000	38.553711
589.000000	38.521132
588.000000	38.480919
587.000000	38.541739
586.000000	38.475034
585.000000	38.432217
584.000000	38.396266
583.000000	38.392642
582.000000	38.390903
581.000000	38.357595
580.000000	38.332625
579.000000	38.360193
578.000000	38.296180
577.000000	38.303248
576.000000	38.249618
575.000000	38.211204
574.000000	38.180837
573.000000	38.197215
572.000000	38.153245
571.000000	38.123268
570.000000	38.092572
569.000000	38.112325
568.000000	38.031286
567.000000	38.010767
566.000000	37.986060
565.000000	37.988510
564.000000	37.952783
563.000000	37.933336
562.000000	37.895896
561.000000	37.880574
560.000000	37.825883
559.000000	37.797125
558.000000	37.748316
557.000000	37.742879
556.000000	37.682353
555.000000	37.661936
554.000000	37.618257
553.000000	37.564768
552.000000	37.570275
551.000000	37.576302
550.000000	37.515933
549.000000	37.486471
548.000000	37.436747
547.000000	37.424171
546.000000	37.359664
545.000000	37.352636
544.000000	37.338779
543.000000	37.271523
542.000000	37.223337
541.000000	37.179759
540.000000	37.139454
539.000000	37.129066
538.000000	37.083202
537.000000	37.064928
536.000000	36.998096
535.000000	36.975061
534.000000	36.938684
533.000000	36.873603
532.000000	36.820826
531.000000	36.796675
530.000000	36.745482
529.000000	36.691760
528.000000	36.663402
527.000000	36.603853
526.000000	36.542667
525.000000	36.503080
524.000000	36.450116
523.000000	36.400940
522.000000	36.300634
521.000000	36.320475
520.000000	36.243504
519.000000	36.158051
518.000000	36.121155
517.000000	36.082011
516.000000	36.041300
515.000000	35.998379
514.000000	35.925424
513.000000	35.864840
512.000000	35.820911
511.000000	35.750922
510.000000	35.714539
509.000000	35.667374
508.000000	35.569101
507.000000	35.519287
506.000000	35.452714
505.000000	35.381857
504.000000	35.314312
503.000000	35.261881
502.000000	35.206710
501.000000	35.168067
500.000000	35.098884
499.000000	35.022674
498.000000	34.946755
497.000000	34.897515
496.000000	34.839522
495.000000	34.783678
494.000000	34.684422
493.000000	34.609700
492.000000	34.549920
491.000000	34.482498
490.000000	34.432632
489.000000	34.364173
488.000000	34.272380
487.000000	34.220424
486.000000	34.141038
485.000000	34.062356
484.000000	34.000481
483.000000	33.934889
482.000000	33.840268
481.000000	33.761706
480.000000	33.699514
479.000000	33.618086
478.000000	33.519160
477.000000	33.442521
476.000000	33.362218
475.000000	33.264321
474.000000	33.153892
473.000000	33.072993
472.000000	32.983569
471.000000	32.866308
470.000000	32.779952
469.000000	32.692477
468.000000	32.604795
467.000000	32.510665
466.000000	32.396808
465.000000	32.307379
464.000000	32.197749
463.000000	32.073730
462.000000	31.975427
461.000000	31.895897
460.000000	31.779844
459.000000	31.664174
458.000000	31.531190
457.000000	31.367446
456.000000	31.253257
455.000000	31.183702
454.000000	31.064851
453.000000	30.944981
452.000000	30.799713
451.000000	30.649940
450.000000	30.527800
449.000000	30.375742
448.000000	30.256964
447.000000	30.129171
446.000000	29.974927
445.000000	29.834385
444.000000	29.692370
443.000000	29.566168
442.000000	29.414648
441.000000	29.287026
440.000000	29.125827
439.000000	28.975491
438.000000	28.817730
437.000000	28.678221
436.000000	28.522834
435.000000	28.373857
434.000000	28.247304
433.000000	28.102135
432.000000	27.937976
431.000000	27.772968
430.000000	27.615528
429.000000	27.460932
428.000000	27.284575
427.000000	27.125692
426.000000	26.992317
425.000000	26.835435
424.000000	26.610158
423.000000	26.447834
422.000000	26.313129
421.000000	26.133689
420.000000	25.959626
419.000000	25.804959
418.000000	25.609059
417.000000	25.427440
416.000000	25.285156
415.000000	25.107375
414.000000	24.912647
413.000000	24.722038
412.000000	24.518482
411.000000	24.363656
410.000000	24.191305
409.000000	23.974641
408.000000	23.795500
407.000000	23.616236
406.000000	23.390068
405.000000	23.236234
404.000000	23.043834
403.000000	22.883600
402.000000	22.689737
401.000000	22.501871
400.000000	22.244511
399.000000	22.077856
398.000000	21.896226
397.000000	21.688280
396.000000	21.516574
395.000000	21.332831
394.000000	21.092749
393.000000	20.904431
392.000000	20.711536
391.000000	20.511305
390.000000	20.349382
389.000000	20.134367
388.000000	19.947286
387.000000	19.723774
386.000000	19.561880
385.000000	19.320519
384.000000	19.131096
383.000000	18.929849
382.000000	18.724892
381.000000	18.498799
380.000000	18.305187
379.000000	18.098059
378.000000	17.791378
377.000000	17.685348
376.000000	17.441695
375.000000	17.217898
374.000000	17.018962
373.000000	16.868206
372.000000	16.667777
371.000000	16.421260
370.000000	16.200759
369.000000	15.953283
368.000000	15.782339
367.000000	15.569672
366.000000	15.322363
365.000000	15.140263
364.000000	14.882312
363.000000	14.695084
362.000000	14.531887
361.000000	14.305954
360.000000	14.105595
359.000000	13.852906
358.000000	13.633444
357.000000	13.435124
356.000000	13.293069
355.000000	13.041635
354.000000	12.915146
353.000000	12.614824
352.000000	12.440274
351.000000	12.266366
350.000000	12.047770
349.000000	11.914320
348.000000	11.708140
347.000000	11.468090
346.000000	11.349703
345.000000	11.206220
344.000000	10.913011
343.000000	10.753832
342.000000	10.555803
341.000000	10.376772
340.000000	10.187948
339.000000	9.993655
338.000000	9.822104
337.000000	9.697395
336.000000	9.512997
335.000000	9.260820
334.000000	9.154059
333.000000	8.902493
332.000000	8.674452
331.000000	8.508032
330.000000	8.327234
329.000000	8.042430
328.000000	7.889007
327.000000	7.676163
326.000000	7.563355
325.000000	7.280474
324.000000	7.159327
323.000000	6.865184
322.000000	6.694588
321.000000	6.520003
320.000000	6.311026
319.000000	6.153875
318.000000	6.013372
317.000000	5.821631
316.000000	5.621946
315.000000	5.460740
314.000000	5.267197
313.000000	5.130591
312.000000	4.966098
311.000000	4.751091
310.000000	4.595568
309.000000	4.463041
308.000000	4.276663
307.000000	4.154630
306.000000	3.986934
305.000000	3.851067
304.000000	3.707059
303.000000	3.529987
302.000000	3.355926
301.000000	3.230763
300.000000	3.089942
299.000000	2.898931
298.000000	2.707462
297.000000	2.544151
296.000000	2.320456
295.000000	2.138579
294.000000	1.908540
293.000000	1.684066
292.000000	1.488659
291.000000	1.299794
290.000000	1.166799
289.000000	1.028046
288.000000	0.941066
287.000000	0.881963
286.000000	0.848307
285.000000	0.822277
284.000000	0.814198
283.000000	0.805315
282.000000	0.793232
281.000000	0.776230
280.000000	0.768361
279.000000	0.779155
278.000000	0.789552
277.000000	0.783468
276.000000	0.793304
275.000000	0.800587
274.000000	0.815206
273.000000	0.834672
272.000000	0.843507
271.000000	0.846937
270.000000	0.855574
269.000000	0.856764
268.000000	0.868838
267.000000	0.897469
266.000000	0.928149
265.000000	0.936415
264.000000	0.954445
263.000000	0.975680
262.000000	0.995314
261.000000	1.014332
260.000000	1.020901
259.000000	1.032318
258.000000	1.059796
257.000000	1.084586
256.000000	1.102102
255.000000	1.124917
254.000000	1.118242
253.000000	1.114605
252.000000	1.096765
251.000000	1.076844
250.000000	1.054265
249.000000	1.004320
248.000000	0.953640
247.000000	0.888776
246.000000	0.825004
245.000000	0.768178
244.000000	0.709972
243.000000	0.664332
242.000000	0.626022
241.000000	0.575736
240.000000	0.533757
239.000000	0.499971
238.000000	0.479373
237.000000	0.461212
236.000000	0.440665
235.000000	0.424184
234.000000	0.397195
233.000000	0.367183
232.000000	0.348979
231.000000	0.349701
230.000000	0.324606
229.000000	0.285483
228.000000	0.268175
227.000000	0.253840
226.000000	0.240938
225.000000	0.210662
224.000000	0.189916
223.000000	0.178908
222.000000	0.180622
221.000000	0.169127
220.000000	0.150728
219.000000	0.135210
218.000000	0.128020
217.000000	0.128719
216.000000	0.120117
215.000000	0.106572
214.000000	0.107791
213.000000	0.123528
212.000000	0.120609
211.000000	0.118475
210.000000	0.117450
209.000000	0.127696
208.000000	0.125147
207.000000	0.123078
206.000000	0.120338
205.000000	0.102368
204.000000	0.105549
203.000000	0.122028
202.000000	0.123785
201.000000	0.153422
200.000000	0.186189
