PE IR       SUBTECH     SPECTRUM    ASCII       PEDS        4.00        
   -1
Peau006_1.ASC
23/06/14
14:39:38.00
23/06/14
14:44:30.00
uco
Sample 006 By uco Date Wednesday, June 14 2023
450.000000
#HDR
-1
-1
#GR
cm-1
A
1.0
0.0
4000.000000
-1.000000
3551
8
0.037344
0.002773
#DATA
4000.000000	0.003131
3999.000000	0.003128
3998.000000	0.003124
3997.000000	0.003121
3996.000000	0.003117
3995.000000	0.003113
3994.000000	0.003115
3993.000000	0.003123
3992.000000	0.003132
3991.000000	0.003135
3990.000000	0.003130
3989.000000	0.003124
3988.000000	0.003122
3987.000000	0.003127
3986.000000	0.003133
3985.000000	0.003138
3984.000000	0.003140
3983.000000	0.003143
3982.000000	0.003151
3981.000000	0.003165
3980.000000	0.003178
3979.000000	0.003183
3978.000000	0.003180
3977.000000	0.003172
3976.000000	0.003163
3975.000000	0.003152
3974.000000	0.003137
3973.000000	0.003123
3972.000000	0.003123
3971.000000	0.003141
3970.000000	0.003170
3969.000000	0.003198
3968.000000	0.003214
3967.000000	0.003219
3966.000000	0.003220
3965.000000	0.003221
3964.000000	0.003224
3963.000000	0.003229
3962.000000	0.003235
3961.000000	0.003244
3960.000000	0.003254
3959.000000	0.003265
3958.000000	0.003274
3957.000000	0.003281
3956.000000	0.003283
3955.000000	0.003282
3954.000000	0.003276
3953.000000	0.003266
3952.000000	0.003256
3951.000000	0.003250
3950.000000	0.003252
3949.000000	0.003260
3948.000000	0.003268
3947.000000	0.003273
3946.000000	0.003274
3945.000000	0.003272
3944.000000	0.003263
3943.000000	0.003249
3942.000000	0.003233
3941.000000	0.003226
3940.000000	0.003234
3939.000000	0.003253
3938.000000	0.003271
3937.000000	0.003283
3936.000000	0.003290
3935.000000	0.003295
3934.000000	0.003298
3933.000000	0.003298
3932.000000	0.003295
3931.000000	0.003293
3930.000000	0.003294
3929.000000	0.003303
3928.000000	0.003318
3927.000000	0.003337
3926.000000	0.003352
3925.000000	0.003354
3924.000000	0.003341
3923.000000	0.003323
3922.000000	0.003311
3921.000000	0.003307
3920.000000	0.003303
3919.000000	0.003294
3918.000000	0.003283
3917.000000	0.003274
3916.000000	0.003266
3915.000000	0.003259
3914.000000	0.003254
3913.000000	0.003250
3912.000000	0.003246
3911.000000	0.003238
3910.000000	0.003230
3909.000000	0.003228
3908.000000	0.003238
3907.000000	0.003261
3906.000000	0.003289
3905.000000	0.003308
3904.000000	0.003307
3903.000000	0.003288
3902.000000	0.003267
3901.000000	0.003257
3900.000000	0.003257
3899.000000	0.003251
3898.000000	0.003234
3897.000000	0.003217
3896.000000	0.003212
3895.000000	0.003224
3894.000000	0.003252
3893.000000	0.003287
3892.000000	0.003313
3891.000000	0.003318
3890.000000	0.003307
3889.000000	0.003294
3888.000000	0.003287
3887.000000	0.003278
3886.000000	0.003264
3885.000000	0.003250
3884.000000	0.003246
3883.000000	0.003256
3882.000000	0.003273
3881.000000	0.003282
3880.000000	0.003286
3879.000000	0.003296
3878.000000	0.003315
3877.000000	0.003334
3876.000000	0.003334
3875.000000	0.003315
3874.000000	0.003292
3873.000000	0.003282
3872.000000	0.003286
3871.000000	0.003294
3870.000000	0.003294
3869.000000	0.003285
3868.000000	0.003287
3867.000000	0.003309
3866.000000	0.003329
3865.000000	0.003322
3864.000000	0.003297
3863.000000	0.003283
3862.000000	0.003296
3861.000000	0.003324
3860.000000	0.003349
3859.000000	0.003365
3858.000000	0.003374
3857.000000	0.003373
3856.000000	0.003354
3855.000000	0.003314
3854.000000	0.003261
3853.000000	0.003214
3852.000000	0.003187
3851.000000	0.003187
3850.000000	0.003210
3849.000000	0.003231
3848.000000	0.003233
3847.000000	0.003236
3846.000000	0.003252
3845.000000	0.003278
3844.000000	0.003307
3843.000000	0.003335
3842.000000	0.003358
3841.000000	0.003373
3840.000000	0.003380
3839.000000	0.003374
3838.000000	0.003354
3837.000000	0.003328
3836.000000	0.003304
3835.000000	0.003285
3834.000000	0.003266
3833.000000	0.003243
3832.000000	0.003224
3831.000000	0.003217
3830.000000	0.003229
3829.000000	0.003260
3828.000000	0.003299
3827.000000	0.003329
3826.000000	0.003344
3825.000000	0.003350
3824.000000	0.003356
3823.000000	0.003359
3822.000000	0.003349
3821.000000	0.003324
3820.000000	0.003299
3819.000000	0.003289
3818.000000	0.003291
3817.000000	0.003278
3816.000000	0.003234
3815.000000	0.003192
3814.000000	0.003185
3813.000000	0.003207
3812.000000	0.003226
3811.000000	0.003224
3810.000000	0.003220
3809.000000	0.003235
3808.000000	0.003262
3807.000000	0.003277
3806.000000	0.003276
3805.000000	0.003271
3804.000000	0.003272
3803.000000	0.003271
3802.000000	0.003258
3801.000000	0.003246
3800.000000	0.003251
3799.000000	0.003271
3798.000000	0.003282
3797.000000	0.003259
3796.000000	0.003218
3795.000000	0.003199
3794.000000	0.003213
3793.000000	0.003235
3792.000000	0.003246
3791.000000	0.003246
3790.000000	0.003252
3789.000000	0.003269
3788.000000	0.003291
3787.000000	0.003310
3786.000000	0.003326
3785.000000	0.003335
3784.000000	0.003333
3783.000000	0.003316
3782.000000	0.003294
3781.000000	0.003275
3780.000000	0.003262
3779.000000	0.003256
3778.000000	0.003254
3777.000000	0.003256
3776.000000	0.003259
3775.000000	0.003255
3774.000000	0.003245
3773.000000	0.003238
3772.000000	0.003248
3771.000000	0.003276
3770.000000	0.003303
3769.000000	0.003308
3768.000000	0.003285
3767.000000	0.003244
3766.000000	0.003204
3765.000000	0.003185
3764.000000	0.003200
3763.000000	0.003246
3762.000000	0.003296
3761.000000	0.003321
3760.000000	0.003309
3759.000000	0.003275
3758.000000	0.003246
3757.000000	0.003235
3756.000000	0.003238
3755.000000	0.003248
3754.000000	0.003266
3753.000000	0.003295
3752.000000	0.003328
3751.000000	0.003348
3750.000000	0.003336
3749.000000	0.003296
3748.000000	0.003247
3747.000000	0.003204
3746.000000	0.003173
3745.000000	0.003158
3744.000000	0.003154
3743.000000	0.003157
3742.000000	0.003166
3741.000000	0.003175
3740.000000	0.003175
3739.000000	0.003174
3738.000000	0.003192
3737.000000	0.003212
3736.000000	0.003200
3735.000000	0.003150
3734.000000	0.003093
3733.000000	0.003068
3732.000000	0.003078
3731.000000	0.003099
3730.000000	0.003118
3729.000000	0.003143
3728.000000	0.003172
3727.000000	0.003199
3726.000000	0.003221
3725.000000	0.003241
3724.000000	0.003255
3723.000000	0.003261
3722.000000	0.003259
3721.000000	0.003260
3720.000000	0.003267
3719.000000	0.003271
3718.000000	0.003265
3717.000000	0.003256
3716.000000	0.003255
3715.000000	0.003268
3714.000000	0.003287
3713.000000	0.003301
3712.000000	0.003301
3711.000000	0.003288
3710.000000	0.003262
3709.000000	0.003229
3708.000000	0.003190
3707.000000	0.003151
3706.000000	0.003123
3705.000000	0.003121
3704.000000	0.003142
3703.000000	0.003170
3702.000000	0.003185
3701.000000	0.003181
3700.000000	0.003168
3699.000000	0.003158
3698.000000	0.003159
3697.000000	0.003168
3696.000000	0.003185
3695.000000	0.003205
3694.000000	0.003220
3693.000000	0.003214
3692.000000	0.003182
3691.000000	0.003137
3690.000000	0.003105
3689.000000	0.003099
3688.000000	0.003111
3687.000000	0.003122
3686.000000	0.003121
3685.000000	0.003108
3684.000000	0.003095
3683.000000	0.003104
3682.000000	0.003144
3681.000000	0.003199
3680.000000	0.003241
3679.000000	0.003257
3678.000000	0.003251
3677.000000	0.003238
3676.000000	0.003220
3675.000000	0.003193
3674.000000	0.003172
3673.000000	0.003173
3672.000000	0.003190
3671.000000	0.003191
3670.000000	0.003175
3669.000000	0.003171
3668.000000	0.003190
3667.000000	0.003216
3666.000000	0.003227
3665.000000	0.003217
3664.000000	0.003214
3663.000000	0.003234
3662.000000	0.003264
3661.000000	0.003285
3660.000000	0.003294
3659.000000	0.003305
3658.000000	0.003329
3657.000000	0.003361
3656.000000	0.003385
3655.000000	0.003394
3654.000000	0.003398
3653.000000	0.003411
3652.000000	0.003440
3651.000000	0.003487
3650.000000	0.003544
3649.000000	0.003593
3648.000000	0.003618
3647.000000	0.003629
3646.000000	0.003641
3645.000000	0.003654
3644.000000	0.003664
3643.000000	0.003676
3642.000000	0.003694
3641.000000	0.003719
3640.000000	0.003753
3639.000000	0.003792
3638.000000	0.003828
3637.000000	0.003854
3636.000000	0.003868
3635.000000	0.003867
3634.000000	0.003856
3633.000000	0.003846
3632.000000	0.003852
3631.000000	0.003880
3630.000000	0.003916
3629.000000	0.003939
3628.000000	0.003940
3627.000000	0.003936
3626.000000	0.003948
3625.000000	0.003970
3624.000000	0.003985
3623.000000	0.004000
3622.000000	0.004025
3621.000000	0.004055
3620.000000	0.004088
3619.000000	0.004129
3618.000000	0.004180
3617.000000	0.004241
3616.000000	0.004300
3615.000000	0.004344
3614.000000	0.004370
3613.000000	0.004386
3612.000000	0.004407
3611.000000	0.004435
3610.000000	0.004459
3609.000000	0.004469
3608.000000	0.004463
3607.000000	0.004454
3606.000000	0.004454
3605.000000	0.004465
3604.000000	0.004478
3603.000000	0.004492
3602.000000	0.004513
3601.000000	0.004549
3600.000000	0.004598
3599.000000	0.004655
3598.000000	0.004714
3597.000000	0.004769
3596.000000	0.004814
3595.000000	0.004844
3594.000000	0.004864
3593.000000	0.004886
3592.000000	0.004913
3591.000000	0.004942
3590.000000	0.004966
3589.000000	0.004984
3588.000000	0.005001
3587.000000	0.005020
3586.000000	0.005043
3585.000000	0.005070
3584.000000	0.005101
3583.000000	0.005131
3582.000000	0.005164
3581.000000	0.005203
3580.000000	0.005239
3579.000000	0.005261
3578.000000	0.005274
3577.000000	0.005293
3576.000000	0.005328
3575.000000	0.005374
3574.000000	0.005425
3573.000000	0.005480
3572.000000	0.005543
3571.000000	0.005611
3570.000000	0.005675
3569.000000	0.005732
3568.000000	0.005784
3567.000000	0.005839
3566.000000	0.005897
3565.000000	0.005954
3564.000000	0.005998
3563.000000	0.006019
3562.000000	0.006017
3561.000000	0.006011
3560.000000	0.006019
3559.000000	0.006045
3558.000000	0.006085
3557.000000	0.006133
3556.000000	0.006185
3555.000000	0.006239
3554.000000	0.006297
3553.000000	0.006358
3552.000000	0.006416
3551.000000	0.006465
3550.000000	0.006502
3549.000000	0.006534
3548.000000	0.006564
3547.000000	0.006594
3546.000000	0.006622
3545.000000	0.006648
3544.000000	0.006677
3543.000000	0.006710
3542.000000	0.006744
3541.000000	0.006775
3540.000000	0.006802
3539.000000	0.006825
3538.000000	0.006847
3537.000000	0.006874
3536.000000	0.006908
3535.000000	0.006951
3534.000000	0.007001
3533.000000	0.007053
3532.000000	0.007103
3531.000000	0.007148
3530.000000	0.007188
3529.000000	0.007225
3528.000000	0.007261
3527.000000	0.007300
3526.000000	0.007340
3525.000000	0.007373
3524.000000	0.007399
3523.000000	0.007423
3522.000000	0.007457
3521.000000	0.007507
3520.000000	0.007562
3519.000000	0.007608
3518.000000	0.007636
3517.000000	0.007647
3516.000000	0.007649
3515.000000	0.007653
3514.000000	0.007672
3513.000000	0.007713
3512.000000	0.007773
3511.000000	0.007836
3510.000000	0.007890
3509.000000	0.007933
3508.000000	0.007968
3507.000000	0.008000
3506.000000	0.008032
3505.000000	0.008065
3504.000000	0.008101
3503.000000	0.008138
3502.000000	0.008168
3501.000000	0.008188
3500.000000	0.008203
3499.000000	0.008220
3498.000000	0.008246
3497.000000	0.008281
3496.000000	0.008326
3495.000000	0.008374
3494.000000	0.008418
3493.000000	0.008447
3492.000000	0.008456
3491.000000	0.008457
3490.000000	0.008463
3489.000000	0.008484
3488.000000	0.008519
3487.000000	0.008561
3486.000000	0.008609
3485.000000	0.008659
3484.000000	0.008702
3483.000000	0.008731
3482.000000	0.008751
3481.000000	0.008776
3480.000000	0.008812
3479.000000	0.008852
3478.000000	0.008882
3477.000000	0.008898
3476.000000	0.008909
3475.000000	0.008926
3474.000000	0.008954
3473.000000	0.008985
3472.000000	0.009009
3471.000000	0.009024
3470.000000	0.009037
3469.000000	0.009059
3468.000000	0.009093
3467.000000	0.009131
3466.000000	0.009164
3465.000000	0.009191
3464.000000	0.009213
3463.000000	0.009232
3462.000000	0.009252
3461.000000	0.009272
3460.000000	0.009295
3459.000000	0.009324
3458.000000	0.009357
3457.000000	0.009386
3456.000000	0.009409
3455.000000	0.009426
3454.000000	0.009445
3453.000000	0.009473
3452.000000	0.009509
3451.000000	0.009552
3450.000000	0.009599
3449.000000	0.009647
3448.000000	0.009688
3447.000000	0.009716
3446.000000	0.009734
3445.000000	0.009751
3444.000000	0.009771
3443.000000	0.009792
3442.000000	0.009815
3441.000000	0.009849
3440.000000	0.009895
3439.000000	0.009945
3438.000000	0.009990
3437.000000	0.010025
3436.000000	0.010057
3435.000000	0.010087
3434.000000	0.010115
3433.000000	0.010143
3432.000000	0.010171
3431.000000	0.010198
3430.000000	0.010215
3429.000000	0.010219
3428.000000	0.010221
3427.000000	0.010240
3426.000000	0.010288
3425.000000	0.010357
3424.000000	0.010427
3423.000000	0.010480
3422.000000	0.010511
3421.000000	0.010529
3420.000000	0.010546
3419.000000	0.010572
3418.000000	0.010612
3417.000000	0.010660
3416.000000	0.010705
3415.000000	0.010735
3414.000000	0.010751
3413.000000	0.010761
3412.000000	0.010776
3411.000000	0.010799
3410.000000	0.010832
3409.000000	0.010873
3408.000000	0.010918
3407.000000	0.010966
3406.000000	0.011012
3405.000000	0.011054
3404.000000	0.011089
3403.000000	0.011117
3402.000000	0.011141
3401.000000	0.011168
3400.000000	0.011203
3399.000000	0.011246
3398.000000	0.011290
3397.000000	0.011331
3396.000000	0.011365
3395.000000	0.011397
3394.000000	0.011429
3393.000000	0.011464
3392.000000	0.011499
3391.000000	0.011528
3390.000000	0.011548
3389.000000	0.011561
3388.000000	0.011573
3387.000000	0.011591
3386.000000	0.011620
3385.000000	0.011658
3384.000000	0.011702
3383.000000	0.011746
3382.000000	0.011788
3381.000000	0.011826
3380.000000	0.011858
3379.000000	0.011890
3378.000000	0.011928
3377.000000	0.011979
3376.000000	0.012039
3375.000000	0.012100
3374.000000	0.012151
3373.000000	0.012193
3372.000000	0.012230
3371.000000	0.012265
3370.000000	0.012302
3369.000000	0.012345
3368.000000	0.012395
3367.000000	0.012450
3366.000000	0.012503
3365.000000	0.012553
3364.000000	0.012601
3363.000000	0.012654
3362.000000	0.012715
3361.000000	0.012787
3360.000000	0.012869
3359.000000	0.012959
3358.000000	0.013050
3357.000000	0.013129
3356.000000	0.013191
3355.000000	0.013231
3354.000000	0.013259
3353.000000	0.013287
3352.000000	0.013330
3351.000000	0.013390
3350.000000	0.013460
3349.000000	0.013530
3348.000000	0.013594
3347.000000	0.013653
3346.000000	0.013718
3345.000000	0.013796
3344.000000	0.013880
3343.000000	0.013954
3342.000000	0.014004
3341.000000	0.014037
3340.000000	0.014073
3339.000000	0.014133
3338.000000	0.014214
3337.000000	0.014300
3336.000000	0.014373
3335.000000	0.014426
3334.000000	0.014471
3333.000000	0.014521
3332.000000	0.014582
3331.000000	0.014647
3330.000000	0.014706
3329.000000	0.014754
3328.000000	0.014797
3327.000000	0.014842
3326.000000	0.014891
3325.000000	0.014940
3324.000000	0.014985
3323.000000	0.015027
3322.000000	0.015071
3321.000000	0.015117
3320.000000	0.015161
3319.000000	0.015203
3318.000000	0.015242
3317.000000	0.015279
3316.000000	0.015313
3315.000000	0.015348
3314.000000	0.015385
3313.000000	0.015421
3312.000000	0.015450
3311.000000	0.015468
3310.000000	0.015478
3309.000000	0.015488
3308.000000	0.015507
3307.000000	0.015534
3306.000000	0.015567
3305.000000	0.015601
3304.000000	0.015636
3303.000000	0.015674
3302.000000	0.015716
3301.000000	0.015758
3300.000000	0.015795
3299.000000	0.015821
3298.000000	0.015831
3297.000000	0.015824
3296.000000	0.015804
3295.000000	0.015784
3294.000000	0.015782
3293.000000	0.015806
3292.000000	0.015853
3291.000000	0.015904
3290.000000	0.015941
3289.000000	0.015954
3288.000000	0.015946
3287.000000	0.015928
3286.000000	0.015912
3285.000000	0.015901
3284.000000	0.015893
3283.000000	0.015883
3282.000000	0.015870
3281.000000	0.015858
3280.000000	0.015848
3279.000000	0.015837
3278.000000	0.015821
3277.000000	0.015798
3276.000000	0.015770
3275.000000	0.015739
3274.000000	0.015708
3273.000000	0.015678
3272.000000	0.015646
3271.000000	0.015614
3270.000000	0.015589
3269.000000	0.015575
3268.000000	0.015573
3267.000000	0.015581
3266.000000	0.015597
3265.000000	0.015614
3264.000000	0.015613
3263.000000	0.015581
3262.000000	0.015522
3261.000000	0.015460
3260.000000	0.015418
3259.000000	0.015395
3258.000000	0.015377
3257.000000	0.015350
3256.000000	0.015314
3255.000000	0.015276
3254.000000	0.015240
3253.000000	0.015207
3252.000000	0.015182
3251.000000	0.015163
3250.000000	0.015145
3249.000000	0.015119
3248.000000	0.015081
3247.000000	0.015039
3246.000000	0.014998
3245.000000	0.014961
3244.000000	0.014927
3243.000000	0.014896
3242.000000	0.014870
3241.000000	0.014847
3240.000000	0.014821
3239.000000	0.014788
3238.000000	0.014748
3237.000000	0.014703
3236.000000	0.014656
3235.000000	0.014611
3234.000000	0.014572
3233.000000	0.014544
3232.000000	0.014530
3231.000000	0.014525
3230.000000	0.014522
3229.000000	0.014515
3228.000000	0.014506
3227.000000	0.014500
3226.000000	0.014497
3225.000000	0.014494
3224.000000	0.014480
3223.000000	0.014452
3222.000000	0.014414
3221.000000	0.014378
3220.000000	0.014350
3219.000000	0.014332
3218.000000	0.014316
3217.000000	0.014294
3216.000000	0.014263
3215.000000	0.014229
3214.000000	0.014202
3213.000000	0.014185
3212.000000	0.014175
3211.000000	0.014161
3210.000000	0.014137
3209.000000	0.014106
3208.000000	0.014071
3207.000000	0.014029
3206.000000	0.013979
3205.000000	0.013930
3204.000000	0.013897
3203.000000	0.013885
3202.000000	0.013886
3201.000000	0.013881
3200.000000	0.013858
3199.000000	0.013818
3198.000000	0.013769
3197.000000	0.013723
3196.000000	0.013689
3195.000000	0.013663
3194.000000	0.013634
3193.000000	0.013589
3192.000000	0.013529
3191.000000	0.013470
3190.000000	0.013429
3189.000000	0.013407
3188.000000	0.013386
3187.000000	0.013351
3186.000000	0.013297
3185.000000	0.013233
3184.000000	0.013168
3183.000000	0.013104
3182.000000	0.013046
3181.000000	0.012997
3180.000000	0.012962
3179.000000	0.012940
3178.000000	0.012923
3177.000000	0.012901
3176.000000	0.012867
3175.000000	0.012822
3174.000000	0.012771
3173.000000	0.012717
3172.000000	0.012663
3171.000000	0.012610
3170.000000	0.012561
3169.000000	0.012517
3168.000000	0.012473
3167.000000	0.012428
3166.000000	0.012382
3165.000000	0.012339
3164.000000	0.012299
3163.000000	0.012256
3162.000000	0.012206
3161.000000	0.012148
3160.000000	0.012090
3159.000000	0.012038
3158.000000	0.011997
3157.000000	0.011965
3156.000000	0.011939
3155.000000	0.011915
3154.000000	0.011885
3153.000000	0.011841
3152.000000	0.011781
3151.000000	0.011710
3150.000000	0.011639
3149.000000	0.011575
3148.000000	0.011524
3147.000000	0.011486
3146.000000	0.011459
3145.000000	0.011437
3144.000000	0.011414
3143.000000	0.011389
3142.000000	0.011364
3141.000000	0.011339
3140.000000	0.011310
3139.000000	0.011273
3138.000000	0.011232
3137.000000	0.011196
3136.000000	0.011172
3135.000000	0.011155
3134.000000	0.011135
3133.000000	0.011105
3132.000000	0.011067
3131.000000	0.011030
3130.000000	0.011002
3129.000000	0.010983
3128.000000	0.010962
3127.000000	0.010935
3126.000000	0.010906
3125.000000	0.010881
3124.000000	0.010864
3123.000000	0.010852
3122.000000	0.010842
3121.000000	0.010832
3120.000000	0.010820
3119.000000	0.010805
3118.000000	0.010792
3117.000000	0.010790
3116.000000	0.010803
3115.000000	0.010824
3114.000000	0.010842
3113.000000	0.010847
3112.000000	0.010840
3111.000000	0.010834
3110.000000	0.010838
3109.000000	0.010856
3108.000000	0.010880
3107.000000	0.010905
3106.000000	0.010931
3105.000000	0.010960
3104.000000	0.010990
3103.000000	0.011015
3102.000000	0.011035
3101.000000	0.011055
3100.000000	0.011080
3099.000000	0.011109
3098.000000	0.011134
3097.000000	0.011147
3096.000000	0.011150
3095.000000	0.011149
3094.000000	0.011154
3093.000000	0.011166
3092.000000	0.011189
3091.000000	0.011222
3090.000000	0.011266
3089.000000	0.011309
3088.000000	0.011337
3087.000000	0.011345
3086.000000	0.011341
3085.000000	0.011339
3084.000000	0.011350
3083.000000	0.011374
3082.000000	0.011405
3081.000000	0.011436
3080.000000	0.011457
3079.000000	0.011464
3078.000000	0.011463
3077.000000	0.011465
3076.000000	0.011470
3075.000000	0.011474
3074.000000	0.011481
3073.000000	0.011500
3072.000000	0.011536
3071.000000	0.011580
3070.000000	0.011611
3069.000000	0.011614
3068.000000	0.011594
3067.000000	0.011568
3066.000000	0.011549
3065.000000	0.011538
3064.000000	0.011521
3063.000000	0.011493
3062.000000	0.011456
3061.000000	0.011420
3060.000000	0.011387
3059.000000	0.011353
3058.000000	0.011314
3057.000000	0.011275
3056.000000	0.011241
3055.000000	0.011216
3054.000000	0.011191
3053.000000	0.011158
3052.000000	0.011111
3051.000000	0.011060
3050.000000	0.011016
3049.000000	0.010985
3048.000000	0.010955
3047.000000	0.010912
3046.000000	0.010855
3045.000000	0.010793
3044.000000	0.010741
3043.000000	0.010702
3042.000000	0.010673
3041.000000	0.010648
3040.000000	0.010620
3039.000000	0.010581
3038.000000	0.010531
3037.000000	0.010477
3036.000000	0.010429
3035.000000	0.010391
3034.000000	0.010357
3033.000000	0.010317
3032.000000	0.010265
3031.000000	0.010207
3030.000000	0.010155
3029.000000	0.010117
3028.000000	0.010090
3027.000000	0.010068
3026.000000	0.010045
3025.000000	0.010022
3024.000000	0.009995
3023.000000	0.009958
3022.000000	0.009909
3021.000000	0.009857
3020.000000	0.009811
3019.000000	0.009775
3018.000000	0.009744
3017.000000	0.009713
3016.000000	0.009682
3015.000000	0.009653
3014.000000	0.009630
3013.000000	0.009613
3012.000000	0.009601
3011.000000	0.009593
3010.000000	0.009593
3009.000000	0.009599
3008.000000	0.009602
3007.000000	0.009593
3006.000000	0.009573
3005.000000	0.009553
3004.000000	0.009548
3003.000000	0.009564
3002.000000	0.009597
3001.000000	0.009634
3000.000000	0.009663
2999.000000	0.009684
2998.000000	0.009705
2997.000000	0.009737
2996.000000	0.009781
2995.000000	0.009834
2994.000000	0.009889
2993.000000	0.009944
2992.000000	0.009998
2991.000000	0.010051
2990.000000	0.010111
2989.000000	0.010185
2988.000000	0.010274
2987.000000	0.010367
2986.000000	0.010454
2985.000000	0.010537
2984.000000	0.010626
2983.000000	0.010727
2982.000000	0.010838
2981.000000	0.010951
2980.000000	0.011066
2979.000000	0.011183
2978.000000	0.011301
2977.000000	0.011420
2976.000000	0.011543
2975.000000	0.011674
2974.000000	0.011820
2973.000000	0.011983
2972.000000	0.012152
2971.000000	0.012321
2970.000000	0.012489
2969.000000	0.012670
2968.000000	0.012873
2967.000000	0.013093
2966.000000	0.013306
2965.000000	0.013493
2964.000000	0.013649
2963.000000	0.013780
2962.000000	0.013893
2961.000000	0.013992
2960.000000	0.014070
2959.000000	0.014123
2958.000000	0.014149
2957.000000	0.014152
2956.000000	0.014141
2955.000000	0.014119
2954.000000	0.014086
2953.000000	0.014040
2952.000000	0.013984
2951.000000	0.013924
2950.000000	0.013873
2949.000000	0.013841
2948.000000	0.013836
2947.000000	0.013860
2946.000000	0.013913
2945.000000	0.013994
2944.000000	0.014093
2943.000000	0.014202
2942.000000	0.014318
2941.000000	0.014446
2940.000000	0.014594
2939.000000	0.014764
2938.000000	0.014949
2937.000000	0.015137
2936.000000	0.015313
2935.000000	0.015467
2934.000000	0.015596
2933.000000	0.015703
2932.000000	0.015790
2931.000000	0.015859
2930.000000	0.015908
2929.000000	0.015935
2928.000000	0.015945
2927.000000	0.015936
2926.000000	0.015903
2925.000000	0.015836
2924.000000	0.015731
2923.000000	0.015594
2922.000000	0.015440
2921.000000	0.015275
2920.000000	0.015096
2919.000000	0.014892
2918.000000	0.014661
2917.000000	0.014416
2916.000000	0.014179
2915.000000	0.013969
2914.000000	0.013792
2913.000000	0.013639
2912.000000	0.013495
2911.000000	0.013349
2910.000000	0.013198
2909.000000	0.013048
2908.000000	0.012906
2907.000000	0.012770
2906.000000	0.012639
2905.000000	0.012511
2904.000000	0.012388
2903.000000	0.012268
2902.000000	0.012149
2901.000000	0.012030
2900.000000	0.011913
2899.000000	0.011800
2898.000000	0.011692
2897.000000	0.011589
2896.000000	0.011486
2895.000000	0.011388
2894.000000	0.011301
2893.000000	0.011230
2892.000000	0.011175
2891.000000	0.011130
2890.000000	0.011088
2889.000000	0.011051
2888.000000	0.011026
2887.000000	0.011015
2886.000000	0.011016
2885.000000	0.011028
2884.000000	0.011050
2883.000000	0.011084
2882.000000	0.011135
2881.000000	0.011204
2880.000000	0.011288
2879.000000	0.011379
2878.000000	0.011474
2877.000000	0.011571
2876.000000	0.011668
2875.000000	0.011751
2874.000000	0.011803
2873.000000	0.011814
2872.000000	0.011788
2871.000000	0.011744
2870.000000	0.011706
2869.000000	0.011690
2868.000000	0.011699
2867.000000	0.011726
2866.000000	0.011756
2865.000000	0.011783
2864.000000	0.011801
2863.000000	0.011815
2862.000000	0.011829
2861.000000	0.011850
2860.000000	0.011880
2859.000000	0.011917
2858.000000	0.011948
2857.000000	0.011953
2856.000000	0.011919
2855.000000	0.011843
2854.000000	0.011735
2853.000000	0.011605
2852.000000	0.011458
2851.000000	0.011293
2850.000000	0.011110
2849.000000	0.010915
2848.000000	0.010711
2847.000000	0.010506
2846.000000	0.010309
2845.000000	0.010132
2844.000000	0.009979
2843.000000	0.009844
2842.000000	0.009715
2841.000000	0.009590
2840.000000	0.009475
2839.000000	0.009379
2838.000000	0.009300
2837.000000	0.009228
2836.000000	0.009155
2835.000000	0.009079
2834.000000	0.009008
2833.000000	0.008947
2832.000000	0.008902
2831.000000	0.008866
2830.000000	0.008834
2829.000000	0.008801
2828.000000	0.008774
2827.000000	0.008755
2826.000000	0.008743
2825.000000	0.008728
2824.000000	0.008702
2823.000000	0.008672
2822.000000	0.008644
2821.000000	0.008618
2820.000000	0.008590
2819.000000	0.008558
2818.000000	0.008534
2817.000000	0.008526
2816.000000	0.008528
2815.000000	0.008523
2814.000000	0.008504
2813.000000	0.008473
2812.000000	0.008443
2811.000000	0.008418
2810.000000	0.008397
2809.000000	0.008378
2808.000000	0.008356
2807.000000	0.008332
2806.000000	0.008308
2805.000000	0.008289
2804.000000	0.008275
2803.000000	0.008260
2802.000000	0.008240
2801.000000	0.008217
2800.000000	0.008200
2799.000000	0.008192
2798.000000	0.008187
2797.000000	0.008177
2796.000000	0.008162
2795.000000	0.008147
2794.000000	0.008136
2793.000000	0.008129
2792.000000	0.008116
2791.000000	0.008091
2790.000000	0.008053
2789.000000	0.008008
2788.000000	0.007969
2787.000000	0.007948
2786.000000	0.007943
2785.000000	0.007943
2784.000000	0.007937
2783.000000	0.007919
2782.000000	0.007896
2781.000000	0.007874
2780.000000	0.007857
2779.000000	0.007846
2778.000000	0.007843
2777.000000	0.007847
2776.000000	0.007848
2775.000000	0.007832
2774.000000	0.007796
2773.000000	0.007757
2772.000000	0.007738
2771.000000	0.007747
2770.000000	0.007770
2769.000000	0.007785
2768.000000	0.007775
2767.000000	0.007746
2766.000000	0.007709
2765.000000	0.007677
2764.000000	0.007654
2763.000000	0.007639
2762.000000	0.007634
2761.000000	0.007633
2760.000000	0.007629
2759.000000	0.007615
2758.000000	0.007591
2757.000000	0.007567
2756.000000	0.007549
2755.000000	0.007541
2754.000000	0.007535
2753.000000	0.007525
2752.000000	0.007508
2751.000000	0.007487
2750.000000	0.007473
2749.000000	0.007472
2748.000000	0.007481
2747.000000	0.007483
2746.000000	0.007470
2745.000000	0.007445
2744.000000	0.007422
2743.000000	0.007410
2742.000000	0.007410
2741.000000	0.007416
2740.000000	0.007417
2739.000000	0.007407
2738.000000	0.007384
2737.000000	0.007352
2736.000000	0.007322
2735.000000	0.007303
2734.000000	0.007298
2733.000000	0.007301
2732.000000	0.007300
2731.000000	0.007289
2730.000000	0.007274
2729.000000	0.007263
2728.000000	0.007261
2727.000000	0.007267
2726.000000	0.007270
2725.000000	0.007263
2724.000000	0.007247
2723.000000	0.007227
2722.000000	0.007208
2721.000000	0.007191
2720.000000	0.007174
2719.000000	0.007159
2718.000000	0.007155
2717.000000	0.007161
2716.000000	0.007164
2715.000000	0.007151
2714.000000	0.007123
2713.000000	0.007096
2712.000000	0.007086
2711.000000	0.007093
2710.000000	0.007103
2709.000000	0.007107
2708.000000	0.007107
2707.000000	0.007107
2706.000000	0.007110
2705.000000	0.007109
2704.000000	0.007098
2703.000000	0.007078
2702.000000	0.007052
2701.000000	0.007028
2700.000000	0.007007
2699.000000	0.006989
2698.000000	0.006972
2697.000000	0.006953
2696.000000	0.006935
2695.000000	0.006924
2694.000000	0.006927
2693.000000	0.006943
2692.000000	0.006960
2691.000000	0.006966
2690.000000	0.006957
2689.000000	0.006942
2688.000000	0.006929
2687.000000	0.006920
2686.000000	0.006914
2685.000000	0.006910
2684.000000	0.006908
2683.000000	0.006910
2682.000000	0.006915
2681.000000	0.006927
2680.000000	0.006945
2679.000000	0.006962
2678.000000	0.006965
2677.000000	0.006952
2676.000000	0.006930
2675.000000	0.006911
2674.000000	0.006902
2673.000000	0.006899
2672.000000	0.006895
2671.000000	0.006888
2670.000000	0.006883
2669.000000	0.006884
2668.000000	0.006889
2667.000000	0.006893
2666.000000	0.006896
2665.000000	0.006903
2664.000000	0.006918
2663.000000	0.006937
2662.000000	0.006954
2661.000000	0.006960
2660.000000	0.006955
2659.000000	0.006943
2658.000000	0.006927
2657.000000	0.006909
2656.000000	0.006890
2655.000000	0.006871
2654.000000	0.006853
2653.000000	0.006835
2652.000000	0.006814
2651.000000	0.006790
2650.000000	0.006771
2649.000000	0.006763
2648.000000	0.006762
2647.000000	0.006759
2646.000000	0.006752
2645.000000	0.006741
2644.000000	0.006726
2643.000000	0.006700
2642.000000	0.006661
2641.000000	0.006619
2640.000000	0.006588
2639.000000	0.006572
2638.000000	0.006562
2637.000000	0.006550
2636.000000	0.006530
2635.000000	0.006508
2634.000000	0.006487
2633.000000	0.006468
2632.000000	0.006454
2631.000000	0.006444
2630.000000	0.006439
2629.000000	0.006435
2628.000000	0.006428
2627.000000	0.006416
2626.000000	0.006397
2625.000000	0.006371
2624.000000	0.006340
2623.000000	0.006312
2622.000000	0.006296
2621.000000	0.006294
2620.000000	0.006296
2619.000000	0.006295
2618.000000	0.006284
2617.000000	0.006265
2616.000000	0.006239
2615.000000	0.006212
2614.000000	0.006194
2613.000000	0.006190
2612.000000	0.006194
2611.000000	0.006191
2610.000000	0.006176
2609.000000	0.006155
2608.000000	0.006132
2607.000000	0.006109
2606.000000	0.006089
2605.000000	0.006072
2604.000000	0.006057
2603.000000	0.006044
2602.000000	0.006043
2601.000000	0.006057
2600.000000	0.006073
2599.000000	0.006071
2598.000000	0.006041
2597.000000	0.006000
2596.000000	0.005967
2595.000000	0.005950
2594.000000	0.005946
2593.000000	0.005943
2592.000000	0.005925
2591.000000	0.005885
2590.000000	0.005834
2589.000000	0.005798
2588.000000	0.005790
2587.000000	0.005800
2586.000000	0.005811
2585.000000	0.005816
2584.000000	0.005820
2583.000000	0.005825
2582.000000	0.005830
2581.000000	0.005832
2580.000000	0.005829
2579.000000	0.005816
2578.000000	0.005795
2577.000000	0.005777
2576.000000	0.005771
2575.000000	0.005773
2574.000000	0.005773
2573.000000	0.005763
2572.000000	0.005739
2571.000000	0.005709
2570.000000	0.005686
2569.000000	0.005679
2568.000000	0.005684
2567.000000	0.005687
2566.000000	0.005680
2565.000000	0.005667
2564.000000	0.005659
2563.000000	0.005655
2562.000000	0.005652
2561.000000	0.005650
2560.000000	0.005649
2559.000000	0.005645
2558.000000	0.005633
2557.000000	0.005618
2556.000000	0.005606
2555.000000	0.005596
2554.000000	0.005584
2553.000000	0.005572
2552.000000	0.005569
2551.000000	0.005576
2550.000000	0.005586
2549.000000	0.005590
2548.000000	0.005581
2547.000000	0.005560
2546.000000	0.005529
2545.000000	0.005501
2544.000000	0.005486
2543.000000	0.005486
2542.000000	0.005494
2541.000000	0.005500
2540.000000	0.005501
2539.000000	0.005507
2538.000000	0.005531
2537.000000	0.005569
2536.000000	0.005595
2535.000000	0.005585
2534.000000	0.005545
2533.000000	0.005503
2532.000000	0.005486
2531.000000	0.005492
2530.000000	0.005505
2529.000000	0.005515
2528.000000	0.005521
2527.000000	0.005526
2526.000000	0.005537
2525.000000	0.005563
2524.000000	0.005605
2523.000000	0.005644
2522.000000	0.005659
2521.000000	0.005651
2520.000000	0.005631
2519.000000	0.005608
2518.000000	0.005580
2517.000000	0.005541
2516.000000	0.005495
2515.000000	0.005454
2514.000000	0.005433
2513.000000	0.005438
2512.000000	0.005458
2511.000000	0.005478
2510.000000	0.005486
2509.000000	0.005488
2508.000000	0.005487
2507.000000	0.005479
2506.000000	0.005461
2505.000000	0.005431
2504.000000	0.005390
2503.000000	0.005340
2502.000000	0.005292
2501.000000	0.005272
2500.000000	0.005295
2499.000000	0.005341
2498.000000	0.005376
2497.000000	0.005386
2496.000000	0.005384
2495.000000	0.005381
2494.000000	0.005371
2493.000000	0.005350
2492.000000	0.005335
2491.000000	0.005341
2490.000000	0.005363
2489.000000	0.005378
2488.000000	0.005376
2487.000000	0.005359
2486.000000	0.005339
2485.000000	0.005322
2484.000000	0.005309
2483.000000	0.005303
2482.000000	0.005299
2481.000000	0.005289
2480.000000	0.005269
2479.000000	0.005243
2478.000000	0.005217
2477.000000	0.005188
2476.000000	0.005159
2475.000000	0.005140
2474.000000	0.005143
2473.000000	0.005164
2472.000000	0.005181
2471.000000	0.005181
2470.000000	0.005173
2469.000000	0.005175
2468.000000	0.005192
2467.000000	0.005215
2466.000000	0.005233
2465.000000	0.005242
2464.000000	0.005242
2463.000000	0.005233
2462.000000	0.005219
2461.000000	0.005203
2460.000000	0.005182
2459.000000	0.005151
2458.000000	0.005116
2457.000000	0.005089
2456.000000	0.005083
2455.000000	0.005096
2454.000000	0.005119
2453.000000	0.005144
2452.000000	0.005169
2451.000000	0.005194
2450.000000	0.005210
2449.000000	0.005207
2448.000000	0.005179
2447.000000	0.005141
2446.000000	0.005123
2445.000000	0.005143
2444.000000	0.005185
2443.000000	0.005213
2442.000000	0.005207
2441.000000	0.005174
2440.000000	0.005129
2439.000000	0.005084
2438.000000	0.005050
2437.000000	0.005043
2436.000000	0.005067
2435.000000	0.005105
2434.000000	0.005126
2433.000000	0.005118
2432.000000	0.005095
2431.000000	0.005078
2430.000000	0.005078
2429.000000	0.005091
2428.000000	0.005106
2427.000000	0.005109
2426.000000	0.005095
2425.000000	0.005068
2424.000000	0.005043
2423.000000	0.005032
2422.000000	0.005035
2421.000000	0.005046
2420.000000	0.005055
2419.000000	0.005054
2418.000000	0.005038
2417.000000	0.005008
2416.000000	0.004980
2415.000000	0.004970
2414.000000	0.004977
2413.000000	0.004989
2412.000000	0.004996
2411.000000	0.004997
2410.000000	0.005000
2409.000000	0.005008
2408.000000	0.005017
2407.000000	0.005026
2406.000000	0.005034
2405.000000	0.005035
2404.000000	0.005024
2403.000000	0.005007
2402.000000	0.005000
2401.000000	0.005013
2400.000000	0.005033
2399.000000	0.005046
2398.000000	0.005046
2397.000000	0.005043
2396.000000	0.005044
2395.000000	0.005053
2394.000000	0.005061
2393.000000	0.005059
2392.000000	0.005044
2391.000000	0.005023
2390.000000	0.005010
2389.000000	0.005014
2388.000000	0.005029
2387.000000	0.005043
2386.000000	0.005050
2385.000000	0.005050
2384.000000	0.005042
2383.000000	0.005035
2382.000000	0.005038
2381.000000	0.005053
2380.000000	0.005065
2379.000000	0.005063
2378.000000	0.005054
2377.000000	0.005057
2376.000000	0.005074
2375.000000	0.005087
2374.000000	0.005086
2373.000000	0.005077
2372.000000	0.005069
2371.000000	0.005064
2370.000000	0.005064
2369.000000	0.005068
2368.000000	0.005071
2367.000000	0.005067
2366.000000	0.005069
2365.000000	0.005091
2364.000000	0.005133
2363.000000	0.005178
2362.000000	0.005215
2361.000000	0.005245
2360.000000	0.005271
2359.000000	0.005279
2358.000000	0.005244
2357.000000	0.005160
2356.000000	0.005066
2355.000000	0.005019
2354.000000	0.005020
2353.000000	0.005017
2352.000000	0.004988
2351.000000	0.004977
2350.000000	0.005033
2349.000000	0.005156
2348.000000	0.005307
2347.000000	0.005433
2346.000000	0.005495
2345.000000	0.005496
2344.000000	0.005460
2343.000000	0.005397
2342.000000	0.005313
2341.000000	0.005231
2340.000000	0.005184
2339.000000	0.005186
2338.000000	0.005215
2337.000000	0.005246
2336.000000	0.005266
2335.000000	0.005276
2334.000000	0.005269
2333.000000	0.005237
2332.000000	0.005190
2331.000000	0.005152
2330.000000	0.005143
2329.000000	0.005171
2328.000000	0.005246
2327.000000	0.005367
2326.000000	0.005505
2325.000000	0.005608
2324.000000	0.005635
2323.000000	0.005588
2322.000000	0.005515
2321.000000	0.005468
2320.000000	0.005461
2319.000000	0.005461
2318.000000	0.005429
2317.000000	0.005358
2316.000000	0.005279
2315.000000	0.005222
2314.000000	0.005200
2313.000000	0.005201
2312.000000	0.005204
2311.000000	0.005190
2310.000000	0.005154
2309.000000	0.005111
2308.000000	0.005079
2307.000000	0.005070
2306.000000	0.005083
2305.000000	0.005103
2304.000000	0.005116
2303.000000	0.005116
2302.000000	0.005112
2301.000000	0.005114
2300.000000	0.005126
2299.000000	0.005141
2298.000000	0.005159
2297.000000	0.005185
2296.000000	0.005211
2295.000000	0.005219
2294.000000	0.005198
2293.000000	0.005163
2292.000000	0.005145
2291.000000	0.005163
2290.000000	0.005211
2289.000000	0.005267
2288.000000	0.005311
2287.000000	0.005330
2286.000000	0.005325
2285.000000	0.005302
2284.000000	0.005271
2283.000000	0.005238
2282.000000	0.005205
2281.000000	0.005176
2280.000000	0.005142
2279.000000	0.005091
2278.000000	0.005026
2277.000000	0.004977
2276.000000	0.004967
2275.000000	0.004986
2274.000000	0.004995
2273.000000	0.004972
2272.000000	0.004918
2271.000000	0.004855
2270.000000	0.004796
2269.000000	0.004757
2268.000000	0.004750
2267.000000	0.004778
2266.000000	0.004821
2265.000000	0.004847
2264.000000	0.004836
2263.000000	0.004800
2262.000000	0.004765
2261.000000	0.004754
2260.000000	0.004765
2259.000000	0.004786
2258.000000	0.004806
2257.000000	0.004818
2256.000000	0.004808
2255.000000	0.004766
2254.000000	0.004704
2253.000000	0.004665
2252.000000	0.004688
2251.000000	0.004770
2250.000000	0.004862
2249.000000	0.004913
2248.000000	0.004909
2247.000000	0.004887
2246.000000	0.004893
2245.000000	0.004936
2244.000000	0.004974
2243.000000	0.004956
2242.000000	0.004871
2241.000000	0.004759
2240.000000	0.004675
2239.000000	0.004654
2238.000000	0.004696
2237.000000	0.004771
2236.000000	0.004831
2235.000000	0.004837
2234.000000	0.004791
2233.000000	0.004725
2232.000000	0.004680
2231.000000	0.004675
2230.000000	0.004694
2229.000000	0.004696
2228.000000	0.004644
2227.000000	0.004536
2226.000000	0.004412
2225.000000	0.004313
2224.000000	0.004265
2223.000000	0.004279
2222.000000	0.004361
2221.000000	0.004481
2220.000000	0.004567
2219.000000	0.004560
2218.000000	0.004468
2217.000000	0.004366
2216.000000	0.004321
2215.000000	0.004353
2214.000000	0.004456
2213.000000	0.004611
2212.000000	0.004776
2211.000000	0.004882
2210.000000	0.004869
2209.000000	0.004735
2208.000000	0.004546
2207.000000	0.004411
2206.000000	0.004406
2205.000000	0.004511
2204.000000	0.004617
2203.000000	0.004628
2202.000000	0.004553
2201.000000	0.004479
2200.000000	0.004458
2199.000000	0.004469
2198.000000	0.004469
2197.000000	0.004445
2196.000000	0.004413
2195.000000	0.004399
2194.000000	0.004425
2193.000000	0.004493
2192.000000	0.004571
2191.000000	0.004614
2190.000000	0.004613
2189.000000	0.004594
2188.000000	0.004573
2187.000000	0.004530
2186.000000	0.004437
2185.000000	0.004291
2184.000000	0.004118
2183.000000	0.003955
2182.000000	0.003844
2181.000000	0.003799
2180.000000	0.003799
2179.000000	0.003813
2178.000000	0.003843
2177.000000	0.003908
2176.000000	0.004005
2175.000000	0.004115
2174.000000	0.004218
2173.000000	0.004290
2172.000000	0.004291
2171.000000	0.004209
2170.000000	0.004097
2169.000000	0.004033
2168.000000	0.004036
2167.000000	0.004068
2166.000000	0.004113
2165.000000	0.004200
2164.000000	0.004345
2163.000000	0.004497
2162.000000	0.004559
2161.000000	0.004435
2160.000000	0.004086
2159.000000	0.003581
2158.000000	0.003104
2157.000000	0.002826
2156.000000	0.002773
2155.000000	0.002854
2154.000000	0.002979
2153.000000	0.003101
2152.000000	0.003218
2151.000000	0.003363
2150.000000	0.003575
2149.000000	0.003831
2148.000000	0.004022
2147.000000	0.004053
2146.000000	0.003937
2145.000000	0.003765
2144.000000	0.003611
2143.000000	0.003506
2142.000000	0.003466
2141.000000	0.003508
2140.000000	0.003619
2139.000000	0.003756
2138.000000	0.003868
2137.000000	0.003900
2136.000000	0.003823
2135.000000	0.003689
2134.000000	0.003622
2133.000000	0.003701
2132.000000	0.003865
2131.000000	0.003986
2130.000000	0.004012
2129.000000	0.003986
2128.000000	0.003971
2127.000000	0.003998
2126.000000	0.004085
2125.000000	0.004226
2124.000000	0.004365
2123.000000	0.004421
2122.000000	0.004377
2121.000000	0.004308
2120.000000	0.004301
2119.000000	0.004363
2118.000000	0.004447
2117.000000	0.004514
2116.000000	0.004563
2115.000000	0.004605
2114.000000	0.004632
2113.000000	0.004632
2112.000000	0.004604
2111.000000	0.004560
2110.000000	0.004524
2109.000000	0.004517
2108.000000	0.004551
2107.000000	0.004623
2106.000000	0.004709
2105.000000	0.004754
2104.000000	0.004713
2103.000000	0.004611
2102.000000	0.004533
2101.000000	0.004536
2100.000000	0.004580
2099.000000	0.004594
2098.000000	0.004569
2097.000000	0.004554
2096.000000	0.004564
2095.000000	0.004557
2094.000000	0.004510
2093.000000	0.004455
2092.000000	0.004433
2091.000000	0.004439
2090.000000	0.004453
2089.000000	0.004467
2088.000000	0.004471
2087.000000	0.004453
2086.000000	0.004419
2085.000000	0.004397
2084.000000	0.004397
2083.000000	0.004401
2082.000000	0.004398
2081.000000	0.004417
2080.000000	0.004492
2079.000000	0.004606
2078.000000	0.004707
2077.000000	0.004743
2076.000000	0.004702
2075.000000	0.004615
2074.000000	0.004533
2073.000000	0.004490
2072.000000	0.004475
2071.000000	0.004450
2070.000000	0.004398
2069.000000	0.004335
2068.000000	0.004289
2067.000000	0.004274
2066.000000	0.004295
2065.000000	0.004319
2064.000000	0.004285
2063.000000	0.004163
2062.000000	0.004022
2061.000000	0.003969
2060.000000	0.004031
2059.000000	0.004129
2058.000000	0.004193
2057.000000	0.004228
2056.000000	0.004269
2055.000000	0.004315
2054.000000	0.004345
2053.000000	0.004361
2052.000000	0.004361
2051.000000	0.004322
2050.000000	0.004223
2049.000000	0.004093
2048.000000	0.003982
2047.000000	0.003915
2046.000000	0.003891
2045.000000	0.003906
2044.000000	0.003952
2043.000000	0.004003
2042.000000	0.004048
2041.000000	0.004090
2040.000000	0.004127
2039.000000	0.004136
2038.000000	0.004100
2037.000000	0.004016
2036.000000	0.003880
2035.000000	0.003707
2034.000000	0.003551
2033.000000	0.003466
2032.000000	0.003431
2031.000000	0.003379
2030.000000	0.003298
2029.000000	0.003232
2028.000000	0.003210
2027.000000	0.003233
2026.000000	0.003323
2025.000000	0.003488
2024.000000	0.003644
2023.000000	0.003668
2022.000000	0.003530
2021.000000	0.003328
2020.000000	0.003171
2019.000000	0.003095
2018.000000	0.003094
2017.000000	0.003137
2016.000000	0.003160
2015.000000	0.003107
2014.000000	0.003017
2013.000000	0.002984
2012.000000	0.003052
2011.000000	0.003191
2010.000000	0.003368
2009.000000	0.003530
2008.000000	0.003570
2007.000000	0.003417
2006.000000	0.003178
2005.000000	0.003073
2004.000000	0.003181
2003.000000	0.003365
2002.000000	0.003460
2001.000000	0.003451
2000.000000	0.003446
1999.000000	0.003553
1998.000000	0.003779
1997.000000	0.004012
1996.000000	0.004090
1995.000000	0.003949
1994.000000	0.003720
1993.000000	0.003616
1992.000000	0.003713
1991.000000	0.003886
1990.000000	0.003983
1989.000000	0.003969
1988.000000	0.003877
1987.000000	0.003731
1986.000000	0.003582
1985.000000	0.003520
1984.000000	0.003591
1983.000000	0.003732
1982.000000	0.003836
1981.000000	0.003840
1980.000000	0.003739
1979.000000	0.003570
1978.000000	0.003411
1977.000000	0.003349
1976.000000	0.003368
1975.000000	0.003372
1974.000000	0.003327
1973.000000	0.003297
1972.000000	0.003311
1971.000000	0.003300
1970.000000	0.003217
1969.000000	0.003127
1968.000000	0.003126
1967.000000	0.003216
1966.000000	0.003313
1965.000000	0.003354
1964.000000	0.003342
1963.000000	0.003310
1962.000000	0.003293
1961.000000	0.003298
1960.000000	0.003309
1959.000000	0.003311
1958.000000	0.003325
1957.000000	0.003384
1956.000000	0.003471
1955.000000	0.003528
1954.000000	0.003513
1953.000000	0.003426
1952.000000	0.003293
1951.000000	0.003163
1950.000000	0.003091
1949.000000	0.003098
1948.000000	0.003132
1947.000000	0.003120
1946.000000	0.003056
1945.000000	0.003015
1944.000000	0.003064
1943.000000	0.003202
1942.000000	0.003358
1941.000000	0.003433
1940.000000	0.003379
1939.000000	0.003241
1938.000000	0.003126
1937.000000	0.003103
1936.000000	0.003145
1935.000000	0.003184
1934.000000	0.003208
1933.000000	0.003255
1932.000000	0.003331
1931.000000	0.003396
1930.000000	0.003428
1929.000000	0.003436
1928.000000	0.003423
1927.000000	0.003387
1926.000000	0.003351
1925.000000	0.003345
1924.000000	0.003364
1923.000000	0.003371
1922.000000	0.003364
1921.000000	0.003374
1920.000000	0.003414
1919.000000	0.003452
1918.000000	0.003469
1917.000000	0.003478
1916.000000	0.003502
1915.000000	0.003534
1914.000000	0.003560
1913.000000	0.003571
1912.000000	0.003560
1911.000000	0.003533
1910.000000	0.003519
1909.000000	0.003543
1908.000000	0.003584
1907.000000	0.003598
1906.000000	0.003578
1905.000000	0.003558
1904.000000	0.003560
1903.000000	0.003570
1902.000000	0.003564
1901.000000	0.003531
1900.000000	0.003471
1899.000000	0.003397
1898.000000	0.003345
1897.000000	0.003346
1896.000000	0.003382
1895.000000	0.003400
1894.000000	0.003384
1893.000000	0.003363
1892.000000	0.003365
1891.000000	0.003379
1890.000000	0.003389
1889.000000	0.003399
1888.000000	0.003414
1887.000000	0.003430
1886.000000	0.003441
1885.000000	0.003445
1884.000000	0.003438
1883.000000	0.003430
1882.000000	0.003444
1881.000000	0.003480
1880.000000	0.003493
1879.000000	0.003438
1878.000000	0.003349
1877.000000	0.003304
1876.000000	0.003333
1875.000000	0.003390
1874.000000	0.003426
1873.000000	0.003437
1872.000000	0.003434
1871.000000	0.003416
1870.000000	0.003379
1869.000000	0.003342
1868.000000	0.003321
1867.000000	0.003307
1866.000000	0.003291
1865.000000	0.003282
1864.000000	0.003286
1863.000000	0.003289
1862.000000	0.003277
1861.000000	0.003257
1860.000000	0.003246
1859.000000	0.003253
1858.000000	0.003287
1857.000000	0.003348
1856.000000	0.003415
1855.000000	0.003458
1854.000000	0.003463
1853.000000	0.003437
1852.000000	0.003393
1851.000000	0.003342
1850.000000	0.003306
1849.000000	0.003293
1848.000000	0.003279
1847.000000	0.003233
1846.000000	0.003169
1845.000000	0.003133
1844.000000	0.003139
1843.000000	0.003146
1842.000000	0.003128
1841.000000	0.003104
1840.000000	0.003085
1839.000000	0.003068
1838.000000	0.003070
1837.000000	0.003114
1836.000000	0.003189
1835.000000	0.003251
1834.000000	0.003271
1833.000000	0.003257
1832.000000	0.003227
1831.000000	0.003183
1830.000000	0.003136
1829.000000	0.003115
1828.000000	0.003126
1827.000000	0.003145
1826.000000	0.003156
1825.000000	0.003158
1824.000000	0.003148
1823.000000	0.003129
1822.000000	0.003122
1821.000000	0.003143
1820.000000	0.003172
1819.000000	0.003168
1818.000000	0.003131
1817.000000	0.003100
1816.000000	0.003102
1815.000000	0.003116
1814.000000	0.003122
1813.000000	0.003125
1812.000000	0.003134
1811.000000	0.003138
1810.000000	0.003127
1809.000000	0.003109
1808.000000	0.003096
1807.000000	0.003096
1806.000000	0.003115
1805.000000	0.003158
1804.000000	0.003207
1803.000000	0.003229
1802.000000	0.003222
1801.000000	0.003219
1800.000000	0.003242
1799.000000	0.003274
1798.000000	0.003296
1797.000000	0.003308
1796.000000	0.003315
1795.000000	0.003310
1794.000000	0.003298
1793.000000	0.003286
1792.000000	0.003264
1791.000000	0.003206
1790.000000	0.003133
1789.000000	0.003089
1788.000000	0.003087
1787.000000	0.003105
1786.000000	0.003117
1785.000000	0.003124
1784.000000	0.003130
1783.000000	0.003126
1782.000000	0.003109
1781.000000	0.003097
1780.000000	0.003099
1779.000000	0.003108
1778.000000	0.003115
1777.000000	0.003130
1776.000000	0.003151
1775.000000	0.003159
1774.000000	0.003150
1773.000000	0.003150
1772.000000	0.003163
1771.000000	0.003160
1770.000000	0.003140
1769.000000	0.003144
1768.000000	0.003198
1767.000000	0.003284
1766.000000	0.003378
1765.000000	0.003488
1764.000000	0.003626
1763.000000	0.003777
1762.000000	0.003929
1761.000000	0.004099
1760.000000	0.004311
1759.000000	0.004574
1758.000000	0.004904
1757.000000	0.005323
1756.000000	0.005809
1755.000000	0.006303
1754.000000	0.006801
1753.000000	0.007365
1752.000000	0.008034
1751.000000	0.008745
1750.000000	0.009401
1749.000000	0.009985
1748.000000	0.010509
1747.000000	0.010944
1746.000000	0.011286
1745.000000	0.011569
1744.000000	0.011795
1743.000000	0.011924
1742.000000	0.011936
1741.000000	0.011852
1740.000000	0.011677
1739.000000	0.011408
1738.000000	0.011106
1737.000000	0.010834
1736.000000	0.010556
1735.000000	0.010159
1734.000000	0.009610
1733.000000	0.009080
1732.000000	0.008695
1731.000000	0.008374
1730.000000	0.008016
1729.000000	0.007628
1728.000000	0.007260
1727.000000	0.006927
1726.000000	0.006633
1725.000000	0.006388
1724.000000	0.006182
1723.000000	0.005985
1722.000000	0.005799
1721.000000	0.005653
1720.000000	0.005545
1719.000000	0.005439
1718.000000	0.005338
1717.000000	0.005304
1716.000000	0.005346
1715.000000	0.005380
1714.000000	0.005374
1713.000000	0.005385
1712.000000	0.005453
1711.000000	0.005560
1710.000000	0.005689
1709.000000	0.005856
1708.000000	0.006069
1707.000000	0.006309
1706.000000	0.006570
1705.000000	0.006867
1704.000000	0.007166
1703.000000	0.007430
1702.000000	0.007704
1701.000000	0.008114
1700.000000	0.008629
1699.000000	0.009030
1698.000000	0.009343
1697.000000	0.009757
1696.000000	0.010314
1695.000000	0.010882
1694.000000	0.011321
1693.000000	0.011676
1692.000000	0.012045
1691.000000	0.012447
1690.000000	0.012870
1689.000000	0.013285
1688.000000	0.013653
1687.000000	0.013976
1686.000000	0.014351
1685.000000	0.014952
1684.000000	0.015744
1683.000000	0.016389
1682.000000	0.016783
1681.000000	0.017137
1680.000000	0.017585
1679.000000	0.018083
1678.000000	0.018560
1677.000000	0.019061
1676.000000	0.019676
1675.000000	0.020358
1674.000000	0.020955
1673.000000	0.021460
1672.000000	0.021976
1671.000000	0.022571
1670.000000	0.023265
1669.000000	0.024018
1668.000000	0.024726
1667.000000	0.025318
1666.000000	0.025832
1665.000000	0.026364
1664.000000	0.026991
1663.000000	0.027683
1662.000000	0.028330
1661.000000	0.028888
1660.000000	0.029408
1659.000000	0.029908
1658.000000	0.030359
1657.000000	0.030725
1656.000000	0.031021
1655.000000	0.031338
1654.000000	0.031903
1653.000000	0.032754
1652.000000	0.033430
1651.000000	0.033720
1650.000000	0.033844
1649.000000	0.033965
1648.000000	0.034195
1647.000000	0.034568
1646.000000	0.034932
1645.000000	0.035176
1644.000000	0.035347
1643.000000	0.035511
1642.000000	0.035675
1641.000000	0.035843
1640.000000	0.036010
1639.000000	0.036146
1638.000000	0.036262
1637.000000	0.036457
1636.000000	0.036794
1635.000000	0.037127
1634.000000	0.037277
1633.000000	0.037298
1632.000000	0.037311
1631.000000	0.037335
1630.000000	0.037344
1629.000000	0.037321
1628.000000	0.037248
1627.000000	0.037103
1626.000000	0.036886
1625.000000	0.036622
1624.000000	0.036320
1623.000000	0.035955
1622.000000	0.035519
1621.000000	0.035052
1620.000000	0.034587
1619.000000	0.034109
1618.000000	0.033581
1617.000000	0.032983
1616.000000	0.032343
1615.000000	0.031705
1614.000000	0.031075
1613.000000	0.030436
1612.000000	0.029786
1611.000000	0.029131
1610.000000	0.028467
1609.000000	0.027785
1608.000000	0.027105
1607.000000	0.026460
1606.000000	0.025858
1605.000000	0.025274
1604.000000	0.024691
1603.000000	0.024126
1602.000000	0.023602
1601.000000	0.023111
1600.000000	0.022632
1599.000000	0.022165
1598.000000	0.021726
1597.000000	0.021319
1596.000000	0.020942
1595.000000	0.020608
1594.000000	0.020325
1593.000000	0.020077
1592.000000	0.019842
1591.000000	0.019627
1590.000000	0.019442
1589.000000	0.019271
1588.000000	0.019103
1587.000000	0.018960
1586.000000	0.018868
1585.000000	0.018818
1584.000000	0.018793
1583.000000	0.018801
1582.000000	0.018857
1581.000000	0.018936
1580.000000	0.018999
1579.000000	0.019059
1578.000000	0.019182
1577.000000	0.019424
1576.000000	0.019757
1575.000000	0.020076
1574.000000	0.020313
1573.000000	0.020479
1572.000000	0.020637
1571.000000	0.020885
1570.000000	0.021279
1569.000000	0.021730
1568.000000	0.022117
1567.000000	0.022460
1566.000000	0.022857
1565.000000	0.023321
1564.000000	0.023777
1563.000000	0.024144
1562.000000	0.024455
1561.000000	0.024815
1560.000000	0.025415
1559.000000	0.026271
1558.000000	0.026971
1557.000000	0.027324
1556.000000	0.027570
1555.000000	0.027916
1554.000000	0.028354
1553.000000	0.028782
1552.000000	0.029141
1551.000000	0.029463
1550.000000	0.029796
1549.000000	0.030123
1548.000000	0.030399
1547.000000	0.030633
1546.000000	0.030870
1545.000000	0.031119
1544.000000	0.031335
1543.000000	0.031496
1542.000000	0.031654
1541.000000	0.031884
1540.000000	0.032168
1539.000000	0.032376
1538.000000	0.032438
1537.000000	0.032419
1536.000000	0.032384
1535.000000	0.032357
1534.000000	0.032364
1533.000000	0.032379
1532.000000	0.032346
1531.000000	0.032270
1530.000000	0.032191
1529.000000	0.032119
1528.000000	0.032036
1527.000000	0.031925
1526.000000	0.031778
1525.000000	0.031602
1524.000000	0.031408
1523.000000	0.031224
1522.000000	0.031074
1521.000000	0.030945
1520.000000	0.030793
1519.000000	0.030598
1518.000000	0.030381
1517.000000	0.030153
1516.000000	0.029899
1515.000000	0.029605
1514.000000	0.029287
1513.000000	0.028968
1512.000000	0.028646
1511.000000	0.028303
1510.000000	0.027933
1509.000000	0.027540
1508.000000	0.027107
1507.000000	0.026572
1506.000000	0.025979
1505.000000	0.025444
1504.000000	0.025020
1503.000000	0.024675
1502.000000	0.024295
1501.000000	0.023845
1500.000000	0.023364
1499.000000	0.022879
1498.000000	0.022391
1497.000000	0.021903
1496.000000	0.021425
1495.000000	0.020969
1494.000000	0.020540
1493.000000	0.020139
1492.000000	0.019754
1491.000000	0.019361
1490.000000	0.018967
1489.000000	0.018628
1488.000000	0.018371
1487.000000	0.018154
1486.000000	0.017955
1485.000000	0.017803
1484.000000	0.017713
1483.000000	0.017672
1482.000000	0.017665
1481.000000	0.017708
1480.000000	0.017802
1479.000000	0.017929
1478.000000	0.018080
1477.000000	0.018266
1476.000000	0.018490
1475.000000	0.018747
1474.000000	0.019075
1473.000000	0.019528
1472.000000	0.020049
1471.000000	0.020505
1470.000000	0.020877
1469.000000	0.021237
1468.000000	0.021612
1467.000000	0.021985
1466.000000	0.022349
1465.000000	0.022717
1464.000000	0.023062
1463.000000	0.023353
1462.000000	0.023616
1461.000000	0.023893
1460.000000	0.024197
1459.000000	0.024545
1458.000000	0.025012
1457.000000	0.025610
1456.000000	0.026138
1455.000000	0.026453
1454.000000	0.026645
1453.000000	0.026809
1452.000000	0.026954
1451.000000	0.027065
1450.000000	0.027140
1449.000000	0.027201
1448.000000	0.027253
1447.000000	0.027279
1446.000000	0.027278
1445.000000	0.027267
1444.000000	0.027243
1443.000000	0.027185
1442.000000	0.027092
1441.000000	0.026986
1440.000000	0.026876
1439.000000	0.026751
1438.000000	0.026590
1437.000000	0.026373
1436.000000	0.026099
1435.000000	0.025822
1434.000000	0.025593
1433.000000	0.025399
1432.000000	0.025199
1431.000000	0.024975
1430.000000	0.024753
1429.000000	0.024583
1428.000000	0.024488
1427.000000	0.024448
1426.000000	0.024426
1425.000000	0.024403
1424.000000	0.024370
1423.000000	0.024320
1422.000000	0.024258
1421.000000	0.024206
1420.000000	0.024188
1419.000000	0.024192
1418.000000	0.024181
1417.000000	0.024145
1416.000000	0.024093
1415.000000	0.024031
1414.000000	0.023967
1413.000000	0.023917
1412.000000	0.023894
1411.000000	0.023897
1410.000000	0.023909
1409.000000	0.023916
1408.000000	0.023913
1407.000000	0.023908
1406.000000	0.023909
1405.000000	0.023917
1404.000000	0.023924
1403.000000	0.023916
1402.000000	0.023894
1401.000000	0.023868
1400.000000	0.023841
1399.000000	0.023809
1398.000000	0.023774
1397.000000	0.023746
1396.000000	0.023724
1395.000000	0.023701
1394.000000	0.023670
1393.000000	0.023640
1392.000000	0.023622
1391.000000	0.023611
1390.000000	0.023590
1389.000000	0.023548
1388.000000	0.023483
1387.000000	0.023402
1386.000000	0.023322
1385.000000	0.023253
1384.000000	0.023189
1383.000000	0.023119
1382.000000	0.023039
1381.000000	0.022950
1380.000000	0.022849
1379.000000	0.022723
1378.000000	0.022569
1377.000000	0.022396
1376.000000	0.022208
1375.000000	0.022003
1374.000000	0.021781
1373.000000	0.021550
1372.000000	0.021319
1371.000000	0.021094
1370.000000	0.020878
1369.000000	0.020662
1368.000000	0.020434
1367.000000	0.020193
1366.000000	0.019952
1365.000000	0.019721
1364.000000	0.019500
1363.000000	0.019286
1362.000000	0.019091
1361.000000	0.018924
1360.000000	0.018783
1359.000000	0.018666
1358.000000	0.018579
1357.000000	0.018526
1356.000000	0.018501
1355.000000	0.018490
1354.000000	0.018494
1353.000000	0.018526
1352.000000	0.018597
1351.000000	0.018709
1350.000000	0.018856
1349.000000	0.019023
1348.000000	0.019196
1347.000000	0.019370
1346.000000	0.019553
1345.000000	0.019756
1344.000000	0.019970
1343.000000	0.020177
1342.000000	0.020376
1341.000000	0.020580
1340.000000	0.020796
1339.000000	0.021006
1338.000000	0.021181
1337.000000	0.021308
1336.000000	0.021381
1335.000000	0.021391
1334.000000	0.021337
1333.000000	0.021238
1332.000000	0.021117
1331.000000	0.020983
1330.000000	0.020834
1329.000000	0.020662
1328.000000	0.020467
1327.000000	0.020259
1326.000000	0.020057
1325.000000	0.019882
1324.000000	0.019739
1323.000000	0.019620
1322.000000	0.019519
1321.000000	0.019436
1320.000000	0.019364
1319.000000	0.019297
1318.000000	0.019229
1317.000000	0.019161
1316.000000	0.019087
1315.000000	0.018994
1314.000000	0.018874
1313.000000	0.018732
1312.000000	0.018582
1311.000000	0.018432
1310.000000	0.018281
1309.000000	0.018124
1308.000000	0.017958
1307.000000	0.017787
1306.000000	0.017627
1305.000000	0.017491
1304.000000	0.017377
1303.000000	0.017265
1302.000000	0.017139
1301.000000	0.017005
1300.000000	0.016878
1299.000000	0.016766
1298.000000	0.016667
1297.000000	0.016589
1296.000000	0.016542
1295.000000	0.016529
1294.000000	0.016547
1293.000000	0.016590
1292.000000	0.016652
1291.000000	0.016732
1290.000000	0.016827
1289.000000	0.016942
1288.000000	0.017077
1287.000000	0.017219
1286.000000	0.017353
1285.000000	0.017475
1284.000000	0.017588
1283.000000	0.017686
1282.000000	0.017761
1281.000000	0.017818
1280.000000	0.017869
1279.000000	0.017920
1278.000000	0.017968
1277.000000	0.018009
1276.000000	0.018047
1275.000000	0.018090
1274.000000	0.018144
1273.000000	0.018213
1272.000000	0.018292
1271.000000	0.018376
1270.000000	0.018468
1269.000000	0.018583
1268.000000	0.018727
1267.000000	0.018892
1266.000000	0.019063
1265.000000	0.019237
1264.000000	0.019420
1263.000000	0.019612
1262.000000	0.019806
1261.000000	0.020004
1260.000000	0.020215
1259.000000	0.020439
1258.000000	0.020669
1257.000000	0.020899
1256.000000	0.021125
1255.000000	0.021340
1254.000000	0.021539
1253.000000	0.021731
1252.000000	0.021935
1251.000000	0.022168
1250.000000	0.022435
1249.000000	0.022730
1248.000000	0.023036
1247.000000	0.023339
1246.000000	0.023638
1245.000000	0.023941
1244.000000	0.024248
1243.000000	0.024547
1242.000000	0.024829
1241.000000	0.025096
1240.000000	0.025350
1239.000000	0.025575
1238.000000	0.025756
1237.000000	0.025894
1236.000000	0.025991
1235.000000	0.026044
1234.000000	0.026052
1233.000000	0.026020
1232.000000	0.025950
1231.000000	0.025838
1230.000000	0.025684
1229.000000	0.025493
1228.000000	0.025264
1227.000000	0.024983
1226.000000	0.024644
1225.000000	0.024258
1224.000000	0.023840
1223.000000	0.023397
1222.000000	0.022943
1221.000000	0.022501
1220.000000	0.022093
1219.000000	0.021721
1218.000000	0.021377
1217.000000	0.021067
1216.000000	0.020798
1215.000000	0.020573
1214.000000	0.020387
1213.000000	0.020242
1212.000000	0.020146
1211.000000	0.020099
1210.000000	0.020094
1209.000000	0.020124
1208.000000	0.020193
1207.000000	0.020295
1206.000000	0.020416
1205.000000	0.020541
1204.000000	0.020655
1203.000000	0.020742
1202.000000	0.020782
1201.000000	0.020764
1200.000000	0.020691
1199.000000	0.020573
1198.000000	0.020421
1197.000000	0.020244
1196.000000	0.020050
1195.000000	0.019845
1194.000000	0.019635
1193.000000	0.019426
1192.000000	0.019226
1191.000000	0.019038
1190.000000	0.018866
1189.000000	0.018719
1188.000000	0.018609
1187.000000	0.018538
1186.000000	0.018490
1185.000000	0.018449
1184.000000	0.018413
1183.000000	0.018397
1182.000000	0.018413
1181.000000	0.018457
1180.000000	0.018515
1179.000000	0.018576
1178.000000	0.018642
1177.000000	0.018720
1176.000000	0.018810
1175.000000	0.018908
1174.000000	0.019017
1173.000000	0.019139
1172.000000	0.019265
1171.000000	0.019372
1170.000000	0.019450
1169.000000	0.019516
1168.000000	0.019603
1167.000000	0.019724
1166.000000	0.019867
1165.000000	0.020005
1164.000000	0.020112
1163.000000	0.020173
1162.000000	0.020185
1161.000000	0.020155
1160.000000	0.020087
1159.000000	0.019976
1158.000000	0.019812
1157.000000	0.019590
1156.000000	0.019322
1155.000000	0.019030
1154.000000	0.018725
1153.000000	0.018396
1152.000000	0.018021
1151.000000	0.017595
1150.000000	0.017138
1149.000000	0.016678
1148.000000	0.016225
1147.000000	0.015779
1146.000000	0.015343
1145.000000	0.014921
1144.000000	0.014511
1143.000000	0.014111
1142.000000	0.013729
1141.000000	0.013379
1140.000000	0.013071
1139.000000	0.012799
1138.000000	0.012550
1137.000000	0.012316
1136.000000	0.012092
1135.000000	0.011877
1134.000000	0.011674
1133.000000	0.011497
1132.000000	0.011358
1131.000000	0.011253
1130.000000	0.011168
1129.000000	0.011086
1128.000000	0.011007
1127.000000	0.010937
1126.000000	0.010879
1125.000000	0.010829
1124.000000	0.010796
1123.000000	0.010784
1122.000000	0.010791
1121.000000	0.010802
1120.000000	0.010809
1119.000000	0.010824
1118.000000	0.010871
1117.000000	0.010971
1116.000000	0.011127
1115.000000	0.011331
1114.000000	0.011566
1113.000000	0.011815
1112.000000	0.012059
1111.000000	0.012274
1110.000000	0.012445
1109.000000	0.012563
1108.000000	0.012631
1107.000000	0.012659
1106.000000	0.012667
1105.000000	0.012673
1104.000000	0.012689
1103.000000	0.012717
1102.000000	0.012761
1101.000000	0.012831
1100.000000	0.012929
1099.000000	0.013047
1098.000000	0.013166
1097.000000	0.013278
1096.000000	0.013385
1095.000000	0.013499
1094.000000	0.013623
1093.000000	0.013758
1092.000000	0.013894
1091.000000	0.014021
1090.000000	0.014140
1089.000000	0.014257
1088.000000	0.014375
1087.000000	0.014484
1086.000000	0.014574
1085.000000	0.014640
1084.000000	0.014682
1083.000000	0.014692
1082.000000	0.014661
1081.000000	0.014582
1080.000000	0.014452
1079.000000	0.014263
1078.000000	0.014019
1077.000000	0.013750
1076.000000	0.013491
1075.000000	0.013257
1074.000000	0.013040
1073.000000	0.012827
1072.000000	0.012619
1071.000000	0.012433
1070.000000	0.012285
1069.000000	0.012193
1068.000000	0.012164
1067.000000	0.012193
1066.000000	0.012255
1065.000000	0.012324
1064.000000	0.012378
1063.000000	0.012407
1062.000000	0.012408
1061.000000	0.012379
1060.000000	0.012319
1059.000000	0.012231
1058.000000	0.012126
1057.000000	0.012025
1056.000000	0.011944
1055.000000	0.011877
1054.000000	0.011801
1053.000000	0.011702
1052.000000	0.011588
1051.000000	0.011470
1050.000000	0.011353
1049.000000	0.011246
1048.000000	0.011166
1047.000000	0.011129
1046.000000	0.011128
1045.000000	0.011138
1044.000000	0.011144
1043.000000	0.011146
1042.000000	0.011155
1041.000000	0.011185
1040.000000	0.011261
1039.000000	0.011411
1038.000000	0.011649
1037.000000	0.011952
1036.000000	0.012276
1035.000000	0.012574
1034.000000	0.012821
1033.000000	0.013015
1032.000000	0.013159
1031.000000	0.013250
1030.000000	0.013276
1029.000000	0.013242
1028.000000	0.013170
1027.000000	0.013086
1026.000000	0.012996
1025.000000	0.012888
1024.000000	0.012752
1023.000000	0.012595
1022.000000	0.012431
1021.000000	0.012265
1020.000000	0.012093
1019.000000	0.011917
1018.000000	0.011757
1017.000000	0.011631
1016.000000	0.011539
1015.000000	0.011463
1014.000000	0.011384
1013.000000	0.011295
1012.000000	0.011199
1011.000000	0.011091
1010.000000	0.010963
1009.000000	0.010800
1008.000000	0.010601
1007.000000	0.010379
1006.000000	0.010154
1005.000000	0.009950
1004.000000	0.009780
1003.000000	0.009634
1002.000000	0.009487
1001.000000	0.009315
1000.000000	0.009120
999.000000	0.008930
998.000000	0.008769
997.000000	0.008633
996.000000	0.008499
995.000000	0.008354
994.000000	0.008206
993.000000	0.008070
992.000000	0.007946
991.000000	0.007831
990.000000	0.007722
989.000000	0.007621
988.000000	0.007526
987.000000	0.007441
986.000000	0.007373
985.000000	0.007324
984.000000	0.007286
983.000000	0.007252
982.000000	0.007228
981.000000	0.007228
980.000000	0.007260
979.000000	0.007311
978.000000	0.007371
977.000000	0.007445
976.000000	0.007536
975.000000	0.007630
974.000000	0.007697
973.000000	0.007718
972.000000	0.007694
971.000000	0.007643
970.000000	0.007582
969.000000	0.007517
968.000000	0.007443
967.000000	0.007354
966.000000	0.007246
965.000000	0.007126
964.000000	0.007006
963.000000	0.006897
962.000000	0.006809
961.000000	0.006742
960.000000	0.006684
959.000000	0.006619
958.000000	0.006540
957.000000	0.006455
956.000000	0.006374
955.000000	0.006296
954.000000	0.006217
953.000000	0.006141
952.000000	0.006078
951.000000	0.006027
950.000000	0.005973
949.000000	0.005910
948.000000	0.005849
947.000000	0.005798
946.000000	0.005758
945.000000	0.005731
944.000000	0.005725
943.000000	0.005744
942.000000	0.005768
941.000000	0.005765
940.000000	0.005722
939.000000	0.005658
938.000000	0.005594
937.000000	0.005534
936.000000	0.005474
935.000000	0.005417
934.000000	0.005366
933.000000	0.005322
932.000000	0.005271
931.000000	0.005202
930.000000	0.005118
929.000000	0.005037
928.000000	0.004969
927.000000	0.004910
926.000000	0.004852
925.000000	0.004790
924.000000	0.004737
923.000000	0.004711
922.000000	0.004712
921.000000	0.004718
920.000000	0.004695
919.000000	0.004627
918.000000	0.004525
917.000000	0.004413
916.000000	0.004308
915.000000	0.004204
914.000000	0.004095
913.000000	0.003980
912.000000	0.003864
911.000000	0.003749
910.000000	0.003645
909.000000	0.003565
908.000000	0.003519
907.000000	0.003498
906.000000	0.003487
905.000000	0.003474
904.000000	0.003458
903.000000	0.003432
902.000000	0.003396
901.000000	0.003359
900.000000	0.003330
899.000000	0.003305
898.000000	0.003267
897.000000	0.003209
896.000000	0.003148
895.000000	0.003102
894.000000	0.003079
893.000000	0.003073
892.000000	0.003074
891.000000	0.003064
890.000000	0.003043
889.000000	0.003050
888.000000	0.003143
887.000000	0.003356
886.000000	0.003668
885.000000	0.004024
884.000000	0.004373
883.000000	0.004695
882.000000	0.004998
881.000000	0.005316
880.000000	0.005681
879.000000	0.006091
878.000000	0.006510
877.000000	0.006898
876.000000	0.007226
875.000000	0.007456
874.000000	0.007537
873.000000	0.007454
872.000000	0.007247
871.000000	0.006984
870.000000	0.006700
869.000000	0.006399
868.000000	0.006086
867.000000	0.005788
866.000000	0.005532
865.000000	0.005316
864.000000	0.005123
863.000000	0.004937
862.000000	0.004763
861.000000	0.004619
860.000000	0.004520
859.000000	0.004455
858.000000	0.004393
857.000000	0.004313
856.000000	0.004234
855.000000	0.004187
854.000000	0.004182
853.000000	0.004191
852.000000	0.004184
851.000000	0.004157
850.000000	0.004128
849.000000	0.004117
848.000000	0.004118
847.000000	0.004110
846.000000	0.004066
845.000000	0.003968
844.000000	0.003828
843.000000	0.003678
842.000000	0.003565
841.000000	0.003515
840.000000	0.003512
839.000000	0.003501
838.000000	0.003429
837.000000	0.003291
836.000000	0.003140
835.000000	0.003038
834.000000	0.003008
833.000000	0.003023
832.000000	0.003045
831.000000	0.003058
830.000000	0.003068
829.000000	0.003087
828.000000	0.003114
827.000000	0.003140
826.000000	0.003156
825.000000	0.003166
824.000000	0.003179
823.000000	0.003199
822.000000	0.003218
821.000000	0.003228
820.000000	0.003223
819.000000	0.003202
818.000000	0.003165
817.000000	0.003124
816.000000	0.003103
815.000000	0.003122
814.000000	0.003174
813.000000	0.003230
812.000000	0.003260
811.000000	0.003248
810.000000	0.003206
809.000000	0.003155
808.000000	0.003110
807.000000	0.003072
806.000000	0.003036
805.000000	0.003010
804.000000	0.003013
803.000000	0.003052
802.000000	0.003115
801.000000	0.003177
800.000000	0.003223
799.000000	0.003240
798.000000	0.003226
797.000000	0.003183
796.000000	0.003129
795.000000	0.003084
794.000000	0.003064
793.000000	0.003069
792.000000	0.003082
791.000000	0.003087
790.000000	0.003088
789.000000	0.003109
788.000000	0.003164
787.000000	0.003230
786.000000	0.003259
785.000000	0.003234
784.000000	0.003184
783.000000	0.003150
782.000000	0.003147
781.000000	0.003164
780.000000	0.003185
779.000000	0.003198
778.000000	0.003199
777.000000	0.003197
776.000000	0.003206
775.000000	0.003238
774.000000	0.003275
773.000000	0.003292
772.000000	0.003271
771.000000	0.003224
770.000000	0.003180
769.000000	0.003171
768.000000	0.003196
767.000000	0.003224
766.000000	0.003219
765.000000	0.003192
764.000000	0.003190
763.000000	0.003249
762.000000	0.003352
761.000000	0.003451
760.000000	0.003511
759.000000	0.003526
758.000000	0.003509
757.000000	0.003479
756.000000	0.003458
755.000000	0.003461
754.000000	0.003491
753.000000	0.003544
752.000000	0.003621
751.000000	0.003712
750.000000	0.003785
749.000000	0.003810
748.000000	0.003794
747.000000	0.003777
746.000000	0.003791
745.000000	0.003822
744.000000	0.003834
743.000000	0.003814
742.000000	0.003779
741.000000	0.003752
740.000000	0.003737
739.000000	0.003733
738.000000	0.003751
737.000000	0.003808
736.000000	0.003908
735.000000	0.004027
734.000000	0.004136
733.000000	0.004227
732.000000	0.004312
731.000000	0.004397
730.000000	0.004475
729.000000	0.004529
728.000000	0.004557
727.000000	0.004570
726.000000	0.004594
725.000000	0.004660
724.000000	0.004771
723.000000	0.004890
722.000000	0.004977
721.000000	0.005026
720.000000	0.005071
719.000000	0.005143
718.000000	0.005253
717.000000	0.005419
716.000000	0.005671
715.000000	0.006014
714.000000	0.006384
713.000000	0.006678
712.000000	0.006830
711.000000	0.006842
710.000000	0.006762
709.000000	0.006639
708.000000	0.006520
707.000000	0.006454
706.000000	0.006470
705.000000	0.006560
704.000000	0.006681
703.000000	0.006788
702.000000	0.006863
701.000000	0.006903
700.000000	0.006908
699.000000	0.006880
698.000000	0.006845
697.000000	0.006841
696.000000	0.006878
695.000000	0.006926
694.000000	0.006944
693.000000	0.006923
692.000000	0.006889
691.000000	0.006868
690.000000	0.006864
689.000000	0.006878
688.000000	0.006918
687.000000	0.006990
686.000000	0.007075
685.000000	0.007143
684.000000	0.007194
683.000000	0.007261
682.000000	0.007357
681.000000	0.007455
680.000000	0.007518
679.000000	0.007535
678.000000	0.007517
677.000000	0.007492
676.000000	0.007495
675.000000	0.007534
674.000000	0.007590
673.000000	0.007637
672.000000	0.007660
671.000000	0.007638
670.000000	0.007554
669.000000	0.007392
668.000000	0.007271
667.000000	0.007374
666.000000	0.007579
665.000000	0.007779
664.000000	0.007983
663.000000	0.008141
662.000000	0.008227
661.000000	0.008254
660.000000	0.008265
659.000000	0.008271
658.000000	0.008276
657.000000	0.008306
656.000000	0.008371
655.000000	0.008435
654.000000	0.008478
653.000000	0.008530
652.000000	0.008597
651.000000	0.008637
650.000000	0.008630
649.000000	0.008633
648.000000	0.008697
647.000000	0.008807
646.000000	0.008931
645.000000	0.009064
644.000000	0.009194
643.000000	0.009279
642.000000	0.009299
641.000000	0.009295
640.000000	0.009316
639.000000	0.009355
638.000000	0.009379
637.000000	0.009383
636.000000	0.009374
635.000000	0.009357
634.000000	0.009366
633.000000	0.009441
632.000000	0.009552
631.000000	0.009595
630.000000	0.009515
629.000000	0.009389
628.000000	0.009337
627.000000	0.009390
626.000000	0.009492
625.000000	0.009587
624.000000	0.009660
623.000000	0.009713
622.000000	0.009745
621.000000	0.009756
620.000000	0.009744
619.000000	0.009712
618.000000	0.009681
617.000000	0.009672
616.000000	0.009677
615.000000	0.009677
614.000000	0.009688
613.000000	0.009745
612.000000	0.009833
611.000000	0.009885
610.000000	0.009880
609.000000	0.009862
608.000000	0.009867
607.000000	0.009877
606.000000	0.009883
605.000000	0.009906
604.000000	0.009928
603.000000	0.009873
602.000000	0.009722
601.000000	0.009560
600.000000	0.009472
599.000000	0.009436
598.000000	0.009379
597.000000	0.009292
596.000000	0.009218
595.000000	0.009172
594.000000	0.009156
593.000000	0.009190
592.000000	0.009288
591.000000	0.009399
590.000000	0.009447
589.000000	0.009415
588.000000	0.009336
587.000000	0.009248
586.000000	0.009178
585.000000	0.009165
584.000000	0.009216
583.000000	0.009289
582.000000	0.009340
581.000000	0.009370
580.000000	0.009385
579.000000	0.009369
578.000000	0.009321
577.000000	0.009278
576.000000	0.009254
575.000000	0.009213
574.000000	0.009147
573.000000	0.009123
572.000000	0.009196
571.000000	0.009335
570.000000	0.009483
569.000000	0.009637
568.000000	0.009806
567.000000	0.009939
566.000000	0.009994
565.000000	0.010012
564.000000	0.010046
563.000000	0.010077
562.000000	0.010092
561.000000	0.010167
560.000000	0.010369
559.000000	0.010605
558.000000	0.010706
557.000000	0.010645
556.000000	0.010549
555.000000	0.010511
554.000000	0.010503
553.000000	0.010467
552.000000	0.010400
551.000000	0.010319
550.000000	0.010238
549.000000	0.010185
548.000000	0.010173
547.000000	0.010166
546.000000	0.010113
545.000000	0.010026
544.000000	0.009939
543.000000	0.009840
542.000000	0.009707
541.000000	0.009592
540.000000	0.009570
539.000000	0.009633
538.000000	0.009701
537.000000	0.009745
536.000000	0.009817
535.000000	0.009955
534.000000	0.010144
533.000000	0.010355
532.000000	0.010551
531.000000	0.010672
530.000000	0.010683
529.000000	0.010630
528.000000	0.010586
527.000000	0.010568
526.000000	0.010561
525.000000	0.010591
524.000000	0.010663
523.000000	0.010693
522.000000	0.010579
521.000000	0.010335
520.000000	0.010067
519.000000	0.009842
518.000000	0.009659
517.000000	0.009518
516.000000	0.009415
515.000000	0.009286
514.000000	0.009077
513.000000	0.008856
512.000000	0.008765
511.000000	0.008832
510.000000	0.008921
509.000000	0.008898
508.000000	0.008768
507.000000	0.008625
506.000000	0.008526
505.000000	0.008448
504.000000	0.008330
503.000000	0.008157
502.000000	0.008000
501.000000	0.007963
500.000000	0.008039
499.000000	0.008099
498.000000	0.008028
497.000000	0.007852
496.000000	0.007668
495.000000	0.007524
494.000000	0.007412
493.000000	0.007339
492.000000	0.007319
491.000000	0.007319
490.000000	0.007297
489.000000	0.007256
488.000000	0.007206
487.000000	0.007113
486.000000	0.006951
485.000000	0.006778
484.000000	0.006663
483.000000	0.006579
482.000000	0.006456
481.000000	0.006308
480.000000	0.006189
479.000000	0.006079
478.000000	0.005927
477.000000	0.005784
476.000000	0.005768
475.000000	0.005900
474.000000	0.006059
473.000000	0.006106
472.000000	0.005993
471.000000	0.005762
470.000000	0.005493
469.000000	0.005259
468.000000	0.005104
467.000000	0.005024
466.000000	0.004984
465.000000	0.004921
464.000000	0.004719
463.000000	0.004282
462.000000	0.003728
461.000000	0.003383
460.000000	0.003460
459.000000	0.003830
458.000000	0.004146
457.000000	0.004204
456.000000	0.004104
455.000000	0.004000
454.000000	0.003890
453.000000	0.003735
452.000000	0.003511
451.000000	0.003239
450.000000	0.002982
