PE UV       SUBTECH     SPECTRUM    ASCII       PEDS        4.00        
   -1
TDmsmeh72.Sample.asc
18/03/20
11:05:53.00
18/03/20
11:05:53.00
Administrator

200.000000
1
Lambda 750
750N8071901
PerkinElmer UV WinLab 6.0.4.0738 / 1.61.00 Lambda 900

0
0
3350/servo 860.8/2
0
0
UV/VIS
1
1
1
CommonBeamDepol,150mm sphere / downward view
0
0
0
0
Program
Program
3350/servo 860.8/2
3350/0.2 860.8/0.2
3350/0.2 860.8/0.2
0
1
 
 
 
0
 
860.8
319.2
860.8
Front
100
on
 
 
0
0
0
 
0
 
 
 
0
 
 
0
0
0
0
0
 
 
 
 
0
0


0
0
#HDR
-1
-1
#GR
nm
%T
1.0
0.0
2350.000000
-1.000000
2151
8
15.118045
-0.012097
#DATA
2350.000000	7.166492
2349.000000	7.215098
2348.000000	7.018484
2347.000000	7.802416
2346.000000	7.171944
2345.000000	7.128624
2344.000000	7.235612
2343.000000	7.019530
2342.000000	7.301125
2341.000000	7.174739
2340.000000	7.416950
2339.000000	7.677921
2338.000000	7.975969
2337.000000	7.776591
2336.000000	7.886433
2335.000000	7.925896
2334.000000	7.612070
2333.000000	8.218653
2332.000000	8.168720
2331.000000	8.021262
2330.000000	7.890827
2329.000000	7.795503
2328.000000	7.736282
2327.000000	7.662384
2326.000000	7.872360
2325.000000	7.720256
2324.000000	7.387249
2323.000000	7.413427
2322.000000	7.132601
2321.000000	7.529518
2320.000000	7.483179
2319.000000	7.649448
2318.000000	7.624433
2317.000000	7.774927
2316.000000	7.661841
2315.000000	7.314447
2314.000000	7.243499
2313.000000	7.267648
2312.000000	7.153866
2311.000000	7.450886
2310.000000	7.201451
2309.000000	7.278566
2308.000000	7.276189
2307.000000	7.158930
2306.000000	7.365662
2305.000000	7.185951
2304.000000	7.177962
2303.000000	7.012870
2302.000000	7.098637
2301.000000	7.227614
2300.000000	7.163512
2299.000000	7.022862
2298.000000	7.043502
2297.000000	6.910118
2296.000000	6.980628
2295.000000	6.891898
2294.000000	6.967766
2293.000000	6.983348
2292.000000	6.902607
2291.000000	6.864085
2290.000000	6.936667
2289.000000	6.881047
2288.000000	6.864274
2287.000000	6.873991
2286.000000	6.912561
2285.000000	6.884716
2284.000000	6.869381
2283.000000	6.913473
2282.000000	7.026693
2281.000000	6.843408
2280.000000	6.858029
2279.000000	6.990872
2278.000000	7.050031
2277.000000	6.890592
2276.000000	6.835689
2275.000000	6.998184
2274.000000	7.135181
2273.000000	7.054749
2272.000000	7.122441
2271.000000	7.035401
2270.000000	6.971446
2269.000000	7.079291
2268.000000	7.216409
2267.000000	7.271386
2266.000000	7.211157
2265.000000	7.291364
2264.000000	7.410111
2263.000000	7.363085
2262.000000	7.296136
2261.000000	7.381116
2260.000000	7.422664
2259.000000	7.529178
2258.000000	7.703183
2257.000000	7.777443
2256.000000	7.786904
2255.000000	7.873810
2254.000000	7.942736
2253.000000	7.943186
2252.000000	7.949497
2251.000000	8.147545
2250.000000	8.172819
2249.000000	8.178487
2248.000000	8.122202
2247.000000	8.239863
2246.000000	8.408977
2245.000000	8.425000
2244.000000	8.606455
2243.000000	8.690648
2242.000000	8.692906
2241.000000	8.742333
2240.000000	8.732245
2239.000000	8.778324
2238.000000	8.762803
2237.000000	8.880714
2236.000000	8.935329
2235.000000	8.894228
2234.000000	8.923931
2233.000000	8.957959
2232.000000	8.983218
2231.000000	8.877614
2230.000000	8.908611
2229.000000	8.958232
2228.000000	8.989989
2227.000000	9.146154
2226.000000	9.028338
2225.000000	8.980927
2224.000000	8.983755
2223.000000	8.835684
2222.000000	9.009937
2221.000000	9.125435
2220.000000	9.143750
2219.000000	9.138733
2218.000000	9.019396
2217.000000	9.041639
2216.000000	8.991093
2215.000000	8.975669
2214.000000	8.868708
2213.000000	8.869976
2212.000000	8.879293
2211.000000	8.736400
2210.000000	8.689648
2209.000000	8.692393
2208.000000	8.636618
2207.000000	8.613307
2206.000000	8.695842
2205.000000	8.700871
2204.000000	8.729274
2203.000000	8.617021
2202.000000	8.581015
2201.000000	8.465051
2200.000000	8.431493
2199.000000	8.528152
2198.000000	8.542236
2197.000000	8.580636
2196.000000	8.483648
2195.000000	8.395913
2194.000000	8.335037
2193.000000	8.307274
2192.000000	8.292439
2191.000000	8.170653
2190.000000	8.174758
2189.000000	8.319242
2188.000000	8.294249
2187.000000	8.266523
2186.000000	8.200670
2185.000000	8.159757
2184.000000	8.226766
2183.000000	8.193067
2182.000000	8.213655
2181.000000	8.048675
2180.000000	7.966817
2179.000000	8.065931
2178.000000	8.241383
2177.000000	8.266614
2176.000000	8.083530
2175.000000	8.015751
2174.000000	8.095228
2173.000000	8.140035
2172.000000	8.168602
2171.000000	8.155208
2170.000000	8.219112
2169.000000	8.214220
2168.000000	8.311737
2167.000000	8.329690
2166.000000	8.294220
2165.000000	8.396009
2164.000000	8.297464
2163.000000	8.287796
2162.000000	8.489385
2161.000000	8.390430
2160.000000	8.547171
2159.000000	8.453692
2158.000000	8.380426
2157.000000	8.536765
2156.000000	8.531351
2155.000000	8.571005
2154.000000	8.677401
2153.000000	8.933043
2152.000000	8.924647
2151.000000	9.033083
2150.000000	8.969652
2149.000000	8.994739
2148.000000	8.917351
2147.000000	9.148650
2146.000000	9.116535
2145.000000	9.049588
2144.000000	9.107521
2143.000000	9.220353
2142.000000	9.320386
2141.000000	9.230320
2140.000000	9.338023
2139.000000	9.463546
2138.000000	9.674836
2137.000000	9.525535
2136.000000	9.384016
2135.000000	9.493960
2134.000000	9.634060
2133.000000	9.174904
2132.000000	9.612849
2131.000000	9.706958
2130.000000	9.867607
2129.000000	9.723670
2128.000000	9.759942
2127.000000	9.628490
2126.000000	9.518124
2125.000000	9.626312
2124.000000	9.714589
2123.000000	9.648651
2122.000000	9.610769
2121.000000	9.710637
2120.000000	9.579647
2119.000000	9.520414
2118.000000	9.813272
2117.000000	9.647935
2116.000000	9.769452
2115.000000	9.914643
2114.000000	9.796455
2113.000000	9.932908
2112.000000	9.807615
2111.000000	9.711468
2110.000000	9.815297
2109.000000	9.908713
2108.000000	9.919194
2107.000000	9.803468
2106.000000	9.827234
2105.000000	9.799786
2104.000000	9.728184
2103.000000	9.744848
2102.000000	9.787319
2101.000000	9.780931
2100.000000	9.812043
2099.000000	9.842101
2098.000000	9.903501
2097.000000	9.888589
2096.000000	9.850451
2095.000000	9.793481
2094.000000	9.791145
2093.000000	9.705515
2092.000000	9.850875
2091.000000	9.860337
2090.000000	9.755111
2089.000000	9.771194
2088.000000	9.712983
2087.000000	9.717816
2086.000000	9.713852
2085.000000	9.688219
2084.000000	9.760594
2083.000000	9.694445
2082.000000	9.664051
2081.000000	9.608319
2080.000000	9.561766
2079.000000	9.544395
2078.000000	9.500952
2077.000000	9.573373
2076.000000	9.588808
2075.000000	9.351678
2074.000000	9.386840
2073.000000	9.339622
2072.000000	9.271310
2071.000000	9.283955
2070.000000	9.349267
2069.000000	9.223752
2068.000000	9.083808
2067.000000	9.066986
2066.000000	9.028046
2065.000000	8.896633
2064.000000	8.880103
2063.000000	8.884440
2062.000000	8.874210
2061.000000	8.721287
2060.000000	8.644365
2059.000000	8.699235
2058.000000	8.609606
2057.000000	8.608730
2056.000000	8.565634
2055.000000	8.473539
2054.000000	8.442516
2053.000000	8.384856
2052.000000	8.377266
2051.000000	8.327795
2050.000000	8.256819
2049.000000	8.221217
2048.000000	8.237798
2047.000000	8.210926
2046.000000	8.099383
2045.000000	8.076985
2044.000000	8.122902
2043.000000	8.214637
2042.000000	8.232645
2041.000000	8.161067
2040.000000	8.163141
2039.000000	8.174439
2038.000000	8.189234
2037.000000	8.221684
2036.000000	8.255933
2035.000000	8.280752
2034.000000	8.326936
2033.000000	8.338302
2032.000000	8.363952
2031.000000	8.404737
2030.000000	8.464149
2029.000000	8.475577
2028.000000	8.509721
2027.000000	8.522392
2026.000000	8.577215
2025.000000	8.615654
2024.000000	8.580370
2023.000000	8.591770
2022.000000	8.582375
2021.000000	8.595297
2020.000000	8.651818
2019.000000	8.623004
2018.000000	8.633167
2017.000000	8.670201
2016.000000	8.650507
2015.000000	8.645831
2014.000000	8.666297
2013.000000	8.623936
2012.000000	8.605580
2011.000000	8.625373
2010.000000	8.620951
2009.000000	8.575787
2008.000000	8.553721
2007.000000	8.535518
2006.000000	8.481216
2005.000000	8.464364
2004.000000	8.372051
2003.000000	8.338877
2002.000000	8.357544
2001.000000	8.297911
2000.000000	8.261088
1999.000000	8.264742
1998.000000	8.218819
1997.000000	8.194395
1996.000000	8.151711
1995.000000	8.091548
1994.000000	8.027385
1993.000000	8.010503
1992.000000	8.003098
1991.000000	7.987455
1990.000000	7.940617
1989.000000	7.871117
1988.000000	7.821846
1987.000000	7.775049
1986.000000	7.722467
1985.000000	7.718517
1984.000000	7.679056
1983.000000	7.656877
1982.000000	7.608821
1981.000000	7.581354
1980.000000	7.548399
1979.000000	7.507375
1978.000000	7.477130
1977.000000	7.443733
1976.000000	7.443292
1975.000000	7.364468
1974.000000	7.334423
1973.000000	7.331728
1972.000000	7.293837
1971.000000	7.239551
1970.000000	7.224738
1969.000000	7.194551
1968.000000	7.126638
1967.000000	7.087196
1966.000000	7.103188
1965.000000	7.113672
1964.000000	7.069255
1963.000000	7.057292
1962.000000	6.984860
1961.000000	6.951263
1960.000000	6.919105
1959.000000	6.869683
1958.000000	6.873403
1957.000000	6.893110
1956.000000	6.831399
1955.000000	6.829366
1954.000000	6.803461
1953.000000	6.811436
1952.000000	6.749536
1951.000000	6.813998
1950.000000	6.813523
1949.000000	6.767575
1948.000000	6.772429
1947.000000	6.776052
1946.000000	6.714986
1945.000000	6.756755
1944.000000	6.729149
1943.000000	6.721044
1942.000000	6.801670
1941.000000	6.789030
1940.000000	6.871468
1939.000000	6.865734
1938.000000	6.906490
1937.000000	6.841436
1936.000000	6.911956
1935.000000	6.915186
1934.000000	7.002376
1933.000000	6.983649
1932.000000	7.057519
1931.000000	7.029859
1930.000000	7.171662
1929.000000	7.217414
1928.000000	7.264485
1927.000000	7.307622
1926.000000	7.459165
1925.000000	7.489035
1924.000000	7.536235
1923.000000	7.640238
1922.000000	7.666186
1921.000000	7.793961
1920.000000	7.880111
1919.000000	7.951920
1918.000000	8.108468
1917.000000	8.197122
1916.000000	8.161288
1915.000000	8.377097
1914.000000	8.544130
1913.000000	8.683648
1912.000000	8.771148
1911.000000	8.881023
1910.000000	8.960342
1909.000000	9.129554
1908.000000	9.209570
1907.000000	9.355300
1906.000000	9.450555
1905.000000	9.636701
1904.000000	9.880781
1903.000000	10.031905
1902.000000	10.130685
1901.000000	10.336716
1900.000000	10.486422
1899.000000	10.637524
1898.000000	10.899831
1897.000000	10.970027
1896.000000	11.098508
1895.000000	11.284403
1894.000000	11.420753
1893.000000	11.559658
1892.000000	11.708264
1891.000000	11.839470
1890.000000	12.019466
1889.000000	12.150137
1888.000000	12.257465
1887.000000	12.414463
1886.000000	12.542841
1885.000000	12.630797
1884.000000	12.796657
1883.000000	12.961597
1882.000000	13.064673
1881.000000	13.131050
1880.000000	13.225510
1879.000000	13.318396
1878.000000	13.472753
1877.000000	13.575955
1876.000000	13.567115
1875.000000	13.631427
1874.000000	13.725725
1873.000000	13.821550
1872.000000	13.845528
1871.000000	13.915489
1870.000000	13.916015
1869.000000	13.977090
1868.000000	14.053852
1867.000000	14.052385
1866.000000	14.051610
1865.000000	14.057724
1864.000000	14.088342
1863.000000	14.094625
1862.000000	14.084224
1861.000000	14.093442
1860.000000	14.086916
1859.000000	14.044006
1858.000000	14.103696
1857.000000	14.145010
1856.000000	14.150399
1855.000000	14.159244
1854.000000	14.151305
1853.000000	14.168996
1852.000000	14.185236
1851.000000	14.174876
1850.000000	14.164648
1849.000000	14.223131
1848.000000	14.214370
1847.000000	14.179214
1846.000000	14.180012
1845.000000	14.173935
1844.000000	14.135623
1843.000000	14.124748
1842.000000	14.114112
1841.000000	14.122218
1840.000000	14.100789
1839.000000	14.092814
1838.000000	14.078779
1837.000000	14.028535
1836.000000	14.048877
1835.000000	14.050183
1834.000000	13.978644
1833.000000	13.953750
1832.000000	13.948906
1831.000000	13.919380
1830.000000	13.896638
1829.000000	13.881027
1828.000000	13.877519
1827.000000	13.879862
1826.000000	13.839525
1825.000000	13.798338
1824.000000	13.795922
1823.000000	13.764507
1822.000000	13.752874
1821.000000	13.764643
1820.000000	13.730300
1819.000000	13.694868
1818.000000	13.694443
1817.000000	13.678621
1816.000000	13.666799
1815.000000	13.679193
1814.000000	13.660724
1813.000000	13.629301
1812.000000	13.610043
1811.000000	13.604634
1810.000000	13.601429
1809.000000	13.585013
1808.000000	13.588565
1807.000000	13.566684
1806.000000	13.548290
1805.000000	13.552466
1804.000000	13.533017
1803.000000	13.511422
1802.000000	13.508870
1801.000000	13.510235
1800.000000	13.502537
1799.000000	13.510488
1798.000000	13.505390
1797.000000	13.485150
1796.000000	13.482403
1795.000000	13.489028
1794.000000	13.483040
1793.000000	13.465462
1792.000000	13.466197
1791.000000	13.468421
1790.000000	13.452446
1789.000000	13.444426
1788.000000	13.448593
1787.000000	13.445653
1786.000000	13.450441
1785.000000	13.442438
1784.000000	13.431134
1783.000000	13.433947
1782.000000	13.449889
1781.000000	13.423775
1780.000000	13.401883
1779.000000	13.400702
1778.000000	13.361417
1777.000000	13.350521
1776.000000	13.352228
1775.000000	13.327631
1774.000000	13.319760
1773.000000	13.293888
1772.000000	13.243743
1771.000000	13.227173
1770.000000	13.205145
1769.000000	13.184669
1768.000000	13.166450
1767.000000	13.144631
1766.000000	13.132021
1765.000000	13.084969
1764.000000	13.075808
1763.000000	13.061665
1762.000000	13.024811
1761.000000	13.004898
1760.000000	12.977783
1759.000000	12.973012
1758.000000	12.960113
1757.000000	12.934734
1756.000000	12.918417
1755.000000	12.910673
1754.000000	12.891491
1753.000000	12.868284
1752.000000	12.856302
1751.000000	12.836457
1750.000000	12.810326
1749.000000	12.795197
1748.000000	12.767000
1747.000000	12.742290
1746.000000	12.708454
1745.000000	12.689464
1744.000000	12.653259
1743.000000	12.636383
1742.000000	12.589209
1741.000000	12.573887
1740.000000	12.558243
1739.000000	12.562938
1738.000000	12.534352
1737.000000	12.509708
1736.000000	12.469848
1735.000000	12.493469
1734.000000	12.501690
1733.000000	12.478605
1732.000000	12.452493
1731.000000	12.448079
1730.000000	12.473017
1729.000000	12.480700
1728.000000	12.438155
1727.000000	12.432113
1726.000000	12.505222
1725.000000	12.518922
1724.000000	12.552541
1723.000000	12.603509
1722.000000	12.623950
1721.000000	12.629327
1720.000000	12.661224
1719.000000	12.694315
1718.000000	12.727650
1717.000000	12.719227
1716.000000	12.735628
1715.000000	12.774726
1714.000000	12.822043
1713.000000	12.828389
1712.000000	12.874899
1711.000000	12.891724
1710.000000	12.915780
1709.000000	12.934085
1708.000000	12.964450
1707.000000	12.986350
1706.000000	12.980370
1705.000000	12.992472
1704.000000	13.028834
1703.000000	13.006530
1702.000000	13.001941
1701.000000	13.020125
1700.000000	13.049954
1699.000000	13.018274
1698.000000	13.035567
1697.000000	13.074169
1696.000000	13.089882
1695.000000	13.122020
1694.000000	13.100504
1693.000000	13.124916
1692.000000	13.122787
1691.000000	13.127472
1690.000000	13.210014
1689.000000	13.222297
1688.000000	13.255605
1687.000000	13.282603
1686.000000	13.301972
1685.000000	13.399622
1684.000000	13.414808
1683.000000	13.444374
1682.000000	13.517283
1681.000000	13.539727
1680.000000	13.570180
1679.000000	13.657227
1678.000000	13.736739
1677.000000	13.763354
1676.000000	13.808319
1675.000000	13.828086
1674.000000	13.897533
1673.000000	13.927150
1672.000000	13.958250
1671.000000	13.994635
1670.000000	14.040201
1669.000000	14.059741
1668.000000	14.100194
1667.000000	14.152287
1666.000000	14.151551
1665.000000	14.162857
1664.000000	14.172520
1663.000000	14.181355
1662.000000	14.225483
1661.000000	14.254513
1660.000000	14.269753
1659.000000	14.313771
1658.000000	14.337072
1657.000000	14.349505
1656.000000	14.361497
1655.000000	14.366486
1654.000000	14.377429
1653.000000	14.371591
1652.000000	14.383242
1651.000000	14.373755
1650.000000	14.356544
1649.000000	14.345552
1648.000000	14.331931
1647.000000	14.317309
1646.000000	14.323723
1645.000000	14.324886
1644.000000	14.319587
1643.000000	14.304959
1642.000000	14.299066
1641.000000	14.289719
1640.000000	14.284321
1639.000000	14.277922
1638.000000	14.264265
1637.000000	14.259116
1636.000000	14.243533
1635.000000	14.225564
1634.000000	14.203110
1633.000000	14.194415
1632.000000	14.203728
1631.000000	14.177161
1630.000000	14.144772
1629.000000	14.142310
1628.000000	14.141508
1627.000000	14.133652
1626.000000	14.107521
1625.000000	14.086052
1624.000000	14.067627
1623.000000	14.043303
1622.000000	14.050865
1621.000000	14.026759
1620.000000	14.005524
1619.000000	13.985642
1618.000000	13.959508
1617.000000	13.947617
1616.000000	13.928475
1615.000000	13.920559
1614.000000	13.899127
1613.000000	13.873200
1612.000000	13.856607
1611.000000	13.841520
1610.000000	13.846523
1609.000000	13.828775
1608.000000	13.812217
1607.000000	13.801902
1606.000000	13.770142
1605.000000	13.747939
1604.000000	13.723098
1603.000000	13.694547
1602.000000	13.679954
1601.000000	13.660607
1600.000000	13.642071
1599.000000	13.632702
1598.000000	13.614786
1597.000000	13.592742
1596.000000	13.585397
1595.000000	13.568046
1594.000000	13.557321
1593.000000	13.556375
1592.000000	13.538121
1591.000000	13.517365
1590.000000	13.499030
1589.000000	13.478983
1588.000000	13.460361
1587.000000	13.456282
1586.000000	13.444658
1585.000000	13.433000
1584.000000	13.411999
1583.000000	13.399365
1582.000000	13.399044
1581.000000	13.380034
1580.000000	13.365692
1579.000000	13.347979
1578.000000	13.346193
1577.000000	13.324604
1576.000000	13.295852
1575.000000	13.282678
1574.000000	13.264820
1573.000000	13.252086
1572.000000	13.253163
1571.000000	13.229210
1570.000000	13.209387
1569.000000	13.213729
1568.000000	13.201773
1567.000000	13.184793
1566.000000	13.170645
1565.000000	13.158590
1564.000000	13.144371
1563.000000	13.146641
1562.000000	13.133699
1561.000000	13.102689
1560.000000	13.095384
1559.000000	13.083073
1558.000000	13.063898
1557.000000	13.058057
1556.000000	13.047129
1555.000000	13.036838
1554.000000	13.026018
1553.000000	13.010585
1552.000000	13.007053
1551.000000	12.994903
1550.000000	12.970817
1549.000000	12.958003
1548.000000	12.937385
1547.000000	12.912696
1546.000000	12.887705
1545.000000	12.856574
1544.000000	12.836658
1543.000000	12.824231
1542.000000	12.803568
1541.000000	12.766480
1540.000000	12.751739
1539.000000	12.715558
1538.000000	12.670570
1537.000000	12.643454
1536.000000	12.618821
1535.000000	12.586301
1534.000000	12.563859
1533.000000	12.530169
1532.000000	12.510153
1531.000000	12.484046
1530.000000	12.462188
1529.000000	12.439044
1528.000000	12.387734
1527.000000	12.373516
1526.000000	12.347826
1525.000000	12.330522
1524.000000	12.308030
1523.000000	12.294284
1522.000000	12.273100
1521.000000	12.252402
1520.000000	12.261837
1519.000000	12.247348
1518.000000	12.236674
1517.000000	12.215520
1516.000000	12.188599
1515.000000	12.193036
1514.000000	12.178346
1513.000000	12.160967
1512.000000	12.150811
1511.000000	12.137778
1510.000000	12.143752
1509.000000	12.129659
1508.000000	12.121883
1507.000000	12.123896
1506.000000	12.115852
1505.000000	12.125318
1504.000000	12.124509
1503.000000	12.131573
1502.000000	12.119516
1501.000000	12.102151
1500.000000	12.113888
1499.000000	12.101824
1498.000000	12.100933
1497.000000	12.105156
1496.000000	12.110585
1495.000000	12.121215
1494.000000	12.126672
1493.000000	12.143695
1492.000000	12.169666
1491.000000	12.183253
1490.000000	12.179653
1489.000000	12.196811
1488.000000	12.202288
1487.000000	12.184005
1486.000000	12.197626
1485.000000	12.207927
1484.000000	12.224625
1483.000000	12.253540
1482.000000	12.222503
1481.000000	12.265024
1480.000000	12.269295
1479.000000	12.287222
1478.000000	12.291768
1477.000000	12.296381
1476.000000	12.306557
1475.000000	12.318222
1474.000000	12.323445
1473.000000	12.355689
1472.000000	12.337359
1471.000000	12.342935
1470.000000	12.349362
1469.000000	12.387153
1468.000000	12.414638
1467.000000	12.405035
1466.000000	12.400263
1465.000000	12.431452
1464.000000	12.438830
1463.000000	12.443270
1462.000000	12.421655
1461.000000	12.462479
1460.000000	12.479490
1459.000000	12.474470
1458.000000	12.467359
1457.000000	12.483048
1456.000000	12.508234
1455.000000	12.527831
1454.000000	12.519123
1453.000000	12.515582
1452.000000	12.544066
1451.000000	12.588029
1450.000000	12.571801
1449.000000	12.568608
1448.000000	12.581490
1447.000000	12.579736
1446.000000	12.629824
1445.000000	12.648987
1444.000000	12.666845
1443.000000	12.665763
1442.000000	12.675995
1441.000000	12.689641
1440.000000	12.712421
1439.000000	12.743380
1438.000000	12.765096
1437.000000	12.806629
1436.000000	12.819779
1435.000000	12.838428
1434.000000	12.861471
1433.000000	12.897819
1432.000000	12.913697
1431.000000	12.933080
1430.000000	12.966244
1429.000000	12.993608
1428.000000	13.025606
1427.000000	13.053481
1426.000000	13.081497
1425.000000	13.128707
1424.000000	13.162946
1423.000000	13.212767
1422.000000	13.246975
1421.000000	13.262000
1420.000000	13.306416
1419.000000	13.358134
1418.000000	13.403097
1417.000000	13.448227
1416.000000	13.480061
1415.000000	13.536254
1414.000000	13.584359
1413.000000	13.640077
1412.000000	13.684111
1411.000000	13.721194
1410.000000	13.771368
1409.000000	13.815855
1408.000000	13.887156
1407.000000	13.935234
1406.000000	13.949447
1405.000000	13.994207
1404.000000	14.049927
1403.000000	14.099543
1402.000000	14.144605
1401.000000	14.192693
1400.000000	14.241221
1399.000000	14.288129
1398.000000	14.321887
1397.000000	14.359882
1396.000000	14.399231
1395.000000	14.427105
1394.000000	14.459589
1393.000000	14.495195
1392.000000	14.524826
1391.000000	14.554846
1390.000000	14.571918
1389.000000	14.598095
1388.000000	14.626160
1387.000000	14.652883
1386.000000	14.692540
1385.000000	14.724382
1384.000000	14.737232
1383.000000	14.754612
1382.000000	14.787790
1381.000000	14.798459
1380.000000	14.807656
1379.000000	14.837142
1378.000000	14.838678
1377.000000	14.839223
1376.000000	14.850535
1375.000000	14.865298
1374.000000	14.876342
1373.000000	14.878725
1372.000000	14.874961
1371.000000	14.867319
1370.000000	14.882281
1369.000000	14.911076
1368.000000	14.915255
1367.000000	14.919310
1366.000000	14.920828
1365.000000	14.929145
1364.000000	14.934421
1363.000000	14.938883
1362.000000	14.943730
1361.000000	14.949039
1360.000000	14.956278
1359.000000	14.955508
1358.000000	14.973557
1357.000000	15.001169
1356.000000	15.000779
1355.000000	14.990969
1354.000000	14.997267
1353.000000	15.007958
1352.000000	15.023030
1351.000000	15.022702
1350.000000	15.026818
1349.000000	15.028725
1348.000000	15.020606
1347.000000	15.027434
1346.000000	15.044447
1345.000000	15.042520
1344.000000	15.042050
1343.000000	15.031779
1342.000000	15.044726
1341.000000	15.074073
1340.000000	15.082156
1339.000000	15.064591
1338.000000	15.059529
1337.000000	15.062181
1336.000000	15.075191
1335.000000	15.080706
1334.000000	15.091282
1333.000000	15.104498
1332.000000	15.105262
1331.000000	15.087732
1330.000000	15.069915
1329.000000	15.100372
1328.000000	15.118045
1327.000000	15.106220
1326.000000	15.075388
1325.000000	15.097024
1324.000000	15.110456
1323.000000	15.092364
1322.000000	15.096836
1321.000000	15.102023
1320.000000	15.083333
1319.000000	15.086584
1318.000000	15.094420
1317.000000	15.067421
1316.000000	15.073899
1315.000000	15.080315
1314.000000	15.078890
1313.000000	15.064862
1312.000000	15.070139
1311.000000	15.026728
1310.000000	15.036034
1309.000000	15.060424
1308.000000	15.036752
1307.000000	15.011991
1306.000000	15.025403
1305.000000	15.029302
1304.000000	15.022148
1303.000000	15.019079
1302.000000	14.996794
1301.000000	14.995204
1300.000000	14.991800
1299.000000	14.967109
1298.000000	14.968032
1297.000000	14.963050
1296.000000	14.963154
1295.000000	14.954600
1294.000000	14.961592
1293.000000	14.948769
1292.000000	14.959323
1291.000000	14.951794
1290.000000	14.956975
1289.000000	14.949548
1288.000000	14.934902
1287.000000	14.934494
1286.000000	14.921647
1285.000000	14.923803
1284.000000	14.941187
1283.000000	14.915596
1282.000000	14.890802
1281.000000	14.875377
1280.000000	14.890445
1279.000000	14.878716
1278.000000	14.869425
1277.000000	14.874903
1276.000000	14.881601
1275.000000	14.881214
1274.000000	14.887032
1273.000000	14.875317
1272.000000	14.867107
1271.000000	14.862828
1270.000000	14.852964
1269.000000	14.845328
1268.000000	14.842453
1267.000000	14.856019
1266.000000	14.893658
1265.000000	14.855831
1264.000000	14.866038
1263.000000	14.829460
1262.000000	14.828499
1261.000000	14.796396
1260.000000	14.840098
1259.000000	14.844777
1258.000000	14.824602
1257.000000	14.797370
1256.000000	14.798822
1255.000000	14.800180
1254.000000	14.777872
1253.000000	14.786196
1252.000000	14.783944
1251.000000	14.807193
1250.000000	14.811125
1249.000000	14.799582
1248.000000	14.783889
1247.000000	14.774642
1246.000000	14.775901
1245.000000	14.731579
1244.000000	14.726354
1243.000000	14.724320
1242.000000	14.734713
1241.000000	14.722583
1240.000000	14.715171
1239.000000	14.684580
1238.000000	14.680433
1237.000000	14.679982
1236.000000	14.668649
1235.000000	14.656206
1234.000000	14.651354
1233.000000	14.652415
1232.000000	14.642224
1231.000000	14.595583
1230.000000	14.591098
1229.000000	14.605298
1228.000000	14.611890
1227.000000	14.599658
1226.000000	14.559176
1225.000000	14.552356
1224.000000	14.549059
1223.000000	14.550107
1222.000000	14.559860
1221.000000	14.553926
1220.000000	14.543979
1219.000000	14.524844
1218.000000	14.509562
1217.000000	14.495960
1216.000000	14.474516
1215.000000	14.489120
1214.000000	14.492078
1213.000000	14.480060
1212.000000	14.459286
1211.000000	14.450186
1210.000000	14.443881
1209.000000	14.420070
1208.000000	14.405894
1207.000000	14.418994
1206.000000	14.409964
1205.000000	14.398875
1204.000000	14.381775
1203.000000	14.353546
1202.000000	14.335335
1201.000000	14.325057
1200.000000	14.330452
1199.000000	14.324897
1198.000000	14.300912
1197.000000	14.279117
1196.000000	14.253159
1195.000000	14.252788
1194.000000	14.277000
1193.000000	14.266470
1192.000000	14.263142
1191.000000	14.251779
1190.000000	14.212622
1189.000000	14.163051
1188.000000	14.175385
1187.000000	14.179151
1186.000000	14.155445
1185.000000	14.146763
1184.000000	14.145952
1183.000000	14.148373
1182.000000	14.168964
1181.000000	14.183583
1180.000000	14.192269
1179.000000	14.208232
1178.000000	14.219590
1177.000000	14.235220
1176.000000	14.239649
1175.000000	14.248089
1174.000000	14.258939
1173.000000	14.271226
1172.000000	14.282563
1171.000000	14.290289
1170.000000	14.298171
1169.000000	14.309059
1168.000000	14.310539
1167.000000	14.317169
1166.000000	14.331475
1165.000000	14.341156
1164.000000	14.351474
1163.000000	14.363258
1162.000000	14.366458
1161.000000	14.380971
1160.000000	14.404735
1159.000000	14.413425
1158.000000	14.427554
1157.000000	14.442841
1156.000000	14.426806
1155.000000	14.411473
1154.000000	14.412429
1153.000000	14.418291
1152.000000	14.435029
1151.000000	14.451666
1150.000000	14.459667
1149.000000	14.472499
1148.000000	14.473202
1147.000000	14.489039
1146.000000	14.510491
1145.000000	14.522875
1144.000000	14.520454
1143.000000	14.523548
1142.000000	14.532831
1141.000000	14.538152
1140.000000	14.544020
1139.000000	14.549935
1138.000000	14.558342
1137.000000	14.536153
1136.000000	14.528954
1135.000000	14.547646
1134.000000	14.545748
1133.000000	14.548351
1132.000000	14.549720
1131.000000	14.563155
1130.000000	14.580118
1129.000000	14.584196
1128.000000	14.586596
1127.000000	14.579476
1126.000000	14.590391
1125.000000	14.597935
1124.000000	14.592131
1123.000000	14.600649
1122.000000	14.561115
1121.000000	14.556282
1120.000000	14.564579
1119.000000	14.554547
1118.000000	14.562858
1117.000000	14.561438
1116.000000	14.565359
1115.000000	14.563162
1114.000000	14.567841
1113.000000	14.568867
1112.000000	14.560085
1111.000000	14.559236
1110.000000	14.566712
1109.000000	14.572660
1108.000000	14.557928
1107.000000	14.547328
1106.000000	14.551303
1105.000000	14.552524
1104.000000	14.536819
1103.000000	14.507234
1102.000000	14.505463
1101.000000	14.511773
1100.000000	14.513960
1099.000000	14.523076
1098.000000	14.526463
1097.000000	14.538576
1096.000000	14.549225
1095.000000	14.505004
1094.000000	14.475169
1093.000000	14.480554
1092.000000	14.487942
1091.000000	14.498033
1090.000000	14.494586
1089.000000	14.501691
1088.000000	14.468829
1087.000000	14.464410
1086.000000	14.467830
1085.000000	14.482015
1084.000000	14.488126
1083.000000	14.484176
1082.000000	14.457143
1081.000000	14.437003
1080.000000	14.434653
1079.000000	14.444563
1078.000000	14.444465
1077.000000	14.465359
1076.000000	14.457876
1075.000000	14.419008
1074.000000	14.403802
1073.000000	14.414052
1072.000000	14.414752
1071.000000	14.433487
1070.000000	14.431416
1069.000000	14.435908
1068.000000	14.436661
1067.000000	14.402121
1066.000000	14.391949
1065.000000	14.406575
1064.000000	14.413768
1063.000000	14.424970
1062.000000	14.408178
1061.000000	14.375944
1060.000000	14.373141
1059.000000	14.361882
1058.000000	14.366002
1057.000000	14.374421
1056.000000	14.396152
1055.000000	14.361141
1054.000000	14.342595
1053.000000	14.341153
1052.000000	14.364566
1051.000000	14.354991
1050.000000	14.321433
1049.000000	14.353116
1048.000000	14.331980
1047.000000	14.358653
1046.000000	14.365010
1045.000000	14.345331
1044.000000	14.313988
1043.000000	14.315545
1042.000000	14.330236
1041.000000	14.323637
1040.000000	14.315520
1039.000000	14.314363
1038.000000	14.306543
1037.000000	14.284699
1036.000000	14.282360
1035.000000	14.298031
1034.000000	14.303801
1033.000000	14.298812
1032.000000	14.280463
1031.000000	14.297383
1030.000000	14.300729
1029.000000	14.290651
1028.000000	14.278373
1027.000000	14.291169
1026.000000	14.284815
1025.000000	14.265272
1024.000000	14.286543
1023.000000	14.284521
1022.000000	14.266975
1021.000000	14.276130
1020.000000	14.271027
1019.000000	14.262754
1018.000000	14.261400
1017.000000	14.288055
1016.000000	14.251277
1015.000000	14.249230
1014.000000	14.258436
1013.000000	14.248938
1012.000000	14.260150
1011.000000	14.240953
1010.000000	14.248214
1009.000000	14.253123
1008.000000	14.258620
1007.000000	14.263017
1006.000000	14.273719
1005.000000	14.287054
1004.000000	14.287863
1003.000000	14.300791
1002.000000	14.285812
1001.000000	14.297103
1000.000000	14.305906
999.000000	14.284628
998.000000	14.280535
997.000000	14.284211
996.000000	14.274850
995.000000	14.275952
994.000000	14.281626
993.000000	14.273499
992.000000	14.272143
991.000000	14.267789
990.000000	14.272111
989.000000	14.263712
988.000000	14.256663
987.000000	14.260624
986.000000	14.256964
985.000000	14.252698
984.000000	14.248032
983.000000	14.246354
982.000000	14.244569
981.000000	14.233517
980.000000	14.217145
979.000000	14.211700
978.000000	14.217517
977.000000	14.216920
976.000000	14.218900
975.000000	14.210606
974.000000	14.209795
973.000000	14.208581
972.000000	14.211724
971.000000	14.213082
970.000000	14.195019
969.000000	14.189637
968.000000	14.184517
967.000000	14.188719
966.000000	14.187827
965.000000	14.186500
964.000000	14.165085
963.000000	14.166225
962.000000	14.166564
961.000000	14.161580
960.000000	14.171374
959.000000	14.152271
958.000000	14.134695
957.000000	14.152333
956.000000	14.148092
955.000000	14.141148
954.000000	14.147028
953.000000	14.142931
952.000000	14.131822
951.000000	14.117962
950.000000	14.105758
949.000000	14.099699
948.000000	14.101357
947.000000	14.093758
946.000000	14.067679
945.000000	14.062301
944.000000	14.065324
943.000000	14.068754
942.000000	14.084650
941.000000	14.073162
940.000000	14.061918
939.000000	14.051554
938.000000	14.037534
937.000000	14.033623
936.000000	14.034620
935.000000	14.038630
934.000000	14.018829
933.000000	14.006389
932.000000	13.987798
931.000000	13.982033
930.000000	13.996870
929.000000	13.994491
928.000000	13.987155
927.000000	13.977734
926.000000	13.968403
925.000000	13.952056
924.000000	13.948152
923.000000	13.971137
922.000000	13.961192
921.000000	13.938234
920.000000	13.924524
919.000000	13.911697
918.000000	13.909753
917.000000	13.905365
916.000000	13.917550
915.000000	13.906842
914.000000	13.863801
913.000000	13.891372
912.000000	13.894245
911.000000	13.869202
910.000000	13.875875
909.000000	13.882354
908.000000	13.884459
907.000000	13.896272
906.000000	13.879491
905.000000	13.833756
904.000000	13.827555
903.000000	13.828925
902.000000	13.831259
901.000000	13.816162
900.000000	13.816144
899.000000	13.861970
898.000000	13.795592
897.000000	13.768409
896.000000	13.834852
895.000000	13.856523
894.000000	13.802067
893.000000	13.828799
892.000000	13.815427
891.000000	13.838736
890.000000	13.814360
889.000000	13.729167
888.000000	13.734888
887.000000	13.667205
886.000000	13.734628
885.000000	13.700826
884.000000	13.661328
883.000000	13.681153
882.000000	13.648344
881.000000	13.641718
880.000000	13.684717
879.000000	13.616444
878.000000	13.698761
877.000000	13.699434
876.000000	13.651950
875.000000	13.581185
874.000000	13.626830
873.000000	13.715833
872.000000	13.562319
871.000000	13.537624
870.000000	13.629638
869.000000	13.638313
868.000000	13.700879
867.000000	13.587879
866.000000	13.496278
865.000000	13.576240
864.000000	13.618730
863.000000	13.615368
862.000000	13.550566
861.000000	13.588968
860.000000	13.516972
859.000000	13.771856
858.000000	13.724488
857.000000	13.805514
856.000000	13.790803
855.000000	13.805190
854.000000	13.806571
853.000000	13.720687
852.000000	13.719338
851.000000	13.643282
850.000000	13.683062
849.000000	13.625059
848.000000	13.643359
847.000000	13.659802
846.000000	13.588376
845.000000	13.619363
844.000000	13.613622
843.000000	13.659509
842.000000	13.627601
841.000000	13.526744
840.000000	13.542594
839.000000	13.513338
838.000000	13.500741
837.000000	13.430869
836.000000	13.479401
835.000000	13.482049
834.000000	13.409226
833.000000	13.388959
832.000000	13.390024
831.000000	13.373179
830.000000	13.393637
829.000000	13.371516
828.000000	13.360903
827.000000	13.322592
826.000000	13.326314
825.000000	13.311730
824.000000	13.244593
823.000000	13.291816
822.000000	13.292882
821.000000	13.181675
820.000000	13.194995
819.000000	13.240624
818.000000	13.241275
817.000000	13.184453
816.000000	13.151209
815.000000	13.146075
814.000000	13.099842
813.000000	13.087295
812.000000	13.063520
811.000000	13.108751
810.000000	13.047335
809.000000	13.079254
808.000000	13.110498
807.000000	13.071365
806.000000	13.094751
805.000000	13.065185
804.000000	12.992866
803.000000	13.010160
802.000000	12.941099
801.000000	12.941860
800.000000	12.960370
799.000000	12.990125
798.000000	12.914538
797.000000	12.940566
796.000000	12.891036
795.000000	12.856912
794.000000	12.850812
793.000000	12.873136
792.000000	12.814913
791.000000	12.782935
790.000000	12.776947
789.000000	12.785410
788.000000	12.769606
787.000000	12.741586
786.000000	12.749643
785.000000	12.676211
784.000000	12.670561
783.000000	12.657028
782.000000	12.619410
781.000000	12.629255
780.000000	12.610718
779.000000	12.594728
778.000000	12.552157
777.000000	12.537170
776.000000	12.517786
775.000000	12.523180
774.000000	12.480014
773.000000	12.478243
772.000000	12.497405
771.000000	12.459866
770.000000	12.412031
769.000000	12.408591
768.000000	12.383643
767.000000	12.360084
766.000000	12.371851
765.000000	12.340408
764.000000	12.286956
763.000000	12.299183
762.000000	12.292780
761.000000	12.243142
760.000000	12.223705
759.000000	12.226563
758.000000	12.176486
757.000000	12.176530
756.000000	12.151790
755.000000	12.127219
754.000000	12.113924
753.000000	12.075903
752.000000	12.065124
751.000000	12.056186
750.000000	12.029723
749.000000	11.996754
748.000000	11.984137
747.000000	11.964457
746.000000	11.922718
745.000000	11.921044
744.000000	11.914980
743.000000	11.883271
742.000000	11.867629
741.000000	11.842733
740.000000	11.810168
739.000000	11.793261
738.000000	11.771418
737.000000	11.739750
736.000000	11.709143
735.000000	11.686900
734.000000	11.656355
733.000000	11.647366
732.000000	11.623203
731.000000	11.611149
730.000000	11.591149
729.000000	11.555562
728.000000	11.532240
727.000000	11.515870
726.000000	11.485933
725.000000	11.460679
724.000000	11.444389
723.000000	11.417394
722.000000	11.390098
721.000000	11.370200
720.000000	11.344671
719.000000	11.319893
718.000000	11.309719
717.000000	11.279068
716.000000	11.242503
715.000000	11.229437
714.000000	11.199543
713.000000	11.165982
712.000000	11.152320
711.000000	11.132176
710.000000	11.094255
709.000000	11.056056
708.000000	11.026259
707.000000	10.998501
706.000000	10.971490
705.000000	10.952499
704.000000	10.922956
703.000000	10.880159
702.000000	10.861432
701.000000	10.846557
700.000000	10.818590
699.000000	10.801988
698.000000	10.783177
697.000000	10.750938
696.000000	10.719683
695.000000	10.688092
694.000000	10.664111
693.000000	10.627405
692.000000	10.591024
691.000000	10.561750
690.000000	10.536771
689.000000	10.483730
688.000000	10.448332
687.000000	10.426946
686.000000	10.391121
685.000000	10.355396
684.000000	10.333411
683.000000	10.310539
682.000000	10.267205
681.000000	10.242894
680.000000	10.215950
679.000000	10.178350
678.000000	10.147649
677.000000	10.115406
676.000000	10.085073
675.000000	10.072939
674.000000	10.039222
673.000000	10.006922
672.000000	9.977876
671.000000	9.939774
670.000000	9.903933
669.000000	9.871917
668.000000	9.841308
667.000000	9.804706
666.000000	9.785235
665.000000	9.740461
664.000000	9.716413
663.000000	9.696163
662.000000	9.650279
661.000000	9.618378
660.000000	9.592511
659.000000	9.557982
658.000000	9.526741
657.000000	9.492278
656.000000	9.454625
655.000000	9.417676
654.000000	9.392523
653.000000	9.361499
652.000000	9.318782
651.000000	9.293222
650.000000	9.268617
649.000000	9.230359
648.000000	9.188452
647.000000	9.149574
646.000000	9.119847
645.000000	9.096465
644.000000	9.060469
643.000000	9.021796
642.000000	8.989815
641.000000	8.964753
640.000000	8.927549
639.000000	8.889216
638.000000	8.849285
637.000000	8.812844
636.000000	8.775689
635.000000	8.736684
634.000000	8.706928
633.000000	8.669649
632.000000	8.630934
631.000000	8.604314
630.000000	8.569627
629.000000	8.535068
628.000000	8.489430
627.000000	8.472945
626.000000	8.428858
625.000000	8.369520
624.000000	8.360730
623.000000	8.317489
622.000000	8.269005
621.000000	8.250294
620.000000	8.210563
619.000000	8.181087
618.000000	8.129714
617.000000	8.102282
616.000000	8.075871
615.000000	8.027048
614.000000	7.978045
613.000000	7.943402
612.000000	7.901014
611.000000	7.869889
610.000000	7.831539
609.000000	7.799341
608.000000	7.751852
607.000000	7.708071
606.000000	7.684352
605.000000	7.626598
604.000000	7.590298
603.000000	7.559273
602.000000	7.516659
601.000000	7.487005
600.000000	7.462232
599.000000	7.405096
598.000000	7.365048
597.000000	7.331455
596.000000	7.285771
595.000000	7.237988
594.000000	7.209158
593.000000	7.180719
592.000000	7.128829
591.000000	7.091878
590.000000	7.044655
589.000000	7.019622
588.000000	6.989049
587.000000	6.936141
586.000000	6.899193
585.000000	6.851501
584.000000	6.809834
583.000000	6.773617
582.000000	6.741921
581.000000	6.682840
580.000000	6.662622
579.000000	6.610332
578.000000	6.567072
577.000000	6.531493
576.000000	6.486216
575.000000	6.445762
574.000000	6.408361
573.000000	6.366117
572.000000	6.334161
571.000000	6.290381
570.000000	6.238224
569.000000	6.209164
568.000000	6.156067
567.000000	6.125443
566.000000	6.072398
565.000000	6.042144
564.000000	5.998247
563.000000	5.953992
562.000000	5.913941
561.000000	5.906959
560.000000	5.850847
559.000000	5.820262
558.000000	5.777607
557.000000	5.733138
556.000000	5.697769
555.000000	5.643267
554.000000	5.593393
553.000000	5.561021
552.000000	5.512947
551.000000	5.469608
550.000000	5.435783
549.000000	5.393758
548.000000	5.349182
547.000000	5.309063
546.000000	5.263399
545.000000	5.222912
544.000000	5.182814
543.000000	5.132493
542.000000	5.089846
541.000000	5.050966
540.000000	5.010882
539.000000	4.963817
538.000000	4.918068
537.000000	4.883371
536.000000	4.832080
535.000000	4.793692
534.000000	4.747745
533.000000	4.708694
532.000000	4.668732
531.000000	4.616168
530.000000	4.573628
529.000000	4.535276
528.000000	4.486875
527.000000	4.439098
526.000000	4.395950
525.000000	4.351193
524.000000	4.307323
523.000000	4.274583
522.000000	4.225517
521.000000	4.182798
520.000000	4.140303
519.000000	4.093730
518.000000	4.056224
517.000000	4.015364
516.000000	3.965711
515.000000	3.918977
514.000000	3.881367
513.000000	3.839947
512.000000	3.798303
511.000000	3.759603
510.000000	3.716270
509.000000	3.672946
508.000000	3.634788
507.000000	3.588479
506.000000	3.542187
505.000000	3.503436
504.000000	3.465719
503.000000	3.427736
502.000000	3.386293
501.000000	3.348046
500.000000	3.312251
499.000000	3.274600
498.000000	3.237924
497.000000	3.206204
496.000000	3.161311
495.000000	3.123587
494.000000	3.086740
493.000000	3.047472
492.000000	3.016355
491.000000	2.979323
490.000000	2.941956
489.000000	2.904180
488.000000	2.864611
487.000000	2.840211
486.000000	2.810413
485.000000	2.775984
484.000000	2.742114
483.000000	2.712144
482.000000	2.680807
481.000000	2.645163
480.000000	2.605763
479.000000	2.570892
478.000000	2.530958
477.000000	2.489145
476.000000	2.450853
475.000000	2.414398
474.000000	2.381708
473.000000	2.352954
472.000000	2.317409
471.000000	2.278234
470.000000	2.243249
469.000000	2.212052
468.000000	2.182266
467.000000	2.148497
466.000000	2.114629
465.000000	2.080135
464.000000	2.046320
463.000000	2.011026
462.000000	1.976481
461.000000	1.944300
460.000000	1.910304
459.000000	1.878895
458.000000	1.847670
457.000000	1.812365
456.000000	1.781525
455.000000	1.752519
454.000000	1.722094
453.000000	1.686569
452.000000	1.655516
451.000000	1.627984
450.000000	1.597128
449.000000	1.569061
448.000000	1.536856
447.000000	1.502322
446.000000	1.475595
445.000000	1.450515
444.000000	1.425901
443.000000	1.397562
442.000000	1.370182
441.000000	1.343524
440.000000	1.319845
439.000000	1.291776
438.000000	1.269306
437.000000	1.244198
436.000000	1.222029
435.000000	1.199063
434.000000	1.175097
433.000000	1.148624
432.000000	1.131248
431.000000	1.102159
430.000000	1.077918
429.000000	1.053101
428.000000	1.031274
427.000000	1.011972
426.000000	0.985738
425.000000	0.969298
424.000000	0.951505
423.000000	0.924482
422.000000	0.905691
421.000000	0.888213
420.000000	0.865001
419.000000	0.845791
418.000000	0.825382
417.000000	0.800480
416.000000	0.782043
415.000000	0.769852
414.000000	0.755928
413.000000	0.728209
412.000000	0.712911
411.000000	0.694047
410.000000	0.669305
409.000000	0.653558
408.000000	0.640804
407.000000	0.623799
406.000000	0.608008
405.000000	0.589595
404.000000	0.572762
403.000000	0.555606
402.000000	0.547809
401.000000	0.532161
400.000000	0.515148
399.000000	0.497882
398.000000	0.486611
397.000000	0.471980
396.000000	0.461702
395.000000	0.446101
394.000000	0.438451
393.000000	0.424239
392.000000	0.413740
391.000000	0.402313
390.000000	0.389657
389.000000	0.381587
388.000000	0.370169
387.000000	0.359431
386.000000	0.348693
385.000000	0.340572
384.000000	0.333667
383.000000	0.320528
382.000000	0.316494
381.000000	0.300299
380.000000	0.291105
379.000000	0.285016
378.000000	0.283873
377.000000	0.288707
376.000000	0.281783
375.000000	0.291267
374.000000	0.276237
373.000000	0.266140
372.000000	0.258182
371.000000	0.246164
370.000000	0.238137
369.000000	0.238151
368.000000	0.223608
367.000000	0.220632
366.000000	0.210340
365.000000	0.199323
364.000000	0.196454
363.000000	0.191862
362.000000	0.194452
361.000000	0.183320
360.000000	0.177292
359.000000	0.173818
358.000000	0.170511
357.000000	0.168972
356.000000	0.168925
355.000000	0.162166
354.000000	0.160727
353.000000	0.152274
352.000000	0.140863
351.000000	0.143221
350.000000	0.150467
349.000000	0.149914
348.000000	0.143250
347.000000	0.131518
346.000000	0.127526
345.000000	0.127874
344.000000	0.130308
343.000000	0.125929
342.000000	0.116699
341.000000	0.127573
340.000000	0.123990
339.000000	0.119364
338.000000	0.116040
337.000000	0.107774
336.000000	0.104186
335.000000	0.102079
334.000000	0.111520
333.000000	0.097640
332.000000	0.107855
331.000000	0.099623
330.000000	0.089675
329.000000	0.097007
328.000000	0.091669
327.000000	0.090120
326.000000	0.092441
325.000000	0.096725
324.000000	0.091882
323.000000	0.086606
322.000000	0.084029
321.000000	0.094138
320.000000	0.100573
319.000000	0.089495
318.000000	0.098510
317.000000	0.102238
316.000000	0.095302
315.000000	0.096581
314.000000	0.106497
313.000000	0.106343
312.000000	0.105944
311.000000	0.098538
310.000000	0.100840
309.000000	0.098370
308.000000	0.107127
307.000000	0.098121
306.000000	0.097169
305.000000	0.097223
304.000000	0.101037
303.000000	0.092338
302.000000	0.095332
301.000000	0.094653
300.000000	0.095614
299.000000	0.097013
298.000000	0.096644
297.000000	0.095748
296.000000	0.100347
295.000000	0.094989
294.000000	0.099844
293.000000	0.094275
292.000000	0.094904
291.000000	0.095456
290.000000	0.092214
289.000000	0.095610
288.000000	0.094475
287.000000	0.093825
286.000000	0.095913
285.000000	0.102705
284.000000	0.106147
283.000000	0.099538
282.000000	0.099345
281.000000	0.096845
280.000000	0.100092
279.000000	0.109133
278.000000	0.111614
277.000000	0.107443
276.000000	0.110499
275.000000	0.113521
274.000000	0.113047
273.000000	0.112833
272.000000	0.116854
271.000000	0.116127
270.000000	0.125242
269.000000	0.119204
268.000000	0.121852
267.000000	0.127744
266.000000	0.131335
265.000000	0.128479
264.000000	0.126855
263.000000	0.130515
262.000000	0.132371
261.000000	0.143916
260.000000	0.143068
259.000000	0.145333
258.000000	0.143846
257.000000	0.144238
256.000000	0.149068
255.000000	0.150402
254.000000	0.148924
253.000000	0.155159
252.000000	0.152059
251.000000	0.155232
250.000000	0.161408
249.000000	0.161512
248.000000	0.165087
247.000000	0.161316
246.000000	0.155143
245.000000	0.144705
244.000000	0.141196
243.000000	0.151498
242.000000	0.150404
241.000000	0.141020
240.000000	0.138714
239.000000	0.126829
238.000000	0.115652
237.000000	0.110573
236.000000	0.107261
235.000000	0.102425
234.000000	0.093333
233.000000	0.086381
232.000000	0.076067
231.000000	0.071811
230.000000	0.066574
229.000000	0.056626
228.000000	0.050803
227.000000	0.041014
226.000000	0.036199
225.000000	0.033642
224.000000	0.026463
223.000000	0.026559
222.000000	0.022792
221.000000	0.016140
220.000000	0.026213
219.000000	0.026323
218.000000	0.022152
217.000000	0.017828
216.000000	0.007923
215.000000	0.003806
214.000000	0.011381
213.000000	0.011611
212.000000	0.009365
211.000000	0.007676
210.000000	0.001287
209.000000	-0.009135
208.000000	-0.012097
207.000000	-0.001625
206.000000	0.015603
205.000000	0.005229
204.000000	-0.007103
203.000000	-0.000328
202.000000	-0.006722
201.000000	-0.001211
200.000000	0.012844
