PE UV       SUBTECH     SPECTRUM    ASCII       PEDS        4.00        
   -1
TTmsmeh72.Sample.asc
18/03/20
11:15:32.00
18/03/20
11:15:32.00
Administrator

200.000000
1
Lambda 750
750N8071901
PerkinElmer UV WinLab 6.0.4.0738 / 1.61.00 Lambda 900

0
0
3350/servo 860.8/2
0
0
UV/VIS
1
1
1
CommonBeamDepol,150mm sphere / downward view
0
0
0
0
Program
Program
3350/servo 860.8/2
3350/0.2 860.8/0.2
3350/0.2 860.8/0.2
0
1
 
 
 
0
 
860.8
319.2
860.8
Front
100
on
 
 
0
0
0
 
0
 
 
 
0
 
 
0
0
0
0
0
 
 
 
 
0
0


0
0
#HDR
-1
-1
#GR
nm
%T
1.0
0.0
2350.000000
-1.000000
2151
8
15.090770
-0.034489
#DATA
2350.000000	7.203156
2349.000000	6.972805
2348.000000	6.979891
2347.000000	7.600901
2346.000000	7.444597
2345.000000	7.329306
2344.000000	6.678084
2343.000000	6.766033
2342.000000	6.891929
2341.000000	7.440219
2340.000000	7.346572
2339.000000	7.706748
2338.000000	7.807281
2337.000000	7.668372
2336.000000	7.713665
2335.000000	7.752843
2334.000000	7.541210
2333.000000	7.905553
2332.000000	8.208521
2331.000000	7.889131
2330.000000	7.758655
2329.000000	7.795401
2328.000000	8.113106
2327.000000	7.916527
2326.000000	7.984676
2325.000000	7.737292
2324.000000	7.684663
2323.000000	7.802744
2322.000000	7.593455
2321.000000	7.532860
2320.000000	7.693375
2319.000000	7.611790
2318.000000	7.444819
2317.000000	7.468937
2316.000000	7.387223
2315.000000	7.546853
2314.000000	7.461731
2313.000000	7.581210
2312.000000	7.209433
2311.000000	7.266710
2310.000000	7.252360
2309.000000	7.265346
2308.000000	7.358770
2307.000000	7.348083
2306.000000	7.479994
2305.000000	7.309049
2304.000000	7.151109
2303.000000	7.060600
2302.000000	7.114659
2301.000000	7.051210
2300.000000	6.802862
2299.000000	6.980775
2298.000000	6.878247
2297.000000	6.575983
2296.000000	6.831903
2295.000000	6.975051
2294.000000	6.931710
2293.000000	6.887074
2292.000000	6.802251
2291.000000	6.838444
2290.000000	6.954274
2289.000000	6.893486
2288.000000	6.977086
2287.000000	7.164015
2286.000000	7.008497
2285.000000	6.958187
2284.000000	6.956672
2283.000000	6.860210
2282.000000	6.803779
2281.000000	6.786159
2280.000000	6.999524
2279.000000	6.979201
2278.000000	6.912973
2277.000000	6.988701
2276.000000	6.910139
2275.000000	6.922455
2274.000000	7.144702
2273.000000	7.080912
2272.000000	7.123556
2271.000000	7.115950
2270.000000	7.138511
2269.000000	7.139132
2268.000000	7.075890
2267.000000	7.230037
2266.000000	7.267517
2265.000000	7.232428
2264.000000	7.219180
2263.000000	7.288221
2262.000000	7.430197
2261.000000	7.497333
2260.000000	7.550476
2259.000000	7.647636
2258.000000	7.752576
2257.000000	7.806157
2256.000000	7.745598
2255.000000	7.749250
2254.000000	7.803054
2253.000000	7.908101
2252.000000	8.035529
2251.000000	8.054262
2250.000000	8.135118
2249.000000	8.234395
2248.000000	8.324113
2247.000000	8.429724
2246.000000	8.533240
2245.000000	8.589362
2244.000000	8.583246
2243.000000	8.648363
2242.000000	8.671315
2241.000000	8.662949
2240.000000	8.823246
2239.000000	8.862878
2238.000000	8.937293
2237.000000	8.968013
2236.000000	8.970607
2235.000000	9.006543
2234.000000	8.943716
2233.000000	8.898630
2232.000000	8.946338
2231.000000	9.040214
2230.000000	9.093573
2229.000000	9.070092
2228.000000	9.096776
2227.000000	9.133901
2226.000000	8.976483
2225.000000	8.990159
2224.000000	9.118553
2223.000000	9.116492
2222.000000	9.055424
2221.000000	9.022253
2220.000000	9.104899
2219.000000	9.113155
2218.000000	9.075063
2217.000000	9.027963
2216.000000	8.928282
2215.000000	8.909175
2214.000000	8.970119
2213.000000	8.954194
2212.000000	8.943411
2211.000000	8.879806
2210.000000	8.813854
2209.000000	8.727745
2208.000000	8.742443
2207.000000	8.804486
2206.000000	8.838327
2205.000000	8.747745
2204.000000	8.730796
2203.000000	8.648738
2202.000000	8.650979
2201.000000	8.668145
2200.000000	8.559742
2199.000000	8.530478
2198.000000	8.530594
2197.000000	8.529983
2196.000000	8.528386
2195.000000	8.418700
2194.000000	8.364798
2193.000000	8.434771
2192.000000	8.281401
2191.000000	8.239020
2190.000000	8.290491
2189.000000	8.317215
2188.000000	8.150934
2187.000000	8.110610
2186.000000	8.159010
2185.000000	8.138026
2184.000000	8.204323
2183.000000	8.380752
2182.000000	8.150233
2181.000000	8.067286
2180.000000	8.216750
2179.000000	8.095947
2178.000000	8.177595
2177.000000	8.038106
2176.000000	8.061688
2175.000000	8.111948
2174.000000	8.120582
2173.000000	8.150846
2172.000000	8.180836
2171.000000	8.224456
2170.000000	8.233440
2169.000000	8.316916
2168.000000	8.353412
2167.000000	8.266884
2166.000000	8.214060
2165.000000	8.367416
2164.000000	8.299685
2163.000000	8.238634
2162.000000	8.404077
2161.000000	8.381237
2160.000000	8.632022
2159.000000	8.589330
2158.000000	8.530879
2157.000000	8.634957
2156.000000	8.700103
2155.000000	8.714445
2154.000000	8.863842
2153.000000	9.019713
2152.000000	8.836260
2151.000000	8.742540
2150.000000	8.992592
2149.000000	8.905229
2148.000000	8.919267
2147.000000	8.991076
2146.000000	9.056484
2145.000000	9.289467
2144.000000	9.210638
2143.000000	9.135499
2142.000000	9.242111
2141.000000	9.288903
2140.000000	9.398059
2139.000000	9.563632
2138.000000	9.458653
2137.000000	9.566002
2136.000000	9.570604
2135.000000	9.729011
2134.000000	9.660804
2133.000000	9.325246
2132.000000	9.529131
2131.000000	9.617919
2130.000000	9.756110
2129.000000	9.612101
2128.000000	9.616967
2127.000000	9.537731
2126.000000	9.702972
2125.000000	9.512908
2124.000000	9.876761
2123.000000	9.798397
2122.000000	9.797142
2121.000000	9.864134
2120.000000	9.690912
2119.000000	9.809850
2118.000000	9.896361
2117.000000	9.750098
2116.000000	9.848969
2115.000000	9.892415
2114.000000	9.850322
2113.000000	9.755425
2112.000000	9.856090
2111.000000	9.807460
2110.000000	9.855645
2109.000000	10.023795
2108.000000	9.866026
2107.000000	9.914489
2106.000000	9.937648
2105.000000	9.882425
2104.000000	9.888587
2103.000000	9.832044
2102.000000	9.865251
2101.000000	9.892219
2100.000000	9.945763
2099.000000	9.884998
2098.000000	9.934153
2097.000000	9.802576
2096.000000	9.883406
2095.000000	9.711512
2094.000000	9.877173
2093.000000	9.783893
2092.000000	9.850065
2091.000000	9.882502
2090.000000	9.812238
2089.000000	9.847500
2088.000000	9.830364
2087.000000	9.859940
2086.000000	9.890348
2085.000000	9.887258
2084.000000	9.797347
2083.000000	9.726539
2082.000000	9.733408
2081.000000	9.673885
2080.000000	9.650162
2079.000000	9.588850
2078.000000	9.588226
2077.000000	9.606361
2076.000000	9.502846
2075.000000	9.442234
2074.000000	9.411527
2073.000000	9.388197
2072.000000	9.378332
2071.000000	9.349859
2070.000000	9.337219
2069.000000	9.228002
2068.000000	9.169422
2067.000000	9.130269
2066.000000	8.987453
2065.000000	8.862909
2064.000000	8.897020
2063.000000	8.940695
2062.000000	8.959566
2061.000000	8.856396
2060.000000	8.724802
2059.000000	8.638893
2058.000000	8.604541
2057.000000	8.612683
2056.000000	8.646481
2055.000000	8.536836
2054.000000	8.465402
2053.000000	8.421624
2052.000000	8.373821
2051.000000	8.388680
2050.000000	8.304141
2049.000000	8.283334
2048.000000	8.241141
2047.000000	8.215182
2046.000000	8.241957
2045.000000	8.252854
2044.000000	8.229561
2043.000000	8.240376
2042.000000	8.256164
2041.000000	8.219142
2040.000000	8.228218
2039.000000	8.223819
2038.000000	8.212050
2037.000000	8.243487
2036.000000	8.230167
2035.000000	8.258540
2034.000000	8.345798
2033.000000	8.415871
2032.000000	8.418919
2031.000000	8.397637
2030.000000	8.456644
2029.000000	8.522535
2028.000000	8.526356
2027.000000	8.533350
2026.000000	8.597709
2025.000000	8.630263
2024.000000	8.665175
2023.000000	8.694465
2022.000000	8.673409
2021.000000	8.661439
2020.000000	8.722555
2019.000000	8.759767
2018.000000	8.723592
2017.000000	8.716175
2016.000000	8.701673
2015.000000	8.732742
2014.000000	8.738586
2013.000000	8.685351
2012.000000	8.657255
2011.000000	8.645883
2010.000000	8.637305
2009.000000	8.611133
2008.000000	8.578910
2007.000000	8.520178
2006.000000	8.488530
2005.000000	8.485190
2004.000000	8.454125
2003.000000	8.392095
2002.000000	8.395434
2001.000000	8.396535
2000.000000	8.329042
1999.000000	8.293391
1998.000000	8.246144
1997.000000	8.204654
1996.000000	8.175788
1995.000000	8.155665
1994.000000	8.104425
1993.000000	8.062550
1992.000000	8.017833
1991.000000	7.938047
1990.000000	7.940820
1989.000000	7.916467
1988.000000	7.874696
1987.000000	7.841756
1986.000000	7.802388
1985.000000	7.779624
1984.000000	7.754877
1983.000000	7.677208
1982.000000	7.625290
1981.000000	7.591724
1980.000000	7.563853
1979.000000	7.573244
1978.000000	7.574673
1977.000000	7.512068
1976.000000	7.468101
1975.000000	7.429854
1974.000000	7.384244
1973.000000	7.353186
1972.000000	7.314791
1971.000000	7.286020
1970.000000	7.294795
1969.000000	7.274478
1968.000000	7.201855
1967.000000	7.165284
1966.000000	7.174796
1965.000000	7.162166
1964.000000	7.097921
1963.000000	7.086073
1962.000000	7.051664
1961.000000	7.029446
1960.000000	7.009417
1959.000000	6.974503
1958.000000	6.980412
1957.000000	6.912931
1956.000000	6.881490
1955.000000	6.878434
1954.000000	6.886370
1953.000000	6.846608
1952.000000	6.841997
1951.000000	6.825790
1950.000000	6.786403
1949.000000	6.774078
1948.000000	6.768974
1947.000000	6.763144
1946.000000	6.781330
1945.000000	6.782060
1944.000000	6.782302
1943.000000	6.813263
1942.000000	6.814770
1941.000000	6.840342
1940.000000	6.865983
1939.000000	6.907987
1938.000000	6.924859
1937.000000	6.977889
1936.000000	6.986191
1935.000000	7.011832
1934.000000	6.997806
1933.000000	7.111555
1932.000000	7.101881
1931.000000	7.133064
1930.000000	7.308961
1929.000000	7.303407
1928.000000	7.329277
1927.000000	7.313005
1926.000000	7.372427
1925.000000	7.443682
1924.000000	7.542828
1923.000000	7.628375
1922.000000	7.723476
1921.000000	7.872907
1920.000000	7.985426
1919.000000	8.048730
1918.000000	8.091815
1917.000000	8.230832
1916.000000	8.218298
1915.000000	8.447322
1914.000000	8.532256
1913.000000	8.724758
1912.000000	8.878830
1911.000000	8.958905
1910.000000	9.087845
1909.000000	9.183985
1908.000000	9.293357
1907.000000	9.447606
1906.000000	9.529218
1905.000000	9.745383
1904.000000	9.840171
1903.000000	10.085603
1902.000000	10.238244
1901.000000	10.408056
1900.000000	10.520843
1899.000000	10.709761
1898.000000	10.919224
1897.000000	11.031986
1896.000000	11.138314
1895.000000	11.317806
1894.000000	11.456710
1893.000000	11.635805
1892.000000	11.806957
1891.000000	11.922861
1890.000000	12.062821
1889.000000	12.227329
1888.000000	12.298278
1887.000000	12.495434
1886.000000	12.654480
1885.000000	12.756204
1884.000000	12.887878
1883.000000	12.987165
1882.000000	13.079177
1881.000000	13.192816
1880.000000	13.278563
1879.000000	13.383412
1878.000000	13.490293
1877.000000	13.529209
1876.000000	13.612943
1875.000000	13.719652
1874.000000	13.760503
1873.000000	13.888472
1872.000000	13.890849
1871.000000	13.947416
1870.000000	13.996415
1869.000000	14.048349
1868.000000	14.103320
1867.000000	14.118066
1866.000000	14.121669
1865.000000	14.165316
1864.000000	14.159916
1863.000000	14.123210
1862.000000	14.141720
1861.000000	14.190723
1860.000000	14.193329
1859.000000	14.163991
1858.000000	14.175518
1857.000000	14.160023
1856.000000	14.182561
1855.000000	14.213921
1854.000000	14.253941
1853.000000	14.221727
1852.000000	14.225900
1851.000000	14.231563
1850.000000	14.230969
1849.000000	14.236517
1848.000000	14.217108
1847.000000	14.238745
1846.000000	14.241283
1845.000000	14.240069
1844.000000	14.226996
1843.000000	14.198865
1842.000000	14.182463
1841.000000	14.188222
1840.000000	14.170254
1839.000000	14.171330
1838.000000	14.137621
1837.000000	14.101677
1836.000000	14.072924
1835.000000	14.066623
1834.000000	14.045629
1833.000000	14.014242
1832.000000	14.001691
1831.000000	13.972265
1830.000000	13.952270
1829.000000	13.929652
1828.000000	13.913354
1827.000000	13.892450
1826.000000	13.873636
1825.000000	13.870424
1824.000000	13.852587
1823.000000	13.835595
1822.000000	13.806398
1821.000000	13.774395
1820.000000	13.781295
1819.000000	13.762102
1818.000000	13.754268
1817.000000	13.747305
1816.000000	13.718931
1815.000000	13.698501
1814.000000	13.689583
1813.000000	13.693120
1812.000000	13.669392
1811.000000	13.670893
1810.000000	13.676842
1809.000000	13.661865
1808.000000	13.645997
1807.000000	13.617305
1806.000000	13.605123
1805.000000	13.602901
1804.000000	13.582035
1803.000000	13.572837
1802.000000	13.577293
1801.000000	13.559553
1800.000000	13.547889
1799.000000	13.544548
1798.000000	13.539859
1797.000000	13.522060
1796.000000	13.519718
1795.000000	13.533666
1794.000000	13.525749
1793.000000	13.525868
1792.000000	13.516238
1791.000000	13.521614
1790.000000	13.518145
1789.000000	13.516029
1788.000000	13.518473
1787.000000	13.505260
1786.000000	13.486444
1785.000000	13.487788
1784.000000	13.497650
1783.000000	13.484810
1782.000000	13.467993
1781.000000	13.454591
1780.000000	13.464120
1779.000000	13.471278
1778.000000	13.441660
1777.000000	13.400558
1776.000000	13.376228
1775.000000	13.368516
1774.000000	13.350575
1773.000000	13.319211
1772.000000	13.305049
1771.000000	13.294591
1770.000000	13.266571
1769.000000	13.217009
1768.000000	13.199093
1767.000000	13.181439
1766.000000	13.165791
1765.000000	13.152995
1764.000000	13.137128
1763.000000	13.101633
1762.000000	13.085028
1761.000000	13.061857
1760.000000	13.043262
1759.000000	13.014097
1758.000000	13.011074
1757.000000	12.995558
1756.000000	12.994789
1755.000000	12.975966
1754.000000	12.954950
1753.000000	12.896757
1752.000000	12.887012
1751.000000	12.876219
1750.000000	12.862083
1749.000000	12.850319
1748.000000	12.828613
1747.000000	12.780928
1746.000000	12.744457
1745.000000	12.723224
1744.000000	12.692107
1743.000000	12.702604
1742.000000	12.640252
1741.000000	12.632051
1740.000000	12.615799
1739.000000	12.592933
1738.000000	12.583765
1737.000000	12.568564
1736.000000	12.549441
1735.000000	12.540739
1734.000000	12.523652
1733.000000	12.534132
1732.000000	12.535865
1731.000000	12.519357
1730.000000	12.509927
1729.000000	12.501232
1728.000000	12.527649
1727.000000	12.528067
1726.000000	12.575464
1725.000000	12.593440
1724.000000	12.608462
1723.000000	12.636444
1722.000000	12.652920
1721.000000	12.683824
1720.000000	12.704729
1719.000000	12.737123
1718.000000	12.793528
1717.000000	12.815979
1716.000000	12.824370
1715.000000	12.845600
1714.000000	12.876534
1713.000000	12.893340
1712.000000	12.917088
1711.000000	12.968160
1710.000000	12.947288
1709.000000	12.993136
1708.000000	13.002572
1707.000000	13.029762
1706.000000	13.044521
1705.000000	13.032420
1704.000000	13.048964
1703.000000	13.056854
1702.000000	13.060501
1701.000000	13.071561
1700.000000	13.089093
1699.000000	13.074393
1698.000000	13.089442
1697.000000	13.107508
1696.000000	13.140086
1695.000000	13.132898
1694.000000	13.164249
1693.000000	13.164974
1692.000000	13.214877
1691.000000	13.205857
1690.000000	13.218553
1689.000000	13.294177
1688.000000	13.308458
1687.000000	13.339832
1686.000000	13.382052
1685.000000	13.413038
1684.000000	13.446624
1683.000000	13.505057
1682.000000	13.559470
1681.000000	13.613311
1680.000000	13.661773
1679.000000	13.717714
1678.000000	13.774861
1677.000000	13.763862
1676.000000	13.843183
1675.000000	13.885938
1674.000000	13.937169
1673.000000	13.974712
1672.000000	14.024234
1671.000000	14.074027
1670.000000	14.099361
1669.000000	14.116535
1668.000000	14.152208
1667.000000	14.214262
1666.000000	14.193616
1665.000000	14.205933
1664.000000	14.238457
1663.000000	14.249612
1662.000000	14.264089
1661.000000	14.278792
1660.000000	14.322367
1659.000000	14.342524
1658.000000	14.363695
1657.000000	14.395835
1656.000000	14.421127
1655.000000	14.394928
1654.000000	14.410956
1653.000000	14.425631
1652.000000	14.424075
1651.000000	14.421701
1650.000000	14.426444
1649.000000	14.413517
1648.000000	14.410448
1647.000000	14.412905
1646.000000	14.409770
1645.000000	14.383302
1644.000000	14.368148
1643.000000	14.360125
1642.000000	14.362558
1641.000000	14.344773
1640.000000	14.335617
1639.000000	14.324240
1638.000000	14.328672
1637.000000	14.300356
1636.000000	14.281318
1635.000000	14.276557
1634.000000	14.262741
1633.000000	14.254657
1632.000000	14.239184
1631.000000	14.221853
1630.000000	14.205108
1629.000000	14.192491
1628.000000	14.179703
1627.000000	14.179570
1626.000000	14.159532
1625.000000	14.132068
1624.000000	14.113337
1623.000000	14.112880
1622.000000	14.098096
1621.000000	14.077038
1620.000000	14.061902
1619.000000	14.037144
1618.000000	14.027066
1617.000000	14.013959
1616.000000	14.002639
1615.000000	13.987608
1614.000000	13.968918
1613.000000	13.944207
1612.000000	13.924664
1611.000000	13.904803
1610.000000	13.899238
1609.000000	13.883830
1608.000000	13.865645
1607.000000	13.843652
1606.000000	13.821231
1605.000000	13.806546
1604.000000	13.780595
1603.000000	13.760068
1602.000000	13.754419
1601.000000	13.731617
1600.000000	13.707084
1599.000000	13.691416
1598.000000	13.668321
1597.000000	13.653185
1596.000000	13.650511
1595.000000	13.627572
1594.000000	13.607501
1593.000000	13.606146
1592.000000	13.597032
1591.000000	13.583484
1590.000000	13.557637
1589.000000	13.531189
1588.000000	13.513684
1587.000000	13.511339
1586.000000	13.505203
1585.000000	13.486741
1584.000000	13.474275
1583.000000	13.459810
1582.000000	13.450541
1581.000000	13.431123
1580.000000	13.409568
1579.000000	13.408815
1578.000000	13.407649
1577.000000	13.391443
1576.000000	13.366549
1575.000000	13.335500
1574.000000	13.319358
1573.000000	13.312920
1572.000000	13.306185
1571.000000	13.282233
1570.000000	13.269613
1569.000000	13.266442
1568.000000	13.261392
1567.000000	13.244400
1566.000000	13.226906
1565.000000	13.215461
1564.000000	13.200219
1563.000000	13.202190
1562.000000	13.190472
1561.000000	13.174488
1560.000000	13.161906
1559.000000	13.163304
1558.000000	13.146051
1557.000000	13.115430
1556.000000	13.105202
1555.000000	13.112185
1554.000000	13.096809
1553.000000	13.085722
1552.000000	13.068991
1551.000000	13.049023
1550.000000	13.036715
1549.000000	13.021053
1548.000000	13.011710
1547.000000	12.983981
1546.000000	12.966102
1545.000000	12.942087
1544.000000	12.900222
1543.000000	12.886272
1542.000000	12.849669
1541.000000	12.824655
1540.000000	12.809111
1539.000000	12.783696
1538.000000	12.738194
1537.000000	12.704160
1536.000000	12.675883
1535.000000	12.633309
1534.000000	12.616560
1533.000000	12.581851
1532.000000	12.547008
1531.000000	12.534713
1530.000000	12.493158
1529.000000	12.487382
1528.000000	12.498121
1527.000000	12.546359
1526.000000	12.571727
1525.000000	12.560386
1524.000000	12.508316
1523.000000	12.449158
1522.000000	12.396984
1521.000000	12.364612
1520.000000	12.361245
1519.000000	12.355705
1518.000000	12.322795
1517.000000	12.293304
1516.000000	12.295420
1515.000000	12.296750
1514.000000	12.261226
1513.000000	12.243640
1512.000000	12.210425
1511.000000	12.225424
1510.000000	12.228677
1509.000000	12.202978
1508.000000	12.178149
1507.000000	12.175086
1506.000000	12.156471
1505.000000	12.150914
1504.000000	12.126743
1503.000000	12.135128
1502.000000	12.149381
1501.000000	12.146123
1500.000000	12.147503
1499.000000	12.141437
1498.000000	12.135877
1497.000000	12.146086
1496.000000	12.130999
1495.000000	12.130561
1494.000000	12.113875
1493.000000	12.144203
1492.000000	12.138184
1491.000000	12.145478
1490.000000	12.146546
1489.000000	12.153042
1488.000000	12.161359
1487.000000	12.180958
1486.000000	12.166453
1485.000000	12.178376
1484.000000	12.208274
1483.000000	12.228864
1482.000000	12.223315
1481.000000	12.247154
1480.000000	12.257620
1479.000000	12.266513
1478.000000	12.263138
1477.000000	12.302675
1476.000000	12.311227
1475.000000	12.309389
1474.000000	12.308219
1473.000000	12.322486
1472.000000	12.325377
1471.000000	12.340702
1470.000000	12.356164
1469.000000	12.355074
1468.000000	12.353332
1467.000000	12.370318
1466.000000	12.361079
1465.000000	12.419979
1464.000000	12.434262
1463.000000	12.435556
1462.000000	12.427948
1461.000000	12.437102
1460.000000	12.465884
1459.000000	12.476805
1458.000000	12.461775
1457.000000	12.474622
1456.000000	12.503058
1455.000000	12.531993
1454.000000	12.533031
1453.000000	12.516293
1452.000000	12.526709
1451.000000	12.522661
1450.000000	12.567537
1449.000000	12.584745
1448.000000	12.588493
1447.000000	12.590087
1446.000000	12.591970
1445.000000	12.601693
1444.000000	12.658622
1443.000000	12.681699
1442.000000	12.687973
1441.000000	12.686088
1440.000000	12.689889
1439.000000	12.719324
1438.000000	12.743579
1437.000000	12.760654
1436.000000	12.780695
1435.000000	12.803001
1434.000000	12.850407
1433.000000	12.907362
1432.000000	12.931966
1431.000000	12.935110
1430.000000	12.946353
1429.000000	12.979908
1428.000000	13.008555
1427.000000	13.027805
1426.000000	13.074596
1425.000000	13.118053
1424.000000	13.150873
1423.000000	13.174925
1422.000000	13.197267
1421.000000	13.237860
1420.000000	13.299418
1419.000000	13.348195
1418.000000	13.378353
1417.000000	13.410913
1416.000000	13.457551
1415.000000	13.509792
1414.000000	13.555166
1413.000000	13.611092
1412.000000	13.648235
1411.000000	13.704880
1410.000000	13.768835
1409.000000	13.820819
1408.000000	13.863553
1407.000000	13.886928
1406.000000	13.927775
1405.000000	13.982561
1404.000000	14.043649
1403.000000	14.096303
1402.000000	14.135392
1401.000000	14.171639
1400.000000	14.218446
1399.000000	14.256147
1398.000000	14.299319
1397.000000	14.338629
1396.000000	14.363710
1395.000000	14.403224
1394.000000	14.435916
1393.000000	14.470509
1392.000000	14.503885
1391.000000	14.526116
1390.000000	14.550166
1389.000000	14.581299
1388.000000	14.601376
1387.000000	14.615459
1386.000000	14.647125
1385.000000	14.702027
1384.000000	14.731971
1383.000000	14.732763
1382.000000	14.752080
1381.000000	14.788747
1380.000000	14.787021
1379.000000	14.780703
1378.000000	14.802765
1377.000000	14.819998
1376.000000	14.816539
1375.000000	14.826449
1374.000000	14.859548
1373.000000	14.860112
1372.000000	14.850482
1371.000000	14.838691
1370.000000	14.834533
1369.000000	14.849769
1368.000000	14.867107
1367.000000	14.900093
1366.000000	14.933673
1365.000000	14.932584
1364.000000	14.934017
1363.000000	14.936455
1362.000000	14.933413
1361.000000	14.930325
1360.000000	14.939687
1359.000000	14.948022
1358.000000	14.947756
1357.000000	14.959480
1356.000000	14.984484
1355.000000	14.987729
1354.000000	14.968114
1353.000000	14.964524
1352.000000	15.001965
1351.000000	15.017030
1350.000000	15.012133
1349.000000	14.996921
1348.000000	14.983426
1347.000000	14.973944
1346.000000	14.991668
1345.000000	15.014663
1344.000000	15.030805
1343.000000	15.023168
1342.000000	15.017475
1341.000000	15.044182
1340.000000	15.054803
1339.000000	15.061653
1338.000000	15.062669
1337.000000	15.053369
1336.000000	15.051186
1335.000000	15.054273
1334.000000	15.057862
1333.000000	15.071785
1332.000000	15.088754
1331.000000	15.090770
1330.000000	15.088745
1329.000000	15.086299
1328.000000	15.080583
1327.000000	15.087891
1326.000000	15.081666
1325.000000	15.066951
1324.000000	15.087568
1323.000000	15.074947
1322.000000	15.046419
1321.000000	15.060503
1320.000000	15.058929
1319.000000	15.053882
1318.000000	15.068901
1317.000000	15.070560
1316.000000	15.071063
1315.000000	15.067351
1314.000000	15.042941
1313.000000	15.011101
1312.000000	15.023748
1311.000000	15.028348
1310.000000	15.019328
1309.000000	15.022950
1308.000000	15.023690
1307.000000	15.020498
1306.000000	14.987833
1305.000000	15.006415
1304.000000	15.013740
1303.000000	14.999225
1302.000000	14.973090
1301.000000	14.959956
1300.000000	14.949157
1299.000000	14.944017
1298.000000	14.935214
1297.000000	14.935905
1296.000000	14.947757
1295.000000	14.939609
1294.000000	14.939308
1293.000000	14.940970
1292.000000	14.938865
1291.000000	14.945211
1290.000000	14.932768
1289.000000	14.926661
1288.000000	14.937536
1287.000000	14.907660
1286.000000	14.902714
1285.000000	14.895655
1284.000000	14.871739
1283.000000	14.856981
1282.000000	14.852642
1281.000000	14.882057
1280.000000	14.872125
1279.000000	14.884789
1278.000000	14.872764
1277.000000	14.860937
1276.000000	14.879982
1275.000000	14.859355
1274.000000	14.857082
1273.000000	14.865200
1272.000000	14.846977
1271.000000	14.846541
1270.000000	14.833644
1269.000000	14.820347
1268.000000	14.808271
1267.000000	14.813238
1266.000000	14.807184
1265.000000	14.818623
1264.000000	14.847829
1263.000000	14.844427
1262.000000	14.820509
1261.000000	14.798115
1260.000000	14.796813
1259.000000	14.833144
1258.000000	14.834615
1257.000000	14.810920
1256.000000	14.790934
1255.000000	14.770346
1254.000000	14.767861
1253.000000	14.758386
1252.000000	14.765944
1251.000000	14.757036
1250.000000	14.739930
1249.000000	14.751041
1248.000000	14.745967
1247.000000	14.744509
1246.000000	14.735354
1245.000000	14.738252
1244.000000	14.741320
1243.000000	14.736858
1242.000000	14.731275
1241.000000	14.716922
1240.000000	14.683933
1239.000000	14.677403
1238.000000	14.683363
1237.000000	14.679174
1236.000000	14.649747
1235.000000	14.633062
1234.000000	14.639127
1233.000000	14.637663
1232.000000	14.614743
1231.000000	14.604977
1230.000000	14.604633
1229.000000	14.602774
1228.000000	14.595934
1227.000000	14.568658
1226.000000	14.550292
1225.000000	14.546804
1224.000000	14.545223
1223.000000	14.547079
1222.000000	14.541793
1221.000000	14.517797
1220.000000	14.515019
1219.000000	14.502948
1218.000000	14.490395
1217.000000	14.489402
1216.000000	14.472902
1215.000000	14.452709
1214.000000	14.453350
1213.000000	14.458575
1212.000000	14.434377
1211.000000	14.423355
1210.000000	14.431072
1209.000000	14.439532
1208.000000	14.402264
1207.000000	14.390652
1206.000000	14.389392
1205.000000	14.351478
1204.000000	14.332866
1203.000000	14.336703
1202.000000	14.339166
1201.000000	14.327679
1200.000000	14.326922
1199.000000	14.323586
1198.000000	14.294358
1197.000000	14.256329
1196.000000	14.232085
1195.000000	14.225363
1194.000000	14.222051
1193.000000	14.214541
1192.000000	14.205867
1191.000000	14.201566
1190.000000	14.186203
1189.000000	14.155488
1188.000000	14.144529
1187.000000	14.150818
1186.000000	14.140624
1185.000000	14.137285
1184.000000	14.125993
1183.000000	14.129524
1182.000000	14.145378
1181.000000	14.145987
1180.000000	14.165362
1179.000000	14.190697
1178.000000	14.195000
1177.000000	14.199652
1176.000000	14.212350
1175.000000	14.222405
1174.000000	14.216941
1173.000000	14.201231
1172.000000	14.218004
1171.000000	14.225132
1170.000000	14.243395
1169.000000	14.263851
1168.000000	14.271878
1167.000000	14.283845
1166.000000	14.297147
1165.000000	14.311264
1164.000000	14.325610
1163.000000	14.336993
1162.000000	14.346232
1161.000000	14.359841
1160.000000	14.376866
1159.000000	14.388575
1158.000000	14.407435
1157.000000	14.421819
1156.000000	14.430326
1155.000000	14.441641
1154.000000	14.441486
1153.000000	14.432365
1152.000000	14.451615
1151.000000	14.471870
1150.000000	14.471527
1149.000000	14.470791
1148.000000	14.450291
1147.000000	14.440307
1146.000000	14.454329
1145.000000	14.466021
1144.000000	14.470737
1143.000000	14.479359
1142.000000	14.508128
1141.000000	14.519575
1140.000000	14.512192
1139.000000	14.516508
1138.000000	14.530841
1137.000000	14.538260
1136.000000	14.543705
1135.000000	14.554669
1134.000000	14.552369
1133.000000	14.558884
1132.000000	14.563962
1131.000000	14.543901
1130.000000	14.537600
1129.000000	14.536868
1128.000000	14.552907
1127.000000	14.565442
1126.000000	14.565735
1125.000000	14.561853
1124.000000	14.548740
1123.000000	14.557157
1122.000000	14.571837
1121.000000	14.571110
1120.000000	14.553961
1119.000000	14.547436
1118.000000	14.551341
1117.000000	14.546117
1116.000000	14.557749
1115.000000	14.558257
1114.000000	14.558831
1113.000000	14.553351
1112.000000	14.546776
1111.000000	14.521107
1110.000000	14.510867
1109.000000	14.501331
1108.000000	14.510011
1107.000000	14.503216
1106.000000	14.507297
1105.000000	14.521023
1104.000000	14.532219
1103.000000	14.531825
1102.000000	14.525454
1101.000000	14.536261
1100.000000	14.526051
1099.000000	14.483213
1098.000000	14.471221
1097.000000	14.476841
1096.000000	14.487196
1095.000000	14.493822
1094.000000	14.490543
1093.000000	14.499919
1092.000000	14.473571
1091.000000	14.465305
1090.000000	14.459866
1089.000000	14.464980
1088.000000	14.463343
1087.000000	14.468000
1086.000000	14.473213
1085.000000	14.460980
1084.000000	14.437783
1083.000000	14.427674
1082.000000	14.442896
1081.000000	14.446267
1080.000000	14.444016
1079.000000	14.442970
1078.000000	14.427041
1077.000000	14.429120
1076.000000	14.420946
1075.000000	14.418013
1074.000000	14.418428
1073.000000	14.426885
1072.000000	14.424499
1071.000000	14.374224
1070.000000	14.378333
1069.000000	14.381233
1068.000000	14.382995
1067.000000	14.401326
1066.000000	14.385293
1065.000000	14.385715
1064.000000	14.399864
1063.000000	14.351796
1062.000000	14.350512
1061.000000	14.353518
1060.000000	14.373439
1059.000000	14.352160
1058.000000	14.367093
1057.000000	14.360538
1056.000000	14.327351
1055.000000	14.329027
1054.000000	14.337145
1053.000000	14.342639
1052.000000	14.348720
1051.000000	14.328061
1050.000000	14.315395
1049.000000	14.331342
1048.000000	14.315258
1047.000000	14.345003
1046.000000	14.318524
1045.000000	14.306476
1044.000000	14.312307
1043.000000	14.304872
1042.000000	14.285277
1041.000000	14.272067
1040.000000	14.290033
1039.000000	14.301428
1038.000000	14.303088
1037.000000	14.275226
1036.000000	14.265191
1035.000000	14.291224
1034.000000	14.276685
1033.000000	14.271800
1032.000000	14.257108
1031.000000	14.276002
1030.000000	14.278763
1029.000000	14.258258
1028.000000	14.264689
1027.000000	14.267060
1026.000000	14.269859
1025.000000	14.252586
1024.000000	14.249865
1023.000000	14.248745
1022.000000	14.228458
1021.000000	14.239980
1020.000000	14.247952
1019.000000	14.261085
1018.000000	14.234408
1017.000000	14.241643
1016.000000	14.248825
1015.000000	14.224917
1014.000000	14.223541
1013.000000	14.235219
1012.000000	14.240757
1011.000000	14.237721
1010.000000	14.233924
1009.000000	14.191881
1008.000000	14.205116
1007.000000	14.237498
1006.000000	14.234423
1005.000000	14.211227
1004.000000	14.185316
1003.000000	14.200136
1002.000000	14.215641
1001.000000	14.235728
1000.000000	14.235478
999.000000	14.206628
998.000000	14.205192
997.000000	14.202083
996.000000	14.212430
995.000000	14.197196
994.000000	14.199480
993.000000	14.205599
992.000000	14.196497
991.000000	14.200723
990.000000	14.211578
989.000000	14.220111
988.000000	14.213661
987.000000	14.208226
986.000000	14.203813
985.000000	14.217023
984.000000	14.237856
983.000000	14.236956
982.000000	14.245731
981.000000	14.256075
980.000000	14.268337
979.000000	14.260444
978.000000	14.263253
977.000000	14.257122
976.000000	14.254349
975.000000	14.255497
974.000000	14.249071
973.000000	14.256140
972.000000	14.260807
971.000000	14.256455
970.000000	14.257147
969.000000	14.249622
968.000000	14.245530
967.000000	14.236427
966.000000	14.232149
965.000000	14.237624
964.000000	14.232707
963.000000	14.230558
962.000000	14.221176
961.000000	14.212993
960.000000	14.202814
959.000000	14.198349
958.000000	14.194244
957.000000	14.194911
956.000000	14.193616
955.000000	14.180529
954.000000	14.170720
953.000000	14.178160
952.000000	14.178004
951.000000	14.177090
950.000000	14.173528
949.000000	14.164576
948.000000	14.166867
947.000000	14.150752
946.000000	14.144975
945.000000	14.145922
944.000000	14.119458
943.000000	14.119153
942.000000	14.127142
941.000000	14.120265
940.000000	14.103976
939.000000	14.091503
938.000000	14.080384
937.000000	14.068888
936.000000	14.073833
935.000000	14.077065
934.000000	14.068747
933.000000	14.064191
932.000000	14.055167
931.000000	14.034761
930.000000	14.036301
929.000000	14.032105
928.000000	14.021447
927.000000	14.010039
926.000000	14.006590
925.000000	14.009882
924.000000	13.998732
923.000000	13.987427
922.000000	13.972325
921.000000	13.970858
920.000000	13.981786
919.000000	14.012340
918.000000	14.003037
917.000000	13.992790
916.000000	13.961589
915.000000	13.976164
914.000000	13.965133
913.000000	13.933272
912.000000	13.929335
911.000000	13.901661
910.000000	13.909048
909.000000	13.902908
908.000000	13.892970
907.000000	13.881670
906.000000	13.881337
905.000000	13.916159
904.000000	13.929964
903.000000	13.914289
902.000000	13.866128
901.000000	13.880071
900.000000	13.845721
899.000000	13.851508
898.000000	13.851339
897.000000	13.837202
896.000000	13.842907
895.000000	13.834398
894.000000	13.833225
893.000000	13.839756
892.000000	13.842793
891.000000	13.864714
890.000000	13.833387
889.000000	13.797183
888.000000	13.810921
887.000000	13.749455
886.000000	13.790758
885.000000	13.779800
884.000000	13.738235
883.000000	13.753821
882.000000	13.753069
881.000000	13.750132
880.000000	13.743851
879.000000	13.698414
878.000000	13.726109
877.000000	13.711571
876.000000	13.691009
875.000000	13.718917
874.000000	13.664148
873.000000	13.718791
872.000000	13.689527
871.000000	13.654534
870.000000	13.651604
869.000000	13.643218
868.000000	13.686522
867.000000	13.606243
866.000000	13.606807
865.000000	13.513473
864.000000	13.539703
863.000000	13.596991
862.000000	13.616660
861.000000	13.648969
860.000000	13.528136
859.000000	13.745392
858.000000	13.785646
857.000000	13.759347
856.000000	13.835790
855.000000	13.773342
854.000000	13.833528
853.000000	13.699078
852.000000	13.758493
851.000000	13.687146
850.000000	13.835379
849.000000	13.780083
848.000000	13.762993
847.000000	13.708721
846.000000	13.728116
845.000000	13.681713
844.000000	13.564216
843.000000	13.676918
842.000000	13.610756
841.000000	13.644256
840.000000	13.580527
839.000000	13.546771
838.000000	13.573411
837.000000	13.496101
836.000000	13.508378
835.000000	13.531329
834.000000	13.540352
833.000000	13.458470
832.000000	13.394666
831.000000	13.451198
830.000000	13.461584
829.000000	13.398068
828.000000	13.379397
827.000000	13.457841
826.000000	13.419858
825.000000	13.366863
824.000000	13.327606
823.000000	13.321438
822.000000	13.312860
821.000000	13.251077
820.000000	13.271512
819.000000	13.248869
818.000000	13.232249
817.000000	13.222117
816.000000	13.225848
815.000000	13.211426
814.000000	13.168100
813.000000	13.171387
812.000000	13.128394
811.000000	13.177929
810.000000	13.109664
809.000000	13.172906
808.000000	13.180392
807.000000	13.123286
806.000000	13.120864
805.000000	13.129340
804.000000	13.085084
803.000000	13.029294
802.000000	12.983689
801.000000	12.991169
800.000000	13.017015
799.000000	13.001567
798.000000	12.956625
797.000000	12.936075
796.000000	12.938075
795.000000	12.886105
794.000000	12.908533
793.000000	12.882132
792.000000	12.855558
791.000000	12.826286
790.000000	12.830398
789.000000	12.804841
788.000000	12.799924
787.000000	12.807743
786.000000	12.777088
785.000000	12.730531
784.000000	12.722660
783.000000	12.720459
782.000000	12.689194
781.000000	12.679693
780.000000	12.667806
779.000000	12.643001
778.000000	12.614128
777.000000	12.613020
776.000000	12.598614
775.000000	12.572096
774.000000	12.545960
773.000000	12.537744
772.000000	12.520925
771.000000	12.495184
770.000000	12.465350
769.000000	12.454953
768.000000	12.440483
767.000000	12.446523
766.000000	12.424745
765.000000	12.386727
764.000000	12.351374
763.000000	12.350383
762.000000	12.318471
761.000000	12.290284
760.000000	12.289337
759.000000	12.271363
758.000000	12.222627
757.000000	12.211150
756.000000	12.211247
755.000000	12.178999
754.000000	12.139870
753.000000	12.121775
752.000000	12.085787
751.000000	12.094824
750.000000	12.083326
749.000000	12.052991
748.000000	12.022849
747.000000	12.013517
746.000000	11.984836
745.000000	11.962242
744.000000	11.944835
743.000000	11.926218
742.000000	11.902672
741.000000	11.880864
740.000000	11.871274
739.000000	11.845712
738.000000	11.801256
737.000000	11.784146
736.000000	11.781691
735.000000	11.744704
734.000000	11.713487
733.000000	11.694973
732.000000	11.676740
731.000000	11.653116
730.000000	11.639474
729.000000	11.620141
728.000000	11.583768
727.000000	11.553971
726.000000	11.537404
725.000000	11.538717
724.000000	11.505627
723.000000	11.463013
722.000000	11.443455
721.000000	11.419663
720.000000	11.382329
719.000000	11.356552
718.000000	11.343589
717.000000	11.323260
716.000000	11.301994
715.000000	11.283403
714.000000	11.252420
713.000000	11.219951
712.000000	11.194391
711.000000	11.170713
710.000000	11.150607
709.000000	11.120710
708.000000	11.071068
707.000000	11.050805
706.000000	11.030509
705.000000	10.998097
704.000000	10.960902
703.000000	10.935323
702.000000	10.922432
701.000000	10.903123
700.000000	10.870792
699.000000	10.842016
698.000000	10.816614
697.000000	10.789790
696.000000	10.770939
695.000000	10.726606
694.000000	10.703467
693.000000	10.676491
692.000000	10.640004
691.000000	10.616553
690.000000	10.585261
689.000000	10.522085
688.000000	10.477322
687.000000	10.456314
686.000000	10.428579
685.000000	10.414616
684.000000	10.380510
683.000000	10.345436
682.000000	10.318474
681.000000	10.292822
680.000000	10.263664
679.000000	10.220810
678.000000	10.190042
677.000000	10.157341
676.000000	10.124056
675.000000	10.096957
674.000000	10.071807
673.000000	10.046413
672.000000	10.014427
671.000000	9.985825
670.000000	9.939752
669.000000	9.922044
668.000000	9.889058
667.000000	9.858355
666.000000	9.838989
665.000000	9.803334
664.000000	9.759371
663.000000	9.728808
662.000000	9.700741
661.000000	9.666614
660.000000	9.631159
659.000000	9.595538
658.000000	9.559133
657.000000	9.530126
656.000000	9.507806
655.000000	9.472985
654.000000	9.440369
653.000000	9.401488
652.000000	9.354601
651.000000	9.341647
650.000000	9.312728
649.000000	9.274472
648.000000	9.234496
647.000000	9.202271
646.000000	9.167924
645.000000	9.125497
644.000000	9.098311
643.000000	9.060095
642.000000	9.027126
641.000000	8.998559
640.000000	8.960519
639.000000	8.917833
638.000000	8.875955
637.000000	8.850166
636.000000	8.824246
635.000000	8.799526
634.000000	8.757182
633.000000	8.717758
632.000000	8.683301
631.000000	8.657281
630.000000	8.609044
629.000000	8.573464
628.000000	8.526987
627.000000	8.498469
626.000000	8.462523
625.000000	8.416439
624.000000	8.383383
623.000000	8.355831
622.000000	8.302229
621.000000	8.278823
620.000000	8.247540
619.000000	8.210257
618.000000	8.173185
617.000000	8.139076
616.000000	8.093158
615.000000	8.053981
614.000000	8.013145
613.000000	7.975269
612.000000	7.922089
611.000000	7.902878
610.000000	7.868079
609.000000	7.833199
608.000000	7.793968
607.000000	7.751307
606.000000	7.720066
605.000000	7.671200
604.000000	7.626750
603.000000	7.589226
602.000000	7.553958
601.000000	7.517981
600.000000	7.477593
599.000000	7.444908
598.000000	7.399212
597.000000	7.374293
596.000000	7.325699
595.000000	7.278547
594.000000	7.238941
593.000000	7.208455
592.000000	7.166077
591.000000	7.125678
590.000000	7.080950
589.000000	7.050816
588.000000	7.003668
587.000000	6.957550
586.000000	6.927798
585.000000	6.892695
584.000000	6.840948
583.000000	6.802967
582.000000	6.763438
581.000000	6.723088
580.000000	6.682938
579.000000	6.641184
578.000000	6.604154
577.000000	6.565490
576.000000	6.536529
575.000000	6.484070
574.000000	6.431287
573.000000	6.398567
572.000000	6.353657
571.000000	6.313686
570.000000	6.271677
569.000000	6.232382
568.000000	6.173776
567.000000	6.154557
566.000000	6.107188
565.000000	6.062748
564.000000	6.016247
563.000000	5.973291
562.000000	5.930725
561.000000	5.933085
560.000000	5.886106
559.000000	5.845946
558.000000	5.804384
557.000000	5.757763
556.000000	5.722132
555.000000	5.673402
554.000000	5.629588
553.000000	5.588744
552.000000	5.541038
551.000000	5.494327
550.000000	5.463131
549.000000	5.418587
548.000000	5.376729
547.000000	5.339429
546.000000	5.291318
545.000000	5.250842
544.000000	5.208965
543.000000	5.160879
542.000000	5.111128
541.000000	5.072354
540.000000	5.025073
539.000000	4.981929
538.000000	4.949733
537.000000	4.914208
536.000000	4.854323
535.000000	4.818928
534.000000	4.778293
533.000000	4.727100
532.000000	4.684524
531.000000	4.642330
530.000000	4.587927
529.000000	4.551545
528.000000	4.508750
527.000000	4.472264
526.000000	4.431460
525.000000	4.382952
524.000000	4.340593
523.000000	4.302445
522.000000	4.248131
521.000000	4.201960
520.000000	4.162270
519.000000	4.122624
518.000000	4.071372
517.000000	4.038839
516.000000	3.992727
515.000000	3.944400
514.000000	3.909974
513.000000	3.864817
512.000000	3.820553
511.000000	3.778494
510.000000	3.740872
509.000000	3.702308
508.000000	3.654050
507.000000	3.613636
506.000000	3.570898
505.000000	3.529723
504.000000	3.487323
503.000000	3.450462
502.000000	3.407802
501.000000	3.367969
500.000000	3.332840
499.000000	3.287796
498.000000	3.252519
497.000000	3.217246
496.000000	3.173382
495.000000	3.142773
494.000000	3.108081
493.000000	3.065534
492.000000	3.033864
491.000000	2.998984
490.000000	2.963109
489.000000	2.937881
488.000000	2.894953
487.000000	2.856974
486.000000	2.827170
485.000000	2.794422
484.000000	2.761513
483.000000	2.724802
482.000000	2.688208
481.000000	2.661288
480.000000	2.624701
479.000000	2.587305
478.000000	2.546909
477.000000	2.503415
476.000000	2.467755
475.000000	2.433923
474.000000	2.399453
473.000000	2.366383
472.000000	2.330932
471.000000	2.296736
470.000000	2.264390
469.000000	2.231795
468.000000	2.198250
467.000000	2.166539
466.000000	2.131550
465.000000	2.098196
464.000000	2.065320
463.000000	2.029083
462.000000	1.994439
461.000000	1.959900
460.000000	1.930884
459.000000	1.899678
458.000000	1.862724
457.000000	1.830050
456.000000	1.800337
455.000000	1.772274
454.000000	1.743922
453.000000	1.707181
452.000000	1.672553
451.000000	1.641066
450.000000	1.613785
449.000000	1.587699
448.000000	1.553705
447.000000	1.520486
446.000000	1.491035
445.000000	1.466052
444.000000	1.441720
443.000000	1.416496
442.000000	1.390544
441.000000	1.361531
440.000000	1.328895
439.000000	1.302241
438.000000	1.279298
437.000000	1.257396
436.000000	1.234851
435.000000	1.206325
434.000000	1.185571
433.000000	1.163723
432.000000	1.143892
431.000000	1.118286
430.000000	1.089335
429.000000	1.064705
428.000000	1.048159
427.000000	1.027442
426.000000	1.003381
425.000000	0.984399
424.000000	0.964250
423.000000	0.941101
422.000000	0.921364
421.000000	0.901148
420.000000	0.879739
419.000000	0.859496
418.000000	0.838227
417.000000	0.814459
416.000000	0.794427
415.000000	0.778924
414.000000	0.760556
413.000000	0.742284
412.000000	0.721691
411.000000	0.701127
410.000000	0.684512
409.000000	0.668300
408.000000	0.652328
407.000000	0.636938
406.000000	0.620965
405.000000	0.601507
404.000000	0.581173
403.000000	0.565816
402.000000	0.554991
401.000000	0.539156
400.000000	0.528872
399.000000	0.518331
398.000000	0.497398
397.000000	0.485589
396.000000	0.473901
395.000000	0.458403
394.000000	0.448104
393.000000	0.435968
392.000000	0.424344
391.000000	0.413104
390.000000	0.403963
389.000000	0.389726
388.000000	0.378126
387.000000	0.369568
386.000000	0.358455
385.000000	0.351470
384.000000	0.343235
383.000000	0.335593
382.000000	0.324546
381.000000	0.310808
380.000000	0.311926
379.000000	0.294854
378.000000	0.292670
377.000000	0.313610
376.000000	0.300500
375.000000	0.293919
374.000000	0.283897
373.000000	0.274853
372.000000	0.263856
371.000000	0.250985
370.000000	0.248351
369.000000	0.242122
368.000000	0.242329
367.000000	0.236898
366.000000	0.222162
365.000000	0.216721
364.000000	0.211020
363.000000	0.207559
362.000000	0.205496
361.000000	0.194571
360.000000	0.192869
359.000000	0.187043
358.000000	0.186107
357.000000	0.175772
356.000000	0.173181
355.000000	0.172738
354.000000	0.167062
353.000000	0.162469
352.000000	0.159474
351.000000	0.159355
350.000000	0.158411
349.000000	0.148310
348.000000	0.153172
347.000000	0.144727
346.000000	0.141706
345.000000	0.143953
344.000000	0.141332
343.000000	0.136423
342.000000	0.138080
341.000000	0.131627
340.000000	0.122578
339.000000	0.126718
338.000000	0.134059
337.000000	0.124260
336.000000	0.125569
335.000000	0.116501
334.000000	0.113681
333.000000	0.110822
332.000000	0.117557
331.000000	0.108184
330.000000	0.113060
329.000000	0.113190
328.000000	0.110191
327.000000	0.101643
326.000000	0.104722
325.000000	0.101044
324.000000	0.099492
323.000000	0.095248
322.000000	0.099427
321.000000	0.106000
320.000000	0.102641
319.000000	0.093810
318.000000	0.109061
317.000000	0.111676
316.000000	0.108009
315.000000	0.110125
314.000000	0.113622
313.000000	0.116155
312.000000	0.108371
311.000000	0.107971
310.000000	0.111205
309.000000	0.109040
308.000000	0.115813
307.000000	0.113274
306.000000	0.106232
305.000000	0.107880
304.000000	0.098418
303.000000	0.111368
302.000000	0.112503
301.000000	0.110350
300.000000	0.112819
299.000000	0.110738
298.000000	0.111845
297.000000	0.106074
296.000000	0.104571
295.000000	0.106734
294.000000	0.108118
293.000000	0.108079
292.000000	0.109093
291.000000	0.107646
290.000000	0.108818
289.000000	0.105743
288.000000	0.107209
287.000000	0.109478
286.000000	0.107843
285.000000	0.106925
284.000000	0.105301
283.000000	0.104332
282.000000	0.108008
281.000000	0.111084
280.000000	0.117262
279.000000	0.115658
278.000000	0.123437
277.000000	0.123375
276.000000	0.123443
275.000000	0.119431
274.000000	0.126149
273.000000	0.135266
272.000000	0.137289
271.000000	0.133638
270.000000	0.131225
269.000000	0.128389
268.000000	0.129788
267.000000	0.142607
266.000000	0.151391
265.000000	0.150836
264.000000	0.150151
263.000000	0.151990
262.000000	0.152153
261.000000	0.166831
260.000000	0.175268
259.000000	0.173526
258.000000	0.164737
257.000000	0.169110
256.000000	0.170306
255.000000	0.167907
254.000000	0.177497
253.000000	0.179989
252.000000	0.179503
251.000000	0.182362
250.000000	0.181469
249.000000	0.186597
248.000000	0.183430
247.000000	0.177241
246.000000	0.180223
245.000000	0.174393
244.000000	0.170018
243.000000	0.167023
242.000000	0.157174
241.000000	0.144873
240.000000	0.141731
239.000000	0.136186
238.000000	0.136019
237.000000	0.127081
236.000000	0.112966
235.000000	0.104391
234.000000	0.099638
233.000000	0.096495
232.000000	0.087730
231.000000	0.084174
230.000000	0.079848
229.000000	0.072717
228.000000	0.068770
227.000000	0.051655
226.000000	0.047059
225.000000	0.044925
224.000000	0.047448
223.000000	0.035793
222.000000	0.026539
221.000000	0.029157
220.000000	0.029451
219.000000	0.024855
218.000000	0.023307
217.000000	0.024052
216.000000	0.018275
215.000000	0.018396
214.000000	0.013933
213.000000	0.016831
212.000000	0.027774
211.000000	0.021430
210.000000	0.008582
209.000000	-0.000752
208.000000	0.002916
207.000000	0.004333
206.000000	-0.000542
205.000000	0.001743
204.000000	-0.005136
203.000000	-0.029778
202.000000	-0.034489
201.000000	-0.009471
200.000000	-0.011307
