PE UV       SUBTECH     SPECTRUM    ASCII       PEDS        4.00        
   -1
TTms148352.Sample.asc
18/03/20
09:22:36.00
18/03/20
09:22:36.00
Administrator

200.000000
1
Lambda 750
750N8071901
PerkinElmer UV WinLab 6.0.4.0738 / 1.61.00 Lambda 900

0
0
3350/servo 860.8/2
0
0
UV/VIS
1
1
1
CommonBeamDepol,150mm sphere / downward view
0
0
0
0
Program
Program
3350/servo 860.8/2
3350/0.2 860.8/0.2
3350/0.2 860.8/0.2
0
1
 
 
 
0
 
860.8
319.2
860.8
Front
100
on
 
 
0
0
0
 
0
 
 
 
0
 
 
0
0
0
0
0
 
 
 
 
0
0


0
0
#HDR
-1
-1
#GR
nm
%T
1.0
0.0
2350.000000
-1.000000
2151
8
11.169333
-0.001533
#DATA
2350.000000	3.675917
2349.000000	3.940400
2348.000000	4.070201
2347.000000	4.705248
2346.000000	4.232549
2345.000000	4.022058
2344.000000	3.956948
2343.000000	3.887631
2342.000000	4.315822
2341.000000	4.307863
2340.000000	4.269878
2339.000000	4.354207
2338.000000	4.415644
2337.000000	4.766932
2336.000000	4.946235
2335.000000	4.462707
2334.000000	4.841242
2333.000000	5.196004
2332.000000	5.096854
2331.000000	5.090424
2330.000000	4.729299
2329.000000	4.654453
2328.000000	4.737602
2327.000000	4.690117
2326.000000	4.671408
2325.000000	4.556567
2324.000000	4.789125
2323.000000	4.806061
2322.000000	4.585439
2321.000000	4.497431
2320.000000	4.380281
2319.000000	4.471896
2318.000000	4.701372
2317.000000	4.693336
2316.000000	4.688961
2315.000000	4.446360
2314.000000	4.552376
2313.000000	4.421941
2312.000000	4.233548
2311.000000	4.215749
2310.000000	4.228972
2309.000000	4.298456
2308.000000	4.135053
2307.000000	4.212017
2306.000000	4.120412
2305.000000	4.123423
2304.000000	4.209801
2303.000000	4.317187
2302.000000	4.160739
2301.000000	4.179598
2300.000000	4.125823
2299.000000	3.881746
2298.000000	3.969459
2297.000000	4.034652
2296.000000	4.066776
2295.000000	3.860448
2294.000000	3.939086
2293.000000	4.027507
2292.000000	3.941945
2291.000000	4.053812
2290.000000	4.083499
2289.000000	4.118818
2288.000000	4.128822
2287.000000	4.116285
2286.000000	3.938443
2285.000000	3.931474
2284.000000	4.027382
2283.000000	3.977419
2282.000000	3.945920
2281.000000	3.882083
2280.000000	3.920090
2279.000000	4.028550
2278.000000	4.004415
2277.000000	4.119553
2276.000000	4.076901
2275.000000	4.126482
2274.000000	4.143678
2273.000000	4.222973
2272.000000	4.277823
2271.000000	4.096740
2270.000000	4.075967
2269.000000	4.080849
2268.000000	4.014970
2267.000000	4.005302
2266.000000	4.156864
2265.000000	4.089530
2264.000000	4.124942
2263.000000	4.381706
2262.000000	4.401355
2261.000000	4.536091
2260.000000	4.527671
2259.000000	4.441463
2258.000000	4.621281
2257.000000	4.636960
2256.000000	4.573433
2255.000000	4.669046
2254.000000	4.790862
2253.000000	4.821906
2252.000000	4.911711
2251.000000	4.823128
2250.000000	4.783211
2249.000000	5.044600
2248.000000	5.159040
2247.000000	5.160470
2246.000000	5.118485
2245.000000	5.237814
2244.000000	5.345412
2243.000000	5.439222
2242.000000	5.389592
2241.000000	5.357733
2240.000000	5.512208
2239.000000	5.532417
2238.000000	5.615194
2237.000000	5.582537
2236.000000	5.522401
2235.000000	5.572197
2234.000000	5.538674
2233.000000	5.479114
2232.000000	5.565676
2231.000000	5.750099
2230.000000	5.899830
2229.000000	5.880660
2228.000000	5.817981
2227.000000	5.754485
2226.000000	5.669550
2225.000000	5.678705
2224.000000	5.610777
2223.000000	5.524355
2222.000000	5.627196
2221.000000	5.652617
2220.000000	5.687772
2219.000000	5.667925
2218.000000	5.679367
2217.000000	5.660230
2216.000000	5.654916
2215.000000	5.632726
2214.000000	5.665333
2213.000000	5.617590
2212.000000	5.610624
2211.000000	5.603554
2210.000000	5.499300
2209.000000	5.485849
2208.000000	5.495412
2207.000000	5.509307
2206.000000	5.387148
2205.000000	5.373300
2204.000000	5.477619
2203.000000	5.442905
2202.000000	5.292222
2201.000000	5.295428
2200.000000	5.343512
2199.000000	5.332067
2198.000000	5.420865
2197.000000	5.413031
2196.000000	5.285111
2195.000000	5.228229
2194.000000	5.123406
2193.000000	5.174020
2192.000000	5.211230
2191.000000	5.118939
2190.000000	5.173411
2189.000000	5.102083
2188.000000	4.943352
2187.000000	5.104353
2186.000000	5.176204
2185.000000	5.153328
2184.000000	5.122736
2183.000000	5.103647
2182.000000	5.074842
2181.000000	4.998523
2180.000000	4.983292
2179.000000	4.969185
2178.000000	4.974449
2177.000000	4.989580
2176.000000	5.006007
2175.000000	5.067201
2174.000000	5.037042
2173.000000	5.019853
2172.000000	4.975621
2171.000000	5.201874
2170.000000	5.152181
2169.000000	5.102155
2168.000000	5.250684
2167.000000	5.154143
2166.000000	5.099701
2165.000000	5.104187
2164.000000	5.138256
2163.000000	5.162383
2162.000000	5.218903
2161.000000	5.211236
2160.000000	5.317461
2159.000000	5.336557
2158.000000	5.187321
2157.000000	5.244249
2156.000000	5.206199
2155.000000	5.288623
2154.000000	5.424825
2153.000000	5.558479
2152.000000	5.580578
2151.000000	5.603380
2150.000000	5.656863
2149.000000	5.653536
2148.000000	5.770673
2147.000000	5.644034
2146.000000	5.582413
2145.000000	5.800278
2144.000000	5.711510
2143.000000	5.650203
2142.000000	5.751260
2141.000000	5.912740
2140.000000	5.619947
2139.000000	5.908215
2138.000000	5.992550
2137.000000	5.844331
2136.000000	6.156510
2135.000000	6.165407
2134.000000	6.047930
2133.000000	5.778485
2132.000000	6.031633
2131.000000	6.164661
2130.000000	6.187188
2129.000000	6.171728
2128.000000	6.030584
2127.000000	5.996390
2126.000000	6.206486
2125.000000	6.110890
2124.000000	6.182222
2123.000000	6.136170
2122.000000	6.199897
2121.000000	6.162522
2120.000000	6.141330
2119.000000	6.050112
2118.000000	6.204346
2117.000000	6.201206
2116.000000	6.380642
2115.000000	6.307086
2114.000000	6.289188
2113.000000	6.129142
2112.000000	6.264593
2111.000000	6.281520
2110.000000	6.225193
2109.000000	6.159738
2108.000000	6.148088
2107.000000	6.259877
2106.000000	6.283568
2105.000000	6.251087
2104.000000	6.304636
2103.000000	6.293377
2102.000000	6.259040
2101.000000	6.405694
2100.000000	6.399207
2099.000000	6.222171
2098.000000	6.164132
2097.000000	6.281938
2096.000000	6.347271
2095.000000	6.290402
2094.000000	6.206126
2093.000000	6.229336
2092.000000	6.242297
2091.000000	6.199172
2090.000000	6.265900
2089.000000	6.343403
2088.000000	6.359627
2087.000000	6.282167
2086.000000	6.274307
2085.000000	6.353759
2084.000000	6.259213
2083.000000	6.210021
2082.000000	6.190047
2081.000000	6.111313
2080.000000	6.094674
2079.000000	6.091409
2078.000000	6.076232
2077.000000	6.029804
2076.000000	6.076094
2075.000000	6.003222
2074.000000	5.998250
2073.000000	5.905723
2072.000000	5.913943
2071.000000	5.929838
2070.000000	5.838381
2069.000000	5.763491
2068.000000	5.749113
2067.000000	5.765196
2066.000000	5.693244
2065.000000	5.674972
2064.000000	5.598927
2063.000000	5.522760
2062.000000	5.471112
2061.000000	5.463056
2060.000000	5.470071
2059.000000	5.395891
2058.000000	5.382764
2057.000000	5.347359
2056.000000	5.332461
2055.000000	5.311141
2054.000000	5.218078
2053.000000	5.181572
2052.000000	5.155669
2051.000000	5.050774
2050.000000	4.992213
2049.000000	4.978979
2048.000000	5.003698
2047.000000	4.944025
2046.000000	4.877423
2045.000000	4.889976
2044.000000	4.871574
2043.000000	4.830691
2042.000000	4.889388
2041.000000	4.929215
2040.000000	4.923814
2039.000000	4.862078
2038.000000	4.839351
2037.000000	4.899992
2036.000000	4.909778
2035.000000	4.944434
2034.000000	4.951014
2033.000000	4.989759
2032.000000	5.063521
2031.000000	5.083149
2030.000000	5.084553
2029.000000	5.075630
2028.000000	5.080556
2027.000000	5.105075
2026.000000	5.126199
2025.000000	5.196562
2024.000000	5.258753
2023.000000	5.245560
2022.000000	5.243341
2021.000000	5.218410
2020.000000	5.216260
2019.000000	5.213359
2018.000000	5.242091
2017.000000	5.281463
2016.000000	5.286646
2015.000000	5.268277
2014.000000	5.270057
2013.000000	5.280645
2012.000000	5.255063
2011.000000	5.259802
2010.000000	5.227546
2009.000000	5.178706
2008.000000	5.163455
2007.000000	5.164890
2006.000000	5.142227
2005.000000	5.127218
2004.000000	5.074771
2003.000000	5.034688
2002.000000	5.006115
2001.000000	4.978828
2000.000000	4.967318
1999.000000	4.970346
1998.000000	4.951201
1997.000000	4.897256
1996.000000	4.854209
1995.000000	4.797396
1994.000000	4.808280
1993.000000	4.787536
1992.000000	4.767305
1991.000000	4.708053
1990.000000	4.711376
1989.000000	4.683218
1988.000000	4.662922
1987.000000	4.645343
1986.000000	4.605376
1985.000000	4.581309
1984.000000	4.562063
1983.000000	4.542710
1982.000000	4.503991
1981.000000	4.491694
1980.000000	4.479527
1979.000000	4.448416
1978.000000	4.414550
1977.000000	4.347915
1976.000000	4.346708
1975.000000	4.350793
1974.000000	4.302231
1973.000000	4.293452
1972.000000	4.262825
1971.000000	4.227791
1970.000000	4.247866
1969.000000	4.250064
1968.000000	4.199566
1967.000000	4.209227
1966.000000	4.196164
1965.000000	4.167798
1964.000000	4.080438
1963.000000	4.049649
1962.000000	4.084924
1961.000000	4.042941
1960.000000	3.988963
1959.000000	4.011806
1958.000000	3.998577
1957.000000	3.990282
1956.000000	3.977464
1955.000000	3.960372
1954.000000	3.992461
1953.000000	3.982402
1952.000000	3.988210
1951.000000	3.948536
1950.000000	3.942618
1949.000000	3.952578
1948.000000	3.914366
1947.000000	3.878085
1946.000000	3.915467
1945.000000	3.908564
1944.000000	3.945189
1943.000000	3.966549
1942.000000	3.901307
1941.000000	3.940149
1940.000000	3.959843
1939.000000	3.978849
1938.000000	3.959150
1937.000000	4.035823
1936.000000	4.082810
1935.000000	4.088484
1934.000000	4.114535
1933.000000	4.152062
1932.000000	4.221700
1931.000000	4.253048
1930.000000	4.210482
1929.000000	4.304925
1928.000000	4.310838
1927.000000	4.370230
1926.000000	4.375958
1925.000000	4.518867
1924.000000	4.527969
1923.000000	4.593552
1922.000000	4.665417
1921.000000	4.710187
1920.000000	4.771674
1919.000000	4.893473
1918.000000	4.947147
1917.000000	5.044016
1916.000000	5.028262
1915.000000	5.176776
1914.000000	5.253554
1913.000000	5.378202
1912.000000	5.449757
1911.000000	5.555336
1910.000000	5.600594
1909.000000	5.783645
1908.000000	5.829917
1907.000000	5.977347
1906.000000	6.069455
1905.000000	6.259127
1904.000000	6.340756
1903.000000	6.493884
1902.000000	6.617751
1901.000000	6.725700
1900.000000	6.884129
1899.000000	6.970712
1898.000000	7.102679
1897.000000	7.246483
1896.000000	7.379882
1895.000000	7.494236
1894.000000	7.650131
1893.000000	7.781740
1892.000000	7.897737
1891.000000	8.011380
1890.000000	8.146562
1889.000000	8.297573
1888.000000	8.407050
1887.000000	8.530891
1886.000000	8.653644
1885.000000	8.793201
1884.000000	8.897611
1883.000000	8.954706
1882.000000	9.100490
1881.000000	9.163712
1880.000000	9.234363
1879.000000	9.343883
1878.000000	9.422056
1877.000000	9.498869
1876.000000	9.596433
1875.000000	9.654288
1874.000000	9.704302
1873.000000	9.798850
1872.000000	9.829221
1871.000000	9.864284
1870.000000	9.924629
1869.000000	9.947767
1868.000000	9.958905
1867.000000	9.964960
1866.000000	10.012025
1865.000000	10.025514
1864.000000	9.999797
1863.000000	10.048402
1862.000000	10.022076
1861.000000	10.034124
1860.000000	10.071213
1859.000000	10.083087
1858.000000	10.105603
1857.000000	10.083988
1856.000000	10.096862
1855.000000	10.116224
1854.000000	10.154583
1853.000000	10.184163
1852.000000	10.160169
1851.000000	10.149394
1850.000000	10.116649
1849.000000	10.122713
1848.000000	10.140232
1847.000000	10.145135
1846.000000	10.126406
1845.000000	10.133050
1844.000000	10.130123
1843.000000	10.098188
1842.000000	10.095286
1841.000000	10.101652
1840.000000	10.086146
1839.000000	10.076498
1838.000000	10.078474
1837.000000	10.020817
1836.000000	9.997717
1835.000000	9.978974
1834.000000	9.957242
1833.000000	9.961513
1832.000000	9.935430
1831.000000	9.906148
1830.000000	9.880269
1829.000000	9.877271
1828.000000	9.862060
1827.000000	9.864139
1826.000000	9.844463
1825.000000	9.817417
1824.000000	9.827639
1823.000000	9.813424
1822.000000	9.764720
1821.000000	9.746777
1820.000000	9.741430
1819.000000	9.722664
1818.000000	9.709021
1817.000000	9.679016
1816.000000	9.664966
1815.000000	9.687290
1814.000000	9.689112
1813.000000	9.676157
1812.000000	9.665087
1811.000000	9.649247
1810.000000	9.653584
1809.000000	9.647060
1808.000000	9.621646
1807.000000	9.606266
1806.000000	9.592529
1805.000000	9.600977
1804.000000	9.597883
1803.000000	9.576819
1802.000000	9.573332
1801.000000	9.564068
1800.000000	9.540384
1799.000000	9.546468
1798.000000	9.560137
1797.000000	9.547753
1796.000000	9.547045
1795.000000	9.555897
1794.000000	9.557948
1793.000000	9.540972
1792.000000	9.517906
1791.000000	9.521863
1790.000000	9.519349
1789.000000	9.521126
1788.000000	9.529109
1787.000000	9.527195
1786.000000	9.520226
1785.000000	9.502471
1784.000000	9.499473
1783.000000	9.501318
1782.000000	9.495230
1781.000000	9.484687
1780.000000	9.474013
1779.000000	9.477863
1778.000000	9.454531
1777.000000	9.441504
1776.000000	9.428434
1775.000000	9.390313
1774.000000	9.344640
1773.000000	9.326773
1772.000000	9.312121
1771.000000	9.306447
1770.000000	9.298265
1769.000000	9.288854
1768.000000	9.252229
1767.000000	9.237114
1766.000000	9.225056
1765.000000	9.201291
1764.000000	9.186278
1763.000000	9.171936
1762.000000	9.134527
1761.000000	9.117160
1760.000000	9.092480
1759.000000	9.087322
1758.000000	9.053902
1757.000000	9.046350
1756.000000	9.034645
1755.000000	9.004906
1754.000000	8.992874
1753.000000	8.994294
1752.000000	8.963485
1751.000000	8.922370
1750.000000	8.933835
1749.000000	8.927745
1748.000000	8.889583
1747.000000	8.884361
1746.000000	8.872404
1745.000000	8.839775
1744.000000	8.826568
1743.000000	8.809205
1742.000000	8.779656
1741.000000	8.761403
1740.000000	8.723024
1739.000000	8.693711
1738.000000	8.717202
1737.000000	8.698264
1736.000000	8.684462
1735.000000	8.682441
1734.000000	8.686904
1733.000000	8.671961
1732.000000	8.625595
1731.000000	8.633521
1730.000000	8.644653
1729.000000	8.645090
1728.000000	8.644419
1727.000000	8.641603
1726.000000	8.651972
1725.000000	8.696647
1724.000000	8.714091
1723.000000	8.727969
1722.000000	8.756868
1721.000000	8.773202
1720.000000	8.787059
1719.000000	8.845236
1718.000000	8.844921
1717.000000	8.846740
1716.000000	8.886793
1715.000000	8.916918
1714.000000	8.951427
1713.000000	8.957653
1712.000000	9.031623
1711.000000	9.035855
1710.000000	9.037743
1709.000000	9.037577
1708.000000	9.058647
1707.000000	9.089957
1706.000000	9.112906
1705.000000	9.109724
1704.000000	9.135982
1703.000000	9.108414
1702.000000	9.142371
1701.000000	9.127282
1700.000000	9.156794
1699.000000	9.126852
1698.000000	9.156002
1697.000000	9.190573
1696.000000	9.192481
1695.000000	9.194360
1694.000000	9.209738
1693.000000	9.206952
1692.000000	9.233775
1691.000000	9.256422
1690.000000	9.282111
1689.000000	9.294608
1688.000000	9.340162
1687.000000	9.356474
1686.000000	9.403502
1685.000000	9.424567
1684.000000	9.474317
1683.000000	9.517914
1682.000000	9.560430
1681.000000	9.597403
1680.000000	9.636058
1679.000000	9.684073
1678.000000	9.738166
1677.000000	9.774474
1676.000000	9.840011
1675.000000	9.880850
1674.000000	9.914469
1673.000000	9.940618
1672.000000	9.985197
1671.000000	10.067936
1670.000000	10.089574
1669.000000	10.103632
1668.000000	10.144727
1667.000000	10.180113
1666.000000	10.188418
1665.000000	10.194758
1664.000000	10.192417
1663.000000	10.218576
1662.000000	10.244469
1661.000000	10.270653
1660.000000	10.299839
1659.000000	10.328540
1658.000000	10.340332
1657.000000	10.340637
1656.000000	10.346446
1655.000000	10.361354
1654.000000	10.380639
1653.000000	10.380380
1652.000000	10.391209
1651.000000	10.397106
1650.000000	10.383386
1649.000000	10.357443
1648.000000	10.356516
1647.000000	10.352955
1646.000000	10.327190
1645.000000	10.324744
1644.000000	10.318344
1643.000000	10.319597
1642.000000	10.311577
1641.000000	10.310912
1640.000000	10.290383
1639.000000	10.284086
1638.000000	10.271831
1637.000000	10.268839
1636.000000	10.251553
1635.000000	10.236156
1634.000000	10.230774
1633.000000	10.216627
1632.000000	10.190845
1631.000000	10.171903
1630.000000	10.178690
1629.000000	10.164471
1628.000000	10.148111
1627.000000	10.132633
1626.000000	10.114648
1625.000000	10.113170
1624.000000	10.104361
1623.000000	10.078800
1622.000000	10.060811
1621.000000	10.034393
1620.000000	10.023333
1619.000000	10.012891
1618.000000	9.997084
1617.000000	9.987199
1616.000000	9.969999
1615.000000	9.958481
1614.000000	9.934536
1613.000000	9.909530
1612.000000	9.900464
1611.000000	9.890805
1610.000000	9.874093
1609.000000	9.852215
1608.000000	9.834149
1607.000000	9.823413
1606.000000	9.809307
1605.000000	9.787077
1604.000000	9.759489
1603.000000	9.744611
1602.000000	9.724897
1601.000000	9.708886
1600.000000	9.711423
1599.000000	9.698129
1598.000000	9.675607
1597.000000	9.665245
1596.000000	9.643734
1595.000000	9.624984
1594.000000	9.601130
1593.000000	9.596033
1592.000000	9.589337
1591.000000	9.567246
1590.000000	9.559587
1589.000000	9.541570
1588.000000	9.530605
1587.000000	9.527897
1586.000000	9.508315
1585.000000	9.493149
1584.000000	9.496462
1583.000000	9.487949
1582.000000	9.470523
1581.000000	9.460533
1580.000000	9.447099
1579.000000	9.425902
1578.000000	9.417311
1577.000000	9.401833
1576.000000	9.378250
1575.000000	9.362724
1574.000000	9.342218
1573.000000	9.325493
1572.000000	9.327951
1571.000000	9.310768
1570.000000	9.298124
1569.000000	9.287190
1568.000000	9.276200
1567.000000	9.270847
1566.000000	9.251603
1565.000000	9.240870
1564.000000	9.225470
1563.000000	9.219953
1562.000000	9.201176
1561.000000	9.186029
1560.000000	9.180541
1559.000000	9.177843
1558.000000	9.154691
1557.000000	9.141543
1556.000000	9.127071
1555.000000	9.129838
1554.000000	9.128054
1553.000000	9.122579
1552.000000	9.107303
1551.000000	9.085334
1550.000000	9.063448
1549.000000	9.053149
1548.000000	9.039670
1547.000000	9.028966
1546.000000	9.009411
1545.000000	8.965844
1544.000000	8.933844
1543.000000	8.918180
1542.000000	8.895519
1541.000000	8.872859
1540.000000	8.852263
1539.000000	8.823177
1538.000000	8.783407
1537.000000	8.771855
1536.000000	8.749134
1535.000000	8.714140
1534.000000	8.691776
1533.000000	8.666078
1532.000000	8.615312
1531.000000	8.602061
1530.000000	8.569905
1529.000000	8.554800
1528.000000	8.562875
1527.000000	8.627837
1526.000000	8.670479
1525.000000	8.660609
1524.000000	8.605993
1523.000000	8.546831
1522.000000	8.508158
1521.000000	8.472606
1520.000000	8.466656
1519.000000	8.464481
1518.000000	8.436287
1517.000000	8.416601
1516.000000	8.410352
1515.000000	8.411694
1514.000000	8.397770
1513.000000	8.369888
1512.000000	8.368446
1511.000000	8.364774
1510.000000	8.344245
1509.000000	8.321731
1508.000000	8.295518
1507.000000	8.278859
1506.000000	8.270686
1505.000000	8.260854
1504.000000	8.294000
1503.000000	8.296995
1502.000000	8.277320
1501.000000	8.254209
1500.000000	8.249793
1499.000000	8.260159
1498.000000	8.236423
1497.000000	8.247740
1496.000000	8.262974
1495.000000	8.256952
1494.000000	8.253819
1493.000000	8.250583
1492.000000	8.263243
1491.000000	8.266635
1490.000000	8.276436
1489.000000	8.265157
1488.000000	8.275655
1487.000000	8.287707
1486.000000	8.300714
1485.000000	8.300862
1484.000000	8.296325
1483.000000	8.323272
1482.000000	8.328434
1481.000000	8.344375
1480.000000	8.355692
1479.000000	8.381993
1478.000000	8.391407
1477.000000	8.393089
1476.000000	8.402569
1475.000000	8.418932
1474.000000	8.422139
1473.000000	8.423313
1472.000000	8.428899
1471.000000	8.443542
1470.000000	8.432710
1469.000000	8.458697
1468.000000	8.457739
1467.000000	8.460968
1466.000000	8.506211
1465.000000	8.510433
1464.000000	8.528637
1463.000000	8.514938
1462.000000	8.513029
1461.000000	8.568456
1460.000000	8.568525
1459.000000	8.566910
1458.000000	8.553142
1457.000000	8.567687
1456.000000	8.608343
1455.000000	8.612198
1454.000000	8.607386
1453.000000	8.605154
1452.000000	8.640128
1451.000000	8.677920
1450.000000	8.671856
1449.000000	8.681788
1448.000000	8.695568
1447.000000	8.706418
1446.000000	8.740438
1445.000000	8.747513
1444.000000	8.764177
1443.000000	8.769253
1442.000000	8.780507
1441.000000	8.784043
1440.000000	8.802039
1439.000000	8.844929
1438.000000	8.887427
1437.000000	8.909785
1436.000000	8.930152
1435.000000	8.961887
1434.000000	8.968457
1433.000000	8.987817
1432.000000	9.010660
1431.000000	9.036348
1430.000000	9.050675
1429.000000	9.086148
1428.000000	9.122603
1427.000000	9.156811
1426.000000	9.196887
1425.000000	9.238637
1424.000000	9.256696
1423.000000	9.295991
1422.000000	9.342911
1421.000000	9.374252
1420.000000	9.376531
1419.000000	9.426962
1418.000000	9.480850
1417.000000	9.546778
1416.000000	9.598906
1415.000000	9.641813
1414.000000	9.653242
1413.000000	9.685609
1412.000000	9.735275
1411.000000	9.790228
1410.000000	9.805368
1409.000000	9.855081
1408.000000	9.896532
1407.000000	9.953102
1406.000000	10.019272
1405.000000	10.069777
1404.000000	10.093528
1403.000000	10.110677
1402.000000	10.149901
1401.000000	10.198543
1400.000000	10.245440
1399.000000	10.278619
1398.000000	10.312589
1397.000000	10.351134
1396.000000	10.371098
1395.000000	10.399760
1394.000000	10.437753
1393.000000	10.476604
1392.000000	10.505827
1391.000000	10.542294
1390.000000	10.596333
1389.000000	10.633527
1388.000000	10.657669
1387.000000	10.675988
1386.000000	10.678541
1385.000000	10.703151
1384.000000	10.740069
1383.000000	10.754629
1382.000000	10.752889
1381.000000	10.769267
1380.000000	10.791852
1379.000000	10.810160
1378.000000	10.827716
1377.000000	10.837568
1376.000000	10.832942
1375.000000	10.848071
1374.000000	10.873363
1373.000000	10.867958
1372.000000	10.863830
1371.000000	10.861638
1370.000000	10.864428
1369.000000	10.872349
1368.000000	10.884149
1367.000000	10.896411
1366.000000	10.899344
1365.000000	10.905516
1364.000000	10.918284
1363.000000	10.953852
1362.000000	10.987763
1361.000000	10.994627
1360.000000	10.988581
1359.000000	10.989973
1358.000000	10.976082
1357.000000	10.966393
1356.000000	10.984309
1355.000000	10.999283
1354.000000	11.001134
1353.000000	10.991722
1352.000000	10.997727
1351.000000	11.028693
1350.000000	11.033454
1349.000000	11.030836
1348.000000	11.054176
1347.000000	11.055144
1346.000000	11.041752
1345.000000	11.047484
1344.000000	11.044748
1343.000000	11.074293
1342.000000	11.101172
1341.000000	11.106326
1340.000000	11.101352
1339.000000	11.091481
1338.000000	11.097188
1337.000000	11.103098
1336.000000	11.097235
1335.000000	11.110841
1334.000000	11.120575
1333.000000	11.132604
1332.000000	11.146961
1331.000000	11.143190
1330.000000	11.139064
1329.000000	11.118592
1328.000000	11.128773
1327.000000	11.138835
1326.000000	11.122058
1325.000000	11.146911
1324.000000	11.169333
1323.000000	11.166320
1322.000000	11.122045
1321.000000	11.122284
1320.000000	11.144280
1319.000000	11.150821
1318.000000	11.133119
1317.000000	11.118357
1316.000000	11.100299
1315.000000	11.108106
1314.000000	11.132309
1313.000000	11.126759
1312.000000	11.101466
1311.000000	11.084232
1310.000000	11.074403
1309.000000	11.088098
1308.000000	11.094133
1307.000000	11.095762
1306.000000	11.112495
1305.000000	11.119213
1304.000000	11.090436
1303.000000	11.083873
1302.000000	11.068577
1301.000000	11.058768
1300.000000	11.061096
1299.000000	11.058647
1298.000000	11.054005
1297.000000	11.059747
1296.000000	11.062140
1295.000000	11.056109
1294.000000	11.054728
1293.000000	11.044352
1292.000000	11.050009
1291.000000	11.053616
1290.000000	11.051095
1289.000000	11.047750
1288.000000	11.060449
1287.000000	11.036347
1286.000000	11.041646
1285.000000	11.019838
1284.000000	11.032271
1283.000000	11.007233
1282.000000	10.981019
1281.000000	10.981031
1280.000000	11.002879
1279.000000	11.004749
1278.000000	10.997907
1277.000000	10.979705
1276.000000	10.976774
1275.000000	10.991221
1274.000000	10.974472
1273.000000	10.968151
1272.000000	10.962137
1271.000000	10.948469
1270.000000	10.937645
1269.000000	10.937641
1268.000000	10.933452
1267.000000	10.936299
1266.000000	10.967663
1265.000000	10.948025
1264.000000	10.960061
1263.000000	10.940618
1262.000000	10.945974
1261.000000	10.933226
1260.000000	10.948185
1259.000000	10.970789
1258.000000	10.941947
1257.000000	10.926982
1256.000000	10.922502
1255.000000	10.898753
1254.000000	10.885206
1253.000000	10.901372
1252.000000	10.895461
1251.000000	10.941954
1250.000000	10.945551
1249.000000	10.932903
1248.000000	10.930085
1247.000000	10.903092
1246.000000	10.903838
1245.000000	10.881559
1244.000000	10.871010
1243.000000	10.847110
1242.000000	10.860695
1241.000000	10.862249
1240.000000	10.863838
1239.000000	10.817482
1238.000000	10.819773
1237.000000	10.845935
1236.000000	10.844787
1235.000000	10.797831
1234.000000	10.788698
1233.000000	10.782652
1232.000000	10.763786
1231.000000	10.751865
1230.000000	10.774492
1229.000000	10.763409
1228.000000	10.763456
1227.000000	10.755990
1226.000000	10.716777
1225.000000	10.695315
1224.000000	10.696775
1223.000000	10.695998
1222.000000	10.694362
1221.000000	10.696124
1220.000000	10.673577
1219.000000	10.654741
1218.000000	10.653910
1217.000000	10.630324
1216.000000	10.627792
1215.000000	10.639401
1214.000000	10.645059
1213.000000	10.613345
1212.000000	10.591516
1211.000000	10.605518
1210.000000	10.595729
1209.000000	10.567754
1208.000000	10.545352
1207.000000	10.549185
1206.000000	10.538709
1205.000000	10.533359
1204.000000	10.520684
1203.000000	10.513831
1202.000000	10.486304
1201.000000	10.492141
1200.000000	10.498845
1199.000000	10.479782
1198.000000	10.468465
1197.000000	10.447529
1196.000000	10.436573
1195.000000	10.440980
1194.000000	10.465949
1193.000000	10.462165
1192.000000	10.437655
1191.000000	10.423657
1190.000000	10.398476
1189.000000	10.334998
1188.000000	10.341079
1187.000000	10.356677
1186.000000	10.356677
1185.000000	10.347272
1184.000000	10.336454
1183.000000	10.345255
1182.000000	10.359488
1181.000000	10.372226
1180.000000	10.384661
1179.000000	10.401540
1178.000000	10.417158
1177.000000	10.420286
1176.000000	10.412081
1175.000000	10.422385
1174.000000	10.442496
1173.000000	10.463068
1172.000000	10.480426
1171.000000	10.476900
1170.000000	10.479123
1169.000000	10.499432
1168.000000	10.510175
1167.000000	10.519533
1166.000000	10.525627
1165.000000	10.532280
1164.000000	10.545776
1163.000000	10.559106
1162.000000	10.573244
1161.000000	10.575084
1160.000000	10.587015
1159.000000	10.600911
1158.000000	10.611452
1157.000000	10.632622
1156.000000	10.643093
1155.000000	10.644766
1154.000000	10.628945
1153.000000	10.616565
1152.000000	10.625836
1151.000000	10.641713
1150.000000	10.665542
1149.000000	10.679154
1148.000000	10.691616
1147.000000	10.696996
1146.000000	10.699714
1145.000000	10.702382
1144.000000	10.711409
1143.000000	10.728081
1142.000000	10.742116
1141.000000	10.753798
1140.000000	10.749932
1139.000000	10.762505
1138.000000	10.771166
1137.000000	10.778229
1136.000000	10.776802
1135.000000	10.778059
1134.000000	10.756697
1133.000000	10.737118
1132.000000	10.741913
1131.000000	10.750681
1130.000000	10.769930
1129.000000	10.778564
1128.000000	10.793359
1127.000000	10.793093
1126.000000	10.793179
1125.000000	10.792724
1124.000000	10.796337
1123.000000	10.797239
1122.000000	10.796685
1121.000000	10.799189
1120.000000	10.802020
1119.000000	10.807912
1118.000000	10.783793
1117.000000	10.761283
1116.000000	10.757372
1115.000000	10.761987
1114.000000	10.764027
1113.000000	10.770095
1112.000000	10.772331
1111.000000	10.771064
1110.000000	10.767357
1109.000000	10.786412
1108.000000	10.784247
1107.000000	10.787613
1106.000000	10.785162
1105.000000	10.781888
1104.000000	10.780769
1103.000000	10.780787
1102.000000	10.756175
1101.000000	10.748347
1100.000000	10.746514
1099.000000	10.768324
1098.000000	10.762485
1097.000000	10.764254
1096.000000	10.758396
1095.000000	10.756991
1094.000000	10.741419
1093.000000	10.722795
1092.000000	10.724971
1091.000000	10.740692
1090.000000	10.745705
1089.000000	10.750872
1088.000000	10.754679
1087.000000	10.758960
1086.000000	10.717679
1085.000000	10.709126
1084.000000	10.715988
1083.000000	10.714777
1082.000000	10.718937
1081.000000	10.735657
1080.000000	10.705218
1079.000000	10.701351
1078.000000	10.703365
1077.000000	10.716209
1076.000000	10.693574
1075.000000	10.699727
1074.000000	10.716663
1073.000000	10.719320
1072.000000	10.680353
1071.000000	10.674498
1070.000000	10.668488
1069.000000	10.689050
1068.000000	10.689479
1067.000000	10.675097
1066.000000	10.690314
1065.000000	10.661692
1064.000000	10.642765
1063.000000	10.637903
1062.000000	10.663681
1061.000000	10.667668
1060.000000	10.659130
1059.000000	10.674027
1058.000000	10.629039
1057.000000	10.638743
1056.000000	10.636513
1055.000000	10.657121
1054.000000	10.653664
1053.000000	10.663528
1052.000000	10.629862
1051.000000	10.606397
1050.000000	10.621652
1049.000000	10.636813
1048.000000	10.610209
1047.000000	10.611674
1046.000000	10.606109
1045.000000	10.629038
1044.000000	10.625709
1043.000000	10.586323
1042.000000	10.589555
1041.000000	10.607752
1040.000000	10.637951
1039.000000	10.616814
1038.000000	10.578552
1037.000000	10.578379
1036.000000	10.593072
1035.000000	10.605842
1034.000000	10.579478
1033.000000	10.587543
1032.000000	10.595739
1031.000000	10.587242
1030.000000	10.571885
1029.000000	10.570691
1028.000000	10.577918
1027.000000	10.579086
1026.000000	10.560489
1025.000000	10.577275
1024.000000	10.593933
1023.000000	10.581909
1022.000000	10.553999
1021.000000	10.563530
1020.000000	10.565727
1019.000000	10.558927
1018.000000	10.559910
1017.000000	10.580238
1016.000000	10.573442
1015.000000	10.559597
1014.000000	10.570467
1013.000000	10.575773
1012.000000	10.561906
1011.000000	10.563704
1010.000000	10.577494
1009.000000	10.553466
1008.000000	10.542084
1007.000000	10.572089
1006.000000	10.560961
1005.000000	10.569964
1004.000000	10.563371
1003.000000	10.561601
1002.000000	10.565015
1001.000000	10.555706
1000.000000	10.564358
999.000000	10.559178
998.000000	10.559691
997.000000	10.566316
996.000000	10.572996
995.000000	10.567535
994.000000	10.566369
993.000000	10.554588
992.000000	10.549800
991.000000	10.569870
990.000000	10.576192
989.000000	10.559430
988.000000	10.557715
987.000000	10.563041
986.000000	10.579875
985.000000	10.597039
984.000000	10.623156
983.000000	10.633250
982.000000	10.635368
981.000000	10.628909
980.000000	10.637771
979.000000	10.654641
978.000000	10.661856
977.000000	10.668754
976.000000	10.660239
975.000000	10.650279
974.000000	10.644753
973.000000	10.676887
972.000000	10.677693
971.000000	10.661619
970.000000	10.652140
969.000000	10.652193
968.000000	10.658693
967.000000	10.665778
966.000000	10.658609
965.000000	10.658350
964.000000	10.643481
963.000000	10.652010
962.000000	10.670273
961.000000	10.655980
960.000000	10.652949
959.000000	10.657647
958.000000	10.657411
957.000000	10.657713
956.000000	10.657716
955.000000	10.652937
954.000000	10.645475
953.000000	10.642690
952.000000	10.642376
951.000000	10.641997
950.000000	10.638462
949.000000	10.623217
948.000000	10.618342
947.000000	10.639278
946.000000	10.634021
945.000000	10.603930
944.000000	10.584299
943.000000	10.592236
942.000000	10.614539
941.000000	10.620716
940.000000	10.611065
939.000000	10.590708
938.000000	10.569818
937.000000	10.569014
936.000000	10.584406
935.000000	10.597202
934.000000	10.602799
933.000000	10.583150
932.000000	10.568770
931.000000	10.565098
930.000000	10.565787
929.000000	10.556332
928.000000	10.553289
927.000000	10.561057
926.000000	10.568839
925.000000	10.548976
924.000000	10.556654
923.000000	10.570194
922.000000	10.546883
921.000000	10.521519
920.000000	10.503341
919.000000	10.512710
918.000000	10.528584
917.000000	10.530382
916.000000	10.529545
915.000000	10.543466
914.000000	10.528048
913.000000	10.503955
912.000000	10.499869
911.000000	10.488707
910.000000	10.507168
909.000000	10.513958
908.000000	10.496259
907.000000	10.470655
906.000000	10.496927
905.000000	10.522591
904.000000	10.501535
903.000000	10.508097
902.000000	10.517314
901.000000	10.500791
900.000000	10.473759
899.000000	10.470839
898.000000	10.500068
897.000000	10.518534
896.000000	10.536403
895.000000	10.516735
894.000000	10.493749
893.000000	10.516268
892.000000	10.497418
891.000000	10.507711
890.000000	10.483469
889.000000	10.463574
888.000000	10.496267
887.000000	10.507027
886.000000	10.479768
885.000000	10.514170
884.000000	10.459890
883.000000	10.452025
882.000000	10.476248
881.000000	10.478853
880.000000	10.529347
879.000000	10.493125
878.000000	10.481794
877.000000	10.499624
876.000000	10.429565
875.000000	10.434883
874.000000	10.451001
873.000000	10.434497
872.000000	10.429873
871.000000	10.399740
870.000000	10.430974
869.000000	10.393155
868.000000	10.482960
867.000000	10.434933
866.000000	10.391694
865.000000	10.437093
864.000000	10.365397
863.000000	10.340897
862.000000	10.372186
861.000000	10.310953
860.000000	10.334079
859.000000	10.287302
858.000000	10.315389
857.000000	10.305522
856.000000	10.241503
855.000000	10.284057
854.000000	10.304262
853.000000	10.269592
852.000000	10.215016
851.000000	10.268322
850.000000	10.324993
849.000000	10.248965
848.000000	10.214750
847.000000	10.260686
846.000000	10.239119
845.000000	10.250643
844.000000	10.247249
843.000000	10.187720
842.000000	10.199557
841.000000	10.213768
840.000000	10.225375
839.000000	10.161244
838.000000	10.164181
837.000000	10.139394
836.000000	10.193145
835.000000	10.161432
834.000000	10.093985
833.000000	10.124241
832.000000	10.123701
831.000000	10.098304
830.000000	10.132005
829.000000	10.052472
828.000000	10.081595
827.000000	10.048714
826.000000	10.094526
825.000000	10.061743
824.000000	10.083873
823.000000	10.028982
822.000000	10.066985
821.000000	10.002459
820.000000	10.029318
819.000000	10.017805
818.000000	10.048979
817.000000	10.017623
816.000000	9.967306
815.000000	9.977075
814.000000	9.957361
813.000000	9.962851
812.000000	9.930085
811.000000	9.938864
810.000000	9.923900
809.000000	9.947065
808.000000	9.971235
807.000000	9.934511
806.000000	9.960462
805.000000	9.937260
804.000000	9.906843
803.000000	9.867070
802.000000	9.862528
801.000000	9.863947
800.000000	9.891619
799.000000	9.893860
798.000000	9.875228
797.000000	9.842953
796.000000	9.806091
795.000000	9.846127
794.000000	9.805589
793.000000	9.816961
792.000000	9.787057
791.000000	9.829468
790.000000	9.779095
789.000000	9.786970
788.000000	9.771887
787.000000	9.783824
786.000000	9.770751
785.000000	9.737866
784.000000	9.715940
783.000000	9.725633
782.000000	9.710175
781.000000	9.707979
780.000000	9.690024
779.000000	9.684218
778.000000	9.689764
777.000000	9.662956
776.000000	9.636063
775.000000	9.640590
774.000000	9.601153
773.000000	9.614918
772.000000	9.622503
771.000000	9.626416
770.000000	9.596858
769.000000	9.573470
768.000000	9.577331
767.000000	9.575031
766.000000	9.552967
765.000000	9.545138
764.000000	9.530472
763.000000	9.514961
762.000000	9.496192
761.000000	9.482924
760.000000	9.492761
759.000000	9.489190
758.000000	9.447535
757.000000	9.453424
756.000000	9.443680
755.000000	9.435193
754.000000	9.410738
753.000000	9.412058
752.000000	9.395225
751.000000	9.365332
750.000000	9.382473
749.000000	9.362501
748.000000	9.333249
747.000000	9.319082
746.000000	9.306105
745.000000	9.308814
744.000000	9.295198
743.000000	9.294915
742.000000	9.280433
741.000000	9.260019
740.000000	9.265975
739.000000	9.244520
738.000000	9.224817
737.000000	9.205644
736.000000	9.186524
735.000000	9.173647
734.000000	9.157196
733.000000	9.159958
732.000000	9.136121
731.000000	9.125312
730.000000	9.111152
729.000000	9.096772
728.000000	9.091585
727.000000	9.075586
726.000000	9.052180
725.000000	9.047790
724.000000	9.036378
723.000000	9.024537
722.000000	9.014926
721.000000	8.996123
720.000000	8.987758
719.000000	8.973665
718.000000	8.952192
717.000000	8.937205
716.000000	8.921174
715.000000	8.916346
714.000000	8.898297
713.000000	8.878853
712.000000	8.876299
711.000000	8.870345
710.000000	8.854434
709.000000	8.823696
708.000000	8.792643
707.000000	8.770796
706.000000	8.767471
705.000000	8.750010
704.000000	8.744308
703.000000	8.739202
702.000000	8.703211
701.000000	8.687808
700.000000	8.677511
699.000000	8.651263
698.000000	8.636930
697.000000	8.640024
696.000000	8.635218
695.000000	8.603494
694.000000	8.585598
693.000000	8.565966
692.000000	8.540749
691.000000	8.523554
690.000000	8.509921
689.000000	8.468687
688.000000	8.437947
687.000000	8.434930
686.000000	8.408432
685.000000	8.385147
684.000000	8.373340
683.000000	8.351026
682.000000	8.334421
681.000000	8.316277
680.000000	8.299517
679.000000	8.281254
678.000000	8.260839
677.000000	8.237039
676.000000	8.210309
675.000000	8.200051
674.000000	8.182428
673.000000	8.160243
672.000000	8.149094
671.000000	8.125526
670.000000	8.090327
669.000000	8.084369
668.000000	8.063938
667.000000	8.048756
666.000000	8.025112
665.000000	7.994686
664.000000	7.972747
663.000000	7.964788
662.000000	7.940283
661.000000	7.906809
660.000000	7.901473
659.000000	7.875340
658.000000	7.844096
657.000000	7.819934
656.000000	7.795481
655.000000	7.787584
654.000000	7.772069
653.000000	7.741327
652.000000	7.716616
651.000000	7.695926
650.000000	7.678564
649.000000	7.652293
648.000000	7.625269
647.000000	7.603134
646.000000	7.563554
645.000000	7.542864
644.000000	7.519781
643.000000	7.508435
642.000000	7.496142
641.000000	7.468574
640.000000	7.436584
639.000000	7.408436
638.000000	7.391767
637.000000	7.369057
636.000000	7.341662
635.000000	7.322372
634.000000	7.290343
633.000000	7.266328
632.000000	7.229828
631.000000	7.226243
630.000000	7.184560
629.000000	7.157908
628.000000	7.135127
627.000000	7.112533
626.000000	7.087623
625.000000	7.061901
624.000000	7.039583
623.000000	7.020751
622.000000	6.988034
621.000000	6.954219
620.000000	6.927967
619.000000	6.904836
618.000000	6.880082
617.000000	6.854276
616.000000	6.819346
615.000000	6.793425
614.000000	6.762846
613.000000	6.742415
612.000000	6.711591
611.000000	6.681089
610.000000	6.656204
609.000000	6.631612
608.000000	6.596777
607.000000	6.569062
606.000000	6.539447
605.000000	6.508571
604.000000	6.483253
603.000000	6.451205
602.000000	6.420102
601.000000	6.399838
600.000000	6.369905
599.000000	6.346640
598.000000	6.295637
597.000000	6.278956
596.000000	6.244468
595.000000	6.214994
594.000000	6.185740
593.000000	6.148799
592.000000	6.126202
591.000000	6.096511
590.000000	6.064320
589.000000	6.033221
588.000000	5.995961
587.000000	5.969757
586.000000	5.940216
585.000000	5.909902
584.000000	5.882287
583.000000	5.848778
582.000000	5.819722
581.000000	5.784714
580.000000	5.751558
579.000000	5.713109
578.000000	5.681468
577.000000	5.658100
576.000000	5.622878
575.000000	5.583605
574.000000	5.547240
573.000000	5.527260
572.000000	5.501310
571.000000	5.470059
570.000000	5.418109
569.000000	5.389344
568.000000	5.349102
567.000000	5.336562
566.000000	5.300383
565.000000	5.268801
564.000000	5.229999
563.000000	5.194487
562.000000	5.154744
561.000000	5.158255
560.000000	5.119829
559.000000	5.094305
558.000000	5.048350
557.000000	5.023958
556.000000	4.988080
555.000000	4.950244
554.000000	4.913436
553.000000	4.884387
552.000000	4.845760
551.000000	4.810580
550.000000	4.777661
549.000000	4.740272
548.000000	4.702828
547.000000	4.679510
546.000000	4.639556
545.000000	4.599952
544.000000	4.559782
543.000000	4.527149
542.000000	4.490124
541.000000	4.459301
540.000000	4.422404
539.000000	4.387571
538.000000	4.346323
537.000000	4.313259
536.000000	4.283594
535.000000	4.250093
534.000000	4.207980
533.000000	4.166799
532.000000	4.129842
531.000000	4.091623
530.000000	4.056807
529.000000	4.020645
528.000000	3.983472
527.000000	3.944225
526.000000	3.908633
525.000000	3.868640
524.000000	3.829572
523.000000	3.797853
522.000000	3.758361
521.000000	3.723111
520.000000	3.684902
519.000000	3.648907
518.000000	3.607859
517.000000	3.573930
516.000000	3.536066
515.000000	3.501096
514.000000	3.463099
513.000000	3.427716
512.000000	3.390604
511.000000	3.360469
510.000000	3.319171
509.000000	3.288530
508.000000	3.254113
507.000000	3.218231
506.000000	3.184480
505.000000	3.147864
504.000000	3.115668
503.000000	3.086001
502.000000	3.048879
501.000000	3.014785
500.000000	2.982064
499.000000	2.951436
498.000000	2.916545
497.000000	2.884311
496.000000	2.850167
495.000000	2.819043
494.000000	2.785620
493.000000	2.759692
492.000000	2.731994
491.000000	2.704441
490.000000	2.678096
489.000000	2.642623
488.000000	2.613446
487.000000	2.587169
486.000000	2.558308
485.000000	2.530761
484.000000	2.507825
483.000000	2.483562
482.000000	2.455884
481.000000	2.428319
480.000000	2.398484
479.000000	2.364646
478.000000	2.331000
477.000000	2.302417
476.000000	2.269253
475.000000	2.237918
474.000000	2.211485
473.000000	2.184766
472.000000	2.155502
471.000000	2.126652
470.000000	2.100145
469.000000	2.075732
468.000000	2.048008
467.000000	2.020887
466.000000	1.996183
465.000000	1.967065
464.000000	1.938713
463.000000	1.911618
462.000000	1.882833
461.000000	1.859532
460.000000	1.833155
459.000000	1.802437
458.000000	1.777768
457.000000	1.755358
456.000000	1.727819
455.000000	1.698712
454.000000	1.672133
453.000000	1.649955
452.000000	1.626242
451.000000	1.601256
450.000000	1.578118
449.000000	1.551365
448.000000	1.525278
447.000000	1.499687
446.000000	1.478513
445.000000	1.464639
444.000000	1.441720
443.000000	1.411033
442.000000	1.387622
441.000000	1.361436
440.000000	1.332854
439.000000	1.313743
438.000000	1.293344
437.000000	1.269085
436.000000	1.245598
435.000000	1.221508
434.000000	1.196705
433.000000	1.172878
432.000000	1.154839
431.000000	1.130734
430.000000	1.107168
429.000000	1.088384
428.000000	1.065986
427.000000	1.049704
426.000000	1.031591
425.000000	1.006862
424.000000	0.989078
423.000000	0.971977
422.000000	0.953275
421.000000	0.929660
420.000000	0.907609
419.000000	0.888893
418.000000	0.868639
417.000000	0.847611
416.000000	0.835364
415.000000	0.817289
414.000000	0.802961
413.000000	0.779219
412.000000	0.762100
411.000000	0.745780
410.000000	0.725883
409.000000	0.710541
408.000000	0.698612
407.000000	0.684487
406.000000	0.664941
405.000000	0.649915
404.000000	0.630124
403.000000	0.617718
402.000000	0.604602
401.000000	0.588402
400.000000	0.574112
399.000000	0.562259
398.000000	0.552275
397.000000	0.536624
396.000000	0.527997
395.000000	0.512155
394.000000	0.498640
393.000000	0.486574
392.000000	0.475280
391.000000	0.464222
390.000000	0.460048
389.000000	0.443387
388.000000	0.437421
387.000000	0.419020
386.000000	0.412479
385.000000	0.402072
384.000000	0.396383
383.000000	0.383440
382.000000	0.372195
381.000000	0.364392
380.000000	0.355175
379.000000	0.344801
378.000000	0.333061
377.000000	0.354610
376.000000	0.343698
375.000000	0.329049
374.000000	0.326737
373.000000	0.317473
372.000000	0.292606
371.000000	0.290783
370.000000	0.278331
369.000000	0.266230
368.000000	0.272301
367.000000	0.263946
366.000000	0.247887
365.000000	0.243858
364.000000	0.233815
363.000000	0.233941
362.000000	0.235230
361.000000	0.220854
360.000000	0.217603
359.000000	0.211699
358.000000	0.200568
357.000000	0.198629
356.000000	0.202596
355.000000	0.189634
354.000000	0.185403
353.000000	0.182955
352.000000	0.182621
351.000000	0.176809
350.000000	0.167396
349.000000	0.168217
348.000000	0.169991
347.000000	0.165577
346.000000	0.158249
345.000000	0.154451
344.000000	0.152732
343.000000	0.149942
342.000000	0.144861
341.000000	0.147374
340.000000	0.134629
339.000000	0.145104
338.000000	0.145474
337.000000	0.136789
336.000000	0.136308
335.000000	0.130545
334.000000	0.123828
333.000000	0.127393
332.000000	0.126506
331.000000	0.121731
330.000000	0.115512
329.000000	0.114131
328.000000	0.106148
327.000000	0.110542
326.000000	0.118129
325.000000	0.105740
324.000000	0.110014
323.000000	0.103232
322.000000	0.121866
321.000000	0.111366
320.000000	0.108281
319.000000	0.103754
318.000000	0.130911
317.000000	0.121956
316.000000	0.126229
315.000000	0.127498
314.000000	0.131434
313.000000	0.124378
312.000000	0.121159
311.000000	0.123196
310.000000	0.131933
309.000000	0.121395
308.000000	0.126741
307.000000	0.127679
306.000000	0.119686
305.000000	0.121342
304.000000	0.127980
303.000000	0.123555
302.000000	0.132770
301.000000	0.131123
300.000000	0.128331
299.000000	0.127658
298.000000	0.132018
297.000000	0.128697
296.000000	0.134609
295.000000	0.130786
294.000000	0.131998
293.000000	0.128924
292.000000	0.124597
291.000000	0.128463
290.000000	0.136398
289.000000	0.139051
288.000000	0.138108
287.000000	0.138910
286.000000	0.137528
285.000000	0.142661
284.000000	0.146670
283.000000	0.148978
282.000000	0.150476
281.000000	0.148992
280.000000	0.153582
279.000000	0.155282
278.000000	0.159759
277.000000	0.163488
276.000000	0.172364
275.000000	0.172998
274.000000	0.173204
273.000000	0.175529
272.000000	0.182956
271.000000	0.186650
270.000000	0.189986
269.000000	0.192680
268.000000	0.192504
267.000000	0.202836
266.000000	0.209611
265.000000	0.209804
264.000000	0.204671
263.000000	0.203862
262.000000	0.210219
261.000000	0.214342
260.000000	0.218664
259.000000	0.228323
258.000000	0.234471
257.000000	0.235435
256.000000	0.242435
255.000000	0.252715
254.000000	0.254230
253.000000	0.249512
252.000000	0.246995
251.000000	0.253349
250.000000	0.255468
249.000000	0.260413
248.000000	0.251547
247.000000	0.247765
246.000000	0.241265
245.000000	0.242282
244.000000	0.234945
243.000000	0.223288
242.000000	0.232792
241.000000	0.219445
240.000000	0.204585
239.000000	0.190036
238.000000	0.180804
237.000000	0.177124
236.000000	0.168464
235.000000	0.155707
234.000000	0.157416
233.000000	0.147374
232.000000	0.129015
231.000000	0.123119
230.000000	0.121933
229.000000	0.116553
228.000000	0.096650
227.000000	0.085333
226.000000	0.084706
225.000000	0.079498
224.000000	0.083112
223.000000	0.080508
222.000000	0.067649
221.000000	0.056022
220.000000	0.046892
219.000000	0.049291
218.000000	0.048713
217.000000	0.048949
216.000000	0.043206
215.000000	0.039117
214.000000	0.040205
213.000000	0.028975
212.000000	0.026604
211.000000	0.040087
210.000000	0.038940
209.000000	0.038260
208.000000	0.037370
207.000000	0.035860
206.000000	0.018312
205.000000	0.007625
204.000000	0.014207
203.000000	-0.001533
202.000000	0.000331
201.000000	0.026652
200.000000	0.045010
