PE UV       SUBTECH     SPECTRUM    ASCII       PEDS        4.00        
   -1
TTms1240122.Sample.asc
18/03/20
17:38:55.00
18/03/20
17:38:55.00
Administrator

200.000000
1
Lambda 750
750N8071901
PerkinElmer UV WinLab 6.0.4.0738 / 1.61.00 Lambda 900

0
0
3350/servo 860.8/2
0
0
UV/VIS
1
1
1
CommonBeamDepol,150mm sphere / downward view
0
0
0
0
Program
Program
3350/servo 860.8/2
3350/0.2 860.8/0.2
3350/0.2 860.8/0.2
0
1
 
 
 
0
 
860.8
319.2
860.8
Front
100
on
 
 
0
0
0
 
0
 
 
 
0
 
 
0
0
0
0
0
 
 
 
 
0
0


0
0
#HDR
-1
-1
#GR
nm
%T
1.0
0.0
2350.000000
-1.000000
2151
8
20.063736
0.023111
#DATA
2350.000000	13.782649
2349.000000	14.114562
2348.000000	13.849864
2347.000000	14.251273
2346.000000	14.157542
2345.000000	13.887543
2344.000000	13.451590
2343.000000	13.867631
2342.000000	13.679722
2341.000000	13.699967
2340.000000	14.194774
2339.000000	14.439223
2338.000000	14.205268
2337.000000	14.368541
2336.000000	14.309513
2335.000000	14.492705
2334.000000	14.274906
2333.000000	14.640368
2332.000000	14.638101
2331.000000	14.671531
2330.000000	14.356186
2329.000000	14.542679
2328.000000	14.467678
2327.000000	14.169608
2326.000000	14.169755
2325.000000	14.074050
2324.000000	14.294900
2323.000000	13.959157
2322.000000	14.038514
2321.000000	14.325436
2320.000000	14.168032
2319.000000	14.063066
2318.000000	13.747912
2317.000000	14.043921
2316.000000	13.761119
2315.000000	13.746141
2314.000000	13.821889
2313.000000	13.758727
2312.000000	13.623809
2311.000000	13.772912
2310.000000	13.864367
2309.000000	13.778008
2308.000000	13.552392
2307.000000	13.605042
2306.000000	13.463718
2305.000000	13.550530
2304.000000	13.644351
2303.000000	13.610603
2302.000000	13.484424
2301.000000	13.447907
2300.000000	13.095960
2299.000000	13.119292
2298.000000	13.141807
2297.000000	13.029020
2296.000000	13.084362
2295.000000	13.092262
2294.000000	13.076480
2293.000000	13.196546
2292.000000	13.145323
2291.000000	13.121688
2290.000000	13.049725
2289.000000	13.103355
2288.000000	13.201009
2287.000000	13.236533
2286.000000	13.141548
2285.000000	12.875109
2284.000000	13.024205
2283.000000	13.125930
2282.000000	12.984530
2281.000000	12.896264
2280.000000	12.952726
2279.000000	13.031038
2278.000000	12.918641
2277.000000	12.928083
2276.000000	13.010635
2275.000000	12.984777
2274.000000	12.873926
2273.000000	13.137712
2272.000000	13.202172
2271.000000	13.091235
2270.000000	13.106515
2269.000000	13.185107
2268.000000	13.253968
2267.000000	13.326597
2266.000000	13.386116
2265.000000	13.318942
2264.000000	13.439531
2263.000000	13.437815
2262.000000	13.418380
2261.000000	13.473237
2260.000000	13.534435
2259.000000	13.552465
2258.000000	13.773389
2257.000000	13.958165
2256.000000	13.990134
2255.000000	13.943523
2254.000000	13.983192
2253.000000	14.220345
2252.000000	14.318090
2251.000000	14.243538
2250.000000	14.283383
2249.000000	14.486718
2248.000000	14.579673
2247.000000	14.616571
2246.000000	14.658385
2245.000000	14.799282
2244.000000	14.902285
2243.000000	14.960034
2242.000000	15.045577
2241.000000	15.091262
2240.000000	15.174103
2239.000000	15.281072
2238.000000	15.326540
2237.000000	15.310870
2236.000000	15.416083
2235.000000	15.491141
2234.000000	15.465215
2233.000000	15.424973
2232.000000	15.339256
2231.000000	15.414932
2230.000000	15.463033
2229.000000	15.447808
2228.000000	15.461184
2227.000000	15.481653
2226.000000	15.451136
2225.000000	15.433434
2224.000000	15.352209
2223.000000	15.453054
2222.000000	15.432583
2221.000000	15.340632
2220.000000	15.351961
2219.000000	15.357076
2218.000000	15.237616
2217.000000	15.175705
2216.000000	15.238275
2215.000000	15.386562
2214.000000	15.347243
2213.000000	15.337877
2212.000000	15.284690
2211.000000	15.283120
2210.000000	15.238289
2209.000000	15.165007
2208.000000	15.130275
2207.000000	15.038050
2206.000000	15.062623
2205.000000	14.973310
2204.000000	15.037474
2203.000000	14.999449
2202.000000	14.908839
2201.000000	14.906070
2200.000000	14.970601
2199.000000	14.836577
2198.000000	14.793361
2197.000000	14.716683
2196.000000	14.661677
2195.000000	14.706711
2194.000000	14.621914
2193.000000	14.524733
2192.000000	14.691557
2191.000000	14.604420
2190.000000	14.688765
2189.000000	14.514781
2188.000000	14.379369
2187.000000	14.457651
2186.000000	14.443557
2185.000000	14.415190
2184.000000	14.470026
2183.000000	14.451373
2182.000000	14.565362
2181.000000	14.404357
2180.000000	14.379413
2179.000000	14.294808
2178.000000	14.308217
2177.000000	14.313110
2176.000000	14.322864
2175.000000	14.300727
2174.000000	14.389265
2173.000000	14.419265
2172.000000	14.504593
2171.000000	14.515643
2170.000000	14.472486
2169.000000	14.519593
2168.000000	14.641694
2167.000000	14.585204
2166.000000	14.629376
2165.000000	14.485575
2164.000000	14.609240
2163.000000	14.522700
2162.000000	14.748324
2161.000000	14.775471
2160.000000	14.692080
2159.000000	14.839265
2158.000000	14.822178
2157.000000	14.872288
2156.000000	14.923593
2155.000000	15.004548
2154.000000	15.052751
2153.000000	15.190305
2152.000000	15.272127
2151.000000	15.225127
2150.000000	15.326654
2149.000000	15.398483
2148.000000	15.538783
2147.000000	15.496481
2146.000000	15.342575
2145.000000	15.543252
2144.000000	15.561542
2143.000000	15.603931
2142.000000	15.639237
2141.000000	15.763821
2140.000000	15.829002
2139.000000	15.897505
2138.000000	15.811607
2137.000000	15.803726
2136.000000	15.880214
2135.000000	16.128697
2134.000000	15.989327
2133.000000	15.940832
2132.000000	16.029624
2131.000000	16.145015
2130.000000	16.213693
2129.000000	16.245180
2128.000000	16.143831
2127.000000	16.008090
2126.000000	16.163875
2125.000000	16.050650
2124.000000	16.169780
2123.000000	16.116260
2122.000000	16.258176
2121.000000	16.176673
2120.000000	16.124840
2119.000000	16.096256
2118.000000	16.317951
2117.000000	16.312407
2116.000000	16.388301
2115.000000	16.250723
2114.000000	16.205779
2113.000000	16.233028
2112.000000	16.082663
2111.000000	16.243385
2110.000000	16.397733
2109.000000	16.308995
2108.000000	16.192963
2107.000000	16.240117
2106.000000	16.202897
2105.000000	16.248393
2104.000000	16.302728
2103.000000	16.266085
2102.000000	16.264735
2101.000000	16.227127
2100.000000	16.307612
2099.000000	16.289837
2098.000000	16.239987
2097.000000	16.159573
2096.000000	16.119793
2095.000000	16.125704
2094.000000	16.201314
2093.000000	16.113010
2092.000000	16.268120
2091.000000	16.206530
2090.000000	16.190425
2089.000000	16.166623
2088.000000	16.160405
2087.000000	16.077156
2086.000000	16.027378
2085.000000	16.086655
2084.000000	16.066028
2083.000000	15.932981
2082.000000	15.966423
2081.000000	15.968095
2080.000000	15.889888
2079.000000	15.882183
2078.000000	15.826361
2077.000000	15.792908
2076.000000	15.796271
2075.000000	15.695672
2074.000000	15.600063
2073.000000	15.613434
2072.000000	15.568588
2071.000000	15.519737
2070.000000	15.502887
2069.000000	15.452977
2068.000000	15.379790
2067.000000	15.314373
2066.000000	15.303379
2065.000000	15.194880
2064.000000	15.109676
2063.000000	14.995673
2062.000000	14.974688
2061.000000	14.926190
2060.000000	14.871839
2059.000000	14.846659
2058.000000	14.825611
2057.000000	14.750551
2056.000000	14.686013
2055.000000	14.588307
2054.000000	14.500933
2053.000000	14.503764
2052.000000	14.439304
2051.000000	14.343648
2050.000000	14.338058
2049.000000	14.305168
2048.000000	14.281738
2047.000000	14.278264
2046.000000	14.254590
2045.000000	14.178502
2044.000000	14.189390
2043.000000	14.239489
2042.000000	14.230240
2041.000000	14.215511
2040.000000	14.221194
2039.000000	14.189051
2038.000000	14.179485
2037.000000	14.203540
2036.000000	14.228494
2035.000000	14.256684
2034.000000	14.313112
2033.000000	14.351189
2032.000000	14.415540
2031.000000	14.404917
2030.000000	14.392874
2029.000000	14.443998
2028.000000	14.465516
2027.000000	14.484611
2026.000000	14.556634
2025.000000	14.610371
2024.000000	14.626241
2023.000000	14.659857
2022.000000	14.683621
2021.000000	14.678610
2020.000000	14.702421
2019.000000	14.719057
2018.000000	14.704403
2017.000000	14.701622
2016.000000	14.677881
2015.000000	14.657655
2014.000000	14.654410
2013.000000	14.635877
2012.000000	14.625224
2011.000000	14.611309
2010.000000	14.580997
2009.000000	14.575833
2008.000000	14.540728
2007.000000	14.480518
2006.000000	14.438387
2005.000000	14.389056
2004.000000	14.324537
2003.000000	14.295279
2002.000000	14.245666
2001.000000	14.189829
2000.000000	14.170023
1999.000000	14.146277
1998.000000	14.090244
1997.000000	14.066679
1996.000000	14.042181
1995.000000	13.952891
1994.000000	13.903601
1993.000000	13.885077
1992.000000	13.787494
1991.000000	13.748995
1990.000000	13.723129
1989.000000	13.643680
1988.000000	13.592147
1987.000000	13.581596
1986.000000	13.517501
1985.000000	13.458641
1984.000000	13.393147
1983.000000	13.351327
1982.000000	13.319976
1981.000000	13.277558
1980.000000	13.210522
1979.000000	13.136130
1978.000000	13.130283
1977.000000	13.098524
1976.000000	13.043063
1975.000000	13.032990
1974.000000	12.940064
1973.000000	12.910905
1972.000000	12.876023
1971.000000	12.813002
1970.000000	12.770116
1969.000000	12.751752
1968.000000	12.688283
1967.000000	12.621249
1966.000000	12.620218
1965.000000	12.577440
1964.000000	12.521922
1963.000000	12.491368
1962.000000	12.429364
1961.000000	12.365554
1960.000000	12.356213
1959.000000	12.297674
1958.000000	12.263947
1957.000000	12.245006
1956.000000	12.213513
1955.000000	12.204450
1954.000000	12.128064
1953.000000	12.146539
1952.000000	12.114328
1951.000000	12.122529
1950.000000	12.052172
1949.000000	12.046776
1948.000000	12.034085
1947.000000	11.975580
1946.000000	12.003125
1945.000000	11.997479
1944.000000	12.010813
1943.000000	12.044451
1942.000000	11.997048
1941.000000	12.001144
1940.000000	12.101973
1939.000000	12.079043
1938.000000	12.061736
1937.000000	12.168055
1936.000000	12.209315
1935.000000	12.241176
1934.000000	12.263851
1933.000000	12.283085
1932.000000	12.349269
1931.000000	12.330634
1930.000000	12.512351
1929.000000	12.519159
1928.000000	12.577588
1927.000000	12.622337
1926.000000	12.692704
1925.000000	12.842548
1924.000000	12.955038
1923.000000	13.042430
1922.000000	13.083576
1921.000000	13.265895
1920.000000	13.330441
1919.000000	13.420753
1918.000000	13.576047
1917.000000	13.718686
1916.000000	13.775619
1915.000000	13.912661
1914.000000	14.076526
1913.000000	14.228273
1912.000000	14.320023
1911.000000	14.412862
1910.000000	14.564045
1909.000000	14.745093
1908.000000	14.967814
1907.000000	15.087975
1906.000000	15.247104
1905.000000	15.322300
1904.000000	15.576366
1903.000000	15.782058
1902.000000	15.928438
1901.000000	16.108237
1900.000000	16.287328
1899.000000	16.423766
1898.000000	16.647928
1897.000000	16.812327
1896.000000	16.967372
1895.000000	17.112267
1894.000000	17.292381
1893.000000	17.418250
1892.000000	17.574321
1891.000000	17.732818
1890.000000	17.878071
1889.000000	18.000030
1888.000000	18.180186
1887.000000	18.315424
1886.000000	18.440757
1885.000000	18.556623
1884.000000	18.666450
1883.000000	18.804046
1882.000000	18.905396
1881.000000	19.026966
1880.000000	19.096469
1879.000000	19.176835
1878.000000	19.278169
1877.000000	19.365296
1876.000000	19.446800
1875.000000	19.585230
1874.000000	19.628160
1873.000000	19.645328
1872.000000	19.745323
1871.000000	19.788686
1870.000000	19.836749
1869.000000	19.876591
1868.000000	19.924819
1867.000000	19.979854
1866.000000	19.962715
1865.000000	20.001600
1864.000000	19.942986
1863.000000	19.970015
1862.000000	19.988635
1861.000000	19.984058
1860.000000	20.027348
1859.000000	20.029932
1858.000000	20.029556
1857.000000	20.031001
1856.000000	20.037666
1855.000000	20.050763
1854.000000	20.063736
1853.000000	20.055610
1852.000000	20.057845
1851.000000	20.055368
1850.000000	20.029836
1849.000000	20.016851
1848.000000	20.052957
1847.000000	20.038790
1846.000000	20.033578
1845.000000	20.063704
1844.000000	20.048758
1843.000000	20.047184
1842.000000	20.049434
1841.000000	20.004638
1840.000000	19.992852
1839.000000	19.980882
1838.000000	19.974127
1837.000000	19.942672
1836.000000	19.913409
1835.000000	19.899271
1834.000000	19.861290
1833.000000	19.844817
1832.000000	19.831700
1831.000000	19.791209
1830.000000	19.789481
1829.000000	19.756136
1828.000000	19.736186
1827.000000	19.702940
1826.000000	19.687941
1825.000000	19.651113
1824.000000	19.639468
1823.000000	19.645706
1822.000000	19.622060
1821.000000	19.598304
1820.000000	19.597793
1819.000000	19.577971
1818.000000	19.561357
1817.000000	19.535058
1816.000000	19.509260
1815.000000	19.507548
1814.000000	19.483341
1813.000000	19.464008
1812.000000	19.452402
1811.000000	19.453817
1810.000000	19.447250
1809.000000	19.432240
1808.000000	19.402526
1807.000000	19.377839
1806.000000	19.371578
1805.000000	19.357469
1804.000000	19.338042
1803.000000	19.327799
1802.000000	19.319420
1801.000000	19.319290
1800.000000	19.305490
1799.000000	19.278084
1798.000000	19.274105
1797.000000	19.273899
1796.000000	19.254574
1795.000000	19.244483
1794.000000	19.267516
1793.000000	19.258191
1792.000000	19.235205
1791.000000	19.226231
1790.000000	19.226317
1789.000000	19.225896
1788.000000	19.229089
1787.000000	19.227494
1786.000000	19.223015
1785.000000	19.198666
1784.000000	19.195741
1783.000000	19.208139
1782.000000	19.221921
1781.000000	19.199258
1780.000000	19.172662
1779.000000	19.179478
1778.000000	19.173006
1777.000000	19.151018
1776.000000	19.146958
1775.000000	19.135283
1774.000000	19.107265
1773.000000	19.097792
1772.000000	19.068359
1771.000000	19.030470
1770.000000	19.009000
1769.000000	18.987325
1768.000000	18.986910
1767.000000	18.964293
1766.000000	18.937560
1765.000000	18.932871
1764.000000	18.910923
1763.000000	18.875848
1762.000000	18.857102
1761.000000	18.842978
1760.000000	18.802196
1759.000000	18.777742
1758.000000	18.772963
1757.000000	18.758663
1756.000000	18.724359
1755.000000	18.708501
1754.000000	18.694184
1753.000000	18.672991
1752.000000	18.651292
1751.000000	18.653466
1750.000000	18.639750
1749.000000	18.606721
1748.000000	18.596917
1747.000000	18.551214
1746.000000	18.533876
1745.000000	18.515064
1744.000000	18.478292
1743.000000	18.470672
1742.000000	18.445129
1741.000000	18.417263
1740.000000	18.405249
1739.000000	18.382081
1738.000000	18.381348
1737.000000	18.348570
1736.000000	18.349876
1735.000000	18.322041
1734.000000	18.328748
1733.000000	18.318192
1732.000000	18.318019
1731.000000	18.333682
1730.000000	18.338000
1729.000000	18.334518
1728.000000	18.371923
1727.000000	18.373795
1726.000000	18.342122
1725.000000	18.376095
1724.000000	18.393484
1723.000000	18.416544
1722.000000	18.433018
1721.000000	18.468850
1720.000000	18.499035
1719.000000	18.535677
1718.000000	18.510546
1717.000000	18.559985
1716.000000	18.584911
1715.000000	18.611065
1714.000000	18.627710
1713.000000	18.656393
1712.000000	18.651806
1711.000000	18.690252
1710.000000	18.682121
1709.000000	18.701080
1708.000000	18.710447
1707.000000	18.707351
1706.000000	18.741762
1705.000000	18.734442
1704.000000	18.769952
1703.000000	18.729399
1702.000000	18.758488
1701.000000	18.758220
1700.000000	18.765693
1699.000000	18.733421
1698.000000	18.765272
1697.000000	18.760034
1696.000000	18.798112
1695.000000	18.781067
1694.000000	18.785609
1693.000000	18.808553
1692.000000	18.820111
1691.000000	18.844583
1690.000000	18.864278
1689.000000	18.870059
1688.000000	18.896843
1687.000000	18.925106
1686.000000	18.959445
1685.000000	18.999469
1684.000000	19.038145
1683.000000	19.064414
1682.000000	19.103463
1681.000000	19.154493
1680.000000	19.183576
1679.000000	19.218208
1678.000000	19.259612
1677.000000	19.293835
1676.000000	19.348864
1675.000000	19.392007
1674.000000	19.451437
1673.000000	19.478755
1672.000000	19.504467
1671.000000	19.548102
1670.000000	19.570367
1669.000000	19.583933
1668.000000	19.574888
1667.000000	19.615108
1666.000000	19.626288
1665.000000	19.634166
1664.000000	19.647523
1663.000000	19.666875
1662.000000	19.710404
1661.000000	19.730299
1660.000000	19.724242
1659.000000	19.758498
1658.000000	19.767592
1657.000000	19.783988
1656.000000	19.796750
1655.000000	19.789710
1654.000000	19.805115
1653.000000	19.816534
1652.000000	19.826585
1651.000000	19.802612
1650.000000	19.790185
1649.000000	19.762809
1648.000000	19.760753
1647.000000	19.776478
1646.000000	19.763575
1645.000000	19.748942
1644.000000	19.739348
1643.000000	19.719228
1642.000000	19.728798
1641.000000	19.723650
1640.000000	19.706608
1639.000000	19.681964
1638.000000	19.685271
1637.000000	19.674472
1636.000000	19.651975
1635.000000	19.649589
1634.000000	19.618406
1633.000000	19.581677
1632.000000	19.588880
1631.000000	19.592386
1630.000000	19.561482
1629.000000	19.552245
1628.000000	19.538497
1627.000000	19.498403
1626.000000	19.482474
1625.000000	19.480504
1624.000000	19.480150
1623.000000	19.487767
1622.000000	19.460597
1621.000000	19.433702
1620.000000	19.419103
1619.000000	19.391248
1618.000000	19.379319
1617.000000	19.380665
1616.000000	19.354328
1615.000000	19.332300
1614.000000	19.307127
1613.000000	19.287026
1612.000000	19.271509
1611.000000	19.256477
1610.000000	19.238891
1609.000000	19.208611
1608.000000	19.191395
1607.000000	19.194090
1606.000000	19.176098
1605.000000	19.141380
1604.000000	19.123080
1603.000000	19.111947
1602.000000	19.097622
1601.000000	19.071012
1600.000000	19.053670
1599.000000	19.036035
1598.000000	19.025146
1597.000000	19.017734
1596.000000	18.992691
1595.000000	18.973352
1594.000000	18.958537
1593.000000	18.939241
1592.000000	18.924136
1591.000000	18.912958
1590.000000	18.894039
1589.000000	18.874577
1588.000000	18.855501
1587.000000	18.845658
1586.000000	18.828729
1585.000000	18.811137
1584.000000	18.801296
1583.000000	18.794223
1582.000000	18.781326
1581.000000	18.762285
1580.000000	18.753723
1579.000000	18.752417
1578.000000	18.742629
1577.000000	18.717639
1576.000000	18.692903
1575.000000	18.688715
1574.000000	18.669489
1573.000000	18.643853
1572.000000	18.628393
1571.000000	18.620891
1570.000000	18.611981
1569.000000	18.588608
1568.000000	18.570840
1567.000000	18.559452
1566.000000	18.542976
1565.000000	18.523246
1564.000000	18.510808
1563.000000	18.514971
1562.000000	18.501635
1561.000000	18.481133
1560.000000	18.468823
1559.000000	18.452068
1558.000000	18.439045
1557.000000	18.434321
1556.000000	18.426633
1555.000000	18.424497
1554.000000	18.398107
1553.000000	18.376543
1552.000000	18.368554
1551.000000	18.354982
1550.000000	18.337696
1549.000000	18.315311
1548.000000	18.303552
1547.000000	18.290310
1546.000000	18.262281
1545.000000	18.230687
1544.000000	18.214110
1543.000000	18.188347
1542.000000	18.169405
1541.000000	18.128063
1540.000000	18.112130
1539.000000	18.083027
1538.000000	18.053766
1537.000000	18.018907
1536.000000	17.982430
1535.000000	17.965009
1534.000000	17.934686
1533.000000	17.898814
1532.000000	17.867955
1531.000000	17.828912
1530.000000	17.797986
1529.000000	17.787541
1528.000000	17.793149
1527.000000	17.830363
1526.000000	17.864766
1525.000000	17.861103
1524.000000	17.805198
1523.000000	17.753861
1522.000000	17.688305
1521.000000	17.645746
1520.000000	17.630004
1519.000000	17.607139
1518.000000	17.587761
1517.000000	17.561007
1516.000000	17.560904
1515.000000	17.535181
1514.000000	17.525670
1513.000000	17.504351
1512.000000	17.471163
1511.000000	17.466686
1510.000000	17.466603
1509.000000	17.445811
1508.000000	17.427480
1507.000000	17.395218
1506.000000	17.402272
1505.000000	17.389028
1504.000000	17.377263
1503.000000	17.362925
1502.000000	17.347202
1501.000000	17.356919
1500.000000	17.379227
1499.000000	17.367036
1498.000000	17.343747
1497.000000	17.330787
1496.000000	17.339004
1495.000000	17.344220
1494.000000	17.330300
1493.000000	17.337093
1492.000000	17.339499
1491.000000	17.340806
1490.000000	17.345315
1489.000000	17.350785
1488.000000	17.357735
1487.000000	17.359785
1486.000000	17.357876
1485.000000	17.379325
1484.000000	17.361363
1483.000000	17.363343
1482.000000	17.364048
1481.000000	17.382841
1480.000000	17.406936
1479.000000	17.412697
1478.000000	17.416609
1477.000000	17.440136
1476.000000	17.460076
1475.000000	17.467657
1474.000000	17.471001
1473.000000	17.481280
1472.000000	17.469098
1471.000000	17.504412
1470.000000	17.513920
1469.000000	17.528877
1468.000000	17.514167
1467.000000	17.514345
1466.000000	17.521640
1465.000000	17.530647
1464.000000	17.543972
1463.000000	17.548446
1462.000000	17.528966
1461.000000	17.528651
1460.000000	17.545699
1459.000000	17.578826
1458.000000	17.565033
1457.000000	17.538672
1456.000000	17.540090
1455.000000	17.571006
1454.000000	17.612570
1453.000000	17.601540
1452.000000	17.598587
1451.000000	17.585346
1450.000000	17.593173
1449.000000	17.630380
1448.000000	17.636481
1447.000000	17.640927
1446.000000	17.648377
1445.000000	17.650035
1444.000000	17.661519
1443.000000	17.694187
1442.000000	17.702364
1441.000000	17.700501
1440.000000	17.721127
1439.000000	17.739219
1438.000000	17.754213
1437.000000	17.782454
1436.000000	17.793971
1435.000000	17.800008
1434.000000	17.830489
1433.000000	17.852533
1432.000000	17.877357
1431.000000	17.900430
1430.000000	17.932530
1429.000000	17.955290
1428.000000	17.962986
1427.000000	18.008115
1426.000000	18.036330
1425.000000	18.060984
1424.000000	18.107250
1423.000000	18.153668
1422.000000	18.187079
1421.000000	18.221206
1420.000000	18.260819
1419.000000	18.296075
1418.000000	18.316248
1417.000000	18.370609
1416.000000	18.426704
1415.000000	18.472559
1414.000000	18.493685
1413.000000	18.529889
1412.000000	18.573624
1411.000000	18.627640
1410.000000	18.673976
1409.000000	18.701398
1408.000000	18.744897
1407.000000	18.805753
1406.000000	18.864290
1405.000000	18.906157
1404.000000	18.913014
1403.000000	18.953813
1402.000000	19.000314
1401.000000	19.038691
1400.000000	19.090561
1399.000000	19.133469
1398.000000	19.169172
1397.000000	19.200224
1396.000000	19.232010
1395.000000	19.262424
1394.000000	19.290613
1393.000000	19.320378
1392.000000	19.340835
1391.000000	19.364965
1390.000000	19.383204
1389.000000	19.406393
1388.000000	19.430523
1387.000000	19.466592
1386.000000	19.502139
1385.000000	19.507548
1384.000000	19.514691
1383.000000	19.545751
1382.000000	19.565305
1381.000000	19.550515
1380.000000	19.549412
1379.000000	19.575471
1378.000000	19.591124
1377.000000	19.597394
1376.000000	19.593084
1375.000000	19.585464
1374.000000	19.581444
1373.000000	19.583287
1372.000000	19.598429
1371.000000	19.599721
1370.000000	19.583544
1369.000000	19.593733
1368.000000	19.601608
1367.000000	19.608061
1366.000000	19.604348
1365.000000	19.600841
1364.000000	19.615414
1363.000000	19.621673
1362.000000	19.621902
1361.000000	19.622193
1360.000000	19.628605
1359.000000	19.640178
1358.000000	19.650694
1357.000000	19.651862
1356.000000	19.636346
1355.000000	19.630022
1354.000000	19.643914
1353.000000	19.642601
1352.000000	19.637686
1351.000000	19.629805
1350.000000	19.633060
1349.000000	19.641401
1348.000000	19.628909
1347.000000	19.614351
1346.000000	19.625300
1345.000000	19.630496
1344.000000	19.625762
1343.000000	19.610212
1342.000000	19.600887
1341.000000	19.592837
1340.000000	19.607845
1339.000000	19.638467
1338.000000	19.641843
1337.000000	19.628614
1336.000000	19.622977
1335.000000	19.619831
1334.000000	19.610784
1333.000000	19.604333
1332.000000	19.619978
1331.000000	19.640784
1330.000000	19.646887
1329.000000	19.608591
1328.000000	19.588123
1327.000000	19.604643
1326.000000	19.607367
1325.000000	19.586904
1324.000000	19.592658
1323.000000	19.591192
1322.000000	19.585344
1321.000000	19.564997
1320.000000	19.577076
1319.000000	19.552686
1318.000000	19.555049
1317.000000	19.551365
1316.000000	19.529147
1315.000000	19.536344
1314.000000	19.521914
1313.000000	19.489255
1312.000000	19.498257
1311.000000	19.508573
1310.000000	19.490566
1309.000000	19.483091
1308.000000	19.499390
1307.000000	19.472791
1306.000000	19.456659
1305.000000	19.436875
1304.000000	19.435455
1303.000000	19.449329
1302.000000	19.435805
1301.000000	19.421271
1300.000000	19.412881
1299.000000	19.402012
1298.000000	19.395284
1297.000000	19.388762
1296.000000	19.388608
1295.000000	19.375996
1294.000000	19.370509
1293.000000	19.372527
1292.000000	19.388547
1291.000000	19.373536
1290.000000	19.367523
1289.000000	19.375207
1288.000000	19.370426
1287.000000	19.352109
1286.000000	19.356164
1285.000000	19.319535
1284.000000	19.309947
1283.000000	19.304729
1282.000000	19.307128
1281.000000	19.317448
1280.000000	19.312703
1279.000000	19.314574
1278.000000	19.302287
1277.000000	19.285401
1276.000000	19.287561
1275.000000	19.280043
1274.000000	19.264041
1273.000000	19.254005
1272.000000	19.260729
1271.000000	19.241631
1270.000000	19.253223
1269.000000	19.242702
1268.000000	19.233775
1267.000000	19.223545
1266.000000	19.204691
1265.000000	19.197488
1264.000000	19.198912
1263.000000	19.220672
1262.000000	19.209194
1261.000000	19.202897
1260.000000	19.187418
1259.000000	19.159734
1258.000000	19.176789
1257.000000	19.195460
1256.000000	19.183737
1255.000000	19.165014
1254.000000	19.148276
1253.000000	19.133074
1252.000000	19.123348
1251.000000	19.139007
1250.000000	19.128300
1249.000000	19.104032
1248.000000	19.106590
1247.000000	19.088876
1246.000000	19.097632
1245.000000	19.105716
1244.000000	19.092680
1243.000000	19.093609
1242.000000	19.082286
1241.000000	19.054389
1240.000000	19.042562
1239.000000	19.055492
1238.000000	19.053306
1237.000000	19.017952
1236.000000	19.005591
1235.000000	19.018645
1234.000000	19.028173
1233.000000	18.987430
1232.000000	18.987306
1231.000000	19.002053
1230.000000	19.000050
1229.000000	18.993706
1228.000000	18.954005
1227.000000	18.947979
1226.000000	18.959205
1225.000000	18.944097
1224.000000	18.947107
1223.000000	18.948222
1222.000000	18.937950
1221.000000	18.917654
1220.000000	18.904375
1219.000000	18.889681
1218.000000	18.871926
1217.000000	18.871750
1216.000000	18.850047
1215.000000	18.830794
1214.000000	18.813568
1213.000000	18.822469
1212.000000	18.826275
1211.000000	18.796172
1210.000000	18.790284
1209.000000	18.783981
1208.000000	18.754012
1207.000000	18.736512
1206.000000	18.726773
1205.000000	18.706508
1204.000000	18.693763
1203.000000	18.690896
1202.000000	18.685477
1201.000000	18.643962
1200.000000	18.630388
1199.000000	18.634717
1198.000000	18.622055
1197.000000	18.610063
1196.000000	18.601162
1195.000000	18.574968
1194.000000	18.570347
1193.000000	18.565532
1192.000000	18.538214
1191.000000	18.534782
1190.000000	18.510679
1189.000000	18.466899
1188.000000	18.469910
1187.000000	18.477685
1186.000000	18.458284
1185.000000	18.436251
1184.000000	18.433626
1183.000000	18.441907
1182.000000	18.440704
1181.000000	18.416676
1180.000000	18.427072
1179.000000	18.444673
1178.000000	18.452014
1177.000000	18.464555
1176.000000	18.473976
1175.000000	18.482378
1174.000000	18.493318
1173.000000	18.498100
1172.000000	18.503528
1171.000000	18.503792
1170.000000	18.518213
1169.000000	18.535710
1168.000000	18.539045
1167.000000	18.545996
1166.000000	18.551091
1165.000000	18.552328
1164.000000	18.563014
1163.000000	18.570556
1162.000000	18.580767
1161.000000	18.590658
1160.000000	18.606129
1159.000000	18.607616
1158.000000	18.598045
1157.000000	18.613356
1156.000000	18.622861
1155.000000	18.622311
1154.000000	18.634509
1153.000000	18.630739
1152.000000	18.616538
1151.000000	18.608143
1150.000000	18.609580
1149.000000	18.624452
1148.000000	18.640752
1147.000000	18.648284
1146.000000	18.648288
1145.000000	18.647852
1144.000000	18.648649
1143.000000	18.656937
1142.000000	18.660983
1141.000000	18.666387
1140.000000	18.676935
1139.000000	18.678445
1138.000000	18.681121
1137.000000	18.689909
1136.000000	18.693213
1135.000000	18.682483
1134.000000	18.659717
1133.000000	18.648789
1132.000000	18.647997
1131.000000	18.659075
1130.000000	18.681283
1129.000000	18.685165
1128.000000	18.686145
1127.000000	18.683152
1126.000000	18.673949
1125.000000	18.676631
1124.000000	18.678753
1123.000000	18.668385
1122.000000	18.667047
1121.000000	18.663978
1120.000000	18.668032
1119.000000	18.640226
1118.000000	18.618939
1117.000000	18.620882
1116.000000	18.616705
1115.000000	18.616717
1114.000000	18.617726
1113.000000	18.623157
1112.000000	18.625204
1111.000000	18.627890
1110.000000	18.614866
1109.000000	18.611052
1108.000000	18.603647
1107.000000	18.600308
1106.000000	18.608226
1105.000000	18.604405
1104.000000	18.602137
1103.000000	18.599096
1102.000000	18.560852
1101.000000	18.546978
1100.000000	18.550487
1099.000000	18.547498
1098.000000	18.556838
1097.000000	18.560584
1096.000000	18.551331
1095.000000	18.546427
1094.000000	18.548810
1093.000000	18.529869
1092.000000	18.509572
1091.000000	18.516620
1090.000000	18.526018
1089.000000	18.527209
1088.000000	18.520113
1087.000000	18.514466
1086.000000	18.481456
1085.000000	18.478927
1084.000000	18.473838
1083.000000	18.488396
1082.000000	18.491028
1081.000000	18.484269
1080.000000	18.460340
1079.000000	18.440251
1078.000000	18.456279
1077.000000	18.466388
1076.000000	18.443050
1075.000000	18.467813
1074.000000	18.464285
1073.000000	18.420917
1072.000000	18.394412
1071.000000	18.414561
1070.000000	18.417937
1069.000000	18.418677
1068.000000	18.437604
1067.000000	18.434625
1066.000000	18.419329
1065.000000	18.401870
1064.000000	18.379031
1063.000000	18.385368
1062.000000	18.397629
1061.000000	18.401146
1060.000000	18.378935
1059.000000	18.395643
1058.000000	18.346877
1057.000000	18.353745
1056.000000	18.353738
1055.000000	18.377306
1054.000000	18.377349
1053.000000	18.373078
1052.000000	18.341582
1051.000000	18.337906
1050.000000	18.312199
1049.000000	18.345254
1048.000000	18.292771
1047.000000	18.331506
1046.000000	18.313088
1045.000000	18.310039
1044.000000	18.307401
1043.000000	18.284818
1042.000000	18.271793
1041.000000	18.306679
1040.000000	18.305041
1039.000000	18.315756
1038.000000	18.262951
1037.000000	18.266367
1036.000000	18.276775
1035.000000	18.274803
1034.000000	18.254333
1033.000000	18.249005
1032.000000	18.266790
1031.000000	18.264424
1030.000000	18.251280
1029.000000	18.244793
1028.000000	18.259637
1027.000000	18.245838
1026.000000	18.228447
1025.000000	18.235138
1024.000000	18.232489
1023.000000	18.215460
1022.000000	18.201468
1021.000000	18.214266
1020.000000	18.228819
1019.000000	18.213761
1018.000000	18.212579
1017.000000	18.207105
1016.000000	18.207483
1015.000000	18.205718
1014.000000	18.210729
1013.000000	18.220607
1012.000000	18.214155
1011.000000	18.179817
1010.000000	18.173019
1009.000000	18.194816
1008.000000	18.206227
1007.000000	18.204923
1006.000000	18.204331
1005.000000	18.198238
1004.000000	18.173277
1003.000000	18.179682
1002.000000	18.188199
1001.000000	18.169069
1000.000000	18.167382
999.000000	18.187360
998.000000	18.176286
997.000000	18.183119
996.000000	18.160586
995.000000	18.152940
994.000000	18.157926
993.000000	18.158934
992.000000	18.137767
991.000000	18.147763
990.000000	18.162993
989.000000	18.160576
988.000000	18.155094
987.000000	18.166997
986.000000	18.161402
985.000000	18.180735
984.000000	18.197976
983.000000	18.199255
982.000000	18.198577
981.000000	18.197075
980.000000	18.201174
979.000000	18.190109
978.000000	18.177025
977.000000	18.187057
976.000000	18.188371
975.000000	18.185895
974.000000	18.175027
973.000000	18.168261
972.000000	18.173982
971.000000	18.165006
970.000000	18.147503
969.000000	18.153630
968.000000	18.156257
967.000000	18.143059
966.000000	18.122869
965.000000	18.124033
964.000000	18.127825
963.000000	18.133391
962.000000	18.138096
961.000000	18.119078
960.000000	18.101418
959.000000	18.095846
958.000000	18.076941
957.000000	18.068979
956.000000	18.075025
955.000000	18.075872
954.000000	18.058126
953.000000	18.047955
952.000000	18.038715
951.000000	18.032963
950.000000	18.027897
949.000000	18.028830
948.000000	18.024583
947.000000	18.033563
946.000000	18.033246
945.000000	18.020442
944.000000	17.993889
943.000000	17.974038
942.000000	17.964051
941.000000	17.947324
940.000000	17.943126
939.000000	17.952737
938.000000	17.948783
937.000000	17.923874
936.000000	17.912938
935.000000	17.908276
934.000000	17.906629
933.000000	17.918027
932.000000	17.919447
931.000000	17.890498
930.000000	17.878744
929.000000	17.863369
928.000000	17.843366
927.000000	17.849947
926.000000	17.854619
925.000000	17.836370
924.000000	17.825765
923.000000	17.826408
922.000000	17.801546
921.000000	17.813558
920.000000	17.811760
919.000000	17.770155
918.000000	17.789277
917.000000	17.775021
916.000000	17.753159
915.000000	17.750818
914.000000	17.735140
913.000000	17.727817
912.000000	17.734050
911.000000	17.717504
910.000000	17.719129
909.000000	17.689284
908.000000	17.660942
907.000000	17.683538
906.000000	17.666190
905.000000	17.657455
904.000000	17.631988
903.000000	17.644353
902.000000	17.629144
901.000000	17.624207
900.000000	17.622833
899.000000	17.628236
898.000000	17.631563
897.000000	17.626870
896.000000	17.609116
895.000000	17.611144
894.000000	17.605050
893.000000	17.547186
892.000000	17.545688
891.000000	17.572004
890.000000	17.521696
889.000000	17.504942
888.000000	17.539150
887.000000	17.488523
886.000000	17.497633
885.000000	17.512053
884.000000	17.464975
883.000000	17.448040
882.000000	17.484624
881.000000	17.524975
880.000000	17.469057
879.000000	17.412214
878.000000	17.446919
877.000000	17.447502
876.000000	17.390926
875.000000	17.397302
874.000000	17.445095
873.000000	17.430466
872.000000	17.454432
871.000000	17.401732
870.000000	17.403605
869.000000	17.344379
868.000000	17.310824
867.000000	17.318561
866.000000	17.289435
865.000000	17.329767
864.000000	17.347441
863.000000	17.327283
862.000000	17.172009
861.000000	17.218117
860.000000	17.232757
859.000000	17.441985
858.000000	17.507947
857.000000	17.561290
856.000000	17.448456
855.000000	17.471621
854.000000	17.538061
853.000000	17.426859
852.000000	17.493952
851.000000	17.533443
850.000000	17.418782
849.000000	17.417947
848.000000	17.473059
847.000000	17.367964
846.000000	17.369114
845.000000	17.301250
844.000000	17.240201
843.000000	17.303288
842.000000	17.353140
841.000000	17.227088
840.000000	17.244080
839.000000	17.266778
838.000000	17.277325
837.000000	17.265515
836.000000	17.201528
835.000000	17.107644
834.000000	17.106109
833.000000	17.099395
832.000000	17.129328
831.000000	17.106884
830.000000	17.079386
829.000000	17.038159
828.000000	17.019590
827.000000	16.992995
826.000000	16.980596
825.000000	16.953896
824.000000	16.996036
823.000000	17.016850
822.000000	16.913662
821.000000	16.890919
820.000000	16.834566
819.000000	16.845968
818.000000	16.853985
817.000000	16.789975
816.000000	16.795216
815.000000	16.787905
814.000000	16.798078
813.000000	16.778095
812.000000	16.731742
811.000000	16.659471
810.000000	16.608464
809.000000	16.679916
808.000000	16.709358
807.000000	16.655319
806.000000	16.653098
805.000000	16.639349
804.000000	16.628443
803.000000	16.570251
802.000000	16.594089
801.000000	16.546537
800.000000	16.529648
799.000000	16.544273
798.000000	16.512045
797.000000	16.473376
796.000000	16.477348
795.000000	16.410570
794.000000	16.382254
793.000000	16.379092
792.000000	16.358953
791.000000	16.373348
790.000000	16.337158
789.000000	16.309052
788.000000	16.246486
787.000000	16.233062
786.000000	16.216430
785.000000	16.187838
784.000000	16.168578
783.000000	16.148596
782.000000	16.141231
781.000000	16.083915
780.000000	16.067932
779.000000	16.065201
778.000000	16.018949
777.000000	16.000018
776.000000	15.970567
775.000000	15.958030
774.000000	15.925216
773.000000	15.924832
772.000000	15.870356
771.000000	15.857317
770.000000	15.842405
769.000000	15.842161
768.000000	15.800242
767.000000	15.732367
766.000000	15.724082
765.000000	15.704750
764.000000	15.698996
763.000000	15.633764
762.000000	15.616792
761.000000	15.610758
760.000000	15.588619
759.000000	15.568843
758.000000	15.534241
757.000000	15.504958
756.000000	15.471617
755.000000	15.443101
754.000000	15.412071
753.000000	15.387615
752.000000	15.356168
751.000000	15.313607
750.000000	15.275355
749.000000	15.255574
748.000000	15.223645
747.000000	15.194417
746.000000	15.194385
745.000000	15.167288
744.000000	15.110821
743.000000	15.083835
742.000000	15.086992
741.000000	15.051876
740.000000	15.032202
739.000000	14.994233
738.000000	14.949408
737.000000	14.898126
736.000000	14.887199
735.000000	14.851569
734.000000	14.830727
733.000000	14.810716
732.000000	14.779367
731.000000	14.739363
730.000000	14.708222
729.000000	14.665275
728.000000	14.639875
727.000000	14.606971
726.000000	14.570825
725.000000	14.527562
724.000000	14.514345
723.000000	14.474427
722.000000	14.421453
721.000000	14.386830
720.000000	14.373432
719.000000	14.339629
718.000000	14.294896
717.000000	14.267698
716.000000	14.241752
715.000000	14.210817
714.000000	14.167880
713.000000	14.140099
712.000000	14.119401
711.000000	14.083303
710.000000	14.050121
709.000000	14.007777
708.000000	13.967952
707.000000	13.938383
706.000000	13.893450
705.000000	13.857597
704.000000	13.833685
703.000000	13.809535
702.000000	13.773049
701.000000	13.729068
700.000000	13.685887
699.000000	13.638706
698.000000	13.599601
697.000000	13.578457
696.000000	13.552077
695.000000	13.516269
694.000000	13.470078
693.000000	13.421640
692.000000	13.384978
691.000000	13.353168
690.000000	13.328652
689.000000	13.253954
688.000000	13.189690
687.000000	13.152408
686.000000	13.108275
685.000000	13.075001
684.000000	13.034993
683.000000	13.005744
682.000000	12.943674
681.000000	12.903181
680.000000	12.878154
679.000000	12.840359
678.000000	12.791993
677.000000	12.759846
676.000000	12.720133
675.000000	12.685381
674.000000	12.659073
673.000000	12.615685
672.000000	12.571085
671.000000	12.528704
670.000000	12.475570
669.000000	12.426957
668.000000	12.393475
667.000000	12.359911
666.000000	12.330387
665.000000	12.295953
664.000000	12.246640
663.000000	12.201080
662.000000	12.145279
661.000000	12.114655
660.000000	12.079940
659.000000	12.037282
658.000000	12.006922
657.000000	11.955336
656.000000	11.921734
655.000000	11.887419
654.000000	11.834331
653.000000	11.792514
652.000000	11.734002
651.000000	11.697411
650.000000	11.652583
649.000000	11.612403
648.000000	11.579720
647.000000	11.543297
646.000000	11.487287
645.000000	11.452721
644.000000	11.419596
643.000000	11.377111
642.000000	11.332302
641.000000	11.291074
640.000000	11.248217
639.000000	11.195815
638.000000	11.144581
637.000000	11.120377
636.000000	11.075297
635.000000	11.035718
634.000000	10.989424
633.000000	10.935053
632.000000	10.894786
631.000000	10.843382
630.000000	10.818923
629.000000	10.765654
628.000000	10.716424
627.000000	10.681762
626.000000	10.650459
625.000000	10.611660
624.000000	10.555985
623.000000	10.509258
622.000000	10.470421
621.000000	10.420855
620.000000	10.381284
619.000000	10.345558
618.000000	10.298198
617.000000	10.248506
616.000000	10.209988
615.000000	10.171985
614.000000	10.125648
613.000000	10.082325
612.000000	10.032172
611.000000	9.984030
610.000000	9.948515
609.000000	9.907967
608.000000	9.864851
607.000000	9.824739
606.000000	9.765505
605.000000	9.728428
604.000000	9.684413
603.000000	9.632246
602.000000	9.589574
601.000000	9.542310
600.000000	9.507603
599.000000	9.466368
598.000000	9.409092
597.000000	9.368240
596.000000	9.338400
595.000000	9.287650
594.000000	9.253150
593.000000	9.200655
592.000000	9.157365
591.000000	9.108392
590.000000	9.042316
589.000000	9.032862
588.000000	8.959617
587.000000	8.929517
586.000000	8.888858
585.000000	8.848377
584.000000	8.797578
583.000000	8.754929
582.000000	8.711717
581.000000	8.670523
580.000000	8.634016
579.000000	8.572646
578.000000	8.529604
577.000000	8.493528
576.000000	8.447193
575.000000	8.409445
574.000000	8.371701
573.000000	8.312076
572.000000	8.263566
571.000000	8.223016
570.000000	8.178785
569.000000	8.123790
568.000000	8.074854
567.000000	8.029913
566.000000	7.985931
565.000000	7.945382
564.000000	7.905569
563.000000	7.868282
562.000000	7.823201
561.000000	7.815563
560.000000	7.762004
559.000000	7.727857
558.000000	7.675310
557.000000	7.632137
556.000000	7.601907
555.000000	7.532873
554.000000	7.494629
553.000000	7.449789
552.000000	7.400288
551.000000	7.358099
550.000000	7.309209
549.000000	7.250112
548.000000	7.205123
547.000000	7.166837
546.000000	7.115640
545.000000	7.070761
544.000000	7.025993
543.000000	6.969097
542.000000	6.917988
541.000000	6.872133
540.000000	6.832176
539.000000	6.783872
538.000000	6.728877
537.000000	6.677889
536.000000	6.634302
535.000000	6.582861
534.000000	6.535298
533.000000	6.493497
532.000000	6.448312
531.000000	6.384532
530.000000	6.326384
529.000000	6.286683
528.000000	6.245885
527.000000	6.204967
526.000000	6.145719
525.000000	6.090094
524.000000	6.041026
523.000000	5.994975
522.000000	5.938638
521.000000	5.896044
520.000000	5.848524
519.000000	5.794118
518.000000	5.740576
517.000000	5.691439
516.000000	5.640748
515.000000	5.599473
514.000000	5.540801
513.000000	5.493274
512.000000	5.432571
511.000000	5.392146
510.000000	5.341185
509.000000	5.302229
508.000000	5.248136
507.000000	5.197808
506.000000	5.155640
505.000000	5.107450
504.000000	5.056093
503.000000	5.014494
502.000000	4.967607
501.000000	4.916447
500.000000	4.871306
499.000000	4.823560
498.000000	4.771404
497.000000	4.729114
496.000000	4.680481
495.000000	4.627272
494.000000	4.580679
493.000000	4.540983
492.000000	4.492154
491.000000	4.449587
490.000000	4.406956
489.000000	4.357646
488.000000	4.314349
487.000000	4.273763
486.000000	4.235326
485.000000	4.190224
484.000000	4.142691
483.000000	4.103525
482.000000	4.062155
481.000000	4.014855
480.000000	3.963921
479.000000	3.913988
478.000000	3.865218
477.000000	3.812874
476.000000	3.766347
475.000000	3.716095
474.000000	3.667521
473.000000	3.623313
472.000000	3.582507
471.000000	3.542852
470.000000	3.491608
469.000000	3.440416
468.000000	3.398327
467.000000	3.358499
466.000000	3.310353
465.000000	3.260383
464.000000	3.212589
463.000000	3.171272
462.000000	3.130877
461.000000	3.079431
460.000000	3.028730
459.000000	2.989722
458.000000	2.948563
457.000000	2.900005
456.000000	2.854832
455.000000	2.811442
454.000000	2.767516
453.000000	2.724785
452.000000	2.679375
451.000000	2.641850
450.000000	2.600598
449.000000	2.549144
448.000000	2.507716
447.000000	2.465957
446.000000	2.422138
445.000000	2.387814
444.000000	2.352807
443.000000	2.310072
442.000000	2.264109
441.000000	2.223304
440.000000	2.176466
439.000000	2.132480
438.000000	2.102047
437.000000	2.065293
436.000000	2.024270
435.000000	1.979527
434.000000	1.944493
433.000000	1.911146
432.000000	1.876042
431.000000	1.835938
430.000000	1.796216
429.000000	1.757935
428.000000	1.723030
427.000000	1.685784
426.000000	1.650585
425.000000	1.617078
424.000000	1.581440
423.000000	1.540837
422.000000	1.511607
421.000000	1.473540
420.000000	1.440128
419.000000	1.409693
418.000000	1.372604
417.000000	1.338967
416.000000	1.309317
415.000000	1.277668
414.000000	1.246645
413.000000	1.213767
412.000000	1.184150
411.000000	1.151945
410.000000	1.123504
409.000000	1.091807
408.000000	1.064897
407.000000	1.034966
406.000000	1.006665
405.000000	0.975817
404.000000	0.949340
403.000000	0.925351
402.000000	0.901078
401.000000	0.875025
400.000000	0.846973
399.000000	0.818806
398.000000	0.798770
397.000000	0.774839
396.000000	0.753872
395.000000	0.726472
394.000000	0.702867
393.000000	0.681809
392.000000	0.658096
391.000000	0.640065
390.000000	0.618087
389.000000	0.595663
388.000000	0.576222
387.000000	0.555669
386.000000	0.534976
385.000000	0.516496
384.000000	0.499004
383.000000	0.477912
382.000000	0.469401
381.000000	0.447061
380.000000	0.431425
379.000000	0.417780
378.000000	0.401906
377.000000	0.407922
376.000000	0.402325
375.000000	0.377554
374.000000	0.373248
373.000000	0.351689
372.000000	0.337528
371.000000	0.323319
370.000000	0.309640
369.000000	0.300579
368.000000	0.294322
367.000000	0.262449
366.000000	0.260029
365.000000	0.256052
364.000000	0.245636
363.000000	0.236855
362.000000	0.232447
361.000000	0.226294
360.000000	0.212195
359.000000	0.206399
358.000000	0.200755
357.000000	0.191979
356.000000	0.192265
355.000000	0.185074
354.000000	0.174189
353.000000	0.168780
352.000000	0.164076
351.000000	0.164068
350.000000	0.155415
349.000000	0.155199
348.000000	0.148608
347.000000	0.143178
346.000000	0.135201
345.000000	0.135609
344.000000	0.137663
343.000000	0.128191
342.000000	0.118383
341.000000	0.120755
340.000000	0.116889
339.000000	0.113212
338.000000	0.119065
337.000000	0.108494
336.000000	0.106726
335.000000	0.109222
334.000000	0.099421
333.000000	0.097095
332.000000	0.101301
331.000000	0.093288
330.000000	0.101074
329.000000	0.094496
328.000000	0.084190
327.000000	0.083531
326.000000	0.096930
325.000000	0.085784
324.000000	0.078761
323.000000	0.084316
322.000000	0.080591
321.000000	0.083738
320.000000	0.079520
319.000000	0.086289
318.000000	0.098551
317.000000	0.095278
316.000000	0.095847
315.000000	0.099544
314.000000	0.098849
313.000000	0.097225
312.000000	0.090027
311.000000	0.092344
310.000000	0.092354
309.000000	0.095136
308.000000	0.091695
307.000000	0.088134
306.000000	0.090358
305.000000	0.090706
304.000000	0.093029
303.000000	0.092217
302.000000	0.093441
301.000000	0.097163
300.000000	0.096699
299.000000	0.094768
298.000000	0.091689
297.000000	0.091609
296.000000	0.100344
295.000000	0.097236
294.000000	0.097172
293.000000	0.092840
292.000000	0.098340
291.000000	0.092194
290.000000	0.094798
289.000000	0.095686
288.000000	0.088494
287.000000	0.090556
286.000000	0.095233
285.000000	0.098163
284.000000	0.102506
283.000000	0.104774
282.000000	0.108315
281.000000	0.105142
280.000000	0.102594
279.000000	0.111846
278.000000	0.116879
277.000000	0.112069
276.000000	0.118758
275.000000	0.112603
274.000000	0.120104
273.000000	0.120685
272.000000	0.125519
271.000000	0.124165
270.000000	0.129282
269.000000	0.131802
268.000000	0.128412
267.000000	0.143794
266.000000	0.140718
265.000000	0.137281
264.000000	0.142609
263.000000	0.146784
262.000000	0.148628
261.000000	0.151820
260.000000	0.154818
259.000000	0.154236
258.000000	0.156401
257.000000	0.161343
256.000000	0.165176
255.000000	0.167493
254.000000	0.171227
253.000000	0.173180
252.000000	0.167834
251.000000	0.163752
250.000000	0.166146
249.000000	0.167398
248.000000	0.169759
247.000000	0.173549
246.000000	0.172716
245.000000	0.165453
244.000000	0.166041
243.000000	0.165978
242.000000	0.160884
241.000000	0.160171
240.000000	0.152804
239.000000	0.147495
238.000000	0.145168
237.000000	0.141990
236.000000	0.137624
235.000000	0.133741
234.000000	0.130358
233.000000	0.118812
232.000000	0.119201
231.000000	0.117841
230.000000	0.103540
229.000000	0.102291
228.000000	0.103869
227.000000	0.094737
226.000000	0.093366
225.000000	0.092918
224.000000	0.084371
223.000000	0.082847
222.000000	0.077569
221.000000	0.067501
220.000000	0.065418
219.000000	0.067520
218.000000	0.065716
217.000000	0.061234
216.000000	0.061777
215.000000	0.056499
214.000000	0.053837
213.000000	0.060754
212.000000	0.064369
211.000000	0.055099
210.000000	0.037934
209.000000	0.038130
208.000000	0.055979
207.000000	0.052891
206.000000	0.050314
205.000000	0.046219
204.000000	0.023111
203.000000	0.027413
202.000000	0.054431
201.000000	0.050430
200.000000	0.064079
