PE IR       SUBTECH     SPECTRUM    ASCII       PEDS        4.00        
   -1
P12-Rouge053_1.ASC
23/06/08
15:45:02.00
23/06/08
15:48:35.00
uco
Sample 053 By uco Date Thursday, June 08 2023
450.000000
#HDR
-1
-1
#GR
cm-1
A
1.0
0.0
4000.000000
-1.000000
3551
8
0.022471
0.000000
#DATA
4000.000000	0.000410
3999.000000	0.000430
3998.000000	0.000447
3997.000000	0.000454
3996.000000	0.000450
3995.000000	0.000445
3994.000000	0.000446
3993.000000	0.000454
3992.000000	0.000466
3991.000000	0.000478
3990.000000	0.000490
3989.000000	0.000500
3988.000000	0.000506
3987.000000	0.000507
3986.000000	0.000502
3985.000000	0.000493
3984.000000	0.000483
3983.000000	0.000473
3982.000000	0.000468
3981.000000	0.000472
3980.000000	0.000485
3979.000000	0.000501
3978.000000	0.000509
3977.000000	0.000505
3976.000000	0.000488
3975.000000	0.000467
3974.000000	0.000453
3973.000000	0.000451
3972.000000	0.000461
3971.000000	0.000474
3970.000000	0.000478
3969.000000	0.000472
3968.000000	0.000458
3967.000000	0.000448
3966.000000	0.000447
3965.000000	0.000453
3964.000000	0.000461
3963.000000	0.000467
3962.000000	0.000475
3961.000000	0.000489
3960.000000	0.000508
3959.000000	0.000526
3958.000000	0.000530
3957.000000	0.000517
3956.000000	0.000497
3955.000000	0.000482
3954.000000	0.000482
3953.000000	0.000497
3952.000000	0.000521
3951.000000	0.000549
3950.000000	0.000572
3949.000000	0.000585
3948.000000	0.000580
3947.000000	0.000560
3946.000000	0.000535
3945.000000	0.000517
3944.000000	0.000520
3943.000000	0.000551
3942.000000	0.000603
3941.000000	0.000660
3940.000000	0.000700
3939.000000	0.000707
3938.000000	0.000682
3937.000000	0.000638
3936.000000	0.000593
3935.000000	0.000564
3934.000000	0.000555
3933.000000	0.000557
3932.000000	0.000555
3931.000000	0.000545
3930.000000	0.000535
3929.000000	0.000539
3928.000000	0.000556
3927.000000	0.000581
3926.000000	0.000604
3925.000000	0.000619
3924.000000	0.000623
3923.000000	0.000619
3922.000000	0.000614
3921.000000	0.000613
3920.000000	0.000616
3919.000000	0.000616
3918.000000	0.000605
3917.000000	0.000586
3916.000000	0.000572
3915.000000	0.000573
3914.000000	0.000584
3913.000000	0.000591
3912.000000	0.000588
3911.000000	0.000580
3910.000000	0.000571
3909.000000	0.000566
3908.000000	0.000563
3907.000000	0.000563
3906.000000	0.000574
3905.000000	0.000604
3904.000000	0.000642
3903.000000	0.000665
3902.000000	0.000657
3901.000000	0.000631
3900.000000	0.000606
3899.000000	0.000594
3898.000000	0.000592
3897.000000	0.000591
3896.000000	0.000587
3895.000000	0.000580
3894.000000	0.000575
3893.000000	0.000571
3892.000000	0.000569
3891.000000	0.000566
3890.000000	0.000560
3889.000000	0.000550
3888.000000	0.000538
3887.000000	0.000529
3886.000000	0.000540
3885.000000	0.000571
3884.000000	0.000606
3883.000000	0.000620
3882.000000	0.000601
3881.000000	0.000563
3880.000000	0.000537
3879.000000	0.000543
3878.000000	0.000575
3877.000000	0.000603
3876.000000	0.000605
3875.000000	0.000582
3874.000000	0.000562
3873.000000	0.000570
3872.000000	0.000607
3871.000000	0.000646
3870.000000	0.000656
3869.000000	0.000632
3868.000000	0.000598
3867.000000	0.000575
3866.000000	0.000567
3865.000000	0.000570
3864.000000	0.000582
3863.000000	0.000600
3862.000000	0.000617
3861.000000	0.000631
3860.000000	0.000643
3859.000000	0.000654
3858.000000	0.000670
3857.000000	0.000690
3856.000000	0.000707
3855.000000	0.000711
3854.000000	0.000711
3853.000000	0.000692
3852.000000	0.000643
3851.000000	0.000591
3850.000000	0.000564
3849.000000	0.000562
3848.000000	0.000577
3847.000000	0.000591
3846.000000	0.000592
3845.000000	0.000577
3844.000000	0.000552
3843.000000	0.000530
3842.000000	0.000522
3841.000000	0.000527
3840.000000	0.000534
3839.000000	0.000535
3838.000000	0.000529
3837.000000	0.000528
3836.000000	0.000537
3835.000000	0.000554
3834.000000	0.000571
3833.000000	0.000575
3832.000000	0.000558
3831.000000	0.000530
3830.000000	0.000505
3829.000000	0.000498
3828.000000	0.000509
3827.000000	0.000537
3826.000000	0.000574
3825.000000	0.000607
3824.000000	0.000625
3823.000000	0.000615
3822.000000	0.000581
3821.000000	0.000547
3820.000000	0.000532
3819.000000	0.000540
3818.000000	0.000555
3817.000000	0.000563
3816.000000	0.000560
3815.000000	0.000556
3814.000000	0.000560
3813.000000	0.000568
3812.000000	0.000574
3811.000000	0.000571
3810.000000	0.000562
3809.000000	0.000550
3808.000000	0.000538
3807.000000	0.000531
3806.000000	0.000537
3805.000000	0.000559
3804.000000	0.000586
3803.000000	0.000594
3802.000000	0.000563
3801.000000	0.000506
3800.000000	0.000460
3799.000000	0.000450
3798.000000	0.000477
3797.000000	0.000523
3796.000000	0.000564
3795.000000	0.000582
3794.000000	0.000581
3793.000000	0.000576
3792.000000	0.000579
3791.000000	0.000589
3790.000000	0.000598
3789.000000	0.000594
3788.000000	0.000580
3787.000000	0.000564
3786.000000	0.000558
3785.000000	0.000568
3784.000000	0.000588
3783.000000	0.000608
3782.000000	0.000619
3781.000000	0.000616
3780.000000	0.000604
3779.000000	0.000588
3778.000000	0.000572
3777.000000	0.000556
3776.000000	0.000546
3775.000000	0.000541
3774.000000	0.000544
3773.000000	0.000553
3772.000000	0.000563
3771.000000	0.000563
3770.000000	0.000547
3769.000000	0.000520
3768.000000	0.000493
3767.000000	0.000481
3766.000000	0.000490
3765.000000	0.000515
3764.000000	0.000543
3763.000000	0.000557
3762.000000	0.000551
3761.000000	0.000531
3760.000000	0.000521
3759.000000	0.000536
3758.000000	0.000575
3757.000000	0.000624
3756.000000	0.000672
3755.000000	0.000712
3754.000000	0.000740
3753.000000	0.000755
3752.000000	0.000763
3751.000000	0.000767
3750.000000	0.000759
3749.000000	0.000739
3748.000000	0.000715
3747.000000	0.000680
3746.000000	0.000619
3745.000000	0.000539
3744.000000	0.000474
3743.000000	0.000451
3742.000000	0.000462
3741.000000	0.000479
3740.000000	0.000484
3739.000000	0.000468
3738.000000	0.000442
3737.000000	0.000425
3736.000000	0.000427
3735.000000	0.000429
3734.000000	0.000418
3733.000000	0.000399
3732.000000	0.000385
3731.000000	0.000387
3730.000000	0.000418
3729.000000	0.000478
3728.000000	0.000553
3727.000000	0.000613
3726.000000	0.000636
3725.000000	0.000625
3724.000000	0.000605
3723.000000	0.000594
3722.000000	0.000589
3721.000000	0.000575
3720.000000	0.000541
3719.000000	0.000495
3718.000000	0.000455
3717.000000	0.000435
3716.000000	0.000435
3715.000000	0.000444
3714.000000	0.000456
3713.000000	0.000477
3712.000000	0.000521
3711.000000	0.000577
3710.000000	0.000612
3709.000000	0.000608
3708.000000	0.000571
3707.000000	0.000522
3706.000000	0.000478
3705.000000	0.000445
3704.000000	0.000417
3703.000000	0.000392
3702.000000	0.000377
3701.000000	0.000378
3700.000000	0.000397
3699.000000	0.000426
3698.000000	0.000460
3697.000000	0.000493
3696.000000	0.000523
3695.000000	0.000549
3694.000000	0.000567
3693.000000	0.000574
3692.000000	0.000563
3691.000000	0.000533
3690.000000	0.000495
3689.000000	0.000467
3688.000000	0.000462
3687.000000	0.000470
3686.000000	0.000475
3685.000000	0.000471
3684.000000	0.000461
3683.000000	0.000456
3682.000000	0.000464
3681.000000	0.000493
3680.000000	0.000545
3679.000000	0.000610
3678.000000	0.000664
3677.000000	0.000678
3676.000000	0.000646
3675.000000	0.000596
3674.000000	0.000569
3673.000000	0.000572
3672.000000	0.000580
3671.000000	0.000575
3670.000000	0.000565
3669.000000	0.000566
3668.000000	0.000578
3667.000000	0.000590
3666.000000	0.000593
3665.000000	0.000593
3664.000000	0.000599
3663.000000	0.000615
3662.000000	0.000628
3661.000000	0.000627
3660.000000	0.000609
3659.000000	0.000580
3658.000000	0.000550
3657.000000	0.000528
3656.000000	0.000522
3655.000000	0.000536
3654.000000	0.000564
3653.000000	0.000599
3652.000000	0.000630
3651.000000	0.000661
3650.000000	0.000700
3649.000000	0.000740
3648.000000	0.000758
3647.000000	0.000754
3646.000000	0.000740
3645.000000	0.000718
3644.000000	0.000688
3643.000000	0.000655
3642.000000	0.000627
3641.000000	0.000616
3640.000000	0.000630
3639.000000	0.000664
3638.000000	0.000706
3637.000000	0.000739
3636.000000	0.000754
3635.000000	0.000759
3634.000000	0.000767
3633.000000	0.000788
3632.000000	0.000815
3631.000000	0.000843
3630.000000	0.000871
3629.000000	0.000904
3628.000000	0.000929
3627.000000	0.000941
3626.000000	0.000937
3625.000000	0.000912
3624.000000	0.000857
3623.000000	0.000773
3622.000000	0.000673
3621.000000	0.000583
3620.000000	0.000533
3619.000000	0.000546
3618.000000	0.000610
3617.000000	0.000696
3616.000000	0.000782
3615.000000	0.000856
3614.000000	0.000914
3613.000000	0.000957
3612.000000	0.000989
3611.000000	0.001014
3610.000000	0.001033
3609.000000	0.001041
3608.000000	0.001030
3607.000000	0.001010
3606.000000	0.000999
3605.000000	0.001009
3604.000000	0.001033
3603.000000	0.001054
3602.000000	0.001058
3601.000000	0.001041
3600.000000	0.001010
3599.000000	0.000977
3598.000000	0.000954
3597.000000	0.000950
3596.000000	0.000975
3595.000000	0.001025
3594.000000	0.001082
3593.000000	0.001124
3592.000000	0.001142
3591.000000	0.001137
3590.000000	0.001119
3589.000000	0.001097
3588.000000	0.001076
3587.000000	0.001060
3586.000000	0.001057
3585.000000	0.001079
3584.000000	0.001121
3583.000000	0.001164
3582.000000	0.001189
3581.000000	0.001191
3580.000000	0.001177
3579.000000	0.001162
3578.000000	0.001156
3577.000000	0.001164
3576.000000	0.001186
3575.000000	0.001218
3574.000000	0.001252
3573.000000	0.001283
3572.000000	0.001313
3571.000000	0.001351
3570.000000	0.001405
3569.000000	0.001477
3568.000000	0.001548
3567.000000	0.001584
3566.000000	0.001573
3565.000000	0.001544
3564.000000	0.001523
3563.000000	0.001515
3562.000000	0.001513
3561.000000	0.001517
3560.000000	0.001527
3559.000000	0.001541
3558.000000	0.001551
3557.000000	0.001553
3556.000000	0.001550
3555.000000	0.001555
3554.000000	0.001580
3553.000000	0.001629
3552.000000	0.001690
3551.000000	0.001742
3550.000000	0.001771
3549.000000	0.001775
3548.000000	0.001762
3547.000000	0.001743
3546.000000	0.001731
3545.000000	0.001727
3544.000000	0.001731
3543.000000	0.001735
3542.000000	0.001736
3541.000000	0.001736
3540.000000	0.001740
3539.000000	0.001752
3538.000000	0.001770
3537.000000	0.001787
3536.000000	0.001798
3535.000000	0.001803
3534.000000	0.001813
3533.000000	0.001831
3532.000000	0.001851
3531.000000	0.001865
3530.000000	0.001871
3529.000000	0.001874
3528.000000	0.001883
3527.000000	0.001891
3526.000000	0.001884
3525.000000	0.001862
3524.000000	0.001837
3523.000000	0.001828
3522.000000	0.001841
3521.000000	0.001867
3520.000000	0.001889
3519.000000	0.001899
3518.000000	0.001898
3517.000000	0.001892
3516.000000	0.001887
3515.000000	0.001882
3514.000000	0.001876
3513.000000	0.001870
3512.000000	0.001866
3511.000000	0.001860
3510.000000	0.001854
3509.000000	0.001849
3508.000000	0.001854
3507.000000	0.001871
3506.000000	0.001893
3505.000000	0.001907
3504.000000	0.001905
3503.000000	0.001888
3502.000000	0.001871
3501.000000	0.001867
3500.000000	0.001879
3499.000000	0.001900
3498.000000	0.001922
3497.000000	0.001942
3496.000000	0.001958
3495.000000	0.001973
3494.000000	0.001985
3493.000000	0.001993
3492.000000	0.001999
3491.000000	0.002003
3490.000000	0.002004
3489.000000	0.002004
3488.000000	0.002008
3487.000000	0.002019
3486.000000	0.002037
3485.000000	0.002058
3484.000000	0.002079
3483.000000	0.002091
3482.000000	0.002087
3481.000000	0.002067
3480.000000	0.002045
3479.000000	0.002035
3478.000000	0.002040
3477.000000	0.002050
3476.000000	0.002060
3475.000000	0.002072
3474.000000	0.002091
3473.000000	0.002117
3472.000000	0.002144
3471.000000	0.002166
3470.000000	0.002179
3469.000000	0.002182
3468.000000	0.002177
3467.000000	0.002170
3466.000000	0.002166
3465.000000	0.002174
3464.000000	0.002195
3463.000000	0.002221
3462.000000	0.002237
3461.000000	0.002233
3460.000000	0.002216
3459.000000	0.002201
3458.000000	0.002196
3457.000000	0.002198
3456.000000	0.002204
3455.000000	0.002219
3454.000000	0.002245
3453.000000	0.002276
3452.000000	0.002303
3451.000000	0.002322
3450.000000	0.002333
3449.000000	0.002334
3448.000000	0.002324
3447.000000	0.002309
3446.000000	0.002303
3445.000000	0.002309
3444.000000	0.002319
3443.000000	0.002323
3442.000000	0.002321
3441.000000	0.002324
3440.000000	0.002336
3439.000000	0.002354
3438.000000	0.002366
3437.000000	0.002370
3436.000000	0.002370
3435.000000	0.002375
3434.000000	0.002385
3433.000000	0.002395
3432.000000	0.002403
3431.000000	0.002408
3430.000000	0.002414
3429.000000	0.002423
3428.000000	0.002435
3427.000000	0.002452
3426.000000	0.002476
3425.000000	0.002507
3424.000000	0.002537
3423.000000	0.002557
3422.000000	0.002565
3421.000000	0.002567
3420.000000	0.002570
3419.000000	0.002578
3418.000000	0.002589
3417.000000	0.002606
3416.000000	0.002631
3415.000000	0.002658
3414.000000	0.002673
3413.000000	0.002668
3412.000000	0.002652
3411.000000	0.002642
3410.000000	0.002650
3409.000000	0.002666
3408.000000	0.002679
3407.000000	0.002685
3406.000000	0.002687
3405.000000	0.002690
3404.000000	0.002693
3403.000000	0.002697
3402.000000	0.002704
3401.000000	0.002715
3400.000000	0.002725
3399.000000	0.002726
3398.000000	0.002719
3397.000000	0.002715
3396.000000	0.002724
3395.000000	0.002748
3394.000000	0.002775
3393.000000	0.002789
3392.000000	0.002786
3391.000000	0.002772
3390.000000	0.002761
3389.000000	0.002759
3388.000000	0.002766
3387.000000	0.002782
3386.000000	0.002806
3385.000000	0.002834
3384.000000	0.002860
3383.000000	0.002876
3382.000000	0.002879
3381.000000	0.002872
3380.000000	0.002857
3379.000000	0.002838
3378.000000	0.002819
3377.000000	0.002804
3376.000000	0.002800
3375.000000	0.002809
3374.000000	0.002826
3373.000000	0.002842
3372.000000	0.002853
3371.000000	0.002858
3370.000000	0.002857
3369.000000	0.002853
3368.000000	0.002849
3367.000000	0.002849
3366.000000	0.002854
3365.000000	0.002861
3364.000000	0.002869
3363.000000	0.002882
3362.000000	0.002900
3361.000000	0.002919
3360.000000	0.002932
3359.000000	0.002940
3358.000000	0.002945
3357.000000	0.002949
3356.000000	0.002948
3355.000000	0.002944
3354.000000	0.002943
3353.000000	0.002951
3352.000000	0.002967
3351.000000	0.002982
3350.000000	0.002991
3349.000000	0.002994
3348.000000	0.002993
3347.000000	0.002994
3346.000000	0.002998
3345.000000	0.003007
3344.000000	0.003019
3343.000000	0.003032
3342.000000	0.003045
3341.000000	0.003054
3340.000000	0.003059
3339.000000	0.003066
3338.000000	0.003084
3337.000000	0.003110
3336.000000	0.003132
3335.000000	0.003142
3334.000000	0.003140
3333.000000	0.003136
3332.000000	0.003132
3331.000000	0.003126
3330.000000	0.003120
3329.000000	0.003123
3328.000000	0.003139
3327.000000	0.003165
3326.000000	0.003188
3325.000000	0.003202
3324.000000	0.003207
3323.000000	0.003209
3322.000000	0.003212
3321.000000	0.003218
3320.000000	0.003233
3319.000000	0.003261
3318.000000	0.003304
3317.000000	0.003358
3316.000000	0.003407
3315.000000	0.003432
3314.000000	0.003426
3313.000000	0.003403
3312.000000	0.003387
3311.000000	0.003391
3310.000000	0.003412
3309.000000	0.003432
3308.000000	0.003438
3307.000000	0.003432
3306.000000	0.003423
3305.000000	0.003422
3304.000000	0.003429
3303.000000	0.003439
3302.000000	0.003445
3301.000000	0.003440
3300.000000	0.003428
3299.000000	0.003416
3298.000000	0.003414
3297.000000	0.003423
3296.000000	0.003438
3295.000000	0.003457
3294.000000	0.003479
3293.000000	0.003503
3292.000000	0.003522
3291.000000	0.003530
3290.000000	0.003527
3289.000000	0.003517
3288.000000	0.003503
3287.000000	0.003489
3286.000000	0.003476
3285.000000	0.003463
3284.000000	0.003451
3283.000000	0.003439
3282.000000	0.003434
3281.000000	0.003434
3280.000000	0.003435
3279.000000	0.003429
3278.000000	0.003419
3277.000000	0.003415
3276.000000	0.003428
3275.000000	0.003452
3274.000000	0.003473
3273.000000	0.003478
3272.000000	0.003466
3271.000000	0.003449
3270.000000	0.003441
3269.000000	0.003452
3268.000000	0.003479
3267.000000	0.003509
3266.000000	0.003529
3265.000000	0.003537
3264.000000	0.003536
3263.000000	0.003525
3262.000000	0.003498
3261.000000	0.003458
3260.000000	0.003418
3259.000000	0.003397
3258.000000	0.003401
3257.000000	0.003422
3256.000000	0.003442
3255.000000	0.003448
3254.000000	0.003440
3253.000000	0.003425
3252.000000	0.003407
3251.000000	0.003390
3250.000000	0.003372
3249.000000	0.003358
3248.000000	0.003354
3247.000000	0.003360
3246.000000	0.003369
3245.000000	0.003370
3244.000000	0.003357
3243.000000	0.003333
3242.000000	0.003305
3241.000000	0.003279
3240.000000	0.003259
3239.000000	0.003242
3238.000000	0.003225
3237.000000	0.003206
3236.000000	0.003185
3235.000000	0.003165
3234.000000	0.003155
3233.000000	0.003164
3232.000000	0.003189
3231.000000	0.003215
3230.000000	0.003220
3229.000000	0.003197
3228.000000	0.003160
3227.000000	0.003135
3226.000000	0.003135
3225.000000	0.003157
3224.000000	0.003181
3223.000000	0.003193
3222.000000	0.003187
3221.000000	0.003166
3220.000000	0.003145
3219.000000	0.003136
3218.000000	0.003140
3217.000000	0.003147
3216.000000	0.003145
3215.000000	0.003132
3214.000000	0.003115
3213.000000	0.003099
3212.000000	0.003088
3211.000000	0.003078
3210.000000	0.003065
3209.000000	0.003052
3208.000000	0.003045
3207.000000	0.003053
3206.000000	0.003075
3205.000000	0.003101
3204.000000	0.003116
3203.000000	0.003115
3202.000000	0.003102
3201.000000	0.003085
3200.000000	0.003071
3199.000000	0.003063
3198.000000	0.003062
3197.000000	0.003060
3196.000000	0.003048
3195.000000	0.003023
3194.000000	0.002991
3193.000000	0.002963
3192.000000	0.002945
3191.000000	0.002938
3190.000000	0.002938
3189.000000	0.002945
3188.000000	0.002961
3187.000000	0.002980
3186.000000	0.002992
3185.000000	0.002990
3184.000000	0.002979
3183.000000	0.002973
3182.000000	0.002976
3181.000000	0.002984
3180.000000	0.002986
3179.000000	0.002975
3178.000000	0.002955
3177.000000	0.002936
3176.000000	0.002925
3175.000000	0.002919
3174.000000	0.002909
3173.000000	0.002889
3172.000000	0.002863
3171.000000	0.002845
3170.000000	0.002840
3169.000000	0.002841
3168.000000	0.002837
3167.000000	0.002827
3166.000000	0.002817
3165.000000	0.002808
3164.000000	0.002795
3163.000000	0.002776
3162.000000	0.002756
3161.000000	0.002740
3160.000000	0.002732
3159.000000	0.002732
3158.000000	0.002737
3157.000000	0.002746
3156.000000	0.002755
3155.000000	0.002760
3154.000000	0.002757
3153.000000	0.002745
3152.000000	0.002728
3151.000000	0.002712
3150.000000	0.002708
3149.000000	0.002715
3148.000000	0.002727
3147.000000	0.002735
3146.000000	0.002738
3145.000000	0.002734
3144.000000	0.002724
3143.000000	0.002710
3142.000000	0.002693
3141.000000	0.002672
3140.000000	0.002647
3139.000000	0.002622
3138.000000	0.002606
3137.000000	0.002604
3136.000000	0.002611
3135.000000	0.002617
3134.000000	0.002623
3133.000000	0.002629
3132.000000	0.002633
3131.000000	0.002624
3130.000000	0.002604
3129.000000	0.002583
3128.000000	0.002574
3127.000000	0.002577
3126.000000	0.002580
3125.000000	0.002569
3124.000000	0.002543
3123.000000	0.002512
3122.000000	0.002490
3121.000000	0.002486
3120.000000	0.002497
3119.000000	0.002512
3118.000000	0.002521
3117.000000	0.002523
3116.000000	0.002525
3115.000000	0.002532
3114.000000	0.002543
3113.000000	0.002547
3112.000000	0.002542
3111.000000	0.002536
3110.000000	0.002532
3109.000000	0.002528
3108.000000	0.002512
3107.000000	0.002486
3106.000000	0.002464
3105.000000	0.002459
3104.000000	0.002468
3103.000000	0.002476
3102.000000	0.002471
3101.000000	0.002453
3100.000000	0.002433
3099.000000	0.002424
3098.000000	0.002428
3097.000000	0.002440
3096.000000	0.002447
3095.000000	0.002449
3094.000000	0.002449
3093.000000	0.002454
3092.000000	0.002461
3091.000000	0.002465
3090.000000	0.002462
3089.000000	0.002454
3088.000000	0.002447
3087.000000	0.002449
3086.000000	0.002460
3085.000000	0.002475
3084.000000	0.002485
3083.000000	0.002483
3082.000000	0.002470
3081.000000	0.002455
3080.000000	0.002444
3079.000000	0.002445
3078.000000	0.002458
3077.000000	0.002478
3076.000000	0.002491
3075.000000	0.002485
3074.000000	0.002466
3073.000000	0.002451
3072.000000	0.002453
3071.000000	0.002471
3070.000000	0.002489
3069.000000	0.002497
3068.000000	0.002495
3067.000000	0.002491
3066.000000	0.002486
3065.000000	0.002477
3064.000000	0.002467
3063.000000	0.002466
3062.000000	0.002484
3061.000000	0.002517
3060.000000	0.002552
3059.000000	0.002575
3058.000000	0.002584
3057.000000	0.002585
3056.000000	0.002584
3055.000000	0.002581
3054.000000	0.002570
3053.000000	0.002544
3052.000000	0.002504
3051.000000	0.002465
3050.000000	0.002444
3049.000000	0.002445
3048.000000	0.002456
3047.000000	0.002459
3046.000000	0.002447
3045.000000	0.002424
3044.000000	0.002399
3043.000000	0.002382
3042.000000	0.002381
3041.000000	0.002397
3040.000000	0.002418
3039.000000	0.002426
3038.000000	0.002413
3037.000000	0.002385
3036.000000	0.002362
3035.000000	0.002361
3034.000000	0.002384
3033.000000	0.002413
3032.000000	0.002426
3031.000000	0.002417
3030.000000	0.002395
3029.000000	0.002378
3028.000000	0.002374
3027.000000	0.002381
3026.000000	0.002393
3025.000000	0.002407
3024.000000	0.002422
3023.000000	0.002431
3022.000000	0.002432
3021.000000	0.002427
3020.000000	0.002417
3019.000000	0.002403
3018.000000	0.002382
3017.000000	0.002363
3016.000000	0.002356
3015.000000	0.002367
3014.000000	0.002389
3013.000000	0.002406
3012.000000	0.002408
3011.000000	0.002399
3010.000000	0.002393
3009.000000	0.002406
3008.000000	0.002437
3007.000000	0.002478
3006.000000	0.002516
3005.000000	0.002543
3004.000000	0.002558
3003.000000	0.002567
3002.000000	0.002578
3001.000000	0.002598
3000.000000	0.002625
2999.000000	0.002658
2998.000000	0.002693
2997.000000	0.002726
2996.000000	0.002757
2995.000000	0.002787
2994.000000	0.002824
2993.000000	0.002869
2992.000000	0.002916
2991.000000	0.002958
2990.000000	0.002997
2989.000000	0.003043
2988.000000	0.003101
2987.000000	0.003169
2986.000000	0.003239
2985.000000	0.003305
2984.000000	0.003365
2983.000000	0.003422
2982.000000	0.003482
2981.000000	0.003546
2980.000000	0.003612
2979.000000	0.003682
2978.000000	0.003765
2977.000000	0.003874
2976.000000	0.004010
2975.000000	0.004157
2974.000000	0.004300
2973.000000	0.004430
2972.000000	0.004550
2971.000000	0.004670
2970.000000	0.004800
2969.000000	0.004938
2968.000000	0.005073
2967.000000	0.005190
2966.000000	0.005289
2965.000000	0.005379
2964.000000	0.005471
2963.000000	0.005568
2962.000000	0.005663
2961.000000	0.005749
2960.000000	0.005817
2959.000000	0.005857
2958.000000	0.005863
2957.000000	0.005835
2956.000000	0.005781
2955.000000	0.005710
2954.000000	0.005633
2953.000000	0.005562
2952.000000	0.005506
2951.000000	0.005466
2950.000000	0.005437
2949.000000	0.005420
2948.000000	0.005416
2947.000000	0.005427
2946.000000	0.005454
2945.000000	0.005496
2944.000000	0.005557
2943.000000	0.005639
2942.000000	0.005742
2941.000000	0.005857
2940.000000	0.005976
2939.000000	0.006089
2938.000000	0.006194
2937.000000	0.006293
2936.000000	0.006392
2935.000000	0.006494
2934.000000	0.006590
2933.000000	0.006670
2932.000000	0.006729
2931.000000	0.006770
2930.000000	0.006793
2929.000000	0.006793
2928.000000	0.006763
2927.000000	0.006708
2926.000000	0.006644
2925.000000	0.006584
2924.000000	0.006528
2923.000000	0.006468
2922.000000	0.006396
2921.000000	0.006307
2920.000000	0.006201
2919.000000	0.006085
2918.000000	0.005975
2917.000000	0.005886
2916.000000	0.005823
2915.000000	0.005778
2914.000000	0.005739
2913.000000	0.005702
2912.000000	0.005666
2911.000000	0.005624
2910.000000	0.005569
2909.000000	0.005503
2908.000000	0.005432
2907.000000	0.005366
2906.000000	0.005304
2905.000000	0.005240
2904.000000	0.005162
2903.000000	0.005067
2902.000000	0.004963
2901.000000	0.004860
2900.000000	0.004764
2899.000000	0.004675
2898.000000	0.004590
2897.000000	0.004510
2896.000000	0.004437
2895.000000	0.004374
2894.000000	0.004318
2893.000000	0.004260
2892.000000	0.004190
2891.000000	0.004107
2890.000000	0.004022
2889.000000	0.003954
2888.000000	0.003916
2887.000000	0.003909
2886.000000	0.003924
2885.000000	0.003955
2884.000000	0.003995
2883.000000	0.004039
2882.000000	0.004085
2881.000000	0.004133
2880.000000	0.004191
2879.000000	0.004260
2878.000000	0.004337
2877.000000	0.004409
2876.000000	0.004465
2875.000000	0.004504
2874.000000	0.004537
2873.000000	0.004571
2872.000000	0.004607
2871.000000	0.004637
2870.000000	0.004661
2869.000000	0.004681
2868.000000	0.004703
2867.000000	0.004722
2866.000000	0.004736
2865.000000	0.004747
2864.000000	0.004767
2863.000000	0.004799
2862.000000	0.004839
2861.000000	0.004873
2860.000000	0.004898
2859.000000	0.004915
2858.000000	0.004925
2857.000000	0.004915
2856.000000	0.004875
2855.000000	0.004801
2854.000000	0.004706
2853.000000	0.004604
2852.000000	0.004498
2851.000000	0.004384
2850.000000	0.004256
2849.000000	0.004115
2848.000000	0.003977
2847.000000	0.003858
2846.000000	0.003770
2845.000000	0.003704
2844.000000	0.003640
2843.000000	0.003561
2842.000000	0.003470
2841.000000	0.003378
2840.000000	0.003301
2839.000000	0.003240
2838.000000	0.003189
2837.000000	0.003142
2836.000000	0.003101
2835.000000	0.003072
2834.000000	0.003056
2833.000000	0.003048
2832.000000	0.003035
2831.000000	0.003009
2830.000000	0.002971
2829.000000	0.002935
2828.000000	0.002908
2827.000000	0.002888
2826.000000	0.002871
2825.000000	0.002856
2824.000000	0.002845
2823.000000	0.002843
2822.000000	0.002846
2821.000000	0.002850
2820.000000	0.002854
2819.000000	0.002853
2818.000000	0.002844
2817.000000	0.002828
2816.000000	0.002809
2815.000000	0.002791
2814.000000	0.002770
2813.000000	0.002742
2812.000000	0.002710
2811.000000	0.002680
2810.000000	0.002662
2809.000000	0.002655
2808.000000	0.002653
2807.000000	0.002647
2806.000000	0.002635
2805.000000	0.002618
2804.000000	0.002600
2803.000000	0.002586
2802.000000	0.002581
2801.000000	0.002589
2800.000000	0.002604
2799.000000	0.002614
2798.000000	0.002613
2797.000000	0.002601
2796.000000	0.002585
2795.000000	0.002574
2794.000000	0.002570
2793.000000	0.002570
2792.000000	0.002571
2791.000000	0.002569
2790.000000	0.002566
2789.000000	0.002561
2788.000000	0.002554
2787.000000	0.002546
2786.000000	0.002539
2785.000000	0.002534
2784.000000	0.002527
2783.000000	0.002518
2782.000000	0.002509
2781.000000	0.002501
2780.000000	0.002490
2779.000000	0.002474
2778.000000	0.002456
2777.000000	0.002446
2776.000000	0.002448
2775.000000	0.002454
2774.000000	0.002453
2773.000000	0.002441
2772.000000	0.002423
2771.000000	0.002416
2770.000000	0.002428
2769.000000	0.002456
2768.000000	0.002483
2767.000000	0.002498
2766.000000	0.002496
2765.000000	0.002483
2764.000000	0.002463
2763.000000	0.002442
2762.000000	0.002426
2761.000000	0.002421
2760.000000	0.002426
2759.000000	0.002438
2758.000000	0.002454
2757.000000	0.002473
2756.000000	0.002487
2755.000000	0.002490
2754.000000	0.002482
2753.000000	0.002472
2752.000000	0.002466
2751.000000	0.002464
2750.000000	0.002465
2749.000000	0.002468
2748.000000	0.002472
2747.000000	0.002469
2746.000000	0.002454
2745.000000	0.002432
2744.000000	0.002416
2743.000000	0.002418
2742.000000	0.002433
2741.000000	0.002449
2740.000000	0.002454
2739.000000	0.002449
2738.000000	0.002443
2737.000000	0.002445
2736.000000	0.002452
2735.000000	0.002453
2734.000000	0.002441
2733.000000	0.002418
2732.000000	0.002393
2731.000000	0.002375
2730.000000	0.002369
2729.000000	0.002379
2728.000000	0.002397
2727.000000	0.002410
2726.000000	0.002413
2725.000000	0.002411
2724.000000	0.002411
2723.000000	0.002419
2722.000000	0.002428
2721.000000	0.002428
2720.000000	0.002417
2719.000000	0.002400
2718.000000	0.002386
2717.000000	0.002382
2716.000000	0.002385
2715.000000	0.002386
2714.000000	0.002379
2713.000000	0.002366
2712.000000	0.002357
2711.000000	0.002354
2710.000000	0.002356
2709.000000	0.002361
2708.000000	0.002364
2707.000000	0.002360
2706.000000	0.002346
2705.000000	0.002329
2704.000000	0.002322
2703.000000	0.002331
2702.000000	0.002351
2701.000000	0.002372
2700.000000	0.002385
2699.000000	0.002391
2698.000000	0.002391
2697.000000	0.002389
2696.000000	0.002381
2695.000000	0.002362
2694.000000	0.002335
2693.000000	0.002308
2692.000000	0.002291
2691.000000	0.002288
2690.000000	0.002291
2689.000000	0.002296
2688.000000	0.002305
2687.000000	0.002316
2686.000000	0.002325
2685.000000	0.002326
2684.000000	0.002318
2683.000000	0.002308
2682.000000	0.002298
2681.000000	0.002290
2680.000000	0.002283
2679.000000	0.002276
2678.000000	0.002273
2677.000000	0.002277
2676.000000	0.002284
2675.000000	0.002291
2674.000000	0.002296
2673.000000	0.002296
2672.000000	0.002292
2671.000000	0.002288
2670.000000	0.002286
2669.000000	0.002290
2668.000000	0.002298
2667.000000	0.002305
2666.000000	0.002307
2665.000000	0.002309
2664.000000	0.002321
2663.000000	0.002345
2662.000000	0.002373
2661.000000	0.002391
2660.000000	0.002393
2659.000000	0.002387
2658.000000	0.002382
2657.000000	0.002382
2656.000000	0.002387
2655.000000	0.002396
2654.000000	0.002409
2653.000000	0.002420
2652.000000	0.002421
2651.000000	0.002405
2650.000000	0.002379
2649.000000	0.002355
2648.000000	0.002337
2647.000000	0.002321
2646.000000	0.002303
2645.000000	0.002287
2644.000000	0.002284
2643.000000	0.002299
2642.000000	0.002321
2641.000000	0.002335
2640.000000	0.002327
2639.000000	0.002299
2638.000000	0.002265
2637.000000	0.002240
2636.000000	0.002235
2635.000000	0.002248
2634.000000	0.002264
2633.000000	0.002269
2632.000000	0.002257
2631.000000	0.002236
2630.000000	0.002219
2629.000000	0.002210
2628.000000	0.002206
2627.000000	0.002207
2626.000000	0.002213
2625.000000	0.002219
2624.000000	0.002211
2623.000000	0.002183
2622.000000	0.002145
2621.000000	0.002117
2620.000000	0.002106
2619.000000	0.002108
2618.000000	0.002114
2617.000000	0.002120
2616.000000	0.002131
2615.000000	0.002150
2614.000000	0.002175
2613.000000	0.002201
2612.000000	0.002220
2611.000000	0.002226
2610.000000	0.002216
2609.000000	0.002188
2608.000000	0.002147
2607.000000	0.002101
2606.000000	0.002057
2605.000000	0.002020
2604.000000	0.001991
2603.000000	0.001975
2602.000000	0.001976
2601.000000	0.001996
2600.000000	0.002025
2599.000000	0.002048
2598.000000	0.002050
2597.000000	0.002034
2596.000000	0.002016
2595.000000	0.002011
2594.000000	0.002022
2593.000000	0.002030
2592.000000	0.002019
2591.000000	0.001993
2590.000000	0.001973
2589.000000	0.001976
2588.000000	0.001994
2587.000000	0.002005
2586.000000	0.001997
2585.000000	0.001974
2584.000000	0.001950
2583.000000	0.001940
2582.000000	0.001952
2581.000000	0.001974
2580.000000	0.001987
2579.000000	0.001979
2578.000000	0.001958
2577.000000	0.001940
2576.000000	0.001931
2575.000000	0.001930
2574.000000	0.001937
2573.000000	0.001956
2572.000000	0.001983
2571.000000	0.002002
2570.000000	0.002003
2569.000000	0.001990
2568.000000	0.001974
2567.000000	0.001960
2566.000000	0.001942
2565.000000	0.001911
2564.000000	0.001866
2563.000000	0.001822
2562.000000	0.001805
2561.000000	0.001822
2560.000000	0.001851
2559.000000	0.001865
2558.000000	0.001858
2557.000000	0.001851
2556.000000	0.001859
2555.000000	0.001872
2554.000000	0.001870
2553.000000	0.001845
2552.000000	0.001812
2551.000000	0.001796
2550.000000	0.001816
2549.000000	0.001871
2548.000000	0.001938
2547.000000	0.001982
2546.000000	0.001988
2545.000000	0.001970
2544.000000	0.001952
2543.000000	0.001948
2542.000000	0.001950
2541.000000	0.001950
2540.000000	0.001947
2539.000000	0.001950
2538.000000	0.001968
2537.000000	0.001996
2536.000000	0.002016
2535.000000	0.002020
2534.000000	0.002011
2533.000000	0.002005
2532.000000	0.002002
2531.000000	0.001997
2530.000000	0.001990
2529.000000	0.001993
2528.000000	0.002008
2527.000000	0.002024
2526.000000	0.002025
2525.000000	0.002008
2524.000000	0.001986
2523.000000	0.001977
2522.000000	0.001994
2521.000000	0.002044
2520.000000	0.002111
2519.000000	0.002165
2518.000000	0.002183
2517.000000	0.002171
2516.000000	0.002146
2515.000000	0.002119
2514.000000	0.002099
2513.000000	0.002094
2512.000000	0.002113
2511.000000	0.002143
2510.000000	0.002160
2509.000000	0.002148
2508.000000	0.002111
2507.000000	0.002065
2506.000000	0.002022
2505.000000	0.001985
2504.000000	0.001951
2503.000000	0.001921
2502.000000	0.001904
2501.000000	0.001905
2500.000000	0.001918
2499.000000	0.001921
2498.000000	0.001902
2497.000000	0.001876
2496.000000	0.001858
2495.000000	0.001849
2494.000000	0.001841
2493.000000	0.001839
2492.000000	0.001854
2491.000000	0.001882
2490.000000	0.001898
2489.000000	0.001886
2488.000000	0.001855
2487.000000	0.001826
2486.000000	0.001809
2485.000000	0.001801
2484.000000	0.001800
2483.000000	0.001797
2482.000000	0.001784
2481.000000	0.001760
2480.000000	0.001740
2479.000000	0.001739
2478.000000	0.001752
2477.000000	0.001752
2476.000000	0.001717
2475.000000	0.001658
2474.000000	0.001605
2473.000000	0.001587
2472.000000	0.001612
2471.000000	0.001661
2470.000000	0.001705
2469.000000	0.001724
2468.000000	0.001718
2467.000000	0.001704
2466.000000	0.001697
2465.000000	0.001705
2464.000000	0.001730
2463.000000	0.001769
2462.000000	0.001811
2461.000000	0.001837
2460.000000	0.001834
2459.000000	0.001813
2458.000000	0.001790
2457.000000	0.001775
2456.000000	0.001768
2455.000000	0.001768
2454.000000	0.001783
2453.000000	0.001813
2452.000000	0.001846
2451.000000	0.001870
2450.000000	0.001879
2449.000000	0.001877
2448.000000	0.001864
2447.000000	0.001846
2446.000000	0.001830
2445.000000	0.001821
2444.000000	0.001815
2443.000000	0.001804
2442.000000	0.001784
2441.000000	0.001755
2440.000000	0.001721
2439.000000	0.001692
2438.000000	0.001680
2437.000000	0.001688
2436.000000	0.001701
2435.000000	0.001706
2434.000000	0.001702
2433.000000	0.001697
2432.000000	0.001692
2431.000000	0.001677
2430.000000	0.001647
2429.000000	0.001612
2428.000000	0.001593
2427.000000	0.001609
2426.000000	0.001654
2425.000000	0.001704
2424.000000	0.001726
2423.000000	0.001710
2422.000000	0.001673
2421.000000	0.001642
2420.000000	0.001632
2419.000000	0.001636
2418.000000	0.001640
2417.000000	0.001635
2416.000000	0.001620
2415.000000	0.001602
2414.000000	0.001595
2413.000000	0.001608
2412.000000	0.001628
2411.000000	0.001637
2410.000000	0.001625
2409.000000	0.001600
2408.000000	0.001575
2407.000000	0.001561
2406.000000	0.001565
2405.000000	0.001587
2404.000000	0.001617
2403.000000	0.001641
2402.000000	0.001650
2401.000000	0.001650
2400.000000	0.001643
2399.000000	0.001625
2398.000000	0.001600
2397.000000	0.001580
2396.000000	0.001580
2395.000000	0.001600
2394.000000	0.001620
2393.000000	0.001627
2392.000000	0.001622
2391.000000	0.001622
2390.000000	0.001643
2389.000000	0.001682
2388.000000	0.001718
2387.000000	0.001723
2386.000000	0.001690
2385.000000	0.001629
2384.000000	0.001566
2383.000000	0.001523
2382.000000	0.001505
2381.000000	0.001502
2380.000000	0.001494
2379.000000	0.001481
2378.000000	0.001479
2377.000000	0.001504
2376.000000	0.001547
2375.000000	0.001585
2374.000000	0.001610
2373.000000	0.001623
2372.000000	0.001626
2371.000000	0.001620
2370.000000	0.001614
2369.000000	0.001610
2368.000000	0.001598
2367.000000	0.001574
2366.000000	0.001552
2365.000000	0.001551
2364.000000	0.001575
2363.000000	0.001629
2362.000000	0.001712
2361.000000	0.001788
2360.000000	0.001814
2359.000000	0.001770
2358.000000	0.001679
2357.000000	0.001581
2356.000000	0.001508
2355.000000	0.001482
2354.000000	0.001466
2353.000000	0.001407
2352.000000	0.001329
2351.000000	0.001323
2350.000000	0.001423
2349.000000	0.001577
2348.000000	0.001706
2347.000000	0.001748
2346.000000	0.001711
2345.000000	0.001685
2344.000000	0.001742
2343.000000	0.001862
2342.000000	0.001959
2341.000000	0.001970
2340.000000	0.001917
2339.000000	0.001866
2338.000000	0.001843
2337.000000	0.001836
2336.000000	0.001834
2335.000000	0.001836
2334.000000	0.001824
2333.000000	0.001776
2332.000000	0.001711
2331.000000	0.001678
2330.000000	0.001708
2329.000000	0.001788
2328.000000	0.001905
2327.000000	0.002052
2326.000000	0.002211
2325.000000	0.002343
2324.000000	0.002401
2323.000000	0.002372
2322.000000	0.002279
2321.000000	0.002182
2320.000000	0.002135
2319.000000	0.002149
2318.000000	0.002199
2317.000000	0.002243
2316.000000	0.002255
2315.000000	0.002231
2314.000000	0.002189
2313.000000	0.002150
2312.000000	0.002120
2311.000000	0.002087
2310.000000	0.002046
2309.000000	0.002016
2308.000000	0.002018
2307.000000	0.002038
2306.000000	0.002037
2305.000000	0.001999
2304.000000	0.001944
2303.000000	0.001899
2302.000000	0.001876
2301.000000	0.001878
2300.000000	0.001908
2299.000000	0.001959
2298.000000	0.002007
2297.000000	0.002029
2296.000000	0.002021
2295.000000	0.002004
2294.000000	0.002001
2293.000000	0.002019
2292.000000	0.002052
2291.000000	0.002080
2290.000000	0.002091
2289.000000	0.002095
2288.000000	0.002114
2287.000000	0.002159
2286.000000	0.002214
2285.000000	0.002256
2284.000000	0.002266
2283.000000	0.002235
2282.000000	0.002166
2281.000000	0.002079
2280.000000	0.002007
2279.000000	0.001974
2278.000000	0.001983
2277.000000	0.002009
2276.000000	0.002016
2275.000000	0.001974
2274.000000	0.001884
2273.000000	0.001785
2272.000000	0.001726
2271.000000	0.001730
2270.000000	0.001783
2269.000000	0.001851
2268.000000	0.001896
2267.000000	0.001888
2266.000000	0.001824
2265.000000	0.001735
2264.000000	0.001684
2263.000000	0.001719
2262.000000	0.001842
2261.000000	0.001995
2260.000000	0.002106
2259.000000	0.002130
2258.000000	0.002080
2257.000000	0.002006
2256.000000	0.001944
2255.000000	0.001893
2254.000000	0.001837
2253.000000	0.001783
2252.000000	0.001752
2251.000000	0.001738
2250.000000	0.001712
2249.000000	0.001656
2248.000000	0.001590
2247.000000	0.001554
2246.000000	0.001571
2245.000000	0.001643
2244.000000	0.001746
2243.000000	0.001854
2242.000000	0.001947
2241.000000	0.002019
2240.000000	0.002059
2239.000000	0.002053
2238.000000	0.001996
2237.000000	0.001906
2236.000000	0.001810
2235.000000	0.001725
2234.000000	0.001669
2233.000000	0.001674
2232.000000	0.001758
2231.000000	0.001887
2230.000000	0.001982
2229.000000	0.001975
2228.000000	0.001863
2227.000000	0.001711
2226.000000	0.001606
2225.000000	0.001602
2224.000000	0.001677
2223.000000	0.001753
2222.000000	0.001771
2221.000000	0.001741
2220.000000	0.001710
2219.000000	0.001689
2218.000000	0.001644
2217.000000	0.001547
2216.000000	0.001415
2215.000000	0.001281
2214.000000	0.001164
2213.000000	0.001086
2212.000000	0.001076
2211.000000	0.001144
2210.000000	0.001255
2209.000000	0.001350
2208.000000	0.001394
2207.000000	0.001391
2206.000000	0.001374
2205.000000	0.001372
2204.000000	0.001394
2203.000000	0.001431
2202.000000	0.001461
2201.000000	0.001465
2200.000000	0.001437
2199.000000	0.001408
2198.000000	0.001441
2197.000000	0.001571
2196.000000	0.001730
2195.000000	0.001784
2194.000000	0.001671
2193.000000	0.001492
2192.000000	0.001406
2191.000000	0.001463
2190.000000	0.001574
2189.000000	0.001639
2188.000000	0.001639
2187.000000	0.001608
2186.000000	0.001581
2185.000000	0.001576
2184.000000	0.001584
2183.000000	0.001542
2182.000000	0.001381
2181.000000	0.001135
2180.000000	0.000942
2179.000000	0.000909
2178.000000	0.001017
2177.000000	0.001173
2176.000000	0.001314
2175.000000	0.001414
2174.000000	0.001436
2173.000000	0.001361
2172.000000	0.001265
2171.000000	0.001279
2170.000000	0.001468
2169.000000	0.001750
2168.000000	0.001955
2167.000000	0.001966
2166.000000	0.001823
2165.000000	0.001692
2164.000000	0.001733
2163.000000	0.001947
2162.000000	0.002171
2161.000000	0.002216
2160.000000	0.002012
2159.000000	0.001619
2158.000000	0.001133
2157.000000	0.000645
2156.000000	0.000263
2155.000000	0.000075
2154.000000	0.000087
2153.000000	0.000210
2152.000000	0.000348
2151.000000	0.000469
2150.000000	0.000601
2149.000000	0.000753
2148.000000	0.000886
2147.000000	0.000952
2146.000000	0.000950
2145.000000	0.000935
2144.000000	0.000974
2143.000000	0.001094
2142.000000	0.001250
2141.000000	0.001356
2140.000000	0.001350
2139.000000	0.001254
2138.000000	0.001151
2137.000000	0.001096
2136.000000	0.001056
2135.000000	0.000959
2134.000000	0.000795
2133.000000	0.000641
2132.000000	0.000571
2131.000000	0.000584
2130.000000	0.000633
2129.000000	0.000696
2128.000000	0.000791
2127.000000	0.000924
2126.000000	0.001060
2125.000000	0.001163
2124.000000	0.001241
2123.000000	0.001324
2122.000000	0.001417
2121.000000	0.001486
2120.000000	0.001512
2119.000000	0.001516
2118.000000	0.001540
2117.000000	0.001602
2116.000000	0.001680
2115.000000	0.001739
2114.000000	0.001760
2113.000000	0.001740
2112.000000	0.001689
2111.000000	0.001618
2110.000000	0.001545
2109.000000	0.001496
2108.000000	0.001487
2107.000000	0.001505
2106.000000	0.001521
2105.000000	0.001526
2104.000000	0.001542
2103.000000	0.001584
2102.000000	0.001625
2101.000000	0.001625
2100.000000	0.001582
2099.000000	0.001538
2098.000000	0.001524
2097.000000	0.001516
2096.000000	0.001471
2095.000000	0.001396
2094.000000	0.001346
2093.000000	0.001355
2092.000000	0.001400
2091.000000	0.001433
2090.000000	0.001433
2089.000000	0.001417
2088.000000	0.001418
2087.000000	0.001461
2086.000000	0.001543
2085.000000	0.001633
2084.000000	0.001700
2083.000000	0.001732
2082.000000	0.001750
2081.000000	0.001774
2080.000000	0.001808
2079.000000	0.001844
2078.000000	0.001868
2077.000000	0.001860
2076.000000	0.001805
2075.000000	0.001719
2074.000000	0.001647
2073.000000	0.001612
2072.000000	0.001581
2071.000000	0.001513
2070.000000	0.001423
2069.000000	0.001376
2068.000000	0.001411
2067.000000	0.001508
2066.000000	0.001616
2065.000000	0.001699
2064.000000	0.001733
2063.000000	0.001700
2062.000000	0.001606
2061.000000	0.001492
2060.000000	0.001416
2059.000000	0.001409
2058.000000	0.001462
2057.000000	0.001533
2056.000000	0.001581
2055.000000	0.001605
2054.000000	0.001652
2053.000000	0.001763
2052.000000	0.001914
2051.000000	0.002017
2050.000000	0.002005
2049.000000	0.001891
2048.000000	0.001756
2047.000000	0.001677
2046.000000	0.001675
2045.000000	0.001709
2044.000000	0.001716
2043.000000	0.001643
2042.000000	0.001475
2041.000000	0.001247
2040.000000	0.001037
2039.000000	0.000936
2038.000000	0.000992
2037.000000	0.001150
2036.000000	0.001266
2035.000000	0.001219
2034.000000	0.001028
2033.000000	0.000807
2032.000000	0.000623
2031.000000	0.000471
2030.000000	0.000363
2029.000000	0.000358
2028.000000	0.000456
2027.000000	0.000551
2026.000000	0.000542
2025.000000	0.000437
2024.000000	0.000329
2023.000000	0.000295
2022.000000	0.000361
2021.000000	0.000498
2020.000000	0.000609
2019.000000	0.000579
2018.000000	0.000400
2017.000000	0.000225
2016.000000	0.000232
2015.000000	0.000436
2014.000000	0.000686
2013.000000	0.000827
2012.000000	0.000828
2011.000000	0.000774
2010.000000	0.000762
2009.000000	0.000813
2008.000000	0.000874
2007.000000	0.000888
2006.000000	0.000852
2005.000000	0.000801
2004.000000	0.000754
2003.000000	0.000719
2002.000000	0.000721
2001.000000	0.000781
2000.000000	0.000869
1999.000000	0.000915
1998.000000	0.000908
1997.000000	0.000917
1996.000000	0.001002
1995.000000	0.001137
1994.000000	0.001251
1993.000000	0.001297
1992.000000	0.001265
1991.000000	0.001172
1990.000000	0.001073
1989.000000	0.001033
1988.000000	0.001077
1987.000000	0.001157
1986.000000	0.001209
1985.000000	0.001223
1984.000000	0.001215
1983.000000	0.001179
1982.000000	0.001078
1981.000000	0.000887
1980.000000	0.000611
1979.000000	0.000295
1978.000000	0.000046
1977.000000	0.000000
1976.000000	0.000185
1975.000000	0.000478
1974.000000	0.000721
1973.000000	0.000843
1972.000000	0.000840
1971.000000	0.000737
1970.000000	0.000600
1969.000000	0.000559
1968.000000	0.000702
1967.000000	0.000970
1966.000000	0.001190
1965.000000	0.001232
1964.000000	0.001089
1963.000000	0.000838
1962.000000	0.000580
1961.000000	0.000406
1960.000000	0.000349
1959.000000	0.000364
1958.000000	0.000392
1957.000000	0.000419
1956.000000	0.000472
1955.000000	0.000562
1954.000000	0.000669
1953.000000	0.000763
1952.000000	0.000822
1951.000000	0.000837
1950.000000	0.000803
1949.000000	0.000724
1948.000000	0.000627
1947.000000	0.000556
1946.000000	0.000551
1945.000000	0.000612
1944.000000	0.000685
1943.000000	0.000701
1942.000000	0.000643
1941.000000	0.000568
1940.000000	0.000528
1939.000000	0.000525
1938.000000	0.000542
1937.000000	0.000587
1936.000000	0.000655
1935.000000	0.000697
1934.000000	0.000655
1933.000000	0.000543
1932.000000	0.000444
1931.000000	0.000432
1930.000000	0.000493
1929.000000	0.000559
1928.000000	0.000585
1927.000000	0.000572
1926.000000	0.000542
1925.000000	0.000521
1924.000000	0.000539
1923.000000	0.000614
1922.000000	0.000714
1921.000000	0.000782
1920.000000	0.000796
1919.000000	0.000789
1918.000000	0.000799
1917.000000	0.000817
1916.000000	0.000811
1915.000000	0.000783
1914.000000	0.000764
1913.000000	0.000764
1912.000000	0.000757
1911.000000	0.000721
1910.000000	0.000681
1909.000000	0.000675
1908.000000	0.000693
1907.000000	0.000696
1906.000000	0.000677
1905.000000	0.000668
1904.000000	0.000688
1903.000000	0.000709
1902.000000	0.000698
1901.000000	0.000668
1900.000000	0.000660
1899.000000	0.000687
1898.000000	0.000723
1897.000000	0.000751
1896.000000	0.000780
1895.000000	0.000814
1894.000000	0.000822
1893.000000	0.000766
1892.000000	0.000654
1891.000000	0.000554
1890.000000	0.000546
1889.000000	0.000638
1888.000000	0.000746
1887.000000	0.000786
1886.000000	0.000754
1885.000000	0.000711
1884.000000	0.000707
1883.000000	0.000733
1882.000000	0.000752
1881.000000	0.000753
1880.000000	0.000754
1879.000000	0.000756
1878.000000	0.000737
1877.000000	0.000685
1876.000000	0.000616
1875.000000	0.000562
1874.000000	0.000534
1873.000000	0.000518
1872.000000	0.000497
1871.000000	0.000474
1870.000000	0.000477
1869.000000	0.000527
1868.000000	0.000600
1867.000000	0.000651
1866.000000	0.000663
1865.000000	0.000651
1864.000000	0.000633
1863.000000	0.000605
1862.000000	0.000557
1861.000000	0.000501
1860.000000	0.000462
1859.000000	0.000451
1858.000000	0.000461
1857.000000	0.000482
1856.000000	0.000507
1855.000000	0.000526
1854.000000	0.000530
1853.000000	0.000530
1852.000000	0.000539
1851.000000	0.000543
1850.000000	0.000521
1849.000000	0.000473
1848.000000	0.000423
1847.000000	0.000396
1846.000000	0.000399
1845.000000	0.000442
1844.000000	0.000513
1843.000000	0.000570
1842.000000	0.000578
1841.000000	0.000547
1840.000000	0.000510
1839.000000	0.000498
1838.000000	0.000518
1837.000000	0.000548
1836.000000	0.000560
1835.000000	0.000541
1834.000000	0.000496
1833.000000	0.000438
1832.000000	0.000382
1831.000000	0.000361
1830.000000	0.000410
1829.000000	0.000496
1828.000000	0.000539
1827.000000	0.000505
1826.000000	0.000439
1825.000000	0.000413
1824.000000	0.000441
1823.000000	0.000488
1822.000000	0.000521
1821.000000	0.000533
1820.000000	0.000522
1819.000000	0.000498
1818.000000	0.000485
1817.000000	0.000498
1816.000000	0.000518
1815.000000	0.000499
1814.000000	0.000425
1813.000000	0.000337
1812.000000	0.000296
1811.000000	0.000338
1810.000000	0.000426
1809.000000	0.000503
1808.000000	0.000546
1807.000000	0.000568
1806.000000	0.000581
1805.000000	0.000586
1804.000000	0.000591
1803.000000	0.000620
1802.000000	0.000694
1801.000000	0.000808
1800.000000	0.000927
1799.000000	0.001018
1798.000000	0.001063
1797.000000	0.001065
1796.000000	0.001040
1795.000000	0.000993
1794.000000	0.000930
1793.000000	0.000878
1792.000000	0.000862
1791.000000	0.000873
1790.000000	0.000862
1789.000000	0.000800
1788.000000	0.000693
1787.000000	0.000578
1786.000000	0.000497
1785.000000	0.000473
1784.000000	0.000488
1783.000000	0.000497
1782.000000	0.000485
1781.000000	0.000486
1780.000000	0.000515
1779.000000	0.000544
1778.000000	0.000533
1777.000000	0.000484
1776.000000	0.000430
1775.000000	0.000390
1774.000000	0.000389
1773.000000	0.000472
1772.000000	0.000621
1771.000000	0.000728
1770.000000	0.000733
1769.000000	0.000689
1768.000000	0.000679
1767.000000	0.000724
1766.000000	0.000778
1765.000000	0.000804
1764.000000	0.000821
1763.000000	0.000893
1762.000000	0.001071
1761.000000	0.001320
1760.000000	0.001559
1759.000000	0.001767
1758.000000	0.002004
1757.000000	0.002352
1756.000000	0.002789
1755.000000	0.003208
1754.000000	0.003573
1753.000000	0.003964
1752.000000	0.004482
1751.000000	0.005121
1750.000000	0.005776
1749.000000	0.006384
1748.000000	0.006944
1747.000000	0.007423
1746.000000	0.007805
1745.000000	0.008131
1744.000000	0.008437
1743.000000	0.008716
1742.000000	0.008948
1741.000000	0.009140
1740.000000	0.009298
1739.000000	0.009382
1738.000000	0.009348
1737.000000	0.009199
1736.000000	0.008966
1735.000000	0.008703
1734.000000	0.008450
1733.000000	0.008175
1732.000000	0.007817
1731.000000	0.007369
1730.000000	0.006879
1729.000000	0.006413
1728.000000	0.005982
1727.000000	0.005553
1726.000000	0.005120
1725.000000	0.004712
1724.000000	0.004344
1723.000000	0.004002
1722.000000	0.003661
1721.000000	0.003312
1720.000000	0.002957
1719.000000	0.002647
1718.000000	0.002478
1717.000000	0.002446
1716.000000	0.002429
1715.000000	0.002358
1714.000000	0.002245
1713.000000	0.002124
1712.000000	0.002017
1711.000000	0.001925
1710.000000	0.001848
1709.000000	0.001787
1708.000000	0.001733
1707.000000	0.001686
1706.000000	0.001681
1705.000000	0.001720
1704.000000	0.001758
1703.000000	0.001760
1702.000000	0.001758
1701.000000	0.001853
1700.000000	0.002065
1699.000000	0.002232
1698.000000	0.002268
1697.000000	0.002266
1696.000000	0.002339
1695.000000	0.002484
1694.000000	0.002596
1693.000000	0.002636
1692.000000	0.002640
1691.000000	0.002654
1690.000000	0.002708
1689.000000	0.002804
1688.000000	0.002906
1687.000000	0.002967
1686.000000	0.002981
1685.000000	0.003020
1684.000000	0.003166
1683.000000	0.003336
1682.000000	0.003444
1681.000000	0.003520
1680.000000	0.003594
1679.000000	0.003665
1678.000000	0.003721
1677.000000	0.003779
1676.000000	0.003864
1675.000000	0.003971
1674.000000	0.004069
1673.000000	0.004151
1672.000000	0.004223
1671.000000	0.004301
1670.000000	0.004410
1669.000000	0.004555
1668.000000	0.004698
1667.000000	0.004791
1666.000000	0.004843
1665.000000	0.004890
1664.000000	0.004960
1663.000000	0.005061
1662.000000	0.005176
1661.000000	0.005297
1660.000000	0.005402
1659.000000	0.005476
1658.000000	0.005525
1657.000000	0.005597
1656.000000	0.005709
1655.000000	0.005846
1654.000000	0.005958
1653.000000	0.005993
1652.000000	0.006009
1651.000000	0.006044
1650.000000	0.006081
1649.000000	0.006124
1648.000000	0.006188
1647.000000	0.006229
1646.000000	0.006228
1645.000000	0.006231
1644.000000	0.006276
1643.000000	0.006333
1642.000000	0.006378
1641.000000	0.006408
1640.000000	0.006440
1639.000000	0.006486
1638.000000	0.006536
1637.000000	0.006559
1636.000000	0.006512
1635.000000	0.006401
1634.000000	0.006310
1633.000000	0.006278
1632.000000	0.006284
1631.000000	0.006297
1630.000000	0.006278
1629.000000	0.006219
1628.000000	0.006147
1627.000000	0.006094
1626.000000	0.006064
1625.000000	0.006035
1624.000000	0.005974
1623.000000	0.005865
1622.000000	0.005743
1621.000000	0.005665
1620.000000	0.005634
1619.000000	0.005614
1618.000000	0.005563
1617.000000	0.005455
1616.000000	0.005304
1615.000000	0.005143
1614.000000	0.005001
1613.000000	0.004890
1612.000000	0.004804
1611.000000	0.004721
1610.000000	0.004631
1609.000000	0.004541
1608.000000	0.004450
1607.000000	0.004337
1606.000000	0.004210
1605.000000	0.004102
1604.000000	0.004024
1603.000000	0.003957
1602.000000	0.003888
1601.000000	0.003826
1600.000000	0.003779
1599.000000	0.003736
1598.000000	0.003692
1597.000000	0.003647
1596.000000	0.003607
1595.000000	0.003573
1594.000000	0.003548
1593.000000	0.003535
1592.000000	0.003524
1591.000000	0.003502
1590.000000	0.003471
1589.000000	0.003448
1588.000000	0.003440
1587.000000	0.003435
1586.000000	0.003430
1585.000000	0.003436
1584.000000	0.003447
1583.000000	0.003438
1582.000000	0.003402
1581.000000	0.003365
1580.000000	0.003352
1579.000000	0.003368
1578.000000	0.003410
1577.000000	0.003478
1576.000000	0.003553
1575.000000	0.003605
1574.000000	0.003650
1573.000000	0.003711
1572.000000	0.003780
1571.000000	0.003830
1570.000000	0.003851
1569.000000	0.003871
1568.000000	0.003903
1567.000000	0.003938
1566.000000	0.003975
1565.000000	0.004035
1564.000000	0.004109
1563.000000	0.004178
1562.000000	0.004239
1561.000000	0.004303
1560.000000	0.004411
1559.000000	0.004561
1558.000000	0.004660
1557.000000	0.004730
1556.000000	0.004805
1555.000000	0.004858
1554.000000	0.004939
1553.000000	0.005033
1552.000000	0.005121
1551.000000	0.005196
1550.000000	0.005299
1549.000000	0.005441
1548.000000	0.005585
1547.000000	0.005689
1546.000000	0.005766
1545.000000	0.005870
1544.000000	0.006021
1543.000000	0.006199
1542.000000	0.006386
1541.000000	0.006557
1540.000000	0.006668
1539.000000	0.006723
1538.000000	0.006795
1537.000000	0.006907
1536.000000	0.007033
1535.000000	0.007158
1534.000000	0.007278
1533.000000	0.007399
1532.000000	0.007521
1531.000000	0.007642
1530.000000	0.007742
1529.000000	0.007813
1528.000000	0.007869
1527.000000	0.007939
1526.000000	0.008042
1525.000000	0.008171
1524.000000	0.008287
1523.000000	0.008357
1522.000000	0.008389
1521.000000	0.008420
1520.000000	0.008488
1519.000000	0.008582
1518.000000	0.008677
1517.000000	0.008767
1516.000000	0.008857
1515.000000	0.008953
1514.000000	0.009057
1513.000000	0.009154
1512.000000	0.009229
1511.000000	0.009287
1510.000000	0.009348
1509.000000	0.009431
1508.000000	0.009529
1507.000000	0.009592
1506.000000	0.009621
1505.000000	0.009690
1504.000000	0.009768
1503.000000	0.009819
1502.000000	0.009880
1501.000000	0.009957
1500.000000	0.010028
1499.000000	0.010066
1498.000000	0.010102
1497.000000	0.010176
1496.000000	0.010276
1495.000000	0.010357
1494.000000	0.010398
1493.000000	0.010403
1492.000000	0.010388
1491.000000	0.010394
1490.000000	0.010472
1489.000000	0.010614
1488.000000	0.010774
1487.000000	0.010926
1486.000000	0.011057
1485.000000	0.011175
1484.000000	0.011290
1483.000000	0.011405
1482.000000	0.011541
1481.000000	0.011708
1480.000000	0.011878
1479.000000	0.012020
1478.000000	0.012147
1477.000000	0.012301
1476.000000	0.012504
1475.000000	0.012738
1474.000000	0.013007
1473.000000	0.013329
1472.000000	0.013663
1471.000000	0.013950
1470.000000	0.014201
1469.000000	0.014440
1468.000000	0.014672
1467.000000	0.014892
1466.000000	0.015098
1465.000000	0.015293
1464.000000	0.015454
1463.000000	0.015578
1462.000000	0.015689
1461.000000	0.015810
1460.000000	0.015943
1459.000000	0.016100
1458.000000	0.016353
1457.000000	0.016719
1456.000000	0.017042
1455.000000	0.017225
1454.000000	0.017336
1453.000000	0.017439
1452.000000	0.017552
1451.000000	0.017661
1450.000000	0.017773
1449.000000	0.017907
1448.000000	0.018065
1447.000000	0.018232
1446.000000	0.018401
1445.000000	0.018568
1444.000000	0.018716
1443.000000	0.018854
1442.000000	0.019011
1441.000000	0.019192
1440.000000	0.019357
1439.000000	0.019479
1438.000000	0.019610
1437.000000	0.019835
1436.000000	0.020120
1435.000000	0.020352
1434.000000	0.020512
1433.000000	0.020639
1432.000000	0.020749
1431.000000	0.020846
1430.000000	0.020971
1429.000000	0.021162
1428.000000	0.021391
1427.000000	0.021601
1426.000000	0.021778
1425.000000	0.021949
1424.000000	0.022100
1423.000000	0.022193
1422.000000	0.022237
1421.000000	0.022273
1420.000000	0.022315
1419.000000	0.022358
1418.000000	0.022405
1417.000000	0.022453
1416.000000	0.022471
1415.000000	0.022439
1414.000000	0.022376
1413.000000	0.022300
1412.000000	0.022190
1411.000000	0.022023
1410.000000	0.021823
1409.000000	0.021615
1408.000000	0.021383
1407.000000	0.021114
1406.000000	0.020835
1405.000000	0.020588
1404.000000	0.020380
1403.000000	0.020205
1402.000000	0.020069
1401.000000	0.019969
1400.000000	0.019880
1399.000000	0.019783
1398.000000	0.019686
1397.000000	0.019604
1396.000000	0.019513
1395.000000	0.019388
1394.000000	0.019253
1393.000000	0.019148
1392.000000	0.019062
1391.000000	0.018960
1390.000000	0.018830
1389.000000	0.018673
1388.000000	0.018486
1387.000000	0.018280
1386.000000	0.018089
1385.000000	0.017927
1384.000000	0.017767
1383.000000	0.017591
1382.000000	0.017409
1381.000000	0.017229
1380.000000	0.017042
1379.000000	0.016840
1378.000000	0.016628
1377.000000	0.016406
1376.000000	0.016158
1375.000000	0.015883
1374.000000	0.015611
1373.000000	0.015374
1372.000000	0.015167
1371.000000	0.014968
1370.000000	0.014768
1369.000000	0.014578
1368.000000	0.014404
1367.000000	0.014240
1366.000000	0.014081
1365.000000	0.013916
1364.000000	0.013743
1363.000000	0.013578
1362.000000	0.013444
1361.000000	0.013348
1360.000000	0.013273
1359.000000	0.013200
1358.000000	0.013119
1357.000000	0.013031
1356.000000	0.012935
1355.000000	0.012840
1354.000000	0.012756
1353.000000	0.012674
1352.000000	0.012575
1351.000000	0.012455
1350.000000	0.012330
1349.000000	0.012216
1348.000000	0.012121
1347.000000	0.012044
1346.000000	0.011985
1345.000000	0.011939
1344.000000	0.011899
1343.000000	0.011856
1342.000000	0.011807
1341.000000	0.011758
1340.000000	0.011724
1339.000000	0.011723
1338.000000	0.011763
1337.000000	0.011831
1336.000000	0.011888
1335.000000	0.011910
1334.000000	0.011888
1333.000000	0.011829
1332.000000	0.011746
1331.000000	0.011656
1330.000000	0.011574
1329.000000	0.011495
1328.000000	0.011405
1327.000000	0.011304
1326.000000	0.011204
1325.000000	0.011114
1324.000000	0.011025
1323.000000	0.010929
1322.000000	0.010833
1321.000000	0.010746
1320.000000	0.010666
1319.000000	0.010591
1318.000000	0.010522
1317.000000	0.010457
1316.000000	0.010383
1315.000000	0.010293
1314.000000	0.010195
1313.000000	0.010104
1312.000000	0.010017
1311.000000	0.009922
1310.000000	0.009821
1309.000000	0.009727
1308.000000	0.009652
1307.000000	0.009590
1306.000000	0.009525
1305.000000	0.009440
1304.000000	0.009333
1303.000000	0.009217
1302.000000	0.009102
1301.000000	0.008990
1300.000000	0.008872
1299.000000	0.008753
1298.000000	0.008647
1297.000000	0.008555
1296.000000	0.008465
1295.000000	0.008369
1294.000000	0.008276
1293.000000	0.008201
1292.000000	0.008156
1291.000000	0.008135
1290.000000	0.008119
1289.000000	0.008089
1288.000000	0.008037
1287.000000	0.007974
1286.000000	0.007913
1285.000000	0.007858
1284.000000	0.007805
1283.000000	0.007755
1282.000000	0.007716
1281.000000	0.007686
1280.000000	0.007664
1279.000000	0.007655
1278.000000	0.007667
1277.000000	0.007695
1276.000000	0.007730
1275.000000	0.007774
1274.000000	0.007838
1273.000000	0.007925
1272.000000	0.008031
1271.000000	0.008154
1270.000000	0.008302
1269.000000	0.008474
1268.000000	0.008655
1267.000000	0.008834
1266.000000	0.009014
1265.000000	0.009194
1264.000000	0.009363
1263.000000	0.009514
1262.000000	0.009654
1261.000000	0.009805
1260.000000	0.009978
1259.000000	0.010165
1258.000000	0.010349
1257.000000	0.010516
1256.000000	0.010652
1255.000000	0.010750
1254.000000	0.010808
1253.000000	0.010831
1252.000000	0.010829
1251.000000	0.010813
1250.000000	0.010794
1249.000000	0.010782
1248.000000	0.010777
1247.000000	0.010774
1246.000000	0.010771
1245.000000	0.010775
1244.000000	0.010793
1243.000000	0.010823
1242.000000	0.010844
1241.000000	0.010828
1240.000000	0.010769
1239.000000	0.010688
1238.000000	0.010608
1237.000000	0.010533
1236.000000	0.010454
1235.000000	0.010368
1234.000000	0.010284
1233.000000	0.010204
1232.000000	0.010114
1231.000000	0.010006
1230.000000	0.009879
1229.000000	0.009725
1228.000000	0.009531
1227.000000	0.009302
1226.000000	0.009064
1225.000000	0.008836
1224.000000	0.008614
1223.000000	0.008385
1222.000000	0.008148
1221.000000	0.007916
1220.000000	0.007708
1219.000000	0.007535
1218.000000	0.007393
1217.000000	0.007261
1216.000000	0.007122
1215.000000	0.006981
1214.000000	0.006855
1213.000000	0.006752
1212.000000	0.006665
1211.000000	0.006595
1210.000000	0.006550
1209.000000	0.006530
1208.000000	0.006515
1207.000000	0.006490
1206.000000	0.006462
1205.000000	0.006449
1204.000000	0.006457
1203.000000	0.006476
1202.000000	0.006496
1201.000000	0.006511
1200.000000	0.006526
1199.000000	0.006554
1198.000000	0.006607
1197.000000	0.006687
1196.000000	0.006781
1195.000000	0.006872
1194.000000	0.006957
1193.000000	0.007040
1192.000000	0.007128
1191.000000	0.007226
1190.000000	0.007333
1189.000000	0.007440
1188.000000	0.007547
1187.000000	0.007664
1186.000000	0.007808
1185.000000	0.007980
1184.000000	0.008165
1183.000000	0.008346
1182.000000	0.008522
1181.000000	0.008706
1180.000000	0.008913
1179.000000	0.009146
1178.000000	0.009395
1177.000000	0.009641
1176.000000	0.009875
1175.000000	0.010100
1174.000000	0.010320
1173.000000	0.010530
1172.000000	0.010723
1171.000000	0.010904
1170.000000	0.011083
1169.000000	0.011260
1168.000000	0.011427
1167.000000	0.011576
1166.000000	0.011708
1165.000000	0.011819
1164.000000	0.011904
1163.000000	0.011966
1162.000000	0.012017
1161.000000	0.012057
1160.000000	0.012070
1159.000000	0.012039
1158.000000	0.011968
1157.000000	0.011871
1156.000000	0.011754
1155.000000	0.011619
1154.000000	0.011463
1153.000000	0.011279
1152.000000	0.011064
1151.000000	0.010824
1150.000000	0.010576
1149.000000	0.010327
1148.000000	0.010068
1147.000000	0.009786
1146.000000	0.009479
1145.000000	0.009155
1144.000000	0.008823
1143.000000	0.008501
1142.000000	0.008203
1141.000000	0.007927
1140.000000	0.007659
1139.000000	0.007397
1138.000000	0.007156
1137.000000	0.006944
1136.000000	0.006751
1135.000000	0.006571
1134.000000	0.006409
1133.000000	0.006271
1132.000000	0.006150
1131.000000	0.006040
1130.000000	0.005948
1129.000000	0.005879
1128.000000	0.005825
1127.000000	0.005774
1126.000000	0.005731
1125.000000	0.005715
1124.000000	0.005739
1123.000000	0.005811
1122.000000	0.005920
1121.000000	0.006043
1120.000000	0.006150
1119.000000	0.006232
1118.000000	0.006317
1117.000000	0.006452
1116.000000	0.006662
1115.000000	0.006926
1114.000000	0.007194
1113.000000	0.007428
1112.000000	0.007619
1111.000000	0.007773
1110.000000	0.007894
1109.000000	0.007974
1108.000000	0.008006
1107.000000	0.008000
1106.000000	0.007974
1105.000000	0.007935
1104.000000	0.007883
1103.000000	0.007827
1102.000000	0.007788
1101.000000	0.007780
1100.000000	0.007799
1099.000000	0.007841
1098.000000	0.007904
1097.000000	0.007987
1096.000000	0.008081
1095.000000	0.008174
1094.000000	0.008258
1093.000000	0.008327
1092.000000	0.008366
1091.000000	0.008359
1090.000000	0.008297
1089.000000	0.008183
1088.000000	0.008024
1087.000000	0.007835
1086.000000	0.007629
1085.000000	0.007410
1084.000000	0.007179
1083.000000	0.006952
1082.000000	0.006751
1081.000000	0.006592
1080.000000	0.006461
1079.000000	0.006336
1078.000000	0.006206
1077.000000	0.006073
1076.000000	0.005949
1075.000000	0.005846
1074.000000	0.005770
1073.000000	0.005715
1072.000000	0.005659
1071.000000	0.005591
1070.000000	0.005520
1069.000000	0.005474
1068.000000	0.005466
1067.000000	0.005485
1066.000000	0.005505
1065.000000	0.005506
1064.000000	0.005487
1063.000000	0.005463
1062.000000	0.005452
1061.000000	0.005457
1060.000000	0.005465
1059.000000	0.005452
1058.000000	0.005402
1057.000000	0.005315
1056.000000	0.005205
1055.000000	0.005087
1054.000000	0.004978
1053.000000	0.004899
1052.000000	0.004861
1051.000000	0.004852
1050.000000	0.004832
1049.000000	0.004778
1048.000000	0.004718
1047.000000	0.004704
1046.000000	0.004755
1045.000000	0.004840
1044.000000	0.004917
1043.000000	0.004973
1042.000000	0.005020
1041.000000	0.005069
1040.000000	0.005126
1039.000000	0.005188
1038.000000	0.005246
1037.000000	0.005282
1036.000000	0.005280
1035.000000	0.005243
1034.000000	0.005192
1033.000000	0.005145
1032.000000	0.005110
1031.000000	0.005091
1030.000000	0.005088
1029.000000	0.005096
1028.000000	0.005113
1027.000000	0.005143
1026.000000	0.005187
1025.000000	0.005234
1024.000000	0.005273
1023.000000	0.005304
1022.000000	0.005328
1021.000000	0.005337
1020.000000	0.005331
1019.000000	0.005315
1018.000000	0.005292
1017.000000	0.005253
1016.000000	0.005190
1015.000000	0.005120
1014.000000	0.005064
1013.000000	0.005026
1012.000000	0.004987
1011.000000	0.004933
1010.000000	0.004868
1009.000000	0.004799
1008.000000	0.004727
1007.000000	0.004648
1006.000000	0.004555
1005.000000	0.004450
1004.000000	0.004337
1003.000000	0.004224
1002.000000	0.004123
1001.000000	0.004043
1000.000000	0.003992
999.000000	0.003964
998.000000	0.003938
997.000000	0.003896
996.000000	0.003837
995.000000	0.003780
994.000000	0.003736
993.000000	0.003700
992.000000	0.003673
991.000000	0.003666
990.000000	0.003677
989.000000	0.003685
988.000000	0.003674
987.000000	0.003649
986.000000	0.003629
985.000000	0.003618
984.000000	0.003610
983.000000	0.003596
982.000000	0.003568
981.000000	0.003527
980.000000	0.003484
979.000000	0.003456
978.000000	0.003449
977.000000	0.003448
976.000000	0.003442
975.000000	0.003444
974.000000	0.003474
973.000000	0.003528
972.000000	0.003590
971.000000	0.003650
970.000000	0.003709
969.000000	0.003760
968.000000	0.003789
967.000000	0.003786
966.000000	0.003758
965.000000	0.003722
964.000000	0.003692
963.000000	0.003675
962.000000	0.003661
961.000000	0.003631
960.000000	0.003577
959.000000	0.003512
958.000000	0.003450
957.000000	0.003386
956.000000	0.003315
955.000000	0.003249
954.000000	0.003194
953.000000	0.003126
952.000000	0.003015
951.000000	0.002876
950.000000	0.002762
949.000000	0.002708
948.000000	0.002699
947.000000	0.002687
946.000000	0.002638
945.000000	0.002548
944.000000	0.002441
943.000000	0.002347
942.000000	0.002283
941.000000	0.002245
940.000000	0.002212
939.000000	0.002164
938.000000	0.002090
937.000000	0.001999
936.000000	0.001917
935.000000	0.001871
934.000000	0.001857
933.000000	0.001841
932.000000	0.001801
931.000000	0.001758
930.000000	0.001742
929.000000	0.001746
928.000000	0.001740
927.000000	0.001710
926.000000	0.001669
925.000000	0.001624
924.000000	0.001574
923.000000	0.001521
922.000000	0.001475
921.000000	0.001432
920.000000	0.001383
919.000000	0.001331
918.000000	0.001298
917.000000	0.001285
916.000000	0.001259
915.000000	0.001199
914.000000	0.001122
913.000000	0.001065
912.000000	0.001034
911.000000	0.001004
910.000000	0.000959
909.000000	0.000905
908.000000	0.000855
907.000000	0.000807
906.000000	0.000749
905.000000	0.000675
904.000000	0.000595
903.000000	0.000516
902.000000	0.000447
901.000000	0.000392
900.000000	0.000362
899.000000	0.000364
898.000000	0.000392
897.000000	0.000428
896.000000	0.000452
895.000000	0.000455
894.000000	0.000442
893.000000	0.000433
892.000000	0.000450
891.000000	0.000501
890.000000	0.000580
889.000000	0.000709
888.000000	0.000967
887.000000	0.001443
886.000000	0.002155
885.000000	0.003014
884.000000	0.003899
883.000000	0.004747
882.000000	0.005584
881.000000	0.006487
880.000000	0.007520
879.000000	0.008681
878.000000	0.009885
877.000000	0.011007
876.000000	0.011934
875.000000	0.012594
874.000000	0.012931
873.000000	0.012885
872.000000	0.012423
871.000000	0.011582
870.000000	0.010488
869.000000	0.009300
868.000000	0.008154
867.000000	0.007131
866.000000	0.006261
865.000000	0.005537
864.000000	0.004943
863.000000	0.004456
862.000000	0.004033
861.000000	0.003627
860.000000	0.003218
859.000000	0.002838
858.000000	0.002523
857.000000	0.002268
856.000000	0.002047
855.000000	0.001859
854.000000	0.001720
853.000000	0.001634
852.000000	0.001597
851.000000	0.001621
850.000000	0.001719
849.000000	0.001855
848.000000	0.001938
847.000000	0.001896
846.000000	0.001727
845.000000	0.001487
844.000000	0.001250
843.000000	0.001079
842.000000	0.001010
841.000000	0.001032
840.000000	0.001090
839.000000	0.001129
838.000000	0.001138
837.000000	0.001139
836.000000	0.001156
835.000000	0.001181
834.000000	0.001190
833.000000	0.001168
832.000000	0.001123
831.000000	0.001084
830.000000	0.001066
829.000000	0.001062
828.000000	0.001053
827.000000	0.001031
826.000000	0.000997
825.000000	0.000938
824.000000	0.000847
823.000000	0.000739
822.000000	0.000648
821.000000	0.000584
820.000000	0.000523
819.000000	0.000449
818.000000	0.000399
817.000000	0.000420
816.000000	0.000513
815.000000	0.000608
814.000000	0.000632
813.000000	0.000573
812.000000	0.000478
811.000000	0.000400
810.000000	0.000349
809.000000	0.000315
808.000000	0.000299
807.000000	0.000316
806.000000	0.000369
805.000000	0.000443
804.000000	0.000526
803.000000	0.000615
802.000000	0.000696
801.000000	0.000742
800.000000	0.000737
799.000000	0.000700
798.000000	0.000667
797.000000	0.000656
796.000000	0.000653
795.000000	0.000639
794.000000	0.000615
793.000000	0.000601
792.000000	0.000619
791.000000	0.000675
790.000000	0.000743
789.000000	0.000787
788.000000	0.000787
787.000000	0.000757
786.000000	0.000733
785.000000	0.000745
784.000000	0.000795
783.000000	0.000859
782.000000	0.000902
781.000000	0.000906
780.000000	0.000885
779.000000	0.000868
778.000000	0.000874
777.000000	0.000901
776.000000	0.000934
775.000000	0.000954
774.000000	0.000957
773.000000	0.000952
772.000000	0.000965
771.000000	0.001010
770.000000	0.001076
769.000000	0.001142
768.000000	0.001201
767.000000	0.001255
766.000000	0.001291
765.000000	0.001288
764.000000	0.001246
763.000000	0.001201
762.000000	0.001194
761.000000	0.001243
760.000000	0.001332
759.000000	0.001418
758.000000	0.001473
757.000000	0.001502
756.000000	0.001536
755.000000	0.001583
754.000000	0.001612
753.000000	0.001595
752.000000	0.001549
751.000000	0.001509
750.000000	0.001485
749.000000	0.001463
748.000000	0.001461
747.000000	0.001510
746.000000	0.001606
745.000000	0.001698
744.000000	0.001746
743.000000	0.001753
742.000000	0.001740
741.000000	0.001712
740.000000	0.001673
739.000000	0.001635
738.000000	0.001601
737.000000	0.001578
736.000000	0.001589
735.000000	0.001661
734.000000	0.001777
733.000000	0.001886
732.000000	0.001960
731.000000	0.002005
730.000000	0.002023
729.000000	0.001999
728.000000	0.001944
727.000000	0.001904
726.000000	0.001907
725.000000	0.001930
724.000000	0.001937
723.000000	0.001922
722.000000	0.001914
721.000000	0.001949
720.000000	0.002064
719.000000	0.002287
718.000000	0.002641
717.000000	0.003159
716.000000	0.003894
715.000000	0.004844
714.000000	0.005837
713.000000	0.006555
712.000000	0.006743
711.000000	0.006403
710.000000	0.005772
709.000000	0.005136
708.000000	0.004674
707.000000	0.004408
706.000000	0.004265
705.000000	0.004164
704.000000	0.004074
703.000000	0.004013
702.000000	0.003998
701.000000	0.004016
700.000000	0.004061
699.000000	0.004133
698.000000	0.004206
697.000000	0.004238
696.000000	0.004220
695.000000	0.004199
694.000000	0.004202
693.000000	0.004198
692.000000	0.004170
691.000000	0.004152
690.000000	0.004174
689.000000	0.004208
688.000000	0.004203
687.000000	0.004166
686.000000	0.004116
685.000000	0.004037
684.000000	0.003923
683.000000	0.003822
682.000000	0.003775
681.000000	0.003762
680.000000	0.003758
679.000000	0.003783
678.000000	0.003850
677.000000	0.003933
676.000000	0.003991
675.000000	0.003989
674.000000	0.003906
673.000000	0.003721
672.000000	0.003442
671.000000	0.003071
670.000000	0.002570
669.000000	0.001928
668.000000	0.001508
667.000000	0.001775
666.000000	0.002299
665.000000	0.002694
664.000000	0.002923
663.000000	0.002969
662.000000	0.002873
661.000000	0.002713
660.000000	0.002545
659.000000	0.002385
658.000000	0.002249
657.000000	0.002186
656.000000	0.002215
655.000000	0.002306
654.000000	0.002445
653.000000	0.002635
652.000000	0.002841
651.000000	0.003003
650.000000	0.003125
649.000000	0.003270
648.000000	0.003452
647.000000	0.003616
646.000000	0.003736
645.000000	0.003838
644.000000	0.003929
643.000000	0.003995
642.000000	0.004056
641.000000	0.004170
640.000000	0.004344
639.000000	0.004504
638.000000	0.004588
637.000000	0.004609
636.000000	0.004604
635.000000	0.004597
634.000000	0.004606
633.000000	0.004640
632.000000	0.004675
631.000000	0.004683
630.000000	0.004675
629.000000	0.004687
628.000000	0.004719
627.000000	0.004742
626.000000	0.004762
625.000000	0.004802
624.000000	0.004837
623.000000	0.004802
622.000000	0.004687
621.000000	0.004565
620.000000	0.004516
619.000000	0.004565
618.000000	0.004689
617.000000	0.004848
616.000000	0.005002
615.000000	0.005125
614.000000	0.005213
613.000000	0.005272
612.000000	0.005297
611.000000	0.005299
610.000000	0.005320
609.000000	0.005382
608.000000	0.005445
607.000000	0.005454
606.000000	0.005419
605.000000	0.005372
604.000000	0.005286
603.000000	0.005113
602.000000	0.004874
601.000000	0.004637
600.000000	0.004431
599.000000	0.004233
598.000000	0.004051
597.000000	0.003925
596.000000	0.003838
595.000000	0.003712
594.000000	0.003513
593.000000	0.003315
592.000000	0.003208
591.000000	0.003190
590.000000	0.003188
589.000000	0.003153
588.000000	0.003088
587.000000	0.003015
586.000000	0.002960
585.000000	0.002944
584.000000	0.002970
583.000000	0.003007
582.000000	0.003021
581.000000	0.002997
580.000000	0.002936
579.000000	0.002840
578.000000	0.002731
577.000000	0.002646
576.000000	0.002603
575.000000	0.002595
574.000000	0.002600
573.000000	0.002605
572.000000	0.002594
571.000000	0.002560
570.000000	0.002513
569.000000	0.002458
568.000000	0.002361
567.000000	0.002194
566.000000	0.002001
565.000000	0.001864
564.000000	0.001814
563.000000	0.001806
562.000000	0.001802
561.000000	0.001813
560.000000	0.001847
559.000000	0.001882
558.000000	0.001902
557.000000	0.001917
556.000000	0.001926
555.000000	0.001909
554.000000	0.001876
553.000000	0.001887
552.000000	0.001991
551.000000	0.002167
550.000000	0.002345
549.000000	0.002466
548.000000	0.002503
547.000000	0.002447
546.000000	0.002316
545.000000	0.002149
544.000000	0.001987
543.000000	0.001866
542.000000	0.001826
541.000000	0.001882
540.000000	0.002000
539.000000	0.002116
538.000000	0.002208
537.000000	0.002304
536.000000	0.002421
535.000000	0.002528
534.000000	0.002597
533.000000	0.002633
532.000000	0.002639
531.000000	0.002587
530.000000	0.002458
529.000000	0.002287
528.000000	0.002144
527.000000	0.002067
526.000000	0.002034
525.000000	0.001996
524.000000	0.001942
523.000000	0.001934
522.000000	0.002044
521.000000	0.002243
520.000000	0.002368
519.000000	0.002279
518.000000	0.002043
517.000000	0.001880
516.000000	0.001898
515.000000	0.001984
514.000000	0.001998
513.000000	0.001940
512.000000	0.001900
511.000000	0.001927
510.000000	0.001999
509.000000	0.002089
508.000000	0.002198
507.000000	0.002309
506.000000	0.002371
505.000000	0.002360
504.000000	0.002318
503.000000	0.002338
502.000000	0.002477
501.000000	0.002669
500.000000	0.002761
499.000000	0.002656
498.000000	0.002420
497.000000	0.002223
496.000000	0.002175
495.000000	0.002242
494.000000	0.002339
493.000000	0.002436
492.000000	0.002527
491.000000	0.002549
490.000000	0.002432
489.000000	0.002209
488.000000	0.001986
487.000000	0.001825
486.000000	0.001703
485.000000	0.001608
484.000000	0.001617
483.000000	0.001801
482.000000	0.002103
481.000000	0.002351
480.000000	0.002384
479.000000	0.002172
478.000000	0.001833
477.000000	0.001524
476.000000	0.001291
475.000000	0.001077
474.000000	0.000874
473.000000	0.000797
472.000000	0.000919
471.000000	0.001113
470.000000	0.001209
469.000000	0.001181
468.000000	0.001103
467.000000	0.001035
466.000000	0.001016
465.000000	0.001075
464.000000	0.001185
463.000000	0.001252
462.000000	0.001193
461.000000	0.001037
460.000000	0.000879
459.000000	0.000777
458.000000	0.000764
457.000000	0.000863
456.000000	0.001018
455.000000	0.001093
454.000000	0.000983
453.000000	0.000716
452.000000	0.000447
451.000000	0.000324
450.000000	0.000349
