PE IR       SUBTECH     SPECTRUM    ASCII       PEDS        4.00        
   -1
P12-Rouge027_1.ASC
23/06/08
15:16:11.00
23/06/08
15:48:35.00
uco
Sample 027 By uco Date Thursday, June 08 2023
450.000000
#HDR
-1
-1
#GR
cm-1
A
1.0
0.0
4000.000000
-1.000000
3551
8
0.013512
0.000348
#DATA
4000.000000	0.000642
3999.000000	0.000673
3998.000000	0.000694
3997.000000	0.000695
3996.000000	0.000676
3995.000000	0.000649
3994.000000	0.000633
3993.000000	0.000598
3992.000000	0.000614
3991.000000	0.000639
3990.000000	0.000665
3989.000000	0.000693
3988.000000	0.000720
3987.000000	0.000743
3986.000000	0.000758
3985.000000	0.000757
3984.000000	0.000744
3983.000000	0.000727
3982.000000	0.000718
3981.000000	0.000726
3980.000000	0.000747
3979.000000	0.000768
3978.000000	0.000776
3977.000000	0.000767
3976.000000	0.000746
3975.000000	0.000725
3974.000000	0.000711
3973.000000	0.000706
3972.000000	0.000708
3971.000000	0.000711
3970.000000	0.000710
3969.000000	0.000705
3968.000000	0.000700
3967.000000	0.000700
3966.000000	0.000705
3965.000000	0.000708
3964.000000	0.000700
3963.000000	0.000686
3962.000000	0.000677
3961.000000	0.000687
3960.000000	0.000714
3959.000000	0.000743
3958.000000	0.000756
3957.000000	0.000750
3956.000000	0.000734
3955.000000	0.000720
3954.000000	0.000714
3953.000000	0.000716
3952.000000	0.000723
3951.000000	0.000731
3950.000000	0.000740
3949.000000	0.000747
3948.000000	0.000750
3947.000000	0.000748
3946.000000	0.000742
3945.000000	0.000732
3944.000000	0.000721
3943.000000	0.000719
3942.000000	0.000735
3941.000000	0.000770
3940.000000	0.000807
3939.000000	0.000827
3938.000000	0.000818
3937.000000	0.000792
3936.000000	0.000770
3935.000000	0.000767
3934.000000	0.000776
3933.000000	0.000781
3932.000000	0.000768
3931.000000	0.000745
3930.000000	0.000729
3929.000000	0.000730
3928.000000	0.000741
3927.000000	0.000752
3926.000000	0.000759
3925.000000	0.000761
3924.000000	0.000763
3923.000000	0.000769
3922.000000	0.000782
3921.000000	0.000800
3920.000000	0.000816
3919.000000	0.000819
3918.000000	0.000804
3917.000000	0.000778
3916.000000	0.000755
3915.000000	0.000746
3914.000000	0.000748
3913.000000	0.000754
3912.000000	0.000757
3911.000000	0.000761
3910.000000	0.000767
3909.000000	0.000771
3908.000000	0.000773
3907.000000	0.000773
3906.000000	0.000779
3905.000000	0.000794
3904.000000	0.000810
3903.000000	0.000818
3902.000000	0.000815
3901.000000	0.000807
3900.000000	0.000801
3899.000000	0.000793
3898.000000	0.000781
3897.000000	0.000765
3896.000000	0.000749
3895.000000	0.000735
3894.000000	0.000721
3893.000000	0.000711
3892.000000	0.000709
3891.000000	0.000716
3890.000000	0.000727
3889.000000	0.000735
3888.000000	0.000739
3887.000000	0.000744
3886.000000	0.000752
3885.000000	0.000758
3884.000000	0.000758
3883.000000	0.000744
3882.000000	0.000714
3881.000000	0.000676
3880.000000	0.000650
3879.000000	0.000656
3878.000000	0.000688
3877.000000	0.000727
3876.000000	0.000750
3875.000000	0.000749
3874.000000	0.000736
3873.000000	0.000738
3872.000000	0.000765
3871.000000	0.000798
3870.000000	0.000805
3869.000000	0.000780
3868.000000	0.000745
3867.000000	0.000721
3866.000000	0.000707
3865.000000	0.000695
3864.000000	0.000687
3863.000000	0.000697
3862.000000	0.000726
3861.000000	0.000762
3860.000000	0.000783
3859.000000	0.000780
3858.000000	0.000754
3857.000000	0.000721
3856.000000	0.000703
3855.000000	0.000708
3854.000000	0.000733
3853.000000	0.000753
3852.000000	0.000752
3851.000000	0.000735
3850.000000	0.000720
3849.000000	0.000719
3848.000000	0.000732
3847.000000	0.000754
3846.000000	0.000775
3845.000000	0.000780
3844.000000	0.000765
3843.000000	0.000735
3842.000000	0.000703
3841.000000	0.000678
3840.000000	0.000664
3839.000000	0.000663
3838.000000	0.000680
3837.000000	0.000715
3836.000000	0.000755
3835.000000	0.000786
3834.000000	0.000802
3833.000000	0.000802
3832.000000	0.000790
3831.000000	0.000776
3830.000000	0.000769
3829.000000	0.000772
3828.000000	0.000779
3827.000000	0.000782
3826.000000	0.000774
3825.000000	0.000754
3824.000000	0.000725
3823.000000	0.000687
3822.000000	0.000639
3821.000000	0.000600
3820.000000	0.000592
3819.000000	0.000617
3818.000000	0.000656
3817.000000	0.000689
3816.000000	0.000708
3815.000000	0.000727
3814.000000	0.000757
3813.000000	0.000791
3812.000000	0.000811
3811.000000	0.000806
3810.000000	0.000780
3809.000000	0.000750
3808.000000	0.000724
3807.000000	0.000704
3806.000000	0.000694
3805.000000	0.000697
3804.000000	0.000711
3803.000000	0.000717
3802.000000	0.000694
3801.000000	0.000645
3800.000000	0.000604
3799.000000	0.000591
3798.000000	0.000607
3797.000000	0.000642
3796.000000	0.000684
3795.000000	0.000724
3794.000000	0.000761
3793.000000	0.000794
3792.000000	0.000820
3791.000000	0.000831
3790.000000	0.000826
3789.000000	0.000807
3788.000000	0.000783
3787.000000	0.000759
3786.000000	0.000740
3785.000000	0.000725
3784.000000	0.000717
3783.000000	0.000719
3782.000000	0.000729
3781.000000	0.000743
3780.000000	0.000753
3779.000000	0.000753
3778.000000	0.000746
3777.000000	0.000738
3776.000000	0.000736
3775.000000	0.000743
3774.000000	0.000759
3773.000000	0.000779
3772.000000	0.000792
3771.000000	0.000786
3770.000000	0.000754
3769.000000	0.000714
3768.000000	0.000691
3767.000000	0.000697
3766.000000	0.000722
3765.000000	0.000743
3764.000000	0.000744
3763.000000	0.000727
3762.000000	0.000707
3761.000000	0.000696
3760.000000	0.000700
3759.000000	0.000723
3758.000000	0.000753
3757.000000	0.000776
3756.000000	0.000785
3755.000000	0.000786
3754.000000	0.000789
3753.000000	0.000802
3752.000000	0.000829
3751.000000	0.000865
3750.000000	0.000892
3749.000000	0.000894
3748.000000	0.000875
3747.000000	0.000853
3746.000000	0.000840
3745.000000	0.000826
3744.000000	0.000801
3743.000000	0.000768
3742.000000	0.000738
3741.000000	0.000719
3740.000000	0.000712
3739.000000	0.000711
3738.000000	0.000715
3737.000000	0.000716
3736.000000	0.000700
3735.000000	0.000671
3734.000000	0.000651
3733.000000	0.000659
3732.000000	0.000681
3731.000000	0.000698
3730.000000	0.000705
3729.000000	0.000716
3728.000000	0.000744
3727.000000	0.000782
3726.000000	0.000817
3725.000000	0.000840
3724.000000	0.000845
3723.000000	0.000830
3722.000000	0.000799
3721.000000	0.000761
3720.000000	0.000726
3719.000000	0.000701
3718.000000	0.000683
3717.000000	0.000667
3716.000000	0.000655
3715.000000	0.000654
3714.000000	0.000676
3713.000000	0.000726
3712.000000	0.000786
3711.000000	0.000821
3710.000000	0.000811
3709.000000	0.000767
3708.000000	0.000713
3707.000000	0.000666
3706.000000	0.000635
3705.000000	0.000621
3704.000000	0.000622
3703.000000	0.000630
3702.000000	0.000641
3701.000000	0.000650
3700.000000	0.000661
3699.000000	0.000681
3698.000000	0.000712
3697.000000	0.000745
3696.000000	0.000768
3695.000000	0.000780
3694.000000	0.000785
3693.000000	0.000781
3692.000000	0.000760
3691.000000	0.000716
3690.000000	0.000668
3689.000000	0.000647
3688.000000	0.000659
3687.000000	0.000680
3686.000000	0.000689
3685.000000	0.000690
3684.000000	0.000693
3683.000000	0.000704
3682.000000	0.000725
3681.000000	0.000751
3680.000000	0.000782
3679.000000	0.000811
3678.000000	0.000836
3677.000000	0.000846
3676.000000	0.000828
3675.000000	0.000800
3674.000000	0.000787
3673.000000	0.000792
3672.000000	0.000801
3671.000000	0.000797
3670.000000	0.000780
3669.000000	0.000769
3668.000000	0.000776
3667.000000	0.000789
3666.000000	0.000798
3665.000000	0.000801
3664.000000	0.000805
3663.000000	0.000818
3662.000000	0.000838
3661.000000	0.000859
3660.000000	0.000873
3659.000000	0.000875
3658.000000	0.000865
3657.000000	0.000846
3656.000000	0.000825
3655.000000	0.000812
3654.000000	0.000813
3653.000000	0.000826
3652.000000	0.000844
3651.000000	0.000858
3650.000000	0.000869
3649.000000	0.000889
3648.000000	0.000925
3647.000000	0.000961
3646.000000	0.000979
3645.000000	0.000970
3644.000000	0.000943
3643.000000	0.000912
3642.000000	0.000893
3641.000000	0.000888
3640.000000	0.000894
3639.000000	0.000907
3638.000000	0.000924
3637.000000	0.000948
3636.000000	0.000977
3635.000000	0.001007
3634.000000	0.001032
3633.000000	0.001053
3632.000000	0.001072
3631.000000	0.001088
3630.000000	0.001091
3629.000000	0.001078
3628.000000	0.001069
3627.000000	0.001078
3626.000000	0.001094
3625.000000	0.001103
3624.000000	0.001095
3623.000000	0.001069
3622.000000	0.001034
3621.000000	0.000996
3620.000000	0.000965
3619.000000	0.000952
3618.000000	0.000966
3617.000000	0.001003
3616.000000	0.001051
3615.000000	0.001100
3614.000000	0.001142
3613.000000	0.001175
3612.000000	0.001203
3611.000000	0.001234
3610.000000	0.001271
3609.000000	0.001303
3608.000000	0.001314
3607.000000	0.001302
3606.000000	0.001284
3605.000000	0.001278
3604.000000	0.001285
3603.000000	0.001293
3602.000000	0.001292
3601.000000	0.001285
3600.000000	0.001280
3599.000000	0.001286
3598.000000	0.001300
3597.000000	0.001319
3596.000000	0.001350
3595.000000	0.001403
3594.000000	0.001475
3593.000000	0.001549
3592.000000	0.001604
3591.000000	0.001629
3590.000000	0.001628
3589.000000	0.001609
3588.000000	0.001579
3587.000000	0.001553
3586.000000	0.001549
3585.000000	0.001576
3584.000000	0.001621
3583.000000	0.001664
3582.000000	0.001695
3581.000000	0.001713
3580.000000	0.001728
3579.000000	0.001744
3578.000000	0.001760
3577.000000	0.001774
3576.000000	0.001790
3575.000000	0.001818
3574.000000	0.001862
3573.000000	0.001922
3572.000000	0.001989
3571.000000	0.002055
3570.000000	0.002116
3569.000000	0.002169
3568.000000	0.002212
3567.000000	0.002241
3566.000000	0.002261
3565.000000	0.002285
3564.000000	0.002316
3563.000000	0.002345
3562.000000	0.002369
3561.000000	0.002393
3560.000000	0.002429
3559.000000	0.002478
3558.000000	0.002532
3557.000000	0.002580
3556.000000	0.002619
3555.000000	0.002658
3554.000000	0.002709
3553.000000	0.002777
3552.000000	0.002855
3551.000000	0.002924
3550.000000	0.002969
3549.000000	0.002988
3548.000000	0.002989
3547.000000	0.002982
3546.000000	0.002974
3545.000000	0.002971
3544.000000	0.002984
3543.000000	0.003020
3542.000000	0.003072
3541.000000	0.003124
3540.000000	0.003161
3539.000000	0.003178
3538.000000	0.003182
3537.000000	0.003180
3536.000000	0.003179
3535.000000	0.003179
3534.000000	0.003180
3533.000000	0.003182
3532.000000	0.003184
3531.000000	0.003184
3530.000000	0.003178
3529.000000	0.003167
3528.000000	0.003154
3527.000000	0.003145
3526.000000	0.003149
3525.000000	0.003168
3524.000000	0.003195
3523.000000	0.003214
3522.000000	0.003210
3521.000000	0.003184
3520.000000	0.003145
3519.000000	0.003104
3518.000000	0.003071
3517.000000	0.003052
3516.000000	0.003049
3515.000000	0.003052
3514.000000	0.003046
3513.000000	0.003025
3512.000000	0.003001
3511.000000	0.002983
3510.000000	0.002971
3509.000000	0.002956
3508.000000	0.002936
3507.000000	0.002919
3506.000000	0.002908
3505.000000	0.002902
3504.000000	0.002895
3503.000000	0.002888
3502.000000	0.002883
3501.000000	0.002877
3500.000000	0.002869
3499.000000	0.002861
3498.000000	0.002861
3497.000000	0.002876
3496.000000	0.002906
3495.000000	0.002939
3494.000000	0.002957
3493.000000	0.002948
3492.000000	0.002918
3491.000000	0.002880
3490.000000	0.002852
3489.000000	0.002841
3488.000000	0.002844
3487.000000	0.002851
3486.000000	0.002856
3485.000000	0.002854
3484.000000	0.002846
3483.000000	0.002835
3482.000000	0.002822
3481.000000	0.002807
3480.000000	0.002798
3479.000000	0.002799
3478.000000	0.002806
3477.000000	0.002811
3476.000000	0.002805
3475.000000	0.002795
3474.000000	0.002793
3473.000000	0.002805
3472.000000	0.002827
3471.000000	0.002845
3470.000000	0.002848
3469.000000	0.002836
3468.000000	0.002815
3467.000000	0.002798
3466.000000	0.002787
3465.000000	0.002780
3464.000000	0.002776
3463.000000	0.002774
3462.000000	0.002772
3461.000000	0.002767
3460.000000	0.002764
3459.000000	0.002767
3458.000000	0.002779
3457.000000	0.002796
3456.000000	0.002808
3455.000000	0.002813
3454.000000	0.002814
3453.000000	0.002814
3452.000000	0.002815
3451.000000	0.002820
3450.000000	0.002827
3449.000000	0.002832
3448.000000	0.002831
3447.000000	0.002830
3446.000000	0.002836
3445.000000	0.002854
3444.000000	0.002876
3443.000000	0.002895
3442.000000	0.002908
3441.000000	0.002921
3440.000000	0.002939
3439.000000	0.002962
3438.000000	0.002980
3437.000000	0.002991
3436.000000	0.003002
3435.000000	0.003024
3434.000000	0.003061
3433.000000	0.003102
3432.000000	0.003131
3431.000000	0.003145
3430.000000	0.003149
3429.000000	0.003155
3428.000000	0.003166
3427.000000	0.003184
3426.000000	0.003210
3425.000000	0.003245
3424.000000	0.003284
3423.000000	0.003322
3422.000000	0.003359
3421.000000	0.003395
3420.000000	0.003430
3419.000000	0.003459
3418.000000	0.003483
3417.000000	0.003508
3416.000000	0.003542
3415.000000	0.003590
3414.000000	0.003646
3413.000000	0.003701
3412.000000	0.003755
3411.000000	0.003810
3410.000000	0.003868
3409.000000	0.003921
3408.000000	0.003960
3407.000000	0.003980
3406.000000	0.003980
3405.000000	0.003968
3404.000000	0.003958
3403.000000	0.003963
3402.000000	0.003989
3401.000000	0.004026
3400.000000	0.004056
3399.000000	0.004068
3398.000000	0.004066
3397.000000	0.004065
3396.000000	0.004078
3395.000000	0.004104
3394.000000	0.004132
3393.000000	0.004143
3392.000000	0.004124
3391.000000	0.004079
3390.000000	0.004026
3389.000000	0.003984
3388.000000	0.003959
3387.000000	0.003948
3386.000000	0.003940
3385.000000	0.003931
3384.000000	0.003927
3383.000000	0.003933
3382.000000	0.003942
3381.000000	0.003944
3380.000000	0.003925
3379.000000	0.003890
3378.000000	0.003851
3377.000000	0.003820
3376.000000	0.003803
3375.000000	0.003798
3374.000000	0.003799
3373.000000	0.003797
3372.000000	0.003789
3371.000000	0.003775
3370.000000	0.003761
3369.000000	0.003755
3368.000000	0.003757
3367.000000	0.003764
3366.000000	0.003767
3365.000000	0.003757
3364.000000	0.003729
3363.000000	0.003695
3362.000000	0.003670
3361.000000	0.003666
3360.000000	0.003682
3359.000000	0.003709
3358.000000	0.003737
3357.000000	0.003753
3356.000000	0.003751
3355.000000	0.003736
3354.000000	0.003720
3353.000000	0.003717
3352.000000	0.003725
3351.000000	0.003732
3350.000000	0.003728
3349.000000	0.003705
3348.000000	0.003669
3347.000000	0.003636
3346.000000	0.003622
3345.000000	0.003628
3344.000000	0.003644
3343.000000	0.003657
3342.000000	0.003668
3341.000000	0.003682
3340.000000	0.003699
3339.000000	0.003711
3338.000000	0.003713
3337.000000	0.003709
3336.000000	0.003702
3335.000000	0.003695
3334.000000	0.003691
3333.000000	0.003695
3332.000000	0.003707
3331.000000	0.003722
3330.000000	0.003731
3329.000000	0.003728
3328.000000	0.003716
3327.000000	0.003700
3326.000000	0.003693
3325.000000	0.003700
3324.000000	0.003715
3323.000000	0.003730
3322.000000	0.003733
3321.000000	0.003726
3320.000000	0.003714
3319.000000	0.003708
3318.000000	0.003719
3317.000000	0.003750
3316.000000	0.003790
3315.000000	0.003823
3314.000000	0.003835
3313.000000	0.003826
3312.000000	0.003808
3311.000000	0.003794
3310.000000	0.003792
3309.000000	0.003798
3308.000000	0.003805
3307.000000	0.003808
3306.000000	0.003810
3305.000000	0.003823
3304.000000	0.003849
3303.000000	0.003878
3302.000000	0.003891
3301.000000	0.003877
3300.000000	0.003849
3299.000000	0.003829
3298.000000	0.003831
3297.000000	0.003853
3296.000000	0.003878
3295.000000	0.003890
3294.000000	0.003888
3293.000000	0.003880
3292.000000	0.003876
3291.000000	0.003877
3290.000000	0.003874
3289.000000	0.003859
3288.000000	0.003836
3287.000000	0.003815
3286.000000	0.003806
3285.000000	0.003806
3284.000000	0.003809
3283.000000	0.003809
3282.000000	0.003802
3281.000000	0.003789
3280.000000	0.003765
3279.000000	0.003736
3278.000000	0.003716
3277.000000	0.003723
3276.000000	0.003761
3275.000000	0.003811
3274.000000	0.003845
3273.000000	0.003847
3272.000000	0.003825
3271.000000	0.003800
3270.000000	0.003790
3269.000000	0.003804
3268.000000	0.003834
3267.000000	0.003867
3266.000000	0.003887
3265.000000	0.003888
3264.000000	0.003876
3263.000000	0.003858
3262.000000	0.003840
3261.000000	0.003825
3260.000000	0.003817
3259.000000	0.003819
3258.000000	0.003828
3257.000000	0.003835
3256.000000	0.003826
3255.000000	0.003803
3254.000000	0.003776
3253.000000	0.003759
3252.000000	0.003758
3251.000000	0.003768
3250.000000	0.003780
3249.000000	0.003787
3248.000000	0.003791
3247.000000	0.003798
3246.000000	0.003811
3245.000000	0.003825
3244.000000	0.003829
3243.000000	0.003812
3242.000000	0.003777
3241.000000	0.003732
3240.000000	0.003691
3239.000000	0.003661
3238.000000	0.003646
3237.000000	0.003642
3236.000000	0.003639
3235.000000	0.003630
3234.000000	0.003610
3233.000000	0.003587
3232.000000	0.003568
3231.000000	0.003552
3230.000000	0.003537
3229.000000	0.003523
3228.000000	0.003516
3227.000000	0.003516
3226.000000	0.003519
3225.000000	0.003519
3224.000000	0.003517
3223.000000	0.003517
3222.000000	0.003518
3221.000000	0.003518
3220.000000	0.003513
3219.000000	0.003507
3218.000000	0.003501
3217.000000	0.003490
3216.000000	0.003472
3215.000000	0.003453
3214.000000	0.003443
3213.000000	0.003441
3212.000000	0.003440
3211.000000	0.003428
3210.000000	0.003403
3209.000000	0.003376
3208.000000	0.003360
3207.000000	0.003365
3206.000000	0.003389
3205.000000	0.003416
3204.000000	0.003432
3203.000000	0.003431
3202.000000	0.003414
3201.000000	0.003390
3200.000000	0.003365
3199.000000	0.003349
3198.000000	0.003345
3197.000000	0.003351
3196.000000	0.003358
3195.000000	0.003355
3194.000000	0.003340
3193.000000	0.003313
3192.000000	0.003281
3191.000000	0.003250
3190.000000	0.003229
3189.000000	0.003225
3188.000000	0.003232
3187.000000	0.003242
3186.000000	0.003243
3185.000000	0.003231
3184.000000	0.003212
3183.000000	0.003200
3182.000000	0.003206
3181.000000	0.003230
3180.000000	0.003256
3179.000000	0.003268
3178.000000	0.003257
3177.000000	0.003234
3176.000000	0.003211
3175.000000	0.003192
3174.000000	0.003167
3173.000000	0.003129
3172.000000	0.003087
3171.000000	0.003061
3170.000000	0.003060
3169.000000	0.003071
3168.000000	0.003072
3167.000000	0.003052
3166.000000	0.003020
3165.000000	0.002991
3164.000000	0.002975
3163.000000	0.002970
3162.000000	0.002967
3161.000000	0.002959
3160.000000	0.002944
3159.000000	0.002932
3158.000000	0.002932
3157.000000	0.002946
3156.000000	0.002971
3155.000000	0.003004
3154.000000	0.003037
3153.000000	0.003053
3152.000000	0.003036
3151.000000	0.002987
3150.000000	0.002931
3149.000000	0.002899
3148.000000	0.002903
3147.000000	0.002934
3146.000000	0.002966
3145.000000	0.002976
3144.000000	0.002957
3143.000000	0.002923
3142.000000	0.002893
3141.000000	0.002873
3140.000000	0.002854
3139.000000	0.002834
3138.000000	0.002819
3137.000000	0.002817
3136.000000	0.002825
3135.000000	0.002830
3134.000000	0.002823
3133.000000	0.002810
3132.000000	0.002801
3131.000000	0.002798
3130.000000	0.002796
3129.000000	0.002788
3128.000000	0.002774
3127.000000	0.002762
3126.000000	0.002757
3125.000000	0.002758
3124.000000	0.002758
3123.000000	0.002756
3122.000000	0.002753
3121.000000	0.002752
3120.000000	0.002751
3119.000000	0.002748
3118.000000	0.002744
3117.000000	0.002743
3116.000000	0.002750
3115.000000	0.002764
3114.000000	0.002780
3113.000000	0.002791
3112.000000	0.002791
3111.000000	0.002781
3110.000000	0.002765
3109.000000	0.002747
3108.000000	0.002728
3107.000000	0.002707
3106.000000	0.002688
3105.000000	0.002682
3104.000000	0.002694
3103.000000	0.002722
3102.000000	0.002749
3101.000000	0.002760
3100.000000	0.002747
3099.000000	0.002719
3098.000000	0.002697
3097.000000	0.002693
3096.000000	0.002705
3095.000000	0.002718
3094.000000	0.002726
3093.000000	0.002733
3092.000000	0.002740
3091.000000	0.002739
3090.000000	0.002725
3089.000000	0.002699
3088.000000	0.002673
3087.000000	0.002660
3086.000000	0.002663
3085.000000	0.002676
3084.000000	0.002688
3083.000000	0.002691
3082.000000	0.002683
3081.000000	0.002668
3080.000000	0.002659
3079.000000	0.002666
3078.000000	0.002687
3077.000000	0.002705
3076.000000	0.002704
3075.000000	0.002684
3074.000000	0.002663
3073.000000	0.002655
3072.000000	0.002665
3071.000000	0.002682
3070.000000	0.002692
3069.000000	0.002691
3068.000000	0.002684
3067.000000	0.002680
3066.000000	0.002682
3065.000000	0.002682
3064.000000	0.002669
3063.000000	0.002644
3062.000000	0.002625
3061.000000	0.002627
3060.000000	0.002644
3059.000000	0.002660
3058.000000	0.002664
3057.000000	0.002660
3056.000000	0.002657
3055.000000	0.002660
3054.000000	0.002665
3053.000000	0.002657
3052.000000	0.002631
3051.000000	0.002596
3050.000000	0.002576
3049.000000	0.002583
3048.000000	0.002609
3047.000000	0.002632
3046.000000	0.002640
3045.000000	0.002639
3044.000000	0.002633
3043.000000	0.002628
3042.000000	0.002628
3041.000000	0.002630
3040.000000	0.002627
3039.000000	0.002607
3038.000000	0.002567
3037.000000	0.002526
3036.000000	0.002506
3035.000000	0.002516
3034.000000	0.002549
3033.000000	0.002588
3032.000000	0.002618
3031.000000	0.002634
3030.000000	0.002638
3029.000000	0.002638
3028.000000	0.002637
3027.000000	0.002634
3026.000000	0.002632
3025.000000	0.002629
3024.000000	0.002624
3023.000000	0.002614
3022.000000	0.002604
3021.000000	0.002602
3020.000000	0.002612
3019.000000	0.002623
3018.000000	0.002624
3017.000000	0.002611
3016.000000	0.002593
3015.000000	0.002582
3014.000000	0.002582
3013.000000	0.002593
3012.000000	0.002608
3011.000000	0.002623
3010.000000	0.002639
3009.000000	0.002661
3008.000000	0.002690
3007.000000	0.002724
3006.000000	0.002756
3005.000000	0.002778
3004.000000	0.002789
3003.000000	0.002793
3002.000000	0.002803
3001.000000	0.002826
3000.000000	0.002862
2999.000000	0.002905
2998.000000	0.002944
2997.000000	0.002972
2996.000000	0.002988
2995.000000	0.003000
2994.000000	0.003022
2993.000000	0.003060
2992.000000	0.003108
2991.000000	0.003152
2990.000000	0.003188
2989.000000	0.003222
2988.000000	0.003263
2987.000000	0.003309
2986.000000	0.003353
2985.000000	0.003395
2984.000000	0.003439
2983.000000	0.003491
2982.000000	0.003548
2981.000000	0.003604
2980.000000	0.003653
2979.000000	0.003696
2978.000000	0.003747
2977.000000	0.003813
2976.000000	0.003895
2975.000000	0.003987
2974.000000	0.004090
2973.000000	0.004206
2972.000000	0.004333
2971.000000	0.004463
2970.000000	0.004586
2969.000000	0.004698
2968.000000	0.004794
2967.000000	0.004875
2966.000000	0.004946
2965.000000	0.005020
2964.000000	0.005107
2963.000000	0.005203
2962.000000	0.005293
2961.000000	0.005361
2960.000000	0.005395
2959.000000	0.005395
2958.000000	0.005373
2957.000000	0.005343
2956.000000	0.005311
2955.000000	0.005270
2954.000000	0.005208
2953.000000	0.005134
2952.000000	0.005068
2951.000000	0.005030
2950.000000	0.005021
2949.000000	0.005028
2948.000000	0.005036
2947.000000	0.005037
2946.000000	0.005044
2945.000000	0.005071
2944.000000	0.005130
2943.000000	0.005213
2942.000000	0.005300
2941.000000	0.005382
2940.000000	0.005459
2939.000000	0.005539
2938.000000	0.005625
2937.000000	0.005718
2936.000000	0.005817
2935.000000	0.005920
2934.000000	0.006023
2933.000000	0.006113
2932.000000	0.006182
2931.000000	0.006223
2930.000000	0.006235
2929.000000	0.006225
2928.000000	0.006201
2927.000000	0.006171
2926.000000	0.006141
2925.000000	0.006111
2924.000000	0.006074
2923.000000	0.006021
2922.000000	0.005949
2921.000000	0.005862
2920.000000	0.005767
2919.000000	0.005671
2918.000000	0.005579
2917.000000	0.005493
2916.000000	0.005410
2915.000000	0.005322
2914.000000	0.005227
2913.000000	0.005136
2912.000000	0.005066
2911.000000	0.005023
2910.000000	0.004994
2909.000000	0.004962
2908.000000	0.004920
2907.000000	0.004875
2906.000000	0.004834
2905.000000	0.004792
2904.000000	0.004741
2903.000000	0.004680
2902.000000	0.004613
2901.000000	0.004550
2900.000000	0.004491
2899.000000	0.004431
2898.000000	0.004367
2897.000000	0.004303
2896.000000	0.004243
2895.000000	0.004189
2894.000000	0.004135
2893.000000	0.004081
2892.000000	0.004030
2891.000000	0.003985
2890.000000	0.003950
2889.000000	0.003925
2888.000000	0.003908
2887.000000	0.003898
2886.000000	0.003894
2885.000000	0.003897
2884.000000	0.003912
2883.000000	0.003942
2882.000000	0.003987
2881.000000	0.004041
2880.000000	0.004099
2879.000000	0.004155
2878.000000	0.004205
2877.000000	0.004251
2876.000000	0.004293
2875.000000	0.004334
2874.000000	0.004371
2873.000000	0.004398
2872.000000	0.004410
2871.000000	0.004406
2870.000000	0.004393
2869.000000	0.004385
2868.000000	0.004392
2867.000000	0.004413
2866.000000	0.004440
2865.000000	0.004470
2864.000000	0.004504
2863.000000	0.004544
2862.000000	0.004583
2861.000000	0.004609
2860.000000	0.004621
2859.000000	0.004625
2858.000000	0.004625
2857.000000	0.004616
2856.000000	0.004586
2855.000000	0.004535
2854.000000	0.004467
2853.000000	0.004388
2852.000000	0.004298
2851.000000	0.004195
2850.000000	0.004082
2849.000000	0.003965
2848.000000	0.003857
2847.000000	0.003765
2846.000000	0.003688
2845.000000	0.003619
2844.000000	0.003548
2843.000000	0.003468
2842.000000	0.003380
2841.000000	0.003290
2840.000000	0.003210
2839.000000	0.003145
2838.000000	0.003095
2837.000000	0.003057
2836.000000	0.003029
2835.000000	0.003012
2834.000000	0.003006
2833.000000	0.003003
2832.000000	0.002996
2831.000000	0.002978
2830.000000	0.002952
2829.000000	0.002926
2828.000000	0.002905
2827.000000	0.002889
2826.000000	0.002879
2825.000000	0.002873
2824.000000	0.002868
2823.000000	0.002864
2822.000000	0.002862
2821.000000	0.002862
2820.000000	0.002863
2819.000000	0.002856
2818.000000	0.002839
2817.000000	0.002813
2816.000000	0.002788
2815.000000	0.002775
2814.000000	0.002775
2813.000000	0.002777
2812.000000	0.002768
2811.000000	0.002749
2810.000000	0.002732
2809.000000	0.002726
2808.000000	0.002729
2807.000000	0.002732
2806.000000	0.002729
2805.000000	0.002721
2804.000000	0.002710
2803.000000	0.002693
2802.000000	0.002674
2801.000000	0.002659
2800.000000	0.002654
2799.000000	0.002659
2798.000000	0.002666
2797.000000	0.002664
2796.000000	0.002654
2795.000000	0.002640
2794.000000	0.002631
2793.000000	0.002632
2792.000000	0.002645
2791.000000	0.002664
2790.000000	0.002676
2789.000000	0.002672
2788.000000	0.002653
2787.000000	0.002629
2786.000000	0.002613
2785.000000	0.002605
2784.000000	0.002602
2783.000000	0.002601
2782.000000	0.002601
2781.000000	0.002599
2780.000000	0.002594
2779.000000	0.002589
2778.000000	0.002591
2777.000000	0.002606
2776.000000	0.002627
2775.000000	0.002643
2774.000000	0.002642
2773.000000	0.002624
2772.000000	0.002601
2771.000000	0.002588
2770.000000	0.002590
2769.000000	0.002596
2768.000000	0.002595
2767.000000	0.002584
2766.000000	0.002575
2765.000000	0.002576
2764.000000	0.002581
2763.000000	0.002580
2762.000000	0.002571
2761.000000	0.002560
2760.000000	0.002554
2759.000000	0.002555
2758.000000	0.002564
2757.000000	0.002576
2756.000000	0.002581
2755.000000	0.002571
2754.000000	0.002552
2753.000000	0.002539
2752.000000	0.002536
2751.000000	0.002538
2750.000000	0.002539
2749.000000	0.002539
2748.000000	0.002540
2747.000000	0.002537
2746.000000	0.002527
2745.000000	0.002515
2744.000000	0.002512
2743.000000	0.002520
2742.000000	0.002535
2741.000000	0.002545
2740.000000	0.002541
2739.000000	0.002524
2738.000000	0.002506
2737.000000	0.002499
2736.000000	0.002504
2735.000000	0.002509
2734.000000	0.002504
2733.000000	0.002489
2732.000000	0.002475
2731.000000	0.002468
2730.000000	0.002472
2729.000000	0.002486
2728.000000	0.002505
2727.000000	0.002521
2726.000000	0.002525
2725.000000	0.002520
2724.000000	0.002513
2723.000000	0.002509
2722.000000	0.002505
2721.000000	0.002495
2720.000000	0.002483
2719.000000	0.002477
2718.000000	0.002482
2717.000000	0.002494
2716.000000	0.002501
2715.000000	0.002495
2714.000000	0.002481
2713.000000	0.002468
2712.000000	0.002459
2711.000000	0.002448
2710.000000	0.002431
2709.000000	0.002415
2708.000000	0.002410
2707.000000	0.002419
2706.000000	0.002433
2705.000000	0.002444
2704.000000	0.002451
2703.000000	0.002457
2702.000000	0.002464
2701.000000	0.002467
2700.000000	0.002469
2699.000000	0.002477
2698.000000	0.002492
2697.000000	0.002506
2696.000000	0.002501
2695.000000	0.002475
2694.000000	0.002442
2693.000000	0.002420
2692.000000	0.002419
2691.000000	0.002428
2690.000000	0.002433
2689.000000	0.002427
2688.000000	0.002417
2687.000000	0.002412
2686.000000	0.002410
2685.000000	0.002407
2684.000000	0.002400
2683.000000	0.002392
2682.000000	0.002392
2681.000000	0.002402
2680.000000	0.002415
2679.000000	0.002418
2678.000000	0.002412
2677.000000	0.002407
2676.000000	0.002415
2675.000000	0.002436
2674.000000	0.002455
2673.000000	0.002462
2672.000000	0.002455
2671.000000	0.002439
2670.000000	0.002425
2669.000000	0.002417
2668.000000	0.002418
2667.000000	0.002425
2666.000000	0.002437
2665.000000	0.002452
2664.000000	0.002467
2663.000000	0.002479
2662.000000	0.002484
2661.000000	0.002480
2660.000000	0.002474
2659.000000	0.002473
2658.000000	0.002476
2657.000000	0.002480
2656.000000	0.002479
2655.000000	0.002475
2654.000000	0.002475
2653.000000	0.002475
2652.000000	0.002469
2651.000000	0.002450
2650.000000	0.002423
2649.000000	0.002399
2648.000000	0.002386
2647.000000	0.002378
2646.000000	0.002369
2645.000000	0.002355
2644.000000	0.002343
2643.000000	0.002339
2642.000000	0.002343
2641.000000	0.002350
2640.000000	0.002357
2639.000000	0.002361
2638.000000	0.002360
2637.000000	0.002355
2636.000000	0.002348
2635.000000	0.002340
2634.000000	0.002328
2633.000000	0.002309
2632.000000	0.002286
2631.000000	0.002269
2630.000000	0.002262
2629.000000	0.002265
2628.000000	0.002273
2627.000000	0.002280
2626.000000	0.002282
2625.000000	0.002276
2624.000000	0.002265
2623.000000	0.002256
2622.000000	0.002254
2621.000000	0.002255
2620.000000	0.002248
2619.000000	0.002231
2618.000000	0.002211
2617.000000	0.002200
2616.000000	0.002202
2615.000000	0.002210
2614.000000	0.002216
2613.000000	0.002216
2612.000000	0.002219
2611.000000	0.002231
2610.000000	0.002247
2609.000000	0.002255
2608.000000	0.002245
2607.000000	0.002223
2606.000000	0.002200
2605.000000	0.002183
2604.000000	0.002167
2603.000000	0.002147
2602.000000	0.002121
2601.000000	0.002093
2600.000000	0.002068
2599.000000	0.002051
2598.000000	0.002051
2597.000000	0.002067
2596.000000	0.002093
2595.000000	0.002119
2594.000000	0.002140
2593.000000	0.002150
2592.000000	0.002149
2591.000000	0.002132
2590.000000	0.002104
2589.000000	0.002076
2588.000000	0.002059
2587.000000	0.002054
2586.000000	0.002055
2585.000000	0.002055
2584.000000	0.002056
2583.000000	0.002066
2582.000000	0.002084
2581.000000	0.002092
2580.000000	0.002073
2579.000000	0.002031
2578.000000	0.001992
2577.000000	0.001978
2576.000000	0.001992
2575.000000	0.002018
2574.000000	0.002043
2573.000000	0.002060
2572.000000	0.002064
2571.000000	0.002055
2570.000000	0.002041
2569.000000	0.002035
2568.000000	0.002041
2567.000000	0.002053
2566.000000	0.002061
2565.000000	0.002060
2564.000000	0.002044
2563.000000	0.002020
2562.000000	0.001998
2561.000000	0.001984
2560.000000	0.001972
2559.000000	0.001957
2558.000000	0.001943
2557.000000	0.001940
2556.000000	0.001945
2555.000000	0.001943
2554.000000	0.001925
2553.000000	0.001898
2552.000000	0.001877
2551.000000	0.001874
2550.000000	0.001891
2549.000000	0.001926
2548.000000	0.001967
2547.000000	0.002005
2546.000000	0.002028
2545.000000	0.002031
2544.000000	0.002022
2543.000000	0.002017
2542.000000	0.002028
2541.000000	0.002052
2540.000000	0.002071
2539.000000	0.002070
2538.000000	0.002057
2537.000000	0.002047
2536.000000	0.002050
2535.000000	0.002063
2534.000000	0.002082
2533.000000	0.002098
2532.000000	0.002102
2531.000000	0.002088
2530.000000	0.002062
2529.000000	0.002037
2528.000000	0.002019
2527.000000	0.002004
2526.000000	0.001985
2525.000000	0.001962
2524.000000	0.001943
2523.000000	0.001943
2522.000000	0.001974
2521.000000	0.002035
2520.000000	0.002097
2519.000000	0.002131
2518.000000	0.002128
2517.000000	0.002113
2516.000000	0.002111
2515.000000	0.002128
2514.000000	0.002157
2513.000000	0.002188
2512.000000	0.002212
2511.000000	0.002217
2510.000000	0.002198
2509.000000	0.002159
2508.000000	0.002113
2507.000000	0.002067
2506.000000	0.002029
2505.000000	0.002007
2504.000000	0.002002
2503.000000	0.002005
2502.000000	0.002007
2501.000000	0.002010
2500.000000	0.002020
2499.000000	0.002035
2498.000000	0.002046
2497.000000	0.002048
2496.000000	0.002041
2495.000000	0.002029
2494.000000	0.002014
2493.000000	0.001997
2492.000000	0.001979
2491.000000	0.001954
2490.000000	0.001923
2489.000000	0.001898
2488.000000	0.001890
2487.000000	0.001896
2486.000000	0.001906
2485.000000	0.001911
2484.000000	0.001914
2483.000000	0.001921
2482.000000	0.001931
2481.000000	0.001945
2480.000000	0.001966
2479.000000	0.001996
2478.000000	0.002020
2477.000000	0.002013
2476.000000	0.001961
2475.000000	0.001875
2474.000000	0.001794
2473.000000	0.001758
2472.000000	0.001776
2471.000000	0.001824
2470.000000	0.001868
2469.000000	0.001892
2468.000000	0.001899
2467.000000	0.001898
2466.000000	0.001893
2465.000000	0.001892
2464.000000	0.001906
2463.000000	0.001940
2462.000000	0.001982
2461.000000	0.002010
2460.000000	0.002006
2459.000000	0.001977
2458.000000	0.001947
2457.000000	0.001935
2456.000000	0.001947
2455.000000	0.001978
2454.000000	0.002020
2453.000000	0.002061
2452.000000	0.002087
2451.000000	0.002090
2450.000000	0.002070
2449.000000	0.002039
2448.000000	0.002007
2447.000000	0.001981
2446.000000	0.001962
2445.000000	0.001950
2444.000000	0.001941
2443.000000	0.001931
2442.000000	0.001908
2441.000000	0.001869
2440.000000	0.001818
2439.000000	0.001780
2438.000000	0.001777
2437.000000	0.001813
2436.000000	0.001864
2435.000000	0.001905
2434.000000	0.001929
2433.000000	0.001938
2432.000000	0.001932
2431.000000	0.001904
2430.000000	0.001862
2429.000000	0.001835
2428.000000	0.001846
2427.000000	0.001890
2426.000000	0.001947
2425.000000	0.001996
2424.000000	0.002027
2423.000000	0.002037
2422.000000	0.002019
2421.000000	0.001975
2420.000000	0.001920
2419.000000	0.001876
2418.000000	0.001858
2417.000000	0.001865
2416.000000	0.001882
2415.000000	0.001891
2414.000000	0.001881
2413.000000	0.001853
2412.000000	0.001823
2411.000000	0.001807
2410.000000	0.001818
2409.000000	0.001850
2408.000000	0.001886
2407.000000	0.001904
2406.000000	0.001895
2405.000000	0.001863
2404.000000	0.001824
2403.000000	0.001795
2402.000000	0.001790
2401.000000	0.001807
2400.000000	0.001833
2399.000000	0.001850
2398.000000	0.001849
2397.000000	0.001838
2396.000000	0.001830
2395.000000	0.001836
2394.000000	0.001855
2393.000000	0.001871
2392.000000	0.001870
2391.000000	0.001847
2390.000000	0.001815
2389.000000	0.001791
2388.000000	0.001782
2387.000000	0.001785
2386.000000	0.001788
2385.000000	0.001786
2384.000000	0.001783
2383.000000	0.001782
2382.000000	0.001779
2381.000000	0.001769
2380.000000	0.001754
2379.000000	0.001747
2378.000000	0.001754
2377.000000	0.001766
2376.000000	0.001766
2375.000000	0.001755
2374.000000	0.001748
2373.000000	0.001747
2372.000000	0.001739
2371.000000	0.001712
2370.000000	0.001680
2369.000000	0.001655
2368.000000	0.001642
2367.000000	0.001647
2366.000000	0.001678
2365.000000	0.001727
2364.000000	0.001773
2363.000000	0.001813
2362.000000	0.001867
2361.000000	0.001924
2360.000000	0.001949
2359.000000	0.001923
2358.000000	0.001866
2357.000000	0.001816
2356.000000	0.001796
2355.000000	0.001812
2354.000000	0.001834
2353.000000	0.001825
2352.000000	0.001787
2351.000000	0.001766
2350.000000	0.001788
2349.000000	0.001840
2348.000000	0.001894
2347.000000	0.001922
2346.000000	0.001928
2345.000000	0.001952
2344.000000	0.002010
2343.000000	0.002077
2342.000000	0.002110
2341.000000	0.002092
2340.000000	0.002056
2339.000000	0.002046
2338.000000	0.002067
2337.000000	0.002088
2336.000000	0.002080
2335.000000	0.002040
2334.000000	0.001981
2333.000000	0.001921
2332.000000	0.001892
2331.000000	0.001909
2330.000000	0.001967
2329.000000	0.002031
2328.000000	0.002092
2327.000000	0.002153
2326.000000	0.002221
2325.000000	0.002278
2324.000000	0.002300
2323.000000	0.002278
2322.000000	0.002234
2321.000000	0.002212
2320.000000	0.002238
2319.000000	0.002296
2318.000000	0.002346
2317.000000	0.002350
2316.000000	0.002304
2315.000000	0.002225
2314.000000	0.002156
2313.000000	0.002123
2312.000000	0.002129
2311.000000	0.002143
2310.000000	0.002150
2309.000000	0.002155
2308.000000	0.002165
2307.000000	0.002165
2306.000000	0.002134
2305.000000	0.002075
2304.000000	0.002019
2303.000000	0.001988
2302.000000	0.001987
2301.000000	0.002007
2300.000000	0.002043
2299.000000	0.002078
2298.000000	0.002099
2297.000000	0.002100
2296.000000	0.002095
2295.000000	0.002093
2294.000000	0.002100
2293.000000	0.002112
2292.000000	0.002124
2291.000000	0.002133
2290.000000	0.002137
2289.000000	0.002135
2288.000000	0.002130
2287.000000	0.002116
2286.000000	0.002095
2285.000000	0.002081
2284.000000	0.002087
2283.000000	0.002109
2282.000000	0.002118
2281.000000	0.002097
2280.000000	0.002056
2279.000000	0.002016
2278.000000	0.001984
2277.000000	0.001947
2276.000000	0.001892
2275.000000	0.001827
2274.000000	0.001778
2273.000000	0.001765
2272.000000	0.001780
2271.000000	0.001797
2270.000000	0.001801
2269.000000	0.001799
2268.000000	0.001797
2267.000000	0.001790
2266.000000	0.001763
2265.000000	0.001722
2264.000000	0.001690
2263.000000	0.001693
2262.000000	0.001742
2261.000000	0.001828
2260.000000	0.001918
2259.000000	0.001967
2258.000000	0.001951
2257.000000	0.001891
2256.000000	0.001839
2255.000000	0.001819
2254.000000	0.001812
2253.000000	0.001784
2252.000000	0.001723
2251.000000	0.001637
2250.000000	0.001536
2249.000000	0.001445
2248.000000	0.001405
2247.000000	0.001453
2246.000000	0.001590
2245.000000	0.001769
2244.000000	0.001917
2243.000000	0.001978
2242.000000	0.001950
2241.000000	0.001891
2240.000000	0.001867
2239.000000	0.001897
2238.000000	0.001937
2237.000000	0.001932
2236.000000	0.001866
2235.000000	0.001768
2234.000000	0.001688
2233.000000	0.001668
2232.000000	0.001719
2231.000000	0.001802
2230.000000	0.001832
2229.000000	0.001749
2228.000000	0.001579
2227.000000	0.001433
2226.000000	0.001422
2225.000000	0.001553
2224.000000	0.001720
2223.000000	0.001802
2222.000000	0.001771
2221.000000	0.001696
2220.000000	0.001644
2219.000000	0.001601
2218.000000	0.001517
2217.000000	0.001395
2216.000000	0.001301
2215.000000	0.001277
2214.000000	0.001284
2213.000000	0.001249
2212.000000	0.001155
2211.000000	0.001060
2210.000000	0.001026
2209.000000	0.001071
2208.000000	0.001163
2207.000000	0.001254
2206.000000	0.001311
2205.000000	0.001328
2204.000000	0.001330
2203.000000	0.001352
2202.000000	0.001389
2201.000000	0.001394
2200.000000	0.001326
2199.000000	0.001228
2198.000000	0.001210
2197.000000	0.001337
2196.000000	0.001526
2195.000000	0.001612
2194.000000	0.001523
2193.000000	0.001361
2192.000000	0.001289
2191.000000	0.001357
2190.000000	0.001478
2189.000000	0.001552
2188.000000	0.001552
2187.000000	0.001514
2186.000000	0.001469
2185.000000	0.001442
2184.000000	0.001441
2183.000000	0.001430
2182.000000	0.001341
2181.000000	0.001171
2180.000000	0.001015
2179.000000	0.000981
2178.000000	0.001080
2177.000000	0.001238
2176.000000	0.001381
2175.000000	0.001459
2174.000000	0.001434
2173.000000	0.001300
2172.000000	0.001150
2171.000000	0.001131
2170.000000	0.001316
2169.000000	0.001619
2168.000000	0.001875
2167.000000	0.001975
2166.000000	0.001927
2165.000000	0.001805
2164.000000	0.001696
2163.000000	0.001658
2162.000000	0.001689
2161.000000	0.001712
2160.000000	0.001620
2159.000000	0.001363
2158.000000	0.000998
2157.000000	0.000651
2156.000000	0.000430
2155.000000	0.000366
2154.000000	0.000422
2153.000000	0.000537
2152.000000	0.000671
2151.000000	0.000804
2150.000000	0.000915
2149.000000	0.000973
2148.000000	0.000967
2147.000000	0.000921
2146.000000	0.000866
2145.000000	0.000827
2144.000000	0.000838
2143.000000	0.000935
2142.000000	0.001113
2141.000000	0.001300
2140.000000	0.001412
2139.000000	0.001430
2138.000000	0.001405
2137.000000	0.001382
2136.000000	0.001360
2135.000000	0.001313
2134.000000	0.001238
2133.000000	0.001170
2132.000000	0.001152
2131.000000	0.001200
2130.000000	0.001285
2129.000000	0.001352
2128.000000	0.001373
2127.000000	0.001364
2126.000000	0.001350
2125.000000	0.001336
2124.000000	0.001322
2123.000000	0.001331
2122.000000	0.001388
2121.000000	0.001487
2120.000000	0.001584
2119.000000	0.001648
2118.000000	0.001684
2117.000000	0.001713
2116.000000	0.001746
2115.000000	0.001775
2114.000000	0.001798
2113.000000	0.001814
2112.000000	0.001821
2111.000000	0.001814
2110.000000	0.001788
2109.000000	0.001745
2108.000000	0.001705
2107.000000	0.001688
2106.000000	0.001690
2105.000000	0.001691
2104.000000	0.001682
2103.000000	0.001685
2102.000000	0.001715
2101.000000	0.001741
2100.000000	0.001732
2099.000000	0.001703
2098.000000	0.001696
2097.000000	0.001709
2096.000000	0.001699
2095.000000	0.001653
2094.000000	0.001614
2093.000000	0.001616
2092.000000	0.001637
2091.000000	0.001629
2090.000000	0.001581
2089.000000	0.001521
2088.000000	0.001492
2087.000000	0.001525
2086.000000	0.001615
2085.000000	0.001706
2084.000000	0.001725
2083.000000	0.001665
2082.000000	0.001599
2081.000000	0.001602
2080.000000	0.001675
2079.000000	0.001771
2078.000000	0.001860
2077.000000	0.001925
2076.000000	0.001940
2075.000000	0.001881
2074.000000	0.001778
2073.000000	0.001690
2072.000000	0.001642
2071.000000	0.001618
2070.000000	0.001604
2069.000000	0.001611
2068.000000	0.001642
2067.000000	0.001686
2066.000000	0.001728
2065.000000	0.001764
2064.000000	0.001786
2063.000000	0.001782
2062.000000	0.001739
2061.000000	0.001647
2060.000000	0.001520
2059.000000	0.001411
2058.000000	0.001382
2057.000000	0.001432
2056.000000	0.001500
2055.000000	0.001564
2054.000000	0.001685
2053.000000	0.001909
2052.000000	0.002146
2051.000000	0.002238
2050.000000	0.002118
2049.000000	0.001878
2048.000000	0.001665
2047.000000	0.001560
2046.000000	0.001572
2045.000000	0.001673
2044.000000	0.001800
2043.000000	0.001861
2042.000000	0.001792
2041.000000	0.001590
2040.000000	0.001320
2039.000000	0.001087
2038.000000	0.001009
2037.000000	0.001120
2036.000000	0.001303
2035.000000	0.001372
2034.000000	0.001252
2033.000000	0.001022
2032.000000	0.000795
2031.000000	0.000631
2030.000000	0.000554
2029.000000	0.000566
2028.000000	0.000613
2027.000000	0.000624
2026.000000	0.000601
2025.000000	0.000610
2024.000000	0.000679
2023.000000	0.000773
2022.000000	0.000862
2021.000000	0.000932
2020.000000	0.000919
2019.000000	0.000754
2018.000000	0.000498
2017.000000	0.000348
2016.000000	0.000440
2015.000000	0.000706
2014.000000	0.000974
2013.000000	0.001138
2012.000000	0.001176
2011.000000	0.001108
2010.000000	0.000967
2009.000000	0.000804
2008.000000	0.000663
2007.000000	0.000568
2006.000000	0.000540
2005.000000	0.000587
2004.000000	0.000664
2003.000000	0.000705
2002.000000	0.000695
2001.000000	0.000678
2000.000000	0.000701
1999.000000	0.000784
1998.000000	0.000935
1997.000000	0.001136
1996.000000	0.001302
1995.000000	0.001323
1994.000000	0.001187
1993.000000	0.001017
1992.000000	0.000952
1991.000000	0.001007
1990.000000	0.001116
1989.000000	0.001243
1988.000000	0.001392
1987.000000	0.001532
1986.000000	0.001588
1985.000000	0.001515
1984.000000	0.001342
1983.000000	0.001160
1982.000000	0.001062
1981.000000	0.001091
1980.000000	0.001192
1979.000000	0.001249
1978.000000	0.001191
1977.000000	0.001070
1976.000000	0.000992
1975.000000	0.001005
1974.000000	0.001066
1973.000000	0.001102
1972.000000	0.001052
1971.000000	0.000908
1970.000000	0.000742
1969.000000	0.000690
1968.000000	0.000833
1967.000000	0.001102
1966.000000	0.001319
1965.000000	0.001332
1964.000000	0.001123
1963.000000	0.000804
1962.000000	0.000539
1961.000000	0.000438
1960.000000	0.000481
1959.000000	0.000559
1958.000000	0.000610
1957.000000	0.000658
1956.000000	0.000744
1955.000000	0.000849
1954.000000	0.000911
1953.000000	0.000892
1952.000000	0.000824
1951.000000	0.000782
1950.000000	0.000829
1949.000000	0.000957
1948.000000	0.001089
1947.000000	0.001148
1946.000000	0.001121
1945.000000	0.001050
1944.000000	0.000975
1943.000000	0.000913
1942.000000	0.000884
1941.000000	0.000915
1940.000000	0.000997
1939.000000	0.001093
1938.000000	0.001171
1937.000000	0.001224
1936.000000	0.001237
1935.000000	0.001185
1934.000000	0.001071
1933.000000	0.000949
1932.000000	0.000884
1931.000000	0.000888
1930.000000	0.000917
1929.000000	0.000931
1928.000000	0.000921
1927.000000	0.000904
1926.000000	0.000887
1925.000000	0.000863
1924.000000	0.000831
1923.000000	0.000816
1922.000000	0.000857
1921.000000	0.000962
1920.000000	0.001094
1919.000000	0.001196
1918.000000	0.001224
1917.000000	0.001175
1916.000000	0.001089
1915.000000	0.001012
1914.000000	0.000970
1913.000000	0.000965
1912.000000	0.000971
1911.000000	0.000958
1910.000000	0.000919
1909.000000	0.000872
1908.000000	0.000840
1907.000000	0.000837
1906.000000	0.000869
1905.000000	0.000927
1904.000000	0.000983
1903.000000	0.001011
1902.000000	0.001014
1901.000000	0.001024
1900.000000	0.001059
1899.000000	0.001102
1898.000000	0.001129
1897.000000	0.001125
1896.000000	0.001094
1895.000000	0.001040
1894.000000	0.000976
1893.000000	0.000910
1892.000000	0.000851
1891.000000	0.000806
1890.000000	0.000793
1889.000000	0.000827
1888.000000	0.000892
1887.000000	0.000958
1886.000000	0.001013
1885.000000	0.001066
1884.000000	0.001118
1883.000000	0.001151
1882.000000	0.001140
1881.000000	0.001092
1880.000000	0.001038
1879.000000	0.001009
1878.000000	0.001008
1877.000000	0.001007
1876.000000	0.000976
1875.000000	0.000917
1874.000000	0.000861
1873.000000	0.000836
1872.000000	0.000841
1871.000000	0.000854
1870.000000	0.000863
1869.000000	0.000867
1868.000000	0.000867
1867.000000	0.000868
1866.000000	0.000887
1865.000000	0.000926
1864.000000	0.000964
1863.000000	0.000972
1862.000000	0.000943
1861.000000	0.000900
1860.000000	0.000865
1859.000000	0.000838
1858.000000	0.000820
1857.000000	0.000819
1856.000000	0.000837
1855.000000	0.000857
1854.000000	0.000871
1853.000000	0.000887
1852.000000	0.000904
1851.000000	0.000902
1850.000000	0.000861
1849.000000	0.000794
1848.000000	0.000735
1847.000000	0.000705
1846.000000	0.000704
1845.000000	0.000722
1844.000000	0.000738
1843.000000	0.000735
1842.000000	0.000720
1841.000000	0.000716
1840.000000	0.000732
1839.000000	0.000765
1838.000000	0.000800
1837.000000	0.000826
1836.000000	0.000831
1835.000000	0.000806
1834.000000	0.000761
1833.000000	0.000725
1832.000000	0.000720
1831.000000	0.000739
1830.000000	0.000751
1829.000000	0.000741
1828.000000	0.000723
1827.000000	0.000706
1826.000000	0.000683
1825.000000	0.000657
1824.000000	0.000648
1823.000000	0.000668
1822.000000	0.000706
1821.000000	0.000736
1820.000000	0.000742
1819.000000	0.000725
1818.000000	0.000709
1817.000000	0.000714
1816.000000	0.000732
1815.000000	0.000736
1814.000000	0.000706
1813.000000	0.000655
1812.000000	0.000613
1811.000000	0.000600
1810.000000	0.000612
1809.000000	0.000633
1808.000000	0.000651
1807.000000	0.000668
1806.000000	0.000694
1805.000000	0.000736
1804.000000	0.000793
1803.000000	0.000854
1802.000000	0.000905
1801.000000	0.000937
1800.000000	0.000951
1799.000000	0.000957
1798.000000	0.000964
1797.000000	0.000974
1796.000000	0.000991
1795.000000	0.001008
1794.000000	0.001008
1793.000000	0.000967
1792.000000	0.000888
1791.000000	0.000816
1790.000000	0.000782
1789.000000	0.000772
1788.000000	0.000752
1787.000000	0.000708
1786.000000	0.000651
1785.000000	0.000606
1784.000000	0.000590
1783.000000	0.000601
1782.000000	0.000629
1781.000000	0.000664
1780.000000	0.000698
1779.000000	0.000721
1778.000000	0.000726
1777.000000	0.000715
1776.000000	0.000702
1775.000000	0.000709
1774.000000	0.000751
1773.000000	0.000817
1772.000000	0.000858
1771.000000	0.000842
1770.000000	0.000798
1769.000000	0.000766
1768.000000	0.000766
1767.000000	0.000795
1766.000000	0.000848
1765.000000	0.000919
1764.000000	0.001004
1763.000000	0.001100
1762.000000	0.001214
1761.000000	0.001351
1760.000000	0.001513
1759.000000	0.001704
1758.000000	0.001943
1757.000000	0.002249
1756.000000	0.002586
1755.000000	0.002896
1754.000000	0.003179
1753.000000	0.003503
1752.000000	0.003925
1751.000000	0.004421
1750.000000	0.004900
1749.000000	0.005322
1748.000000	0.005685
1747.000000	0.005975
1746.000000	0.006197
1745.000000	0.006387
1744.000000	0.006571
1743.000000	0.006729
1742.000000	0.006843
1741.000000	0.006922
1740.000000	0.006969
1739.000000	0.006943
1738.000000	0.006820
1737.000000	0.006625
1736.000000	0.006398
1735.000000	0.006175
1734.000000	0.005982
1733.000000	0.005788
1732.000000	0.005549
1731.000000	0.005249
1730.000000	0.004909
1729.000000	0.004571
1728.000000	0.004251
1727.000000	0.003945
1726.000000	0.003655
1725.000000	0.003398
1724.000000	0.003179
1723.000000	0.002974
1722.000000	0.002767
1721.000000	0.002557
1720.000000	0.002349
1719.000000	0.002150
1718.000000	0.001987
1717.000000	0.001879
1716.000000	0.001809
1715.000000	0.001753
1714.000000	0.001712
1713.000000	0.001689
1712.000000	0.001672
1711.000000	0.001644
1710.000000	0.001605
1709.000000	0.001566
1708.000000	0.001534
1707.000000	0.001509
1706.000000	0.001495
1705.000000	0.001497
1704.000000	0.001506
1703.000000	0.001513
1702.000000	0.001529
1701.000000	0.001574
1700.000000	0.001637
1699.000000	0.001696
1698.000000	0.001768
1697.000000	0.001862
1696.000000	0.001956
1695.000000	0.002034
1694.000000	0.002117
1693.000000	0.002220
1692.000000	0.002337
1691.000000	0.002453
1690.000000	0.002565
1689.000000	0.002674
1688.000000	0.002774
1687.000000	0.002867
1686.000000	0.002972
1685.000000	0.003111
1684.000000	0.003233
1683.000000	0.003290
1682.000000	0.003345
1681.000000	0.003424
1680.000000	0.003496
1679.000000	0.003543
1678.000000	0.003583
1677.000000	0.003646
1676.000000	0.003733
1675.000000	0.003818
1674.000000	0.003895
1673.000000	0.003991
1672.000000	0.004114
1671.000000	0.004247
1670.000000	0.004364
1669.000000	0.004458
1668.000000	0.004534
1667.000000	0.004599
1666.000000	0.004667
1665.000000	0.004759
1664.000000	0.004889
1663.000000	0.005038
1662.000000	0.005176
1661.000000	0.005298
1660.000000	0.005408
1659.000000	0.005495
1658.000000	0.005549
1657.000000	0.005580
1656.000000	0.005609
1655.000000	0.005652
1654.000000	0.005709
1653.000000	0.005779
1652.000000	0.005877
1651.000000	0.006003
1650.000000	0.006128
1649.000000	0.006247
1648.000000	0.006356
1647.000000	0.006419
1646.000000	0.006421
1645.000000	0.006427
1644.000000	0.006472
1643.000000	0.006530
1642.000000	0.006572
1641.000000	0.006592
1640.000000	0.006601
1639.000000	0.006616
1638.000000	0.006647
1637.000000	0.006687
1636.000000	0.006687
1635.000000	0.006617
1634.000000	0.006549
1633.000000	0.006541
1632.000000	0.006575
1631.000000	0.006609
1630.000000	0.006620
1629.000000	0.006616
1628.000000	0.006627
1627.000000	0.006669
1626.000000	0.006740
1625.000000	0.006824
1624.000000	0.006890
1623.000000	0.006909
1622.000000	0.006887
1621.000000	0.006865
1620.000000	0.006855
1619.000000	0.006836
1618.000000	0.006771
1617.000000	0.006631
1616.000000	0.006426
1615.000000	0.006215
1614.000000	0.006034
1613.000000	0.005884
1612.000000	0.005747
1611.000000	0.005609
1610.000000	0.005468
1609.000000	0.005328
1608.000000	0.005185
1607.000000	0.005035
1606.000000	0.004884
1605.000000	0.004746
1604.000000	0.004624
1603.000000	0.004503
1602.000000	0.004377
1601.000000	0.004257
1600.000000	0.004160
1599.000000	0.004085
1598.000000	0.004019
1597.000000	0.003957
1596.000000	0.003897
1595.000000	0.003836
1594.000000	0.003772
1593.000000	0.003713
1592.000000	0.003661
1591.000000	0.003612
1590.000000	0.003562
1589.000000	0.003510
1588.000000	0.003457
1587.000000	0.003400
1586.000000	0.003339
1585.000000	0.003286
1584.000000	0.003252
1583.000000	0.003232
1582.000000	0.003205
1581.000000	0.003164
1580.000000	0.003126
1579.000000	0.003120
1578.000000	0.003155
1577.000000	0.003207
1576.000000	0.003224
1575.000000	0.003203
1574.000000	0.003198
1573.000000	0.003231
1572.000000	0.003282
1571.000000	0.003328
1570.000000	0.003351
1569.000000	0.003359
1568.000000	0.003379
1567.000000	0.003429
1566.000000	0.003496
1565.000000	0.003555
1564.000000	0.003587
1563.000000	0.003596
1562.000000	0.003605
1561.000000	0.003652
1560.000000	0.003784
1559.000000	0.003938
1558.000000	0.003957
1557.000000	0.003975
1556.000000	0.004058
1555.000000	0.004170
1554.000000	0.004285
1553.000000	0.004391
1552.000000	0.004490
1551.000000	0.004593
1550.000000	0.004701
1549.000000	0.004803
1548.000000	0.004882
1547.000000	0.004940
1546.000000	0.005003
1545.000000	0.005098
1544.000000	0.005224
1543.000000	0.005361
1542.000000	0.005506
1541.000000	0.005654
1540.000000	0.005747
1539.000000	0.005764
1538.000000	0.005787
1537.000000	0.005849
1536.000000	0.005937
1535.000000	0.006047
1534.000000	0.006170
1533.000000	0.006266
1532.000000	0.006319
1531.000000	0.006352
1530.000000	0.006377
1529.000000	0.006390
1528.000000	0.006397
1527.000000	0.006414
1526.000000	0.006453
1525.000000	0.006498
1524.000000	0.006527
1523.000000	0.006538
1522.000000	0.006544
1521.000000	0.006552
1520.000000	0.006578
1519.000000	0.006634
1518.000000	0.006713
1517.000000	0.006782
1516.000000	0.006813
1515.000000	0.006822
1514.000000	0.006841
1513.000000	0.006869
1512.000000	0.006885
1511.000000	0.006870
1510.000000	0.006838
1509.000000	0.006817
1508.000000	0.006830
1507.000000	0.006845
1506.000000	0.006831
1505.000000	0.006824
1504.000000	0.006814
1503.000000	0.006789
1502.000000	0.006764
1501.000000	0.006750
1500.000000	0.006730
1499.000000	0.006683
1498.000000	0.006627
1497.000000	0.006605
1496.000000	0.006616
1495.000000	0.006617
1494.000000	0.006583
1493.000000	0.006519
1492.000000	0.006445
1491.000000	0.006393
1490.000000	0.006395
1489.000000	0.006431
1488.000000	0.006454
1487.000000	0.006443
1486.000000	0.006413
1485.000000	0.006385
1484.000000	0.006367
1483.000000	0.006361
1482.000000	0.006380
1481.000000	0.006428
1480.000000	0.006480
1479.000000	0.006515
1478.000000	0.006542
1477.000000	0.006594
1476.000000	0.006678
1475.000000	0.006784
1474.000000	0.006930
1473.000000	0.007133
1472.000000	0.007350
1471.000000	0.007525
1470.000000	0.007664
1469.000000	0.007781
1468.000000	0.007877
1467.000000	0.007955
1466.000000	0.008045
1465.000000	0.008158
1464.000000	0.008255
1463.000000	0.008300
1462.000000	0.008301
1461.000000	0.008284
1460.000000	0.008267
1459.000000	0.008292
1458.000000	0.008444
1457.000000	0.008737
1456.000000	0.008985
1455.000000	0.009081
1454.000000	0.009091
1453.000000	0.009088
1452.000000	0.009099
1451.000000	0.009118
1450.000000	0.009147
1449.000000	0.009200
1448.000000	0.009275
1447.000000	0.009343
1446.000000	0.009391
1445.000000	0.009427
1444.000000	0.009459
1443.000000	0.009489
1442.000000	0.009521
1441.000000	0.009551
1440.000000	0.009556
1439.000000	0.009531
1438.000000	0.009526
1437.000000	0.009619
1436.000000	0.009785
1435.000000	0.009908
1434.000000	0.009953
1433.000000	0.009961
1432.000000	0.009967
1431.000000	0.009981
1430.000000	0.010011
1429.000000	0.010069
1428.000000	0.010139
1427.000000	0.010188
1426.000000	0.010218
1425.000000	0.010259
1424.000000	0.010308
1423.000000	0.010307
1422.000000	0.010241
1421.000000	0.010178
1420.000000	0.010214
1419.000000	0.010357
1418.000000	0.010484
1417.000000	0.010516
1416.000000	0.010479
1415.000000	0.010415
1414.000000	0.010351
1413.000000	0.010302
1412.000000	0.010262
1411.000000	0.010208
1410.000000	0.010123
1409.000000	0.010009
1408.000000	0.009880
1407.000000	0.009753
1406.000000	0.009655
1405.000000	0.009602
1404.000000	0.009576
1403.000000	0.009540
1402.000000	0.009482
1401.000000	0.009428
1400.000000	0.009404
1399.000000	0.009402
1398.000000	0.009390
1397.000000	0.009363
1396.000000	0.009353
1395.000000	0.009379
1394.000000	0.009425
1393.000000	0.009457
1392.000000	0.009455
1391.000000	0.009413
1390.000000	0.009344
1389.000000	0.009277
1388.000000	0.009237
1387.000000	0.009221
1386.000000	0.009201
1385.000000	0.009160
1384.000000	0.009101
1383.000000	0.009036
1382.000000	0.008973
1381.000000	0.008902
1380.000000	0.008813
1379.000000	0.008704
1378.000000	0.008582
1377.000000	0.008457
1376.000000	0.008334
1375.000000	0.008220
1374.000000	0.008117
1373.000000	0.008017
1372.000000	0.007911
1371.000000	0.007794
1370.000000	0.007673
1369.000000	0.007558
1368.000000	0.007458
1367.000000	0.007368
1366.000000	0.007281
1365.000000	0.007193
1364.000000	0.007110
1363.000000	0.007036
1362.000000	0.006968
1361.000000	0.006906
1360.000000	0.006860
1359.000000	0.006834
1358.000000	0.006817
1357.000000	0.006788
1356.000000	0.006741
1355.000000	0.006690
1354.000000	0.006649
1353.000000	0.006607
1352.000000	0.006550
1351.000000	0.006479
1350.000000	0.006409
1349.000000	0.006352
1348.000000	0.006309
1347.000000	0.006281
1346.000000	0.006267
1345.000000	0.006264
1344.000000	0.006261
1343.000000	0.006252
1342.000000	0.006238
1341.000000	0.006227
1340.000000	0.006226
1339.000000	0.006237
1338.000000	0.006253
1337.000000	0.006266
1336.000000	0.006265
1335.000000	0.006245
1334.000000	0.006210
1333.000000	0.006164
1332.000000	0.006116
1331.000000	0.006074
1330.000000	0.006036
1329.000000	0.005992
1328.000000	0.005935
1327.000000	0.005877
1326.000000	0.005833
1325.000000	0.005806
1324.000000	0.005780
1323.000000	0.005740
1322.000000	0.005691
1321.000000	0.005654
1320.000000	0.005640
1319.000000	0.005638
1318.000000	0.005631
1317.000000	0.005601
1316.000000	0.005547
1315.000000	0.005477
1314.000000	0.005409
1313.000000	0.005354
1312.000000	0.005306
1311.000000	0.005257
1310.000000	0.005204
1309.000000	0.005161
1308.000000	0.005133
1307.000000	0.005109
1306.000000	0.005068
1305.000000	0.005007
1304.000000	0.004941
1303.000000	0.004890
1302.000000	0.004856
1301.000000	0.004823
1300.000000	0.004776
1299.000000	0.004718
1298.000000	0.004659
1297.000000	0.004604
1296.000000	0.004552
1295.000000	0.004501
1294.000000	0.004457
1293.000000	0.004430
1292.000000	0.004423
1291.000000	0.004428
1290.000000	0.004432
1289.000000	0.004424
1288.000000	0.004404
1287.000000	0.004373
1286.000000	0.004338
1285.000000	0.004299
1284.000000	0.004257
1283.000000	0.004217
1282.000000	0.004183
1281.000000	0.004158
1280.000000	0.004145
1279.000000	0.004150
1278.000000	0.004175
1277.000000	0.004213
1276.000000	0.004250
1275.000000	0.004281
1274.000000	0.004309
1273.000000	0.004347
1272.000000	0.004397
1271.000000	0.004460
1270.000000	0.004540
1269.000000	0.004640
1268.000000	0.004758
1267.000000	0.004884
1266.000000	0.005002
1265.000000	0.005104
1264.000000	0.005186
1263.000000	0.005251
1262.000000	0.005313
1261.000000	0.005388
1260.000000	0.005485
1259.000000	0.005593
1258.000000	0.005697
1257.000000	0.005790
1256.000000	0.005869
1255.000000	0.005928
1254.000000	0.005968
1253.000000	0.006001
1252.000000	0.006039
1251.000000	0.006082
1250.000000	0.006112
1249.000000	0.006117
1248.000000	0.006097
1247.000000	0.006065
1246.000000	0.006040
1245.000000	0.006035
1244.000000	0.006051
1243.000000	0.006072
1242.000000	0.006079
1241.000000	0.006063
1240.000000	0.006033
1239.000000	0.006006
1238.000000	0.005987
1237.000000	0.005975
1236.000000	0.005960
1235.000000	0.005932
1234.000000	0.005886
1233.000000	0.005822
1232.000000	0.005752
1231.000000	0.005684
1230.000000	0.005622
1229.000000	0.005551
1228.000000	0.005455
1227.000000	0.005325
1226.000000	0.005168
1225.000000	0.005002
1224.000000	0.004843
1223.000000	0.004694
1222.000000	0.004556
1221.000000	0.004432
1220.000000	0.004328
1219.000000	0.004248
1218.000000	0.004177
1217.000000	0.004096
1216.000000	0.003996
1215.000000	0.003882
1214.000000	0.003766
1213.000000	0.003658
1212.000000	0.003568
1211.000000	0.003508
1210.000000	0.003489
1209.000000	0.003500
1208.000000	0.003517
1207.000000	0.003519
1206.000000	0.003508
1205.000000	0.003503
1204.000000	0.003521
1203.000000	0.003556
1202.000000	0.003588
1201.000000	0.003601
1200.000000	0.003606
1199.000000	0.003631
1198.000000	0.003699
1197.000000	0.003807
1196.000000	0.003934
1195.000000	0.004062
1194.000000	0.004184
1193.000000	0.004304
1192.000000	0.004426
1191.000000	0.004558
1190.000000	0.004705
1189.000000	0.004867
1188.000000	0.005037
1187.000000	0.005211
1186.000000	0.005399
1185.000000	0.005618
1184.000000	0.005866
1183.000000	0.006119
1182.000000	0.006362
1181.000000	0.006606
1180.000000	0.006876
1179.000000	0.007181
1178.000000	0.007504
1177.000000	0.007822
1176.000000	0.008127
1175.000000	0.008423
1174.000000	0.008717
1173.000000	0.009011
1172.000000	0.009302
1171.000000	0.009583
1170.000000	0.009850
1169.000000	0.010105
1168.000000	0.010352
1167.000000	0.010594
1166.000000	0.010827
1165.000000	0.011042
1164.000000	0.011230
1163.000000	0.011387
1162.000000	0.011522
1161.000000	0.011648
1160.000000	0.011765
1159.000000	0.011869
1158.000000	0.011960
1157.000000	0.012043
1156.000000	0.012122
1155.000000	0.012192
1154.000000	0.012246
1153.000000	0.012286
1152.000000	0.012312
1151.000000	0.012320
1150.000000	0.012309
1149.000000	0.012278
1148.000000	0.012223
1147.000000	0.012139
1146.000000	0.012027
1145.000000	0.011898
1144.000000	0.011766
1143.000000	0.011640
1142.000000	0.011524
1141.000000	0.011414
1140.000000	0.011301
1139.000000	0.011181
1138.000000	0.011060
1137.000000	0.010947
1136.000000	0.010844
1135.000000	0.010743
1134.000000	0.010645
1133.000000	0.010551
1132.000000	0.010461
1131.000000	0.010375
1130.000000	0.010297
1129.000000	0.010231
1128.000000	0.010171
1127.000000	0.010122
1126.000000	0.010111
1125.000000	0.010168
1124.000000	0.010296
1123.000000	0.010468
1122.000000	0.010659
1121.000000	0.010864
1120.000000	0.011081
1119.000000	0.011298
1118.000000	0.011516
1117.000000	0.011758
1116.000000	0.012044
1115.000000	0.012359
1114.000000	0.012659
1113.000000	0.012914
1112.000000	0.013120
1111.000000	0.013289
1110.000000	0.013418
1109.000000	0.013496
1108.000000	0.013512
1107.000000	0.013475
1106.000000	0.013407
1105.000000	0.013324
1104.000000	0.013222
1103.000000	0.013087
1102.000000	0.012929
1101.000000	0.012776
1100.000000	0.012656
1099.000000	0.012576
1098.000000	0.012531
1097.000000	0.012501
1096.000000	0.012464
1095.000000	0.012408
1094.000000	0.012345
1093.000000	0.012286
1092.000000	0.012217
1091.000000	0.012115
1090.000000	0.011973
1089.000000	0.011809
1088.000000	0.011635
1087.000000	0.011450
1086.000000	0.011255
1085.000000	0.011056
1084.000000	0.010858
1083.000000	0.010659
1082.000000	0.010465
1081.000000	0.010288
1080.000000	0.010133
1079.000000	0.009994
1078.000000	0.009868
1077.000000	0.009756
1076.000000	0.009643
1075.000000	0.009514
1074.000000	0.009370
1073.000000	0.009237
1072.000000	0.009133
1071.000000	0.009048
1070.000000	0.008966
1069.000000	0.008891
1068.000000	0.008835
1067.000000	0.008799
1066.000000	0.008770
1065.000000	0.008740
1064.000000	0.008717
1063.000000	0.008706
1062.000000	0.008702
1061.000000	0.008688
1060.000000	0.008649
1059.000000	0.008577
1058.000000	0.008484
1057.000000	0.008385
1056.000000	0.008280
1055.000000	0.008162
1054.000000	0.008041
1053.000000	0.007951
1052.000000	0.007916
1051.000000	0.007915
1050.000000	0.007903
1049.000000	0.007858
1048.000000	0.007796
1047.000000	0.007753
1046.000000	0.007751
1045.000000	0.007794
1044.000000	0.007866
1043.000000	0.007935
1042.000000	0.007972
1041.000000	0.007972
1040.000000	0.007962
1039.000000	0.007969
1038.000000	0.007992
1037.000000	0.008002
1036.000000	0.007980
1035.000000	0.007934
1034.000000	0.007893
1033.000000	0.007870
1032.000000	0.007853
1031.000000	0.007824
1030.000000	0.007788
1029.000000	0.007761
1028.000000	0.007751
1027.000000	0.007753
1026.000000	0.007755
1025.000000	0.007758
1024.000000	0.007762
1023.000000	0.007762
1022.000000	0.007755
1021.000000	0.007740
1020.000000	0.007718
1019.000000	0.007679
1018.000000	0.007618
1017.000000	0.007541
1016.000000	0.007466
1015.000000	0.007399
1014.000000	0.007337
1013.000000	0.007272
1012.000000	0.007200
1011.000000	0.007120
1010.000000	0.007033
1009.000000	0.006947
1008.000000	0.006875
1007.000000	0.006827
1006.000000	0.006793
1005.000000	0.006750
1004.000000	0.006676
1003.000000	0.006566
1002.000000	0.006434
1001.000000	0.006301
1000.000000	0.006188
999.000000	0.006099
998.000000	0.006022
997.000000	0.005944
996.000000	0.005859
995.000000	0.005778
994.000000	0.005703
993.000000	0.005626
992.000000	0.005538
991.000000	0.005449
990.000000	0.005377
989.000000	0.005329
988.000000	0.005285
987.000000	0.005228
986.000000	0.005161
985.000000	0.005102
984.000000	0.005058
983.000000	0.005012
982.000000	0.004942
981.000000	0.004849
980.000000	0.004759
979.000000	0.004700
978.000000	0.004675
977.000000	0.004668
976.000000	0.004658
975.000000	0.004633
974.000000	0.004592
973.000000	0.004544
972.000000	0.004498
971.000000	0.004455
970.000000	0.004412
969.000000	0.004366
968.000000	0.004320
967.000000	0.004280
966.000000	0.004246
965.000000	0.004210
964.000000	0.004169
963.000000	0.004123
962.000000	0.004069
961.000000	0.003999
960.000000	0.003908
959.000000	0.003807
958.000000	0.003707
957.000000	0.003617
956.000000	0.003542
955.000000	0.003491
954.000000	0.003456
953.000000	0.003412
952.000000	0.003334
951.000000	0.003238
950.000000	0.003168
949.000000	0.003154
948.000000	0.003177
947.000000	0.003193
946.000000	0.003178
945.000000	0.003135
944.000000	0.003070
943.000000	0.002983
942.000000	0.002887
941.000000	0.002808
940.000000	0.002769
939.000000	0.002753
938.000000	0.002725
937.000000	0.002668
936.000000	0.002606
935.000000	0.002569
934.000000	0.002559
933.000000	0.002547
932.000000	0.002511
931.000000	0.002462
930.000000	0.002426
929.000000	0.002408
928.000000	0.002390
927.000000	0.002359
926.000000	0.002314
925.000000	0.002265
924.000000	0.002220
923.000000	0.002181
922.000000	0.002145
921.000000	0.002108
920.000000	0.002067
919.000000	0.002028
918.000000	0.001995
917.000000	0.001967
916.000000	0.001938
915.000000	0.001908
914.000000	0.001888
913.000000	0.001881
912.000000	0.001871
911.000000	0.001834
910.000000	0.001765
909.000000	0.001683
908.000000	0.001610
907.000000	0.001554
906.000000	0.001506
905.000000	0.001457
904.000000	0.001409
903.000000	0.001367
902.000000	0.001332
901.000000	0.001298
900.000000	0.001262
899.000000	0.001227
898.000000	0.001192
897.000000	0.001157
896.000000	0.001123
895.000000	0.001097
894.000000	0.001085
893.000000	0.001090
892.000000	0.001107
891.000000	0.001124
890.000000	0.001140
889.000000	0.001172
888.000000	0.001270
887.000000	0.001482
886.000000	0.001813
885.000000	0.002206
884.000000	0.002582
883.000000	0.002905
882.000000	0.003201
881.000000	0.003522
880.000000	0.003898
879.000000	0.004320
878.000000	0.004762
877.000000	0.005197
876.000000	0.005592
875.000000	0.005903
874.000000	0.006076
873.000000	0.006072
872.000000	0.005889
871.000000	0.005567
870.000000	0.005163
869.000000	0.004729
868.000000	0.004296
867.000000	0.003885
866.000000	0.003516
865.000000	0.003202
864.000000	0.002946
863.000000	0.002734
862.000000	0.002548
861.000000	0.002365
860.000000	0.002167
859.000000	0.001957
858.000000	0.001754
857.000000	0.001576
856.000000	0.001435
855.000000	0.001337
854.000000	0.001278
853.000000	0.001255
852.000000	0.001262
851.000000	0.001302
850.000000	0.001375
849.000000	0.001457
848.000000	0.001495
847.000000	0.001442
846.000000	0.001297
845.000000	0.001103
844.000000	0.000922
843.000000	0.000804
842.000000	0.000768
841.000000	0.000790
840.000000	0.000823
839.000000	0.000836
838.000000	0.000844
837.000000	0.000893
836.000000	0.000989
835.000000	0.001088
834.000000	0.001134
833.000000	0.001121
832.000000	0.001082
831.000000	0.001048
830.000000	0.001022
829.000000	0.000993
828.000000	0.000961
827.000000	0.000932
826.000000	0.000906
825.000000	0.000869
824.000000	0.000819
823.000000	0.000771
822.000000	0.000743
821.000000	0.000736
820.000000	0.000724
819.000000	0.000682
818.000000	0.000622
817.000000	0.000595
816.000000	0.000636
815.000000	0.000723
814.000000	0.000791
813.000000	0.000794
812.000000	0.000740
811.000000	0.000666
810.000000	0.000599
809.000000	0.000547
808.000000	0.000525
807.000000	0.000549
806.000000	0.000612
805.000000	0.000682
804.000000	0.000732
803.000000	0.000768
802.000000	0.000802
801.000000	0.000826
800.000000	0.000825
799.000000	0.000797
798.000000	0.000768
797.000000	0.000757
796.000000	0.000764
795.000000	0.000781
794.000000	0.000802
793.000000	0.000828
792.000000	0.000845
791.000000	0.000838
790.000000	0.000807
789.000000	0.000772
788.000000	0.000753
787.000000	0.000752
786.000000	0.000759
785.000000	0.000775
784.000000	0.000802
783.000000	0.000833
782.000000	0.000846
781.000000	0.000827
780.000000	0.000786
779.000000	0.000745
778.000000	0.000722
777.000000	0.000713
776.000000	0.000707
775.000000	0.000691
774.000000	0.000663
773.000000	0.000631
772.000000	0.000608
771.000000	0.000605
770.000000	0.000620
769.000000	0.000640
768.000000	0.000653
767.000000	0.000657
766.000000	0.000666
765.000000	0.000689
764.000000	0.000715
763.000000	0.000716
762.000000	0.000688
761.000000	0.000667
760.000000	0.000693
759.000000	0.000755
758.000000	0.000793
757.000000	0.000770
756.000000	0.000724
755.000000	0.000716
754.000000	0.000761
753.000000	0.000817
752.000000	0.000845
751.000000	0.000847
750.000000	0.000846
749.000000	0.000852
748.000000	0.000854
747.000000	0.000848
746.000000	0.000838
745.000000	0.000824
744.000000	0.000805
743.000000	0.000783
742.000000	0.000779
741.000000	0.000804
740.000000	0.000840
739.000000	0.000844
738.000000	0.000785
737.000000	0.000689
736.000000	0.000622
735.000000	0.000627
734.000000	0.000685
733.000000	0.000744
732.000000	0.000778
731.000000	0.000787
730.000000	0.000766
729.000000	0.000704
728.000000	0.000619
727.000000	0.000562
726.000000	0.000571
725.000000	0.000632
724.000000	0.000689
723.000000	0.000695
722.000000	0.000645
721.000000	0.000577
720.000000	0.000537
719.000000	0.000555
718.000000	0.000656
717.000000	0.000873
716.000000	0.001241
715.000000	0.001739
714.000000	0.002254
713.000000	0.002624
712.000000	0.002743
711.000000	0.002626
710.000000	0.002378
709.000000	0.002125
708.000000	0.001946
707.000000	0.001852
706.000000	0.001810
705.000000	0.001784
704.000000	0.001759
703.000000	0.001731
702.000000	0.001691
701.000000	0.001636
700.000000	0.001592
699.000000	0.001593
698.000000	0.001633
697.000000	0.001661
696.000000	0.001636
695.000000	0.001574
694.000000	0.001523
693.000000	0.001510
692.000000	0.001525
691.000000	0.001544
690.000000	0.001543
689.000000	0.001512
688.000000	0.001461
687.000000	0.001422
686.000000	0.001412
685.000000	0.001427
684.000000	0.001477
683.000000	0.001588
682.000000	0.001745
681.000000	0.001889
680.000000	0.001982
679.000000	0.002063
678.000000	0.002201
677.000000	0.002443
676.000000	0.002786
675.000000	0.003187
674.000000	0.003569
673.000000	0.003833
672.000000	0.003900
671.000000	0.003757
670.000000	0.003434
669.000000	0.003010
668.000000	0.002723
667.000000	0.002774
666.000000	0.002824
665.000000	0.002725
664.000000	0.002519
663.000000	0.002224
662.000000	0.001879
661.000000	0.001547
660.000000	0.001268
659.000000	0.001047
658.000000	0.000883
657.000000	0.000796
656.000000	0.000789
655.000000	0.000832
654.000000	0.000901
653.000000	0.000989
652.000000	0.001077
651.000000	0.001141
650.000000	0.001198
649.000000	0.001290
648.000000	0.001402
647.000000	0.001465
646.000000	0.001455
645.000000	0.001425
644.000000	0.001426
643.000000	0.001461
642.000000	0.001503
641.000000	0.001544
640.000000	0.001572
639.000000	0.001570
638.000000	0.001541
637.000000	0.001516
636.000000	0.001513
635.000000	0.001516
634.000000	0.001517
633.000000	0.001540
632.000000	0.001616
631.000000	0.001747
630.000000	0.001908
629.000000	0.002060
628.000000	0.002162
627.000000	0.002196
626.000000	0.002195
625.000000	0.002204
624.000000	0.002227
623.000000	0.002234
622.000000	0.002213
621.000000	0.002189
620.000000	0.002185
619.000000	0.002208
618.000000	0.002268
617.000000	0.002378
616.000000	0.002532
615.000000	0.002705
614.000000	0.002879
613.000000	0.003040
612.000000	0.003174
611.000000	0.003294
610.000000	0.003457
609.000000	0.003720
608.000000	0.004064
607.000000	0.004415
606.000000	0.004728
605.000000	0.005001
604.000000	0.005218
603.000000	0.005344
602.000000	0.005386
601.000000	0.005384
600.000000	0.005350
599.000000	0.005259
598.000000	0.005126
597.000000	0.005004
596.000000	0.004894
595.000000	0.004725
594.000000	0.004446
593.000000	0.004090
592.000000	0.003734
591.000000	0.003430
590.000000	0.003208
589.000000	0.003076
588.000000	0.003002
587.000000	0.002935
586.000000	0.002870
585.000000	0.002852
584.000000	0.002886
583.000000	0.002898
582.000000	0.002825
581.000000	0.002703
580.000000	0.002609
579.000000	0.002553
578.000000	0.002481
577.000000	0.002367
576.000000	0.002241
575.000000	0.002147
574.000000	0.002098
573.000000	0.002080
572.000000	0.002076
571.000000	0.002077
570.000000	0.002089
569.000000	0.002109
568.000000	0.002096
567.000000	0.002000
566.000000	0.001836
565.000000	0.001674
564.000000	0.001554
563.000000	0.001463
562.000000	0.001397
561.000000	0.001393
560.000000	0.001462
559.000000	0.001536
558.000000	0.001533
557.000000	0.001441
556.000000	0.001304
555.000000	0.001172
554.000000	0.001085
553.000000	0.001086
552.000000	0.001177
551.000000	0.001290
550.000000	0.001343
549.000000	0.001314
548.000000	0.001231
547.000000	0.001110
546.000000	0.000956
545.000000	0.000809
544.000000	0.000729
543.000000	0.000731
542.000000	0.000767
541.000000	0.000773
540.000000	0.000736
539.000000	0.000686
538.000000	0.000667
537.000000	0.000702
536.000000	0.000781
535.000000	0.000881
534.000000	0.000982
533.000000	0.001069
532.000000	0.001124
531.000000	0.001127
530.000000	0.001071
529.000000	0.000961
528.000000	0.000818
527.000000	0.000685
526.000000	0.000630
525.000000	0.000701
524.000000	0.000885
523.000000	0.001131
522.000000	0.001372
521.000000	0.001500
520.000000	0.001417
519.000000	0.001155
518.000000	0.000914
517.000000	0.000858
516.000000	0.000916
515.000000	0.000910
514.000000	0.000807
513.000000	0.000722
512.000000	0.000720
511.000000	0.000749
510.000000	0.000770
509.000000	0.000803
508.000000	0.000844
507.000000	0.000812
506.000000	0.000688
505.000000	0.000595
504.000000	0.000666
503.000000	0.000895
502.000000	0.001161
501.000000	0.001337
500.000000	0.001376
499.000000	0.001303
498.000000	0.001203
497.000000	0.001168
496.000000	0.001213
495.000000	0.001270
494.000000	0.001299
493.000000	0.001332
492.000000	0.001380
491.000000	0.001397
490.000000	0.001391
489.000000	0.001443
488.000000	0.001541
487.000000	0.001522
486.000000	0.001264
485.000000	0.000900
484.000000	0.000716
483.000000	0.000827
482.000000	0.001098
481.000000	0.001352
480.000000	0.001523
479.000000	0.001614
478.000000	0.001634
477.000000	0.001599
476.000000	0.001516
475.000000	0.001384
474.000000	0.001254
473.000000	0.001242
472.000000	0.001386
471.000000	0.001543
470.000000	0.001584
469.000000	0.001549
468.000000	0.001505
467.000000	0.001417
466.000000	0.001254
465.000000	0.001135
464.000000	0.001214
463.000000	0.001458
462.000000	0.001669
461.000000	0.001721
460.000000	0.001666
459.000000	0.001595
458.000000	0.001531
457.000000	0.001468
456.000000	0.001398
455.000000	0.001279
454.000000	0.001077
453.000000	0.000835
452.000000	0.000659
451.000000	0.000601
450.000000	0.000631
