PE IR       SUBTECH     SPECTRUM    ASCII       PEDS        4.00        
   -1
P12-Rouge035_1.ASC
23/06/08
15:24:59.00
23/06/08
15:48:35.00
uco
Sample 035 By uco Date Thursday, June 08 2023
450.000000
#HDR
-1
-1
#GR
cm-1
A
1.0
0.0
4000.000000
-1.000000
3551
8
0.010496
0.000603
#DATA
4000.000000	0.001013
3999.000000	0.001043
3998.000000	0.001077
3997.000000	0.001103
3996.000000	0.001116
3995.000000	0.001074
3994.000000	0.001071
3993.000000	0.001070
3992.000000	0.001071
3991.000000	0.001072
3990.000000	0.001076
3989.000000	0.001087
3988.000000	0.001101
3987.000000	0.001109
3986.000000	0.001104
3985.000000	0.001085
3984.000000	0.001059
3983.000000	0.001036
3982.000000	0.001022
3981.000000	0.001024
3980.000000	0.001038
3979.000000	0.001058
3978.000000	0.001073
3977.000000	0.001082
3976.000000	0.001087
3975.000000	0.001093
3974.000000	0.001104
3973.000000	0.001115
3972.000000	0.001120
3971.000000	0.001113
3970.000000	0.001094
3969.000000	0.001067
3968.000000	0.001042
3967.000000	0.001027
3966.000000	0.001025
3965.000000	0.001030
3964.000000	0.001033
3963.000000	0.001030
3962.000000	0.001026
3961.000000	0.001032
3960.000000	0.001049
3959.000000	0.001074
3958.000000	0.001096
3957.000000	0.001107
3956.000000	0.001105
3955.000000	0.001091
3954.000000	0.001071
3953.000000	0.001052
3952.000000	0.001043
3951.000000	0.001050
3950.000000	0.001068
3949.000000	0.001088
3948.000000	0.001099
3947.000000	0.001101
3946.000000	0.001094
3945.000000	0.001085
3944.000000	0.001078
3943.000000	0.001081
3942.000000	0.001101
3941.000000	0.001140
3940.000000	0.001184
3939.000000	0.001216
3938.000000	0.001222
3937.000000	0.001205
3936.000000	0.001181
3935.000000	0.001165
3934.000000	0.001154
3933.000000	0.001138
3932.000000	0.001112
3931.000000	0.001083
3930.000000	0.001065
3929.000000	0.001063
3928.000000	0.001069
3927.000000	0.001078
3926.000000	0.001091
3925.000000	0.001105
3924.000000	0.001118
3923.000000	0.001126
3922.000000	0.001130
3921.000000	0.001135
3920.000000	0.001142
3919.000000	0.001145
3918.000000	0.001135
3917.000000	0.001115
3916.000000	0.001097
3915.000000	0.001094
3914.000000	0.001105
3913.000000	0.001120
3912.000000	0.001128
3911.000000	0.001126
3910.000000	0.001118
3909.000000	0.001106
3908.000000	0.001090
3907.000000	0.001070
3906.000000	0.001055
3905.000000	0.001051
3904.000000	0.001062
3903.000000	0.001079
3902.000000	0.001092
3901.000000	0.001101
3900.000000	0.001109
3899.000000	0.001119
3898.000000	0.001128
3897.000000	0.001132
3896.000000	0.001127
3895.000000	0.001116
3894.000000	0.001104
3893.000000	0.001097
3892.000000	0.001096
3891.000000	0.001094
3890.000000	0.001091
3889.000000	0.001092
3888.000000	0.001104
3887.000000	0.001128
3886.000000	0.001156
3885.000000	0.001174
3884.000000	0.001174
3883.000000	0.001153
3882.000000	0.001112
3881.000000	0.001062
3880.000000	0.001025
3879.000000	0.001018
3878.000000	0.001035
3877.000000	0.001056
3876.000000	0.001059
3875.000000	0.001044
3874.000000	0.001029
3873.000000	0.001039
3872.000000	0.001080
3871.000000	0.001132
3870.000000	0.001165
3869.000000	0.001173
3868.000000	0.001173
3867.000000	0.001173
3866.000000	0.001160
3865.000000	0.001124
3864.000000	0.001083
3863.000000	0.001065
3862.000000	0.001080
3861.000000	0.001109
3860.000000	0.001134
3859.000000	0.001141
3858.000000	0.001132
3857.000000	0.001114
3856.000000	0.001100
3855.000000	0.001097
3854.000000	0.001104
3853.000000	0.001108
3852.000000	0.001106
3851.000000	0.001109
3850.000000	0.001122
3849.000000	0.001138
3848.000000	0.001152
3847.000000	0.001163
3846.000000	0.001166
3845.000000	0.001157
3844.000000	0.001133
3843.000000	0.001096
3842.000000	0.001059
3841.000000	0.001032
3840.000000	0.001021
3839.000000	0.001028
3838.000000	0.001053
3837.000000	0.001089
3836.000000	0.001121
3835.000000	0.001141
3834.000000	0.001152
3833.000000	0.001160
3832.000000	0.001168
3831.000000	0.001174
3830.000000	0.001177
3829.000000	0.001171
3828.000000	0.001158
3827.000000	0.001140
3826.000000	0.001125
3825.000000	0.001116
3824.000000	0.001110
3823.000000	0.001100
3822.000000	0.001081
3821.000000	0.001064
3820.000000	0.001063
3819.000000	0.001080
3818.000000	0.001103
3817.000000	0.001115
3816.000000	0.001116
3815.000000	0.001124
3814.000000	0.001150
3813.000000	0.001181
3812.000000	0.001194
3811.000000	0.001186
3810.000000	0.001170
3809.000000	0.001162
3808.000000	0.001162
3807.000000	0.001149
3806.000000	0.001124
3805.000000	0.001106
3804.000000	0.001113
3803.000000	0.001137
3802.000000	0.001147
3801.000000	0.001123
3800.000000	0.001084
3799.000000	0.001058
3798.000000	0.001056
3797.000000	0.001073
3796.000000	0.001102
3795.000000	0.001136
3794.000000	0.001172
3793.000000	0.001204
3792.000000	0.001224
3791.000000	0.001228
3790.000000	0.001215
3789.000000	0.001192
3788.000000	0.001168
3787.000000	0.001150
3786.000000	0.001141
3785.000000	0.001134
3784.000000	0.001126
3783.000000	0.001120
3782.000000	0.001122
3781.000000	0.001138
3780.000000	0.001165
3779.000000	0.001191
3778.000000	0.001205
3777.000000	0.001203
3776.000000	0.001185
3775.000000	0.001157
3774.000000	0.001126
3773.000000	0.001103
3772.000000	0.001088
3771.000000	0.001076
3770.000000	0.001058
3769.000000	0.001037
3768.000000	0.001024
3767.000000	0.001027
3766.000000	0.001047
3765.000000	0.001075
3764.000000	0.001102
3763.000000	0.001119
3762.000000	0.001119
3761.000000	0.001103
3760.000000	0.001082
3759.000000	0.001076
3758.000000	0.001091
3757.000000	0.001115
3756.000000	0.001135
3755.000000	0.001147
3754.000000	0.001156
3753.000000	0.001172
3752.000000	0.001199
3751.000000	0.001225
3750.000000	0.001229
3749.000000	0.001204
3748.000000	0.001168
3747.000000	0.001141
3746.000000	0.001124
3745.000000	0.001099
3744.000000	0.001058
3743.000000	0.001022
3742.000000	0.001009
3741.000000	0.001012
3740.000000	0.001015
3739.000000	0.001017
3738.000000	0.001030
3737.000000	0.001062
3736.000000	0.001098
3735.000000	0.001110
3734.000000	0.001099
3733.000000	0.001089
3732.000000	0.001090
3731.000000	0.001101
3730.000000	0.001122
3729.000000	0.001153
3728.000000	0.001193
3727.000000	0.001229
3726.000000	0.001256
3725.000000	0.001273
3724.000000	0.001279
3723.000000	0.001270
3722.000000	0.001247
3721.000000	0.001217
3720.000000	0.001186
3719.000000	0.001153
3718.000000	0.001115
3717.000000	0.001072
3716.000000	0.001027
3715.000000	0.000987
3714.000000	0.000964
3713.000000	0.000974
3712.000000	0.001021
3711.000000	0.001082
3710.000000	0.001124
3709.000000	0.001138
3708.000000	0.001130
3707.000000	0.001112
3706.000000	0.001092
3705.000000	0.001077
3704.000000	0.001066
3703.000000	0.001054
3702.000000	0.001035
3701.000000	0.001011
3700.000000	0.000994
3699.000000	0.000994
3698.000000	0.001015
3697.000000	0.001055
3696.000000	0.001107
3695.000000	0.001162
3694.000000	0.001209
3693.000000	0.001230
3692.000000	0.001211
3691.000000	0.001154
3690.000000	0.001088
3689.000000	0.001053
3688.000000	0.001062
3687.000000	0.001098
3686.000000	0.001132
3685.000000	0.001151
3684.000000	0.001153
3683.000000	0.001141
3682.000000	0.001125
3681.000000	0.001116
3680.000000	0.001122
3679.000000	0.001145
3678.000000	0.001179
3677.000000	0.001203
3676.000000	0.001190
3675.000000	0.001149
3674.000000	0.001122
3673.000000	0.001131
3672.000000	0.001159
3671.000000	0.001181
3670.000000	0.001183
3669.000000	0.001177
3668.000000	0.001175
3667.000000	0.001174
3666.000000	0.001172
3665.000000	0.001173
3664.000000	0.001189
3663.000000	0.001217
3662.000000	0.001246
3661.000000	0.001259
3660.000000	0.001250
3659.000000	0.001232
3658.000000	0.001215
3657.000000	0.001209
3656.000000	0.001208
3655.000000	0.001210
3654.000000	0.001213
3653.000000	0.001217
3652.000000	0.001219
3651.000000	0.001215
3650.000000	0.001214
3649.000000	0.001220
3648.000000	0.001226
3647.000000	0.001224
3646.000000	0.001211
3645.000000	0.001193
3644.000000	0.001181
3643.000000	0.001183
3642.000000	0.001198
3641.000000	0.001217
3640.000000	0.001229
3639.000000	0.001235
3638.000000	0.001236
3637.000000	0.001236
3636.000000	0.001234
3635.000000	0.001232
3634.000000	0.001234
3633.000000	0.001248
3632.000000	0.001278
3631.000000	0.001318
3630.000000	0.001351
3629.000000	0.001361
3628.000000	0.001360
3627.000000	0.001374
3626.000000	0.001403
3625.000000	0.001424
3624.000000	0.001415
3623.000000	0.001367
3622.000000	0.001287
3621.000000	0.001194
3620.000000	0.001115
3619.000000	0.001083
3618.000000	0.001109
3617.000000	0.001172
3616.000000	0.001241
3615.000000	0.001296
3614.000000	0.001334
3613.000000	0.001365
3612.000000	0.001400
3611.000000	0.001441
3610.000000	0.001484
3609.000000	0.001517
3608.000000	0.001532
3607.000000	0.001533
3606.000000	0.001532
3605.000000	0.001538
3604.000000	0.001542
3603.000000	0.001539
3602.000000	0.001527
3601.000000	0.001512
3600.000000	0.001499
3599.000000	0.001488
3598.000000	0.001475
3597.000000	0.001464
3596.000000	0.001460
3595.000000	0.001470
3594.000000	0.001490
3593.000000	0.001513
3592.000000	0.001533
3591.000000	0.001550
3590.000000	0.001566
3589.000000	0.001585
3588.000000	0.001606
3587.000000	0.001627
3586.000000	0.001649
3585.000000	0.001677
3584.000000	0.001703
3583.000000	0.001721
3582.000000	0.001733
3581.000000	0.001746
3580.000000	0.001760
3579.000000	0.001766
3578.000000	0.001750
3577.000000	0.001717
3576.000000	0.001687
3575.000000	0.001679
3574.000000	0.001702
3573.000000	0.001745
3572.000000	0.001793
3571.000000	0.001833
3570.000000	0.001868
3569.000000	0.001904
3568.000000	0.001940
3567.000000	0.001963
3566.000000	0.001965
3565.000000	0.001964
3564.000000	0.001973
3563.000000	0.001993
3562.000000	0.002016
3561.000000	0.002034
3560.000000	0.002048
3559.000000	0.002061
3558.000000	0.002077
3557.000000	0.002096
3556.000000	0.002121
3555.000000	0.002154
3554.000000	0.002200
3553.000000	0.002254
3552.000000	0.002305
3551.000000	0.002344
3550.000000	0.002371
3549.000000	0.002390
3548.000000	0.002403
3547.000000	0.002403
3546.000000	0.002385
3545.000000	0.002362
3544.000000	0.002356
3543.000000	0.002381
3542.000000	0.002421
3541.000000	0.002454
3540.000000	0.002469
3539.000000	0.002471
3538.000000	0.002475
3537.000000	0.002487
3536.000000	0.002500
3535.000000	0.002506
3534.000000	0.002506
3533.000000	0.002503
3532.000000	0.002500
3531.000000	0.002497
3530.000000	0.002493
3529.000000	0.002489
3528.000000	0.002485
3527.000000	0.002478
3526.000000	0.002474
3525.000000	0.002479
3524.000000	0.002492
3523.000000	0.002503
3522.000000	0.002500
3521.000000	0.002479
3520.000000	0.002448
3519.000000	0.002422
3518.000000	0.002412
3517.000000	0.002413
3516.000000	0.002413
3515.000000	0.002404
3514.000000	0.002388
3513.000000	0.002372
3512.000000	0.002358
3511.000000	0.002343
3510.000000	0.002323
3509.000000	0.002304
3508.000000	0.002299
3507.000000	0.002310
3506.000000	0.002328
3505.000000	0.002341
3504.000000	0.002342
3503.000000	0.002334
3502.000000	0.002326
3501.000000	0.002325
3500.000000	0.002334
3499.000000	0.002344
3498.000000	0.002351
3497.000000	0.002352
3496.000000	0.002347
3495.000000	0.002340
3494.000000	0.002331
3493.000000	0.002321
3492.000000	0.002311
3491.000000	0.002304
3490.000000	0.002299
3489.000000	0.002295
3488.000000	0.002295
3487.000000	0.002302
3486.000000	0.002321
3485.000000	0.002345
3484.000000	0.002363
3483.000000	0.002362
3482.000000	0.002340
3481.000000	0.002306
3480.000000	0.002277
3479.000000	0.002264
3478.000000	0.002268
3477.000000	0.002281
3476.000000	0.002298
3475.000000	0.002316
3474.000000	0.002335
3473.000000	0.002351
3472.000000	0.002361
3471.000000	0.002362
3470.000000	0.002351
3469.000000	0.002327
3468.000000	0.002294
3467.000000	0.002260
3466.000000	0.002239
3465.000000	0.002243
3464.000000	0.002270
3463.000000	0.002305
3462.000000	0.002327
3461.000000	0.002326
3460.000000	0.002310
3459.000000	0.002297
3458.000000	0.002298
3457.000000	0.002312
3456.000000	0.002336
3455.000000	0.002366
3454.000000	0.002395
3453.000000	0.002417
3452.000000	0.002423
3451.000000	0.002414
3450.000000	0.002397
3449.000000	0.002382
3448.000000	0.002372
3447.000000	0.002369
3446.000000	0.002377
3445.000000	0.002400
3444.000000	0.002433
3443.000000	0.002464
3442.000000	0.002476
3441.000000	0.002467
3440.000000	0.002446
3439.000000	0.002429
3438.000000	0.002425
3437.000000	0.002432
3436.000000	0.002443
3435.000000	0.002455
3434.000000	0.002469
3433.000000	0.002485
3432.000000	0.002499
3431.000000	0.002503
3430.000000	0.002498
3429.000000	0.002490
3428.000000	0.002493
3427.000000	0.002510
3426.000000	0.002534
3425.000000	0.002555
3424.000000	0.002574
3423.000000	0.002599
3422.000000	0.002635
3421.000000	0.002677
3420.000000	0.002711
3419.000000	0.002728
3418.000000	0.002731
3417.000000	0.002736
3416.000000	0.002758
3415.000000	0.002790
3414.000000	0.002815
3413.000000	0.002822
3412.000000	0.002820
3411.000000	0.002831
3410.000000	0.002864
3409.000000	0.002906
3408.000000	0.002937
3407.000000	0.002946
3406.000000	0.002939
3405.000000	0.002930
3404.000000	0.002930
3403.000000	0.002943
3402.000000	0.002967
3401.000000	0.002995
3400.000000	0.003015
3399.000000	0.003020
3398.000000	0.003014
3397.000000	0.003011
3396.000000	0.003023
3395.000000	0.003047
3394.000000	0.003065
3393.000000	0.003060
3392.000000	0.003030
3391.000000	0.002994
3390.000000	0.002972
3389.000000	0.002969
3388.000000	0.002973
3387.000000	0.002967
3386.000000	0.002946
3385.000000	0.002918
3384.000000	0.002897
3383.000000	0.002892
3382.000000	0.002896
3381.000000	0.002898
3380.000000	0.002892
3379.000000	0.002883
3378.000000	0.002881
3377.000000	0.002886
3376.000000	0.002891
3375.000000	0.002889
3374.000000	0.002879
3373.000000	0.002864
3372.000000	0.002853
3371.000000	0.002851
3370.000000	0.002863
3369.000000	0.002884
3368.000000	0.002905
3367.000000	0.002915
3366.000000	0.002906
3365.000000	0.002879
3364.000000	0.002847
3363.000000	0.002823
3362.000000	0.002811
3361.000000	0.002807
3360.000000	0.002800
3359.000000	0.002791
3358.000000	0.002787
3357.000000	0.002792
3356.000000	0.002803
3355.000000	0.002815
3354.000000	0.002825
3353.000000	0.002836
3352.000000	0.002850
3351.000000	0.002862
3350.000000	0.002867
3349.000000	0.002864
3348.000000	0.002854
3347.000000	0.002841
3346.000000	0.002829
3345.000000	0.002820
3344.000000	0.002813
3343.000000	0.002808
3342.000000	0.002808
3341.000000	0.002818
3340.000000	0.002840
3339.000000	0.002872
3338.000000	0.002907
3337.000000	0.002936
3336.000000	0.002947
3335.000000	0.002933
3334.000000	0.002904
3333.000000	0.002883
3332.000000	0.002881
3331.000000	0.002890
3330.000000	0.002896
3329.000000	0.002891
3328.000000	0.002882
3327.000000	0.002875
3326.000000	0.002872
3325.000000	0.002869
3324.000000	0.002867
3323.000000	0.002863
3322.000000	0.002856
3321.000000	0.002847
3320.000000	0.002843
3319.000000	0.002851
3318.000000	0.002874
3317.000000	0.002908
3316.000000	0.002946
3315.000000	0.002977
3314.000000	0.002994
3313.000000	0.002996
3312.000000	0.002989
3311.000000	0.002979
3310.000000	0.002971
3309.000000	0.002966
3308.000000	0.002964
3307.000000	0.002967
3306.000000	0.002975
3305.000000	0.002986
3304.000000	0.002996
3303.000000	0.002997
3302.000000	0.002986
3301.000000	0.002963
3300.000000	0.002936
3299.000000	0.002919
3298.000000	0.002921
3297.000000	0.002936
3296.000000	0.002952
3295.000000	0.002958
3294.000000	0.002954
3293.000000	0.002949
3292.000000	0.002951
3291.000000	0.002966
3290.000000	0.002985
3289.000000	0.002995
3288.000000	0.002985
3287.000000	0.002959
3286.000000	0.002931
3285.000000	0.002913
3284.000000	0.002910
3283.000000	0.002912
3282.000000	0.002912
3281.000000	0.002903
3280.000000	0.002886
3279.000000	0.002869
3278.000000	0.002863
3277.000000	0.002872
3276.000000	0.002889
3275.000000	0.002907
3274.000000	0.002915
3273.000000	0.002910
3272.000000	0.002894
3271.000000	0.002877
3270.000000	0.002873
3269.000000	0.002888
3268.000000	0.002913
3267.000000	0.002929
3266.000000	0.002930
3265.000000	0.002919
3264.000000	0.002909
3263.000000	0.002904
3262.000000	0.002899
3261.000000	0.002891
3260.000000	0.002882
3259.000000	0.002879
3258.000000	0.002886
3257.000000	0.002895
3256.000000	0.002895
3255.000000	0.002881
3254.000000	0.002862
3253.000000	0.002850
3252.000000	0.002848
3251.000000	0.002849
3250.000000	0.002846
3249.000000	0.002840
3248.000000	0.002841
3247.000000	0.002853
3246.000000	0.002872
3245.000000	0.002888
3244.000000	0.002893
3243.000000	0.002885
3242.000000	0.002869
3241.000000	0.002854
3240.000000	0.002845
3239.000000	0.002845
3238.000000	0.002845
3237.000000	0.002838
3236.000000	0.002817
3235.000000	0.002781
3234.000000	0.002745
3233.000000	0.002721
3232.000000	0.002719
3231.000000	0.002730
3230.000000	0.002737
3229.000000	0.002733
3228.000000	0.002720
3227.000000	0.002705
3226.000000	0.002694
3225.000000	0.002691
3224.000000	0.002702
3223.000000	0.002721
3222.000000	0.002738
3221.000000	0.002742
3220.000000	0.002734
3219.000000	0.002721
3218.000000	0.002712
3217.000000	0.002703
3216.000000	0.002694
3215.000000	0.002685
3214.000000	0.002679
3213.000000	0.002673
3212.000000	0.002658
3211.000000	0.002633
3210.000000	0.002604
3209.000000	0.002584
3208.000000	0.002584
3207.000000	0.002605
3206.000000	0.002635
3205.000000	0.002662
3204.000000	0.002670
3203.000000	0.002656
3202.000000	0.002627
3201.000000	0.002596
3200.000000	0.002577
3199.000000	0.002576
3198.000000	0.002594
3197.000000	0.002619
3196.000000	0.002635
3195.000000	0.002632
3194.000000	0.002609
3193.000000	0.002578
3192.000000	0.002553
3191.000000	0.002537
3190.000000	0.002525
3189.000000	0.002510
3188.000000	0.002493
3187.000000	0.002480
3186.000000	0.002477
3185.000000	0.002484
3184.000000	0.002499
3183.000000	0.002518
3182.000000	0.002536
3181.000000	0.002550
3180.000000	0.002558
3179.000000	0.002557
3178.000000	0.002547
3177.000000	0.002530
3176.000000	0.002517
3175.000000	0.002510
3174.000000	0.002504
3173.000000	0.002489
3172.000000	0.002464
3171.000000	0.002441
3170.000000	0.002426
3169.000000	0.002414
3168.000000	0.002398
3167.000000	0.002380
3166.000000	0.002371
3165.000000	0.002377
3164.000000	0.002392
3163.000000	0.002405
3162.000000	0.002411
3161.000000	0.002412
3160.000000	0.002412
3159.000000	0.002414
3158.000000	0.002414
3157.000000	0.002412
3156.000000	0.002412
3155.000000	0.002422
3154.000000	0.002437
3153.000000	0.002446
3152.000000	0.002437
3151.000000	0.002415
3150.000000	0.002392
3149.000000	0.002378
3148.000000	0.002375
3147.000000	0.002381
3146.000000	0.002390
3145.000000	0.002397
3144.000000	0.002400
3143.000000	0.002399
3142.000000	0.002399
3141.000000	0.002397
3140.000000	0.002389
3139.000000	0.002374
3138.000000	0.002356
3137.000000	0.002337
3136.000000	0.002314
3135.000000	0.002287
3134.000000	0.002263
3133.000000	0.002252
3132.000000	0.002259
3131.000000	0.002276
3130.000000	0.002290
3129.000000	0.002294
3128.000000	0.002289
3127.000000	0.002285
3126.000000	0.002285
3125.000000	0.002287
3124.000000	0.002290
3123.000000	0.002298
3122.000000	0.002319
3121.000000	0.002347
3120.000000	0.002368
3119.000000	0.002367
3118.000000	0.002343
3117.000000	0.002311
3116.000000	0.002285
3115.000000	0.002272
3114.000000	0.002267
3113.000000	0.002265
3112.000000	0.002267
3111.000000	0.002276
3110.000000	0.002288
3109.000000	0.002290
3108.000000	0.002271
3107.000000	0.002233
3106.000000	0.002193
3105.000000	0.002169
3104.000000	0.002167
3103.000000	0.002178
3102.000000	0.002188
3101.000000	0.002188
3100.000000	0.002184
3099.000000	0.002185
3098.000000	0.002195
3097.000000	0.002205
3096.000000	0.002203
3095.000000	0.002187
3094.000000	0.002174
3093.000000	0.002178
3092.000000	0.002199
3091.000000	0.002218
3090.000000	0.002218
3089.000000	0.002196
3088.000000	0.002165
3087.000000	0.002145
3086.000000	0.002142
3085.000000	0.002150
3084.000000	0.002156
3083.000000	0.002155
3082.000000	0.002149
3081.000000	0.002141
3080.000000	0.002138
3079.000000	0.002145
3078.000000	0.002164
3077.000000	0.002187
3076.000000	0.002200
3075.000000	0.002194
3074.000000	0.002177
3073.000000	0.002162
3072.000000	0.002155
3071.000000	0.002150
3070.000000	0.002138
3069.000000	0.002120
3068.000000	0.002107
3067.000000	0.002106
3066.000000	0.002114
3065.000000	0.002122
3064.000000	0.002123
3063.000000	0.002121
3062.000000	0.002125
3061.000000	0.002138
3060.000000	0.002154
3059.000000	0.002165
3058.000000	0.002166
3057.000000	0.002156
3056.000000	0.002140
3055.000000	0.002127
3054.000000	0.002121
3053.000000	0.002118
3052.000000	0.002108
3051.000000	0.002092
3050.000000	0.002083
3049.000000	0.002090
3048.000000	0.002105
3047.000000	0.002114
3046.000000	0.002112
3045.000000	0.002104
3044.000000	0.002096
3043.000000	0.002089
3042.000000	0.002082
3041.000000	0.002076
3040.000000	0.002070
3039.000000	0.002057
3038.000000	0.002034
3037.000000	0.002009
3036.000000	0.001996
3035.000000	0.002006
3034.000000	0.002035
3033.000000	0.002072
3032.000000	0.002100
3031.000000	0.002110
3030.000000	0.002104
3029.000000	0.002090
3028.000000	0.002080
3027.000000	0.002078
3026.000000	0.002088
3025.000000	0.002103
3024.000000	0.002115
3023.000000	0.002116
3022.000000	0.002108
3021.000000	0.002099
3020.000000	0.002097
3019.000000	0.002101
3018.000000	0.002104
3017.000000	0.002106
3016.000000	0.002110
3015.000000	0.002117
3014.000000	0.002122
3013.000000	0.002120
3012.000000	0.002112
3011.000000	0.002106
3010.000000	0.002111
3009.000000	0.002128
3008.000000	0.002151
3007.000000	0.002173
3006.000000	0.002190
3005.000000	0.002199
3004.000000	0.002197
3003.000000	0.002188
3002.000000	0.002182
3001.000000	0.002189
3000.000000	0.002211
2999.000000	0.002242
2998.000000	0.002275
2997.000000	0.002306
2996.000000	0.002335
2995.000000	0.002364
2994.000000	0.002398
2993.000000	0.002433
2992.000000	0.002465
2991.000000	0.002486
2990.000000	0.002500
2989.000000	0.002509
2988.000000	0.002519
2987.000000	0.002533
2986.000000	0.002554
2985.000000	0.002586
2984.000000	0.002626
2983.000000	0.002666
2982.000000	0.002703
2981.000000	0.002737
2980.000000	0.002774
2979.000000	0.002821
2978.000000	0.002877
2977.000000	0.002941
2976.000000	0.003005
2975.000000	0.003065
2974.000000	0.003120
2973.000000	0.003171
2972.000000	0.003225
2971.000000	0.003287
2970.000000	0.003360
2969.000000	0.003441
2968.000000	0.003520
2967.000000	0.003590
2966.000000	0.003653
2965.000000	0.003712
2964.000000	0.003765
2963.000000	0.003812
2962.000000	0.003855
2961.000000	0.003897
2960.000000	0.003928
2959.000000	0.003936
2958.000000	0.003917
2957.000000	0.003885
2956.000000	0.003853
2955.000000	0.003824
2954.000000	0.003794
2953.000000	0.003760
2952.000000	0.003726
2951.000000	0.003698
2950.000000	0.003678
2949.000000	0.003665
2948.000000	0.003660
2947.000000	0.003667
2946.000000	0.003690
2945.000000	0.003729
2944.000000	0.003779
2943.000000	0.003834
2942.000000	0.003891
2941.000000	0.003947
2940.000000	0.003997
2939.000000	0.004043
2938.000000	0.004093
2937.000000	0.004158
2936.000000	0.004240
2935.000000	0.004325
2934.000000	0.004392
2933.000000	0.004433
2932.000000	0.004451
2931.000000	0.004460
2930.000000	0.004468
2929.000000	0.004476
2928.000000	0.004474
2927.000000	0.004455
2926.000000	0.004424
2925.000000	0.004391
2924.000000	0.004361
2923.000000	0.004325
2922.000000	0.004269
2921.000000	0.004195
2920.000000	0.004116
2919.000000	0.004047
2918.000000	0.003996
2917.000000	0.003960
2916.000000	0.003932
2915.000000	0.003906
2914.000000	0.003878
2913.000000	0.003846
2912.000000	0.003814
2911.000000	0.003785
2910.000000	0.003764
2909.000000	0.003750
2908.000000	0.003740
2907.000000	0.003729
2906.000000	0.003710
2905.000000	0.003676
2904.000000	0.003630
2903.000000	0.003577
2902.000000	0.003532
2901.000000	0.003498
2900.000000	0.003469
2899.000000	0.003432
2898.000000	0.003386
2897.000000	0.003340
2896.000000	0.003303
2895.000000	0.003271
2894.000000	0.003237
2893.000000	0.003193
2892.000000	0.003142
2891.000000	0.003095
2890.000000	0.003061
2889.000000	0.003043
2888.000000	0.003039
2887.000000	0.003042
2886.000000	0.003045
2885.000000	0.003048
2884.000000	0.003055
2883.000000	0.003072
2882.000000	0.003100
2881.000000	0.003141
2880.000000	0.003192
2879.000000	0.003242
2878.000000	0.003281
2877.000000	0.003303
2876.000000	0.003311
2875.000000	0.003316
2874.000000	0.003327
2873.000000	0.003346
2872.000000	0.003369
2871.000000	0.003385
2870.000000	0.003391
2869.000000	0.003392
2868.000000	0.003395
2867.000000	0.003405
2866.000000	0.003420
2865.000000	0.003436
2864.000000	0.003450
2863.000000	0.003467
2862.000000	0.003489
2861.000000	0.003514
2860.000000	0.003539
2859.000000	0.003559
2858.000000	0.003579
2857.000000	0.003595
2856.000000	0.003599
2855.000000	0.003577
2854.000000	0.003527
2853.000000	0.003454
2852.000000	0.003363
2851.000000	0.003260
2850.000000	0.003152
2849.000000	0.003055
2848.000000	0.002982
2847.000000	0.002937
2846.000000	0.002916
2845.000000	0.002906
2844.000000	0.002892
2843.000000	0.002862
2842.000000	0.002816
2841.000000	0.002761
2840.000000	0.002705
2839.000000	0.002649
2838.000000	0.002598
2837.000000	0.002557
2836.000000	0.002535
2835.000000	0.002530
2834.000000	0.002533
2833.000000	0.002536
2832.000000	0.002532
2831.000000	0.002523
2830.000000	0.002509
2829.000000	0.002498
2828.000000	0.002492
2827.000000	0.002483
2826.000000	0.002468
2825.000000	0.002449
2824.000000	0.002438
2823.000000	0.002441
2822.000000	0.002450
2821.000000	0.002453
2820.000000	0.002442
2819.000000	0.002423
2818.000000	0.002403
2817.000000	0.002390
2816.000000	0.002385
2815.000000	0.002386
2814.000000	0.002383
2813.000000	0.002368
2812.000000	0.002341
2811.000000	0.002312
2810.000000	0.002294
2809.000000	0.002292
2808.000000	0.002301
2807.000000	0.002310
2806.000000	0.002310
2805.000000	0.002304
2804.000000	0.002299
2803.000000	0.002304
2802.000000	0.002316
2801.000000	0.002329
2800.000000	0.002338
2799.000000	0.002340
2798.000000	0.002338
2797.000000	0.002335
2796.000000	0.002333
2795.000000	0.002331
2794.000000	0.002329
2793.000000	0.002327
2792.000000	0.002325
2791.000000	0.002327
2790.000000	0.002328
2789.000000	0.002325
2788.000000	0.002316
2787.000000	0.002301
2786.000000	0.002282
2785.000000	0.002261
2784.000000	0.002239
2783.000000	0.002221
2782.000000	0.002213
2781.000000	0.002217
2780.000000	0.002228
2779.000000	0.002238
2778.000000	0.002242
2777.000000	0.002244
2776.000000	0.002250
2775.000000	0.002260
2774.000000	0.002271
2773.000000	0.002277
2772.000000	0.002274
2771.000000	0.002265
2770.000000	0.002261
2769.000000	0.002265
2768.000000	0.002276
2767.000000	0.002284
2766.000000	0.002281
2765.000000	0.002267
2764.000000	0.002247
2763.000000	0.002229
2762.000000	0.002218
2761.000000	0.002216
2760.000000	0.002221
2759.000000	0.002230
2758.000000	0.002244
2757.000000	0.002262
2756.000000	0.002278
2755.000000	0.002284
2754.000000	0.002277
2753.000000	0.002262
2752.000000	0.002247
2751.000000	0.002237
2750.000000	0.002237
2749.000000	0.002244
2748.000000	0.002254
2747.000000	0.002256
2746.000000	0.002245
2745.000000	0.002223
2744.000000	0.002203
2743.000000	0.002195
2742.000000	0.002199
2741.000000	0.002206
2740.000000	0.002204
2739.000000	0.002192
2738.000000	0.002175
2737.000000	0.002165
2736.000000	0.002164
2735.000000	0.002169
2734.000000	0.002173
2733.000000	0.002174
2732.000000	0.002174
2731.000000	0.002178
2730.000000	0.002190
2729.000000	0.002205
2728.000000	0.002217
2727.000000	0.002215
2726.000000	0.002203
2725.000000	0.002190
2724.000000	0.002186
2723.000000	0.002190
2722.000000	0.002195
2721.000000	0.002198
2720.000000	0.002198
2719.000000	0.002195
2718.000000	0.002190
2717.000000	0.002186
2716.000000	0.002184
2715.000000	0.002184
2714.000000	0.002184
2713.000000	0.002186
2712.000000	0.002187
2711.000000	0.002187
2710.000000	0.002186
2709.000000	0.002186
2708.000000	0.002191
2707.000000	0.002197
2706.000000	0.002197
2705.000000	0.002190
2704.000000	0.002185
2703.000000	0.002188
2702.000000	0.002196
2701.000000	0.002206
2700.000000	0.002213
2699.000000	0.002217
2698.000000	0.002218
2697.000000	0.002215
2696.000000	0.002206
2695.000000	0.002195
2694.000000	0.002188
2693.000000	0.002188
2692.000000	0.002194
2691.000000	0.002198
2690.000000	0.002194
2689.000000	0.002181
2688.000000	0.002171
2687.000000	0.002171
2686.000000	0.002178
2685.000000	0.002181
2684.000000	0.002173
2683.000000	0.002157
2682.000000	0.002139
2681.000000	0.002123
2680.000000	0.002108
2679.000000	0.002093
2678.000000	0.002082
2677.000000	0.002083
2676.000000	0.002096
2675.000000	0.002115
2674.000000	0.002130
2673.000000	0.002132
2672.000000	0.002120
2671.000000	0.002104
2670.000000	0.002094
2669.000000	0.002098
2668.000000	0.002113
2667.000000	0.002135
2666.000000	0.002161
2665.000000	0.002187
2664.000000	0.002210
2663.000000	0.002226
2662.000000	0.002232
2661.000000	0.002230
2660.000000	0.002222
2659.000000	0.002211
2658.000000	0.002198
2657.000000	0.002182
2656.000000	0.002166
2655.000000	0.002156
2654.000000	0.002158
2653.000000	0.002171
2652.000000	0.002188
2651.000000	0.002196
2650.000000	0.002189
2649.000000	0.002171
2648.000000	0.002151
2647.000000	0.002135
2646.000000	0.002126
2645.000000	0.002128
2644.000000	0.002143
2643.000000	0.002165
2642.000000	0.002182
2641.000000	0.002182
2640.000000	0.002164
2639.000000	0.002138
2638.000000	0.002120
2637.000000	0.002122
2636.000000	0.002144
2635.000000	0.002169
2634.000000	0.002177
2633.000000	0.002156
2632.000000	0.002112
2631.000000	0.002061
2630.000000	0.002025
2629.000000	0.002015
2628.000000	0.002031
2627.000000	0.002060
2626.000000	0.002086
2625.000000	0.002097
2624.000000	0.002095
2623.000000	0.002085
2622.000000	0.002072
2621.000000	0.002059
2620.000000	0.002046
2619.000000	0.002036
2618.000000	0.002031
2617.000000	0.002034
2616.000000	0.002047
2615.000000	0.002067
2614.000000	0.002088
2613.000000	0.002102
2612.000000	0.002111
2611.000000	0.002117
2610.000000	0.002119
2609.000000	0.002112
2608.000000	0.002099
2607.000000	0.002082
2606.000000	0.002066
2605.000000	0.002051
2604.000000	0.002041
2603.000000	0.002039
2602.000000	0.002046
2601.000000	0.002058
2600.000000	0.002062
2599.000000	0.002052
2598.000000	0.002029
2597.000000	0.002003
2596.000000	0.001980
2595.000000	0.001963
2594.000000	0.001953
2593.000000	0.001942
2592.000000	0.001923
2591.000000	0.001896
2590.000000	0.001867
2589.000000	0.001851
2588.000000	0.001858
2587.000000	0.001885
2586.000000	0.001921
2585.000000	0.001950
2584.000000	0.001962
2583.000000	0.001958
2582.000000	0.001945
2581.000000	0.001928
2580.000000	0.001913
2579.000000	0.001910
2578.000000	0.001922
2577.000000	0.001948
2576.000000	0.001975
2575.000000	0.001994
2574.000000	0.002003
2573.000000	0.002004
2572.000000	0.001999
2571.000000	0.001990
2570.000000	0.001983
2569.000000	0.001987
2568.000000	0.002006
2567.000000	0.002028
2566.000000	0.002035
2565.000000	0.002018
2564.000000	0.001977
2563.000000	0.001932
2562.000000	0.001904
2561.000000	0.001901
2560.000000	0.001908
2559.000000	0.001904
2558.000000	0.001880
2557.000000	0.001854
2556.000000	0.001843
2555.000000	0.001842
2554.000000	0.001833
2553.000000	0.001806
2552.000000	0.001775
2551.000000	0.001764
2550.000000	0.001790
2549.000000	0.001847
2548.000000	0.001912
2547.000000	0.001958
2546.000000	0.001971
2545.000000	0.001959
2544.000000	0.001943
2543.000000	0.001942
2542.000000	0.001957
2541.000000	0.001974
2540.000000	0.001974
2539.000000	0.001954
2538.000000	0.001925
2537.000000	0.001907
2536.000000	0.001913
2535.000000	0.001937
2534.000000	0.001962
2533.000000	0.001974
2532.000000	0.001971
2531.000000	0.001965
2530.000000	0.001973
2529.000000	0.001998
2528.000000	0.002030
2527.000000	0.002051
2526.000000	0.002055
2525.000000	0.002044
2524.000000	0.002021
2523.000000	0.001986
2522.000000	0.001946
2521.000000	0.001919
2520.000000	0.001916
2519.000000	0.001935
2518.000000	0.001958
2517.000000	0.001972
2516.000000	0.001978
2515.000000	0.001983
2514.000000	0.001995
2513.000000	0.002016
2512.000000	0.002044
2511.000000	0.002067
2510.000000	0.002076
2509.000000	0.002065
2508.000000	0.002033
2507.000000	0.001985
2506.000000	0.001934
2505.000000	0.001898
2504.000000	0.001879
2503.000000	0.001866
2502.000000	0.001851
2501.000000	0.001846
2500.000000	0.001863
2499.000000	0.001895
2498.000000	0.001924
2497.000000	0.001940
2496.000000	0.001952
2495.000000	0.001963
2494.000000	0.001967
2493.000000	0.001957
2492.000000	0.001935
2491.000000	0.001910
2490.000000	0.001888
2489.000000	0.001867
2488.000000	0.001848
2487.000000	0.001832
2486.000000	0.001820
2485.000000	0.001820
2484.000000	0.001840
2483.000000	0.001876
2482.000000	0.001903
2481.000000	0.001901
2480.000000	0.001877
2479.000000	0.001849
2478.000000	0.001829
2477.000000	0.001806
2476.000000	0.001770
2475.000000	0.001729
2474.000000	0.001703
2473.000000	0.001711
2472.000000	0.001752
2471.000000	0.001812
2470.000000	0.001871
2469.000000	0.001917
2468.000000	0.001940
2467.000000	0.001930
2466.000000	0.001887
2465.000000	0.001828
2464.000000	0.001793
2463.000000	0.001811
2462.000000	0.001867
2461.000000	0.001920
2460.000000	0.001938
2459.000000	0.001922
2458.000000	0.001882
2457.000000	0.001835
2456.000000	0.001797
2455.000000	0.001791
2454.000000	0.001821
2453.000000	0.001869
2452.000000	0.001906
2451.000000	0.001922
2450.000000	0.001928
2449.000000	0.001930
2448.000000	0.001927
2447.000000	0.001913
2446.000000	0.001896
2445.000000	0.001887
2444.000000	0.001896
2443.000000	0.001918
2442.000000	0.001936
2441.000000	0.001925
2440.000000	0.001876
2439.000000	0.001813
2438.000000	0.001771
2437.000000	0.001767
2436.000000	0.001793
2435.000000	0.001832
2434.000000	0.001878
2433.000000	0.001925
2432.000000	0.001961
2431.000000	0.001969
2430.000000	0.001945
2429.000000	0.001901
2428.000000	0.001856
2427.000000	0.001832
2426.000000	0.001844
2425.000000	0.001888
2424.000000	0.001936
2423.000000	0.001958
2422.000000	0.001941
2421.000000	0.001896
2420.000000	0.001846
2419.000000	0.001802
2418.000000	0.001769
2417.000000	0.001751
2416.000000	0.001749
2415.000000	0.001765
2414.000000	0.001793
2413.000000	0.001824
2412.000000	0.001847
2411.000000	0.001854
2410.000000	0.001839
2409.000000	0.001808
2408.000000	0.001777
2407.000000	0.001767
2406.000000	0.001783
2405.000000	0.001811
2404.000000	0.001829
2403.000000	0.001827
2402.000000	0.001811
2401.000000	0.001794
2400.000000	0.001780
2399.000000	0.001766
2398.000000	0.001750
2397.000000	0.001741
2396.000000	0.001745
2395.000000	0.001764
2394.000000	0.001785
2393.000000	0.001795
2392.000000	0.001788
2391.000000	0.001774
2390.000000	0.001770
2389.000000	0.001779
2388.000000	0.001785
2387.000000	0.001771
2386.000000	0.001743
2385.000000	0.001716
2384.000000	0.001699
2383.000000	0.001687
2382.000000	0.001671
2381.000000	0.001651
2380.000000	0.001633
2379.000000	0.001625
2378.000000	0.001630
2377.000000	0.001646
2376.000000	0.001667
2375.000000	0.001687
2374.000000	0.001697
2373.000000	0.001684
2372.000000	0.001645
2371.000000	0.001599
2370.000000	0.001577
2369.000000	0.001581
2368.000000	0.001582
2367.000000	0.001570
2366.000000	0.001569
2365.000000	0.001597
2364.000000	0.001631
2363.000000	0.001643
2362.000000	0.001638
2361.000000	0.001635
2360.000000	0.001642
2359.000000	0.001651
2358.000000	0.001648
2357.000000	0.001633
2356.000000	0.001617
2355.000000	0.001631
2354.000000	0.001657
2353.000000	0.001649
2352.000000	0.001596
2351.000000	0.001552
2350.000000	0.001559
2349.000000	0.001613
2348.000000	0.001676
2347.000000	0.001704
2346.000000	0.001686
2345.000000	0.001669
2344.000000	0.001699
2343.000000	0.001768
2342.000000	0.001827
2341.000000	0.001845
2340.000000	0.001835
2339.000000	0.001825
2338.000000	0.001814
2337.000000	0.001789
2336.000000	0.001754
2335.000000	0.001724
2334.000000	0.001697
2333.000000	0.001657
2332.000000	0.001621
2331.000000	0.001619
2330.000000	0.001669
2329.000000	0.001745
2328.000000	0.001824
2327.000000	0.001887
2326.000000	0.001928
2325.000000	0.001941
2324.000000	0.001932
2323.000000	0.001909
2322.000000	0.001886
2321.000000	0.001883
2320.000000	0.001921
2319.000000	0.001990
2318.000000	0.002065
2317.000000	0.002110
2316.000000	0.002107
2315.000000	0.002051
2314.000000	0.001967
2313.000000	0.001893
2312.000000	0.001865
2311.000000	0.001869
2310.000000	0.001880
2309.000000	0.001882
2308.000000	0.001887
2307.000000	0.001898
2306.000000	0.001897
2305.000000	0.001869
2304.000000	0.001823
2303.000000	0.001778
2302.000000	0.001753
2301.000000	0.001757
2300.000000	0.001795
2299.000000	0.001849
2298.000000	0.001899
2297.000000	0.001924
2296.000000	0.001928
2295.000000	0.001915
2294.000000	0.001885
2293.000000	0.001845
2292.000000	0.001815
2291.000000	0.001811
2290.000000	0.001841
2289.000000	0.001905
2288.000000	0.001994
2287.000000	0.002084
2286.000000	0.002140
2285.000000	0.002151
2284.000000	0.002136
2283.000000	0.002117
2282.000000	0.002095
2281.000000	0.002054
2280.000000	0.002003
2279.000000	0.001965
2278.000000	0.001952
2277.000000	0.001948
2276.000000	0.001936
2275.000000	0.001909
2274.000000	0.001872
2273.000000	0.001827
2272.000000	0.001781
2271.000000	0.001746
2270.000000	0.001742
2269.000000	0.001770
2268.000000	0.001804
2267.000000	0.001801
2266.000000	0.001747
2265.000000	0.001687
2264.000000	0.001689
2263.000000	0.001781
2262.000000	0.001914
2261.000000	0.002012
2260.000000	0.002040
2259.000000	0.002018
2258.000000	0.001985
2257.000000	0.001967
2256.000000	0.001974
2255.000000	0.002001
2254.000000	0.002031
2253.000000	0.002048
2252.000000	0.002042
2251.000000	0.002016
2250.000000	0.001969
2249.000000	0.001906
2248.000000	0.001848
2247.000000	0.001820
2246.000000	0.001820
2245.000000	0.001818
2244.000000	0.001796
2243.000000	0.001780
2242.000000	0.001814
2241.000000	0.001908
2240.000000	0.002011
2239.000000	0.002049
2238.000000	0.001996
2237.000000	0.001894
2236.000000	0.001813
2235.000000	0.001798
2234.000000	0.001840
2233.000000	0.001905
2232.000000	0.001958
2231.000000	0.001978
2230.000000	0.001956
2229.000000	0.001888
2228.000000	0.001791
2227.000000	0.001707
2226.000000	0.001693
2225.000000	0.001771
2224.000000	0.001884
2223.000000	0.001937
2222.000000	0.001888
2221.000000	0.001788
2220.000000	0.001723
2219.000000	0.001714
2218.000000	0.001723
2217.000000	0.001721
2216.000000	0.001713
2215.000000	0.001698
2214.000000	0.001644
2213.000000	0.001540
2212.000000	0.001441
2211.000000	0.001416
2210.000000	0.001481
2209.000000	0.001583
2208.000000	0.001662
2207.000000	0.001700
2206.000000	0.001704
2205.000000	0.001683
2204.000000	0.001651
2203.000000	0.001625
2202.000000	0.001619
2201.000000	0.001622
2200.000000	0.001614
2199.000000	0.001598
2198.000000	0.001612
2197.000000	0.001694
2196.000000	0.001813
2195.000000	0.001881
2194.000000	0.001826
2193.000000	0.001681
2192.000000	0.001553
2191.000000	0.001529
2190.000000	0.001610
2189.000000	0.001739
2188.000000	0.001857
2187.000000	0.001929
2186.000000	0.001945
2185.000000	0.001927
2184.000000	0.001896
2183.000000	0.001833
2182.000000	0.001691
2181.000000	0.001466
2180.000000	0.001235
2179.000000	0.001093
2178.000000	0.001073
2177.000000	0.001144
2176.000000	0.001248
2175.000000	0.001322
2174.000000	0.001319
2173.000000	0.001252
2172.000000	0.001213
2171.000000	0.001289
2170.000000	0.001475
2169.000000	0.001678
2168.000000	0.001802
2167.000000	0.001819
2166.000000	0.001766
2165.000000	0.001729
2164.000000	0.001796
2163.000000	0.001980
2162.000000	0.002170
2161.000000	0.002198
2160.000000	0.001985
2159.000000	0.001625
2158.000000	0.001298
2157.000000	0.001124
2156.000000	0.001099
2155.000000	0.001142
2154.000000	0.001172
2153.000000	0.001175
2152.000000	0.001203
2151.000000	0.001297
2150.000000	0.001412
2149.000000	0.001455
2148.000000	0.001391
2147.000000	0.001287
2146.000000	0.001224
2145.000000	0.001225
2144.000000	0.001275
2143.000000	0.001378
2142.000000	0.001536
2141.000000	0.001702
2140.000000	0.001800
2139.000000	0.001795
2138.000000	0.001718
2137.000000	0.001630
2136.000000	0.001557
2135.000000	0.001486
2134.000000	0.001401
2133.000000	0.001318
2132.000000	0.001275
2131.000000	0.001293
2130.000000	0.001356
2129.000000	0.001431
2128.000000	0.001495
2127.000000	0.001540
2126.000000	0.001555
2125.000000	0.001536
2124.000000	0.001509
2123.000000	0.001518
2122.000000	0.001573
2121.000000	0.001644
2120.000000	0.001706
2119.000000	0.001772
2118.000000	0.001861
2117.000000	0.001957
2116.000000	0.002012
2115.000000	0.002002
2114.000000	0.001939
2113.000000	0.001856
2112.000000	0.001784
2111.000000	0.001755
2110.000000	0.001781
2109.000000	0.001839
2108.000000	0.001879
2107.000000	0.001873
2106.000000	0.001837
2105.000000	0.001805
2104.000000	0.001810
2103.000000	0.001858
2102.000000	0.001921
2101.000000	0.001949
2100.000000	0.001917
2099.000000	0.001852
2098.000000	0.001804
2097.000000	0.001780
2096.000000	0.001741
2095.000000	0.001675
2094.000000	0.001626
2093.000000	0.001643
2092.000000	0.001715
2091.000000	0.001788
2090.000000	0.001826
2089.000000	0.001834
2088.000000	0.001840
2087.000000	0.001864
2086.000000	0.001908
2085.000000	0.001950
2084.000000	0.001967
2083.000000	0.001963
2082.000000	0.001971
2081.000000	0.002014
2080.000000	0.002070
2079.000000	0.002099
2078.000000	0.002089
2077.000000	0.002059
2076.000000	0.002017
2075.000000	0.001954
2074.000000	0.001874
2073.000000	0.001803
2072.000000	0.001757
2071.000000	0.001727
2070.000000	0.001704
2069.000000	0.001704
2068.000000	0.001745
2067.000000	0.001823
2066.000000	0.001915
2065.000000	0.001998
2064.000000	0.002055
2063.000000	0.002062
2062.000000	0.002002
2061.000000	0.001884
2060.000000	0.001758
2059.000000	0.001678
2058.000000	0.001663
2057.000000	0.001688
2056.000000	0.001722
2055.000000	0.001771
2054.000000	0.001870
2053.000000	0.002032
2052.000000	0.002195
2051.000000	0.002268
2050.000000	0.002203
2049.000000	0.002041
2048.000000	0.001892
2047.000000	0.001857
2046.000000	0.001943
2045.000000	0.002054
2044.000000	0.002059
2043.000000	0.001918
2042.000000	0.001719
2041.000000	0.001597
2040.000000	0.001592
2039.000000	0.001649
2038.000000	0.001711
2037.000000	0.001775
2036.000000	0.001841
2035.000000	0.001861
2034.000000	0.001770
2033.000000	0.001548
2032.000000	0.001241
2031.000000	0.000948
2030.000000	0.000784
2029.000000	0.000802
2028.000000	0.000939
2027.000000	0.001070
2026.000000	0.001134
2025.000000	0.001162
2024.000000	0.001177
2023.000000	0.001155
2022.000000	0.001089
2021.000000	0.001027
2020.000000	0.001001
2019.000000	0.000978
2018.000000	0.000945
2017.000000	0.000982
2016.000000	0.001165
2015.000000	0.001419
2014.000000	0.001566
2013.000000	0.001516
2012.000000	0.001368
2011.000000	0.001288
2010.000000	0.001330
2009.000000	0.001413
2008.000000	0.001440
2007.000000	0.001407
2006.000000	0.001384
2005.000000	0.001426
2004.000000	0.001524
2003.000000	0.001624
2002.000000	0.001662
2001.000000	0.001592
2000.000000	0.001429
1999.000000	0.001268
1998.000000	0.001220
1997.000000	0.001313
1996.000000	0.001449
1995.000000	0.001510
1994.000000	0.001486
1993.000000	0.001470
1992.000000	0.001525
1991.000000	0.001601
1990.000000	0.001621
1989.000000	0.001598
1988.000000	0.001609
1987.000000	0.001692
1986.000000	0.001798
1985.000000	0.001835
1984.000000	0.001751
1983.000000	0.001562
1982.000000	0.001341
1981.000000	0.001163
1980.000000	0.001063
1979.000000	0.001031
1978.000000	0.001046
1977.000000	0.001102
1976.000000	0.001194
1975.000000	0.001316
1974.000000	0.001459
1973.000000	0.001601
1972.000000	0.001682
1971.000000	0.001649
1970.000000	0.001536
1969.000000	0.001469
1968.000000	0.001552
1967.000000	0.001765
1966.000000	0.001970
1965.000000	0.002022
1964.000000	0.001866
1963.000000	0.001560
1962.000000	0.001235
1961.000000	0.001015
1960.000000	0.000925
1959.000000	0.000896
1958.000000	0.000872
1957.000000	0.000875
1956.000000	0.000952
1955.000000	0.001096
1954.000000	0.001237
1953.000000	0.001319
1952.000000	0.001340
1951.000000	0.001343
1950.000000	0.001363
1949.000000	0.001401
1948.000000	0.001439
1947.000000	0.001477
1946.000000	0.001534
1945.000000	0.001614
1944.000000	0.001673
1943.000000	0.001647
1942.000000	0.001528
1941.000000	0.001390
1940.000000	0.001317
1939.000000	0.001332
1938.000000	0.001412
1937.000000	0.001503
1936.000000	0.001542
1935.000000	0.001489
1934.000000	0.001367
1933.000000	0.001252
1932.000000	0.001211
1931.000000	0.001249
1930.000000	0.001321
1929.000000	0.001380
1928.000000	0.001404
1927.000000	0.001389
1926.000000	0.001346
1925.000000	0.001295
1924.000000	0.001263
1923.000000	0.001272
1922.000000	0.001324
1921.000000	0.001403
1920.000000	0.001484
1919.000000	0.001539
1918.000000	0.001544
1917.000000	0.001501
1916.000000	0.001443
1915.000000	0.001404
1914.000000	0.001395
1913.000000	0.001397
1912.000000	0.001381
1911.000000	0.001334
1910.000000	0.001285
1909.000000	0.001282
1908.000000	0.001335
1907.000000	0.001412
1906.000000	0.001476
1905.000000	0.001516
1904.000000	0.001533
1903.000000	0.001515
1902.000000	0.001454
1901.000000	0.001382
1900.000000	0.001359
1899.000000	0.001405
1898.000000	0.001482
1897.000000	0.001542
1896.000000	0.001572
1895.000000	0.001586
1894.000000	0.001581
1893.000000	0.001535
1892.000000	0.001449
1891.000000	0.001361
1890.000000	0.001329
1889.000000	0.001374
1888.000000	0.001452
1887.000000	0.001499
1886.000000	0.001487
1885.000000	0.001444
1884.000000	0.001415
1883.000000	0.001420
1882.000000	0.001437
1881.000000	0.001445
1880.000000	0.001445
1879.000000	0.001445
1878.000000	0.001439
1877.000000	0.001413
1876.000000	0.001368
1875.000000	0.001327
1874.000000	0.001311
1873.000000	0.001319
1872.000000	0.001332
1871.000000	0.001339
1870.000000	0.001343
1869.000000	0.001348
1868.000000	0.001354
1867.000000	0.001354
1866.000000	0.001346
1865.000000	0.001338
1864.000000	0.001337
1863.000000	0.001333
1862.000000	0.001309
1861.000000	0.001256
1860.000000	0.001190
1859.000000	0.001137
1858.000000	0.001116
1857.000000	0.001132
1856.000000	0.001180
1855.000000	0.001243
1854.000000	0.001295
1853.000000	0.001324
1852.000000	0.001327
1851.000000	0.001309
1850.000000	0.001274
1849.000000	0.001237
1848.000000	0.001213
1847.000000	0.001206
1846.000000	0.001217
1845.000000	0.001251
1844.000000	0.001312
1843.000000	0.001372
1842.000000	0.001387
1841.000000	0.001344
1840.000000	0.001267
1839.000000	0.001197
1838.000000	0.001161
1837.000000	0.001157
1836.000000	0.001160
1835.000000	0.001148
1834.000000	0.001121
1833.000000	0.001090
1832.000000	0.001062
1831.000000	0.001045
1830.000000	0.001057
1829.000000	0.001094
1828.000000	0.001123
1827.000000	0.001118
1826.000000	0.001087
1825.000000	0.001060
1824.000000	0.001058
1823.000000	0.001079
1822.000000	0.001109
1821.000000	0.001138
1820.000000	0.001160
1819.000000	0.001174
1818.000000	0.001185
1817.000000	0.001190
1816.000000	0.001176
1815.000000	0.001128
1814.000000	0.001051
1813.000000	0.000972
1812.000000	0.000932
1811.000000	0.000956
1810.000000	0.001023
1809.000000	0.001082
1808.000000	0.001104
1807.000000	0.001107
1806.000000	0.001119
1805.000000	0.001146
1804.000000	0.001176
1803.000000	0.001200
1802.000000	0.001221
1801.000000	0.001243
1800.000000	0.001259
1799.000000	0.001267
1798.000000	0.001266
1797.000000	0.001258
1796.000000	0.001249
1795.000000	0.001236
1794.000000	0.001212
1793.000000	0.001180
1792.000000	0.001154
1791.000000	0.001142
1790.000000	0.001130
1789.000000	0.001099
1788.000000	0.001055
1787.000000	0.001016
1786.000000	0.001002
1785.000000	0.001013
1784.000000	0.001033
1783.000000	0.001041
1782.000000	0.001043
1781.000000	0.001064
1780.000000	0.001109
1779.000000	0.001146
1778.000000	0.001141
1777.000000	0.001090
1776.000000	0.001018
1775.000000	0.000957
1774.000000	0.000937
1773.000000	0.000992
1772.000000	0.001102
1771.000000	0.001183
1770.000000	0.001188
1769.000000	0.001153
1768.000000	0.001134
1767.000000	0.001152
1766.000000	0.001181
1765.000000	0.001193
1764.000000	0.001187
1763.000000	0.001198
1762.000000	0.001267
1761.000000	0.001398
1760.000000	0.001540
1759.000000	0.001660
1758.000000	0.001789
1757.000000	0.001989
1756.000000	0.002257
1755.000000	0.002521
1754.000000	0.002749
1753.000000	0.002992
1752.000000	0.003319
1751.000000	0.003725
1750.000000	0.004132
1749.000000	0.004488
1748.000000	0.004792
1747.000000	0.005033
1746.000000	0.005207
1745.000000	0.005342
1744.000000	0.005462
1743.000000	0.005570
1742.000000	0.005659
1741.000000	0.005736
1740.000000	0.005799
1739.000000	0.005818
1738.000000	0.005760
1737.000000	0.005635
1736.000000	0.005477
1735.000000	0.005335
1734.000000	0.005233
1733.000000	0.005122
1732.000000	0.004929
1731.000000	0.004662
1730.000000	0.004379
1729.000000	0.004122
1728.000000	0.003885
1727.000000	0.003638
1726.000000	0.003387
1725.000000	0.003163
1724.000000	0.002982
1723.000000	0.002828
1722.000000	0.002677
1721.000000	0.002521
1720.000000	0.002365
1719.000000	0.002229
1718.000000	0.002155
1717.000000	0.002134
1716.000000	0.002105
1715.000000	0.002041
1714.000000	0.001959
1713.000000	0.001883
1712.000000	0.001821
1711.000000	0.001767
1710.000000	0.001716
1709.000000	0.001664
1708.000000	0.001603
1707.000000	0.001536
1706.000000	0.001500
1705.000000	0.001524
1704.000000	0.001586
1703.000000	0.001640
1702.000000	0.001677
1701.000000	0.001730
1700.000000	0.001830
1699.000000	0.001938
1698.000000	0.001985
1697.000000	0.001994
1696.000000	0.002018
1695.000000	0.002082
1694.000000	0.002144
1693.000000	0.002175
1692.000000	0.002202
1691.000000	0.002258
1690.000000	0.002349
1689.000000	0.002460
1688.000000	0.002557
1687.000000	0.002617
1686.000000	0.002633
1685.000000	0.002642
1684.000000	0.002714
1683.000000	0.002839
1682.000000	0.002926
1681.000000	0.002958
1680.000000	0.002967
1679.000000	0.002977
1678.000000	0.003003
1677.000000	0.003054
1676.000000	0.003135
1675.000000	0.003228
1674.000000	0.003303
1673.000000	0.003351
1672.000000	0.003383
1671.000000	0.003421
1670.000000	0.003479
1669.000000	0.003558
1668.000000	0.003636
1667.000000	0.003687
1666.000000	0.003717
1665.000000	0.003749
1664.000000	0.003799
1663.000000	0.003868
1662.000000	0.003949
1661.000000	0.004029
1660.000000	0.004098
1659.000000	0.004149
1658.000000	0.004193
1657.000000	0.004255
1656.000000	0.004348
1655.000000	0.004446
1654.000000	0.004494
1653.000000	0.004479
1652.000000	0.004514
1651.000000	0.004551
1650.000000	0.004560
1649.000000	0.004581
1648.000000	0.004630
1647.000000	0.004673
1646.000000	0.004688
1645.000000	0.004706
1644.000000	0.004740
1643.000000	0.004781
1642.000000	0.004815
1641.000000	0.004829
1640.000000	0.004827
1639.000000	0.004833
1638.000000	0.004862
1637.000000	0.004897
1636.000000	0.004899
1635.000000	0.004857
1634.000000	0.004819
1633.000000	0.004805
1632.000000	0.004820
1631.000000	0.004855
1630.000000	0.004879
1629.000000	0.004870
1628.000000	0.004841
1627.000000	0.004830
1626.000000	0.004860
1625.000000	0.004915
1624.000000	0.004955
1623.000000	0.004947
1622.000000	0.004908
1621.000000	0.004887
1620.000000	0.004897
1619.000000	0.004912
1618.000000	0.004886
1617.000000	0.004782
1616.000000	0.004629
1615.000000	0.004480
1614.000000	0.004350
1613.000000	0.004238
1612.000000	0.004138
1611.000000	0.004043
1610.000000	0.003950
1609.000000	0.003863
1608.000000	0.003773
1607.000000	0.003666
1606.000000	0.003550
1605.000000	0.003449
1604.000000	0.003371
1603.000000	0.003300
1602.000000	0.003225
1601.000000	0.003160
1600.000000	0.003119
1599.000000	0.003097
1598.000000	0.003079
1597.000000	0.003051
1596.000000	0.003005
1595.000000	0.002949
1594.000000	0.002902
1593.000000	0.002871
1592.000000	0.002845
1591.000000	0.002806
1590.000000	0.002757
1589.000000	0.002719
1588.000000	0.002699
1587.000000	0.002683
1586.000000	0.002658
1585.000000	0.002632
1584.000000	0.002617
1583.000000	0.002605
1582.000000	0.002580
1581.000000	0.002545
1580.000000	0.002519
1579.000000	0.002523
1578.000000	0.002563
1577.000000	0.002626
1576.000000	0.002675
1575.000000	0.002692
1574.000000	0.002696
1573.000000	0.002717
1572.000000	0.002755
1571.000000	0.002789
1570.000000	0.002803
1569.000000	0.002812
1568.000000	0.002831
1567.000000	0.002843
1566.000000	0.002847
1565.000000	0.002858
1564.000000	0.002888
1563.000000	0.002938
1562.000000	0.003012
1561.000000	0.003112
1560.000000	0.003228
1559.000000	0.003296
1558.000000	0.003294
1557.000000	0.003316
1556.000000	0.003344
1555.000000	0.003369
1554.000000	0.003407
1553.000000	0.003459
1552.000000	0.003504
1551.000000	0.003537
1550.000000	0.003575
1549.000000	0.003634
1548.000000	0.003706
1547.000000	0.003772
1546.000000	0.003835
1545.000000	0.003916
1544.000000	0.004017
1543.000000	0.004127
1542.000000	0.004240
1541.000000	0.004336
1540.000000	0.004379
1539.000000	0.004396
1538.000000	0.004436
1537.000000	0.004489
1536.000000	0.004548
1535.000000	0.004607
1534.000000	0.004655
1533.000000	0.004703
1532.000000	0.004770
1531.000000	0.004847
1530.000000	0.004907
1529.000000	0.004941
1528.000000	0.004963
1527.000000	0.004995
1526.000000	0.005044
1525.000000	0.005095
1524.000000	0.005127
1523.000000	0.005141
1522.000000	0.005155
1521.000000	0.005190
1520.000000	0.005252
1519.000000	0.005317
1518.000000	0.005367
1517.000000	0.005394
1516.000000	0.005400
1515.000000	0.005408
1514.000000	0.005431
1513.000000	0.005462
1512.000000	0.005488
1511.000000	0.005508
1510.000000	0.005529
1509.000000	0.005559
1508.000000	0.005583
1507.000000	0.005584
1506.000000	0.005617
1505.000000	0.005690
1504.000000	0.005702
1503.000000	0.005660
1502.000000	0.005624
1501.000000	0.005630
1500.000000	0.005669
1499.000000	0.005712
1498.000000	0.005744
1497.000000	0.005758
1496.000000	0.005753
1495.000000	0.005736
1494.000000	0.005714
1493.000000	0.005685
1492.000000	0.005652
1491.000000	0.005632
1490.000000	0.005649
1489.000000	0.005700
1488.000000	0.005754
1487.000000	0.005801
1486.000000	0.005840
1485.000000	0.005870
1484.000000	0.005891
1483.000000	0.005904
1482.000000	0.005930
1481.000000	0.005985
1480.000000	0.006054
1479.000000	0.006111
1478.000000	0.006154
1477.000000	0.006205
1476.000000	0.006282
1475.000000	0.006386
1474.000000	0.006527
1473.000000	0.006717
1472.000000	0.006923
1471.000000	0.007098
1470.000000	0.007231
1469.000000	0.007334
1468.000000	0.007415
1467.000000	0.007485
1466.000000	0.007566
1465.000000	0.007672
1464.000000	0.007780
1463.000000	0.007853
1462.000000	0.007886
1461.000000	0.007893
1460.000000	0.007890
1459.000000	0.007915
1458.000000	0.008053
1457.000000	0.008335
1456.000000	0.008591
1455.000000	0.008683
1454.000000	0.008672
1453.000000	0.008656
1452.000000	0.008669
1451.000000	0.008696
1450.000000	0.008727
1449.000000	0.008768
1448.000000	0.008820
1447.000000	0.008874
1446.000000	0.008926
1445.000000	0.008981
1444.000000	0.009032
1443.000000	0.009076
1442.000000	0.009125
1441.000000	0.009182
1440.000000	0.009233
1439.000000	0.009270
1438.000000	0.009333
1437.000000	0.009474
1436.000000	0.009656
1435.000000	0.009772
1434.000000	0.009804
1433.000000	0.009800
1432.000000	0.009797
1431.000000	0.009811
1430.000000	0.009860
1429.000000	0.009954
1428.000000	0.010058
1427.000000	0.010129
1426.000000	0.010166
1425.000000	0.010207
1424.000000	0.010258
1423.000000	0.010278
1422.000000	0.010258
1421.000000	0.010241
1420.000000	0.010283
1419.000000	0.010386
1418.000000	0.010476
1417.000000	0.010496
1416.000000	0.010449
1415.000000	0.010369
1414.000000	0.010286
1413.000000	0.010219
1412.000000	0.010158
1411.000000	0.010082
1410.000000	0.009980
1409.000000	0.009856
1408.000000	0.009710
1407.000000	0.009554
1406.000000	0.009414
1405.000000	0.009318
1404.000000	0.009258
1403.000000	0.009209
1402.000000	0.009160
1401.000000	0.009126
1400.000000	0.009116
1399.000000	0.009118
1398.000000	0.009108
1397.000000	0.009079
1396.000000	0.009049
1395.000000	0.009034
1394.000000	0.009040
1393.000000	0.009053
1392.000000	0.009046
1391.000000	0.009003
1390.000000	0.008934
1389.000000	0.008851
1388.000000	0.008766
1387.000000	0.008684
1386.000000	0.008611
1385.000000	0.008547
1384.000000	0.008484
1383.000000	0.008417
1382.000000	0.008345
1381.000000	0.008270
1380.000000	0.008190
1379.000000	0.008103
1378.000000	0.008001
1377.000000	0.007879
1376.000000	0.007743
1375.000000	0.007609
1374.000000	0.007500
1373.000000	0.007416
1372.000000	0.007339
1371.000000	0.007253
1370.000000	0.007156
1369.000000	0.007065
1368.000000	0.006987
1367.000000	0.006919
1366.000000	0.006848
1365.000000	0.006761
1364.000000	0.006658
1363.000000	0.006546
1362.000000	0.006443
1361.000000	0.006366
1360.000000	0.006326
1359.000000	0.006315
1358.000000	0.006314
1357.000000	0.006301
1356.000000	0.006271
1355.000000	0.006232
1354.000000	0.006196
1353.000000	0.006157
1352.000000	0.006108
1351.000000	0.006051
1350.000000	0.005995
1349.000000	0.005946
1348.000000	0.005912
1347.000000	0.005895
1346.000000	0.005893
1345.000000	0.005891
1344.000000	0.005874
1343.000000	0.005841
1342.000000	0.005808
1341.000000	0.005791
1340.000000	0.005795
1339.000000	0.005810
1338.000000	0.005827
1337.000000	0.005844
1336.000000	0.005854
1335.000000	0.005851
1334.000000	0.005832
1333.000000	0.005800
1332.000000	0.005760
1331.000000	0.005721
1330.000000	0.005685
1329.000000	0.005643
1328.000000	0.005591
1327.000000	0.005532
1326.000000	0.005483
1325.000000	0.005456
1324.000000	0.005439
1323.000000	0.005410
1322.000000	0.005363
1321.000000	0.005312
1320.000000	0.005278
1319.000000	0.005261
1318.000000	0.005244
1317.000000	0.005209
1316.000000	0.005158
1315.000000	0.005105
1314.000000	0.005066
1313.000000	0.005043
1312.000000	0.005023
1311.000000	0.004993
1310.000000	0.004953
1309.000000	0.004916
1308.000000	0.004894
1307.000000	0.004877
1306.000000	0.004844
1305.000000	0.004785
1304.000000	0.004710
1303.000000	0.004643
1302.000000	0.004594
1301.000000	0.004556
1300.000000	0.004513
1299.000000	0.004465
1298.000000	0.004419
1297.000000	0.004379
1296.000000	0.004345
1295.000000	0.004310
1294.000000	0.004270
1293.000000	0.004229
1292.000000	0.004196
1291.000000	0.004181
1290.000000	0.004179
1289.000000	0.004176
1288.000000	0.004161
1287.000000	0.004135
1286.000000	0.004105
1285.000000	0.004073
1284.000000	0.004037
1283.000000	0.004001
1282.000000	0.003971
1281.000000	0.003953
1280.000000	0.003948
1279.000000	0.003957
1278.000000	0.003975
1277.000000	0.003995
1276.000000	0.004012
1275.000000	0.004027
1274.000000	0.004051
1273.000000	0.004089
1272.000000	0.004141
1271.000000	0.004206
1270.000000	0.004289
1269.000000	0.004390
1268.000000	0.004498
1267.000000	0.004602
1266.000000	0.004691
1265.000000	0.004768
1264.000000	0.004833
1263.000000	0.004885
1262.000000	0.004929
1261.000000	0.004979
1260.000000	0.005048
1259.000000	0.005137
1258.000000	0.005236
1257.000000	0.005330
1256.000000	0.005405
1255.000000	0.005456
1254.000000	0.005484
1253.000000	0.005501
1252.000000	0.005515
1251.000000	0.005529
1250.000000	0.005541
1249.000000	0.005546
1248.000000	0.005540
1247.000000	0.005519
1246.000000	0.005485
1245.000000	0.005454
1244.000000	0.005442
1243.000000	0.005450
1242.000000	0.005454
1241.000000	0.005434
1240.000000	0.005387
1239.000000	0.005335
1238.000000	0.005295
1237.000000	0.005268
1236.000000	0.005240
1235.000000	0.005202
1234.000000	0.005156
1233.000000	0.005111
1232.000000	0.005071
1231.000000	0.005036
1230.000000	0.005002
1229.000000	0.004958
1228.000000	0.004892
1227.000000	0.004796
1226.000000	0.004673
1225.000000	0.004530
1224.000000	0.004381
1223.000000	0.004240
1222.000000	0.004117
1221.000000	0.004011
1220.000000	0.003914
1219.000000	0.003821
1218.000000	0.003729
1217.000000	0.003638
1216.000000	0.003550
1215.000000	0.003469
1214.000000	0.003397
1213.000000	0.003333
1212.000000	0.003279
1211.000000	0.003239
1210.000000	0.003219
1209.000000	0.003214
1208.000000	0.003213
1207.000000	0.003209
1206.000000	0.003207
1205.000000	0.003213
1204.000000	0.003226
1203.000000	0.003239
1202.000000	0.003248
1201.000000	0.003261
1200.000000	0.003288
1199.000000	0.003335
1198.000000	0.003394
1197.000000	0.003454
1196.000000	0.003513
1195.000000	0.003577
1194.000000	0.003651
1193.000000	0.003730
1192.000000	0.003810
1191.000000	0.003895
1190.000000	0.003990
1189.000000	0.004098
1188.000000	0.004214
1187.000000	0.004337
1186.000000	0.004477
1185.000000	0.004641
1184.000000	0.004816
1183.000000	0.004978
1182.000000	0.005118
1181.000000	0.005253
1180.000000	0.005416
1179.000000	0.005621
1178.000000	0.005850
1177.000000	0.006075
1176.000000	0.006282
1175.000000	0.006476
1174.000000	0.006669
1173.000000	0.006861
1172.000000	0.007048
1171.000000	0.007224
1170.000000	0.007391
1169.000000	0.007555
1168.000000	0.007719
1167.000000	0.007880
1166.000000	0.008025
1165.000000	0.008141
1164.000000	0.008224
1163.000000	0.008288
1162.000000	0.008349
1161.000000	0.008406
1160.000000	0.008449
1159.000000	0.008473
1158.000000	0.008493
1157.000000	0.008518
1156.000000	0.008537
1155.000000	0.008533
1154.000000	0.008505
1153.000000	0.008473
1152.000000	0.008446
1151.000000	0.008413
1150.000000	0.008360
1149.000000	0.008287
1148.000000	0.008199
1147.000000	0.008098
1146.000000	0.007983
1145.000000	0.007859
1144.000000	0.007736
1143.000000	0.007623
1142.000000	0.007517
1141.000000	0.007416
1140.000000	0.007317
1139.000000	0.007221
1138.000000	0.007126
1137.000000	0.007027
1136.000000	0.006921
1135.000000	0.006818
1134.000000	0.006735
1133.000000	0.006677
1132.000000	0.006635
1131.000000	0.006596
1130.000000	0.006556
1129.000000	0.006517
1128.000000	0.006478
1127.000000	0.006447
1126.000000	0.006440
1125.000000	0.006473
1124.000000	0.006547
1123.000000	0.006643
1122.000000	0.006742
1121.000000	0.006845
1120.000000	0.006963
1119.000000	0.007096
1118.000000	0.007232
1117.000000	0.007367
1116.000000	0.007508
1115.000000	0.007663
1114.000000	0.007825
1113.000000	0.007980
1112.000000	0.008115
1111.000000	0.008232
1110.000000	0.008330
1109.000000	0.008400
1108.000000	0.008431
1107.000000	0.008429
1106.000000	0.008411
1105.000000	0.008387
1104.000000	0.008354
1103.000000	0.008309
1102.000000	0.008261
1101.000000	0.008226
1100.000000	0.008204
1099.000000	0.008190
1098.000000	0.008183
1097.000000	0.008188
1096.000000	0.008201
1095.000000	0.008212
1094.000000	0.008211
1093.000000	0.008195
1092.000000	0.008168
1091.000000	0.008136
1090.000000	0.008096
1089.000000	0.008032
1088.000000	0.007922
1087.000000	0.007766
1086.000000	0.007590
1085.000000	0.007428
1084.000000	0.007286
1083.000000	0.007153
1082.000000	0.007020
1081.000000	0.006891
1080.000000	0.006769
1079.000000	0.006652
1078.000000	0.006547
1077.000000	0.006466
1076.000000	0.006413
1075.000000	0.006368
1074.000000	0.006308
1073.000000	0.006227
1072.000000	0.006132
1071.000000	0.006041
1070.000000	0.005962
1069.000000	0.005900
1068.000000	0.005859
1067.000000	0.005844
1066.000000	0.005860
1065.000000	0.005895
1064.000000	0.005920
1063.000000	0.005903
1062.000000	0.005844
1061.000000	0.005773
1060.000000	0.005723
1059.000000	0.005692
1058.000000	0.005651
1057.000000	0.005572
1056.000000	0.005454
1055.000000	0.005321
1054.000000	0.005205
1053.000000	0.005126
1052.000000	0.005086
1051.000000	0.005069
1050.000000	0.005051
1049.000000	0.005022
1048.000000	0.004998
1047.000000	0.004999
1046.000000	0.005032
1045.000000	0.005087
1044.000000	0.005146
1043.000000	0.005193
1042.000000	0.005215
1041.000000	0.005210
1040.000000	0.005197
1039.000000	0.005196
1038.000000	0.005204
1037.000000	0.005193
1036.000000	0.005143
1035.000000	0.005072
1034.000000	0.005013
1033.000000	0.004974
1032.000000	0.004928
1031.000000	0.004855
1030.000000	0.004775
1029.000000	0.004721
1028.000000	0.004711
1027.000000	0.004737
1026.000000	0.004780
1025.000000	0.004821
1024.000000	0.004839
1023.000000	0.004827
1022.000000	0.004804
1021.000000	0.004796
1020.000000	0.004803
1019.000000	0.004800
1018.000000	0.004772
1017.000000	0.004732
1016.000000	0.004701
1015.000000	0.004686
1014.000000	0.004674
1013.000000	0.004656
1012.000000	0.004635
1011.000000	0.004611
1010.000000	0.004575
1009.000000	0.004525
1008.000000	0.004476
1007.000000	0.004447
1006.000000	0.004435
1005.000000	0.004421
1004.000000	0.004381
1003.000000	0.004313
1002.000000	0.004235
1001.000000	0.004164
1000.000000	0.004095
999.000000	0.004016
998.000000	0.003929
997.000000	0.003860
996.000000	0.003829
995.000000	0.003826
994.000000	0.003820
993.000000	0.003789
992.000000	0.003740
991.000000	0.003694
990.000000	0.003662
989.000000	0.003636
988.000000	0.003607
987.000000	0.003573
986.000000	0.003549
985.000000	0.003548
984.000000	0.003571
983.000000	0.003589
982.000000	0.003571
981.000000	0.003516
980.000000	0.003458
979.000000	0.003424
978.000000	0.003414
977.000000	0.003412
976.000000	0.003414
975.000000	0.003424
974.000000	0.003432
973.000000	0.003421
972.000000	0.003394
971.000000	0.003370
970.000000	0.003351
969.000000	0.003319
968.000000	0.003270
967.000000	0.003228
966.000000	0.003217
965.000000	0.003234
964.000000	0.003253
963.000000	0.003255
962.000000	0.003233
961.000000	0.003190
960.000000	0.003136
959.000000	0.003084
958.000000	0.003033
957.000000	0.002970
956.000000	0.002893
955.000000	0.002831
954.000000	0.002805
953.000000	0.002797
952.000000	0.002768
951.000000	0.002712
950.000000	0.002669
949.000000	0.002665
948.000000	0.002676
947.000000	0.002658
946.000000	0.002604
945.000000	0.002548
944.000000	0.002520
943.000000	0.002513
942.000000	0.002499
941.000000	0.002461
940.000000	0.002407
939.000000	0.002346
938.000000	0.002278
937.000000	0.002206
936.000000	0.002144
935.000000	0.002108
934.000000	0.002096
933.000000	0.002085
932.000000	0.002063
931.000000	0.002043
930.000000	0.002045
929.000000	0.002068
928.000000	0.002094
927.000000	0.002100
926.000000	0.002074
925.000000	0.002020
924.000000	0.001957
923.000000	0.001911
922.000000	0.001894
921.000000	0.001894
920.000000	0.001889
919.000000	0.001875
918.000000	0.001859
917.000000	0.001840
916.000000	0.001805
915.000000	0.001745
914.000000	0.001675
913.000000	0.001621
912.000000	0.001600
911.000000	0.001600
910.000000	0.001590
909.000000	0.001552
908.000000	0.001498
907.000000	0.001458
906.000000	0.001442
905.000000	0.001421
904.000000	0.001365
903.000000	0.001278
902.000000	0.001199
901.000000	0.001158
900.000000	0.001154
899.000000	0.001168
898.000000	0.001188
897.000000	0.001211
896.000000	0.001230
895.000000	0.001234
894.000000	0.001218
893.000000	0.001198
892.000000	0.001190
891.000000	0.001196
890.000000	0.001213
889.000000	0.001261
888.000000	0.001387
887.000000	0.001631
886.000000	0.001975
885.000000	0.002357
884.000000	0.002719
883.000000	0.003047
882.000000	0.003369
881.000000	0.003726
880.000000	0.004151
879.000000	0.004654
878.000000	0.005203
877.000000	0.005728
876.000000	0.006160
875.000000	0.006450
874.000000	0.006569
873.000000	0.006487
872.000000	0.006200
871.000000	0.005756
870.000000	0.005251
869.000000	0.004771
868.000000	0.004350
867.000000	0.003979
866.000000	0.003644
865.000000	0.003348
864.000000	0.003106
863.000000	0.002917
862.000000	0.002753
861.000000	0.002576
860.000000	0.002375
859.000000	0.002175
858.000000	0.002005
857.000000	0.001871
856.000000	0.001761
855.000000	0.001679
854.000000	0.001628
853.000000	0.001591
852.000000	0.001545
851.000000	0.001501
850.000000	0.001500
849.000000	0.001558
848.000000	0.001628
847.000000	0.001641
846.000000	0.001567
845.000000	0.001428
844.000000	0.001275
843.000000	0.001163
842.000000	0.001139
841.000000	0.001197
840.000000	0.001273
839.000000	0.001304
838.000000	0.001295
837.000000	0.001315
836.000000	0.001400
835.000000	0.001498
834.000000	0.001520
833.000000	0.001440
832.000000	0.001306
831.000000	0.001190
830.000000	0.001127
829.000000	0.001120
828.000000	0.001157
827.000000	0.001211
826.000000	0.001241
825.000000	0.001225
824.000000	0.001178
823.000000	0.001137
822.000000	0.001117
821.000000	0.001100
820.000000	0.001065
819.000000	0.001018
818.000000	0.000990
817.000000	0.001011
816.000000	0.001077
815.000000	0.001147
814.000000	0.001174
813.000000	0.001145
812.000000	0.001088
811.000000	0.001036
810.000000	0.000996
809.000000	0.000964
808.000000	0.000950
807.000000	0.000967
806.000000	0.001009
805.000000	0.001045
804.000000	0.001060
803.000000	0.001062
802.000000	0.001071
801.000000	0.001089
800.000000	0.001102
799.000000	0.001096
798.000000	0.001069
797.000000	0.001035
796.000000	0.001018
795.000000	0.001035
794.000000	0.001080
793.000000	0.001127
792.000000	0.001156
791.000000	0.001158
790.000000	0.001139
789.000000	0.001110
788.000000	0.001078
787.000000	0.001045
786.000000	0.001018
785.000000	0.001011
784.000000	0.001038
783.000000	0.001092
782.000000	0.001142
781.000000	0.001159
780.000000	0.001153
779.000000	0.001150
778.000000	0.001162
777.000000	0.001165
776.000000	0.001135
775.000000	0.001075
774.000000	0.001007
773.000000	0.000956
772.000000	0.000946
771.000000	0.000979
770.000000	0.001035
769.000000	0.001087
768.000000	0.001122
767.000000	0.001141
766.000000	0.001139
765.000000	0.001106
764.000000	0.001050
763.000000	0.001004
762.000000	0.001001
761.000000	0.001040
760.000000	0.001092
759.000000	0.001118
758.000000	0.001103
757.000000	0.001066
756.000000	0.001053
755.000000	0.001088
754.000000	0.001136
753.000000	0.001140
752.000000	0.001085
751.000000	0.001019
750.000000	0.000996
749.000000	0.001018
748.000000	0.001051
747.000000	0.001074
746.000000	0.001096
745.000000	0.001139
744.000000	0.001201
743.000000	0.001253
742.000000	0.001255
741.000000	0.001201
740.000000	0.001124
739.000000	0.001065
738.000000	0.001025
737.000000	0.000989
736.000000	0.000964
735.000000	0.000975
734.000000	0.001020
733.000000	0.001067
732.000000	0.001098
731.000000	0.001124
730.000000	0.001143
729.000000	0.001126
728.000000	0.001066
727.000000	0.001006
726.000000	0.000998
725.000000	0.001046
724.000000	0.001095
723.000000	0.001092
722.000000	0.001027
721.000000	0.000942
720.000000	0.000897
719.000000	0.000938
718.000000	0.001079
717.000000	0.001317
716.000000	0.001659
715.000000	0.002106
714.000000	0.002589
713.000000	0.002966
712.000000	0.003104
711.000000	0.002982
710.000000	0.002696
709.000000	0.002390
708.000000	0.002172
707.000000	0.002071
706.000000	0.002047
705.000000	0.002039
704.000000	0.002004
703.000000	0.001938
702.000000	0.001864
701.000000	0.001811
700.000000	0.001807
699.000000	0.001860
698.000000	0.001944
697.000000	0.002017
696.000000	0.002058
695.000000	0.002081
694.000000	0.002099
693.000000	0.002099
692.000000	0.002069
691.000000	0.002015
690.000000	0.001944
689.000000	0.001867
688.000000	0.001808
687.000000	0.001803
686.000000	0.001849
685.000000	0.001894
684.000000	0.001909
683.000000	0.001919
682.000000	0.001947
681.000000	0.001983
680.000000	0.002025
679.000000	0.002097
678.000000	0.002204
677.000000	0.002337
676.000000	0.002485
675.000000	0.002637
674.000000	0.002749
673.000000	0.002762
672.000000	0.002658
671.000000	0.002463
670.000000	0.002179
669.000000	0.001809
668.000000	0.001573
667.000000	0.001745
666.000000	0.002030
665.000000	0.002247
664.000000	0.002341
663.000000	0.002252
662.000000	0.002008
661.000000	0.001714
660.000000	0.001440
659.000000	0.001182
658.000000	0.000947
657.000000	0.000800
656.000000	0.000784
655.000000	0.000864
654.000000	0.000985
653.000000	0.001126
652.000000	0.001262
651.000000	0.001359
650.000000	0.001422
649.000000	0.001493
648.000000	0.001576
647.000000	0.001628
646.000000	0.001646
645.000000	0.001681
644.000000	0.001758
643.000000	0.001848
642.000000	0.001917
641.000000	0.001954
640.000000	0.001956
639.000000	0.001917
638.000000	0.001861
637.000000	0.001826
636.000000	0.001812
635.000000	0.001804
634.000000	0.001838
633.000000	0.001972
632.000000	0.002185
631.000000	0.002372
630.000000	0.002460
629.000000	0.002475
628.000000	0.002475
627.000000	0.002469
626.000000	0.002446
625.000000	0.002413
624.000000	0.002374
623.000000	0.002321
622.000000	0.002255
621.000000	0.002204
620.000000	0.002192
619.000000	0.002218
618.000000	0.002271
617.000000	0.002346
616.000000	0.002432
615.000000	0.002521
614.000000	0.002629
613.000000	0.002782
612.000000	0.002972
611.000000	0.003174
610.000000	0.003379
609.000000	0.003598
608.000000	0.003808
607.000000	0.003956
606.000000	0.004031
605.000000	0.004085
604.000000	0.004160
603.000000	0.004260
602.000000	0.004363
601.000000	0.004436
600.000000	0.004424
599.000000	0.004292
598.000000	0.004095
597.000000	0.003939
596.000000	0.003861
595.000000	0.003803
594.000000	0.003702
593.000000	0.003565
592.000000	0.003425
591.000000	0.003281
590.000000	0.003124
589.000000	0.002968
588.000000	0.002824
587.000000	0.002678
586.000000	0.002541
585.000000	0.002471
584.000000	0.002492
583.000000	0.002544
582.000000	0.002558
581.000000	0.002554
580.000000	0.002585
579.000000	0.002636
578.000000	0.002627
577.000000	0.002526
576.000000	0.002391
575.000000	0.002290
574.000000	0.002224
573.000000	0.002149
572.000000	0.002051
571.000000	0.001965
570.000000	0.001934
569.000000	0.001940
568.000000	0.001905
567.000000	0.001781
566.000000	0.001618
565.000000	0.001499
564.000000	0.001449
563.000000	0.001431
562.000000	0.001436
561.000000	0.001499
560.000000	0.001620
559.000000	0.001741
558.000000	0.001820
557.000000	0.001861
556.000000	0.001862
555.000000	0.001792
554.000000	0.001676
553.000000	0.001614
552.000000	0.001674
551.000000	0.001799
550.000000	0.001874
549.000000	0.001858
548.000000	0.001789
547.000000	0.001704
546.000000	0.001627
545.000000	0.001591
544.000000	0.001600
543.000000	0.001598
542.000000	0.001523
541.000000	0.001392
540.000000	0.001293
539.000000	0.001285
538.000000	0.001361
537.000000	0.001474
536.000000	0.001574
535.000000	0.001617
534.000000	0.001606
533.000000	0.001590
532.000000	0.001601
531.000000	0.001604
530.000000	0.001537
529.000000	0.001392
528.000000	0.001214
527.000000	0.001038
526.000000	0.000885
525.000000	0.000800
524.000000	0.000825
523.000000	0.000954
522.000000	0.001129
521.000000	0.001265
520.000000	0.001282
519.000000	0.001175
518.000000	0.001074
517.000000	0.001148
516.000000	0.001392
515.000000	0.001586
514.000000	0.001540
513.000000	0.001313
512.000000	0.001128
511.000000	0.001121
510.000000	0.001224
509.000000	0.001305
508.000000	0.001332
507.000000	0.001355
506.000000	0.001397
505.000000	0.001439
504.000000	0.001485
503.000000	0.001566
502.000000	0.001681
501.000000	0.001761
500.000000	0.001729
499.000000	0.001577
498.000000	0.001399
497.000000	0.001326
496.000000	0.001394
495.000000	0.001493
494.000000	0.001497
493.000000	0.001415
492.000000	0.001379
491.000000	0.001462
490.000000	0.001593
489.000000	0.001658
488.000000	0.001599
487.000000	0.001407
486.000000	0.001102
485.000000	0.000779
484.000000	0.000603
483.000000	0.000698
482.000000	0.001043
481.000000	0.001516
480.000000	0.001959
479.000000	0.002208
478.000000	0.002156
477.000000	0.001849
476.000000	0.001447
475.000000	0.001072
474.000000	0.000770
473.000000	0.000614
472.000000	0.000711
471.000000	0.001026
470.000000	0.001349
469.000000	0.001512
468.000000	0.001525
467.000000	0.001502
466.000000	0.001534
465.000000	0.001612
464.000000	0.001663
463.000000	0.001642
462.000000	0.001561
461.000000	0.001483
460.000000	0.001445
459.000000	0.001405
458.000000	0.001305
457.000000	0.001183
456.000000	0.001131
455.000000	0.001131
454.000000	0.001084
453.000000	0.000961
452.000000	0.000887
451.000000	0.000976
450.000000	0.001149
