PE IR       SUBTECH     SPECTRUM    ASCII       PEDS        4.00        
   -1
P12-Rouge031_1.ASC
23/06/08
15:20:36.00
23/06/08
15:48:35.00
uco
Sample 031 By uco Date Thursday, June 08 2023
450.000000
#HDR
-1
-1
#GR
cm-1
A
1.0
0.0
4000.000000
-1.000000
3551
8
0.006740
-0.001441
#DATA
4000.000000	-0.000123
3999.000000	-0.000091
3998.000000	-0.000060
3997.000000	-0.000044
3996.000000	-0.000049
3995.000000	-0.000067
3994.000000	-0.000083
3993.000000	-0.000130
3992.000000	-0.000122
3991.000000	-0.000105
3990.000000	-0.000085
3989.000000	-0.000062
3988.000000	-0.000039
3987.000000	-0.000020
3986.000000	-0.000011
3985.000000	-0.000013
3984.000000	-0.000019
3983.000000	-0.000020
3982.000000	-0.000011
3981.000000	0.000005
3980.000000	0.000021
3979.000000	0.000025
3978.000000	0.000014
3977.000000	-0.000008
3976.000000	-0.000033
3975.000000	-0.000052
3974.000000	-0.000058
3973.000000	-0.000052
3972.000000	-0.000041
3971.000000	-0.000038
3970.000000	-0.000047
3969.000000	-0.000065
3968.000000	-0.000082
3967.000000	-0.000087
3966.000000	-0.000080
3965.000000	-0.000068
3964.000000	-0.000059
3963.000000	-0.000061
3962.000000	-0.000068
3961.000000	-0.000072
3960.000000	-0.000064
3959.000000	-0.000049
3958.000000	-0.000038
3957.000000	-0.000039
3956.000000	-0.000051
3955.000000	-0.000064
3954.000000	-0.000070
3953.000000	-0.000063
3952.000000	-0.000047
3951.000000	-0.000027
3950.000000	-0.000014
3949.000000	-0.000013
3948.000000	-0.000024
3947.000000	-0.000036
3946.000000	-0.000042
3945.000000	-0.000041
3944.000000	-0.000036
3943.000000	-0.000031
3942.000000	-0.000023
3941.000000	-0.000005
3940.000000	0.000019
3939.000000	0.000038
3938.000000	0.000041
3937.000000	0.000032
3936.000000	0.000022
3935.000000	0.000023
3934.000000	0.000032
3933.000000	0.000037
3932.000000	0.000032
3931.000000	0.000024
3930.000000	0.000021
3929.000000	0.000025
3928.000000	0.000029
3927.000000	0.000027
3926.000000	0.000017
3925.000000	-0.000001
3924.000000	-0.000021
3923.000000	-0.000029
3922.000000	-0.000016
3921.000000	0.000014
3920.000000	0.000048
3919.000000	0.000071
3918.000000	0.000074
3917.000000	0.000057
3916.000000	0.000029
3915.000000	0.000005
3914.000000	-0.000010
3913.000000	-0.000018
3912.000000	-0.000020
3911.000000	-0.000020
3910.000000	-0.000022
3909.000000	-0.000033
3908.000000	-0.000056
3907.000000	-0.000077
3906.000000	-0.000076
3905.000000	-0.000042
3904.000000	0.000010
3903.000000	0.000053
3902.000000	0.000066
3901.000000	0.000057
3900.000000	0.000036
3899.000000	0.000012
3898.000000	-0.000010
3897.000000	-0.000026
3896.000000	-0.000034
3895.000000	-0.000032
3894.000000	-0.000019
3893.000000	0.000004
3892.000000	0.000024
3891.000000	0.000025
3890.000000	0.000009
3889.000000	-0.000005
3888.000000	-0.000005
3887.000000	0.000007
3886.000000	0.000010
3885.000000	-0.000007
3884.000000	-0.000032
3883.000000	-0.000049
3882.000000	-0.000058
3881.000000	-0.000066
3880.000000	-0.000070
3879.000000	-0.000056
3878.000000	-0.000017
3877.000000	0.000032
3876.000000	0.000063
3875.000000	0.000052
3874.000000	0.000002
3873.000000	-0.000048
3872.000000	-0.000056
3871.000000	-0.000025
3870.000000	0.000005
3869.000000	0.000003
3868.000000	-0.000016
3867.000000	-0.000022
3866.000000	-0.000018
3865.000000	-0.000018
3864.000000	-0.000027
3863.000000	-0.000030
3862.000000	-0.000013
3861.000000	0.000017
3860.000000	0.000045
3859.000000	0.000053
3858.000000	0.000034
3857.000000	-0.000002
3856.000000	-0.000032
3855.000000	-0.000041
3854.000000	-0.000043
3853.000000	-0.000067
3852.000000	-0.000103
3851.000000	-0.000114
3850.000000	-0.000094
3849.000000	-0.000060
3848.000000	-0.000026
3847.000000	0.000003
3846.000000	0.000026
3845.000000	0.000036
3844.000000	0.000030
3843.000000	0.000003
3842.000000	-0.000035
3841.000000	-0.000070
3840.000000	-0.000087
3839.000000	-0.000078
3838.000000	-0.000045
3837.000000	-0.000000
3836.000000	0.000041
3835.000000	0.000072
3834.000000	0.000093
3833.000000	0.000099
3832.000000	0.000083
3831.000000	0.000053
3830.000000	0.000027
3829.000000	0.000023
3828.000000	0.000038
3827.000000	0.000052
3826.000000	0.000043
3825.000000	0.000012
3824.000000	-0.000019
3823.000000	-0.000031
3822.000000	-0.000030
3821.000000	-0.000037
3820.000000	-0.000054
3819.000000	-0.000060
3818.000000	-0.000042
3817.000000	-0.000017
3816.000000	-0.000010
3815.000000	-0.000015
3814.000000	-0.000008
3813.000000	0.000016
3812.000000	0.000035
3811.000000	0.000027
3810.000000	0.000002
3809.000000	-0.000012
3808.000000	-0.000007
3807.000000	-0.000003
3806.000000	-0.000023
3805.000000	-0.000054
3804.000000	-0.000068
3803.000000	-0.000059
3802.000000	-0.000049
3801.000000	-0.000063
3800.000000	-0.000090
3799.000000	-0.000100
3798.000000	-0.000084
3797.000000	-0.000055
3796.000000	-0.000033
3795.000000	-0.000018
3794.000000	0.000001
3793.000000	0.000031
3792.000000	0.000063
3791.000000	0.000085
3790.000000	0.000088
3789.000000	0.000074
3788.000000	0.000052
3787.000000	0.000033
3786.000000	0.000022
3785.000000	0.000018
3784.000000	0.000014
3783.000000	0.000011
3782.000000	0.000016
3781.000000	0.000030
3780.000000	0.000048
3779.000000	0.000056
3778.000000	0.000050
3777.000000	0.000037
3776.000000	0.000027
3775.000000	0.000021
3774.000000	0.000019
3773.000000	0.000021
3772.000000	0.000027
3771.000000	0.000024
3770.000000	-0.000001
3769.000000	-0.000042
3768.000000	-0.000076
3767.000000	-0.000083
3766.000000	-0.000066
3765.000000	-0.000040
3764.000000	-0.000019
3763.000000	-0.000002
3762.000000	0.000016
3761.000000	0.000030
3760.000000	0.000032
3759.000000	0.000024
3758.000000	0.000012
3757.000000	0.000002
3756.000000	0.000001
3755.000000	0.000015
3754.000000	0.000048
3753.000000	0.000095
3752.000000	0.000143
3751.000000	0.000171
3750.000000	0.000161
3749.000000	0.000116
3748.000000	0.000060
3747.000000	0.000022
3746.000000	0.000008
3745.000000	-0.000009
3744.000000	-0.000051
3743.000000	-0.000095
3742.000000	-0.000114
3741.000000	-0.000113
3740.000000	-0.000112
3739.000000	-0.000119
3738.000000	-0.000119
3737.000000	-0.000109
3736.000000	-0.000096
3735.000000	-0.000085
3734.000000	-0.000064
3733.000000	-0.000027
3732.000000	0.000006
3731.000000	0.000023
3730.000000	0.000038
3729.000000	0.000070
3728.000000	0.000117
3727.000000	0.000153
3726.000000	0.000158
3725.000000	0.000142
3724.000000	0.000126
3723.000000	0.000115
3722.000000	0.000100
3721.000000	0.000074
3720.000000	0.000039
3719.000000	0.000010
3718.000000	-0.000002
3717.000000	-0.000000
3716.000000	0.000006
3715.000000	0.000007
3714.000000	0.000005
3713.000000	0.000012
3712.000000	0.000036
3711.000000	0.000063
3710.000000	0.000067
3709.000000	0.000043
3708.000000	0.000001
3707.000000	-0.000047
3706.000000	-0.000088
3705.000000	-0.000117
3704.000000	-0.000130
3703.000000	-0.000130
3702.000000	-0.000124
3701.000000	-0.000113
3700.000000	-0.000097
3699.000000	-0.000073
3698.000000	-0.000047
3697.000000	-0.000029
3696.000000	-0.000026
3695.000000	-0.000027
3694.000000	-0.000021
3693.000000	-0.000014
3692.000000	-0.000023
3691.000000	-0.000057
3690.000000	-0.000100
3689.000000	-0.000120
3688.000000	-0.000103
3687.000000	-0.000069
3686.000000	-0.000046
3685.000000	-0.000042
3684.000000	-0.000052
3683.000000	-0.000063
3682.000000	-0.000062
3681.000000	-0.000046
3680.000000	-0.000024
3679.000000	0.000002
3678.000000	0.000038
3677.000000	0.000074
3676.000000	0.000076
3675.000000	0.000026
3674.000000	-0.000028
3673.000000	-0.000042
3672.000000	-0.000011
3671.000000	0.000032
3670.000000	0.000049
3669.000000	0.000037
3668.000000	0.000013
3667.000000	-0.000009
3666.000000	-0.000027
3665.000000	-0.000033
3664.000000	-0.000018
3663.000000	0.000023
3662.000000	0.000070
3661.000000	0.000098
3660.000000	0.000089
3659.000000	0.000054
3658.000000	0.000012
3657.000000	-0.000015
3656.000000	-0.000026
3655.000000	-0.000027
3654.000000	-0.000023
3653.000000	-0.000017
3652.000000	-0.000010
3651.000000	-0.000003
3650.000000	0.000007
3649.000000	0.000018
3648.000000	0.000029
3647.000000	0.000032
3646.000000	0.000028
3645.000000	0.000016
3644.000000	0.000002
3643.000000	-0.000007
3642.000000	-0.000007
3641.000000	0.000001
3640.000000	0.000011
3639.000000	0.000017
3638.000000	0.000012
3637.000000	0.000003
3636.000000	0.000000
3635.000000	0.000008
3634.000000	0.000016
3633.000000	0.000014
3632.000000	0.000009
3631.000000	0.000014
3630.000000	0.000036
3629.000000	0.000059
3628.000000	0.000073
3627.000000	0.000087
3626.000000	0.000107
3625.000000	0.000116
3624.000000	0.000095
3623.000000	0.000041
3622.000000	-0.000037
3621.000000	-0.000119
3620.000000	-0.000183
3619.000000	-0.000210
3618.000000	-0.000191
3617.000000	-0.000137
3616.000000	-0.000065
3615.000000	0.000013
3614.000000	0.000082
3613.000000	0.000129
3612.000000	0.000155
3611.000000	0.000170
3610.000000	0.000185
3609.000000	0.000202
3608.000000	0.000212
3607.000000	0.000208
3606.000000	0.000196
3605.000000	0.000181
3604.000000	0.000165
3603.000000	0.000148
3602.000000	0.000130
3601.000000	0.000113
3600.000000	0.000095
3599.000000	0.000075
3598.000000	0.000052
3597.000000	0.000033
3596.000000	0.000031
3595.000000	0.000049
3594.000000	0.000074
3593.000000	0.000087
3592.000000	0.000083
3591.000000	0.000073
3590.000000	0.000072
3589.000000	0.000086
3588.000000	0.000105
3587.000000	0.000111
3586.000000	0.000105
3585.000000	0.000097
3584.000000	0.000088
3583.000000	0.000078
3582.000000	0.000065
3581.000000	0.000053
3580.000000	0.000041
3579.000000	0.000028
3578.000000	0.000013
3577.000000	-0.000002
3576.000000	-0.000009
3575.000000	-0.000004
3574.000000	0.000014
3573.000000	0.000044
3572.000000	0.000082
3571.000000	0.000123
3570.000000	0.000165
3569.000000	0.000203
3568.000000	0.000228
3567.000000	0.000233
3566.000000	0.000223
3565.000000	0.000218
3564.000000	0.000226
3563.000000	0.000237
3562.000000	0.000237
3561.000000	0.000222
3560.000000	0.000201
3559.000000	0.000183
3558.000000	0.000172
3557.000000	0.000164
3556.000000	0.000161
3555.000000	0.000172
3554.000000	0.000200
3553.000000	0.000240
3552.000000	0.000277
3551.000000	0.000298
3550.000000	0.000305
3549.000000	0.000303
3548.000000	0.000295
3547.000000	0.000282
3546.000000	0.000264
3545.000000	0.000248
3544.000000	0.000243
3543.000000	0.000254
3542.000000	0.000272
3541.000000	0.000283
3540.000000	0.000280
3539.000000	0.000269
3538.000000	0.000264
3537.000000	0.000267
3536.000000	0.000270
3535.000000	0.000264
3534.000000	0.000250
3533.000000	0.000237
3532.000000	0.000233
3531.000000	0.000234
3530.000000	0.000238
3529.000000	0.000242
3528.000000	0.000252
3527.000000	0.000264
3526.000000	0.000274
3525.000000	0.000274
3524.000000	0.000269
3523.000000	0.000267
3522.000000	0.000270
3521.000000	0.000274
3520.000000	0.000274
3519.000000	0.000267
3518.000000	0.000255
3517.000000	0.000242
3516.000000	0.000233
3515.000000	0.000231
3514.000000	0.000236
3513.000000	0.000246
3512.000000	0.000258
3511.000000	0.000266
3510.000000	0.000269
3509.000000	0.000269
3508.000000	0.000275
3507.000000	0.000288
3506.000000	0.000304
3505.000000	0.000314
3504.000000	0.000316
3503.000000	0.000312
3502.000000	0.000309
3501.000000	0.000308
3500.000000	0.000304
3499.000000	0.000295
3498.000000	0.000285
3497.000000	0.000285
3496.000000	0.000298
3495.000000	0.000314
3494.000000	0.000320
3493.000000	0.000314
3492.000000	0.000304
3491.000000	0.000303
3490.000000	0.000309
3489.000000	0.000314
3488.000000	0.000314
3487.000000	0.000314
3486.000000	0.000319
3485.000000	0.000331
3484.000000	0.000345
3483.000000	0.000352
3482.000000	0.000349
3481.000000	0.000340
3480.000000	0.000330
3479.000000	0.000328
3478.000000	0.000333
3477.000000	0.000344
3476.000000	0.000353
3475.000000	0.000360
3474.000000	0.000363
3473.000000	0.000367
3472.000000	0.000371
3471.000000	0.000377
3470.000000	0.000383
3469.000000	0.000383
3468.000000	0.000378
3467.000000	0.000371
3466.000000	0.000364
3465.000000	0.000358
3464.000000	0.000348
3463.000000	0.000335
3462.000000	0.000319
3461.000000	0.000303
3460.000000	0.000291
3459.000000	0.000290
3458.000000	0.000302
3457.000000	0.000326
3456.000000	0.000351
3455.000000	0.000368
3454.000000	0.000374
3453.000000	0.000374
3452.000000	0.000372
3451.000000	0.000370
3450.000000	0.000366
3449.000000	0.000356
3448.000000	0.000345
3447.000000	0.000341
3446.000000	0.000354
3445.000000	0.000382
3444.000000	0.000413
3443.000000	0.000430
3442.000000	0.000423
3441.000000	0.000400
3440.000000	0.000376
3439.000000	0.000362
3438.000000	0.000360
3437.000000	0.000364
3436.000000	0.000369
3435.000000	0.000377
3434.000000	0.000383
3433.000000	0.000383
3432.000000	0.000374
3431.000000	0.000364
3430.000000	0.000361
3429.000000	0.000364
3428.000000	0.000367
3427.000000	0.000363
3426.000000	0.000358
3425.000000	0.000360
3424.000000	0.000372
3423.000000	0.000387
3422.000000	0.000398
3421.000000	0.000404
3420.000000	0.000409
3419.000000	0.000413
3418.000000	0.000412
3417.000000	0.000405
3416.000000	0.000397
3415.000000	0.000395
3414.000000	0.000399
3413.000000	0.000401
3412.000000	0.000400
3411.000000	0.000401
3410.000000	0.000403
3409.000000	0.000401
3408.000000	0.000392
3407.000000	0.000378
3406.000000	0.000369
3405.000000	0.000369
3404.000000	0.000378
3403.000000	0.000391
3402.000000	0.000409
3401.000000	0.000432
3400.000000	0.000457
3399.000000	0.000478
3398.000000	0.000489
3397.000000	0.000493
3396.000000	0.000495
3395.000000	0.000501
3394.000000	0.000505
3393.000000	0.000494
3392.000000	0.000462
3391.000000	0.000419
3390.000000	0.000385
3389.000000	0.000373
3388.000000	0.000380
3387.000000	0.000398
3386.000000	0.000421
3385.000000	0.000446
3384.000000	0.000474
3383.000000	0.000504
3382.000000	0.000531
3381.000000	0.000545
3380.000000	0.000537
3379.000000	0.000512
3378.000000	0.000481
3377.000000	0.000454
3376.000000	0.000439
3375.000000	0.000436
3374.000000	0.000441
3373.000000	0.000450
3372.000000	0.000461
3371.000000	0.000476
3370.000000	0.000496
3369.000000	0.000516
3368.000000	0.000529
3367.000000	0.000533
3366.000000	0.000531
3365.000000	0.000525
3364.000000	0.000517
3363.000000	0.000503
3362.000000	0.000489
3361.000000	0.000482
3360.000000	0.000489
3359.000000	0.000512
3358.000000	0.000538
3357.000000	0.000554
3356.000000	0.000552
3355.000000	0.000541
3354.000000	0.000535
3353.000000	0.000545
3352.000000	0.000565
3351.000000	0.000578
3350.000000	0.000577
3349.000000	0.000560
3348.000000	0.000536
3347.000000	0.000513
3346.000000	0.000500
3345.000000	0.000499
3344.000000	0.000508
3343.000000	0.000522
3342.000000	0.000537
3341.000000	0.000553
3340.000000	0.000573
3339.000000	0.000594
3338.000000	0.000615
3337.000000	0.000627
3336.000000	0.000630
3335.000000	0.000627
3334.000000	0.000624
3333.000000	0.000623
3332.000000	0.000619
3331.000000	0.000607
3330.000000	0.000591
3329.000000	0.000581
3328.000000	0.000584
3327.000000	0.000596
3326.000000	0.000605
3325.000000	0.000600
3324.000000	0.000581
3323.000000	0.000554
3322.000000	0.000528
3321.000000	0.000508
3320.000000	0.000494
3319.000000	0.000491
3318.000000	0.000507
3317.000000	0.000546
3316.000000	0.000602
3315.000000	0.000651
3314.000000	0.000673
3313.000000	0.000665
3312.000000	0.000643
3311.000000	0.000627
3310.000000	0.000623
3309.000000	0.000629
3308.000000	0.000638
3307.000000	0.000646
3306.000000	0.000655
3305.000000	0.000664
3304.000000	0.000672
3303.000000	0.000673
3302.000000	0.000662
3301.000000	0.000644
3300.000000	0.000630
3299.000000	0.000624
3298.000000	0.000624
3297.000000	0.000623
3296.000000	0.000621
3295.000000	0.000623
3294.000000	0.000632
3293.000000	0.000644
3292.000000	0.000653
3291.000000	0.000653
3290.000000	0.000644
3289.000000	0.000628
3288.000000	0.000612
3287.000000	0.000599
3286.000000	0.000590
3285.000000	0.000580
3284.000000	0.000569
3283.000000	0.000564
3282.000000	0.000572
3281.000000	0.000588
3280.000000	0.000598
3279.000000	0.000596
3278.000000	0.000589
3277.000000	0.000593
3276.000000	0.000617
3275.000000	0.000653
3274.000000	0.000680
3273.000000	0.000684
3272.000000	0.000668
3271.000000	0.000646
3270.000000	0.000632
3269.000000	0.000633
3268.000000	0.000649
3267.000000	0.000672
3266.000000	0.000694
3265.000000	0.000709
3264.000000	0.000715
3263.000000	0.000713
3262.000000	0.000702
3261.000000	0.000685
3260.000000	0.000670
3259.000000	0.000668
3258.000000	0.000680
3257.000000	0.000694
3256.000000	0.000697
3255.000000	0.000687
3254.000000	0.000670
3253.000000	0.000653
3252.000000	0.000639
3251.000000	0.000632
3250.000000	0.000638
3249.000000	0.000654
3248.000000	0.000675
3247.000000	0.000694
3246.000000	0.000706
3245.000000	0.000709
3244.000000	0.000701
3243.000000	0.000686
3242.000000	0.000667
3241.000000	0.000646
3240.000000	0.000625
3239.000000	0.000604
3238.000000	0.000587
3237.000000	0.000573
3236.000000	0.000568
3235.000000	0.000573
3234.000000	0.000588
3233.000000	0.000606
3232.000000	0.000616
3231.000000	0.000611
3230.000000	0.000592
3229.000000	0.000568
3228.000000	0.000551
3227.000000	0.000546
3226.000000	0.000554
3225.000000	0.000573
3224.000000	0.000596
3223.000000	0.000622
3222.000000	0.000642
3221.000000	0.000652
3220.000000	0.000654
3219.000000	0.000652
3218.000000	0.000647
3217.000000	0.000633
3216.000000	0.000610
3215.000000	0.000586
3214.000000	0.000575
3213.000000	0.000582
3212.000000	0.000596
3211.000000	0.000604
3210.000000	0.000595
3209.000000	0.000572
3208.000000	0.000549
3207.000000	0.000545
3206.000000	0.000566
3205.000000	0.000600
3204.000000	0.000628
3203.000000	0.000636
3202.000000	0.000627
3201.000000	0.000608
3200.000000	0.000585
3199.000000	0.000559
3198.000000	0.000532
3197.000000	0.000511
3196.000000	0.000498
3195.000000	0.000493
3194.000000	0.000491
3193.000000	0.000488
3192.000000	0.000482
3191.000000	0.000477
3190.000000	0.000478
3189.000000	0.000491
3188.000000	0.000513
3187.000000	0.000533
3186.000000	0.000539
3185.000000	0.000529
3184.000000	0.000515
3183.000000	0.000515
3182.000000	0.000532
3181.000000	0.000556
3180.000000	0.000572
3179.000000	0.000571
3178.000000	0.000557
3177.000000	0.000541
3176.000000	0.000528
3175.000000	0.000518
3174.000000	0.000502
3173.000000	0.000481
3172.000000	0.000466
3171.000000	0.000473
3170.000000	0.000499
3169.000000	0.000525
3168.000000	0.000527
3167.000000	0.000505
3166.000000	0.000475
3165.000000	0.000457
3164.000000	0.000456
3163.000000	0.000465
3162.000000	0.000470
3161.000000	0.000465
3160.000000	0.000455
3159.000000	0.000449
3158.000000	0.000453
3157.000000	0.000467
3156.000000	0.000485
3155.000000	0.000508
3154.000000	0.000533
3153.000000	0.000550
3152.000000	0.000552
3151.000000	0.000538
3150.000000	0.000516
3149.000000	0.000499
3148.000000	0.000492
3147.000000	0.000493
3146.000000	0.000497
3145.000000	0.000496
3144.000000	0.000492
3143.000000	0.000488
3142.000000	0.000485
3141.000000	0.000479
3140.000000	0.000470
3139.000000	0.000462
3138.000000	0.000463
3137.000000	0.000473
3136.000000	0.000483
3135.000000	0.000483
3134.000000	0.000477
3133.000000	0.000471
3132.000000	0.000474
3131.000000	0.000486
3130.000000	0.000502
3129.000000	0.000514
3128.000000	0.000519
3127.000000	0.000518
3126.000000	0.000515
3125.000000	0.000510
3124.000000	0.000501
3123.000000	0.000493
3122.000000	0.000493
3121.000000	0.000500
3120.000000	0.000507
3119.000000	0.000508
3118.000000	0.000499
3117.000000	0.000484
3116.000000	0.000468
3115.000000	0.000457
3114.000000	0.000454
3113.000000	0.000459
3112.000000	0.000470
3111.000000	0.000486
3110.000000	0.000503
3109.000000	0.000513
3108.000000	0.000507
3107.000000	0.000488
3106.000000	0.000465
3105.000000	0.000447
3104.000000	0.000440
3103.000000	0.000444
3102.000000	0.000457
3101.000000	0.000472
3100.000000	0.000477
3099.000000	0.000466
3098.000000	0.000445
3097.000000	0.000426
3096.000000	0.000413
3095.000000	0.000406
3094.000000	0.000408
3093.000000	0.000421
3092.000000	0.000444
3091.000000	0.000467
3090.000000	0.000481
3089.000000	0.000477
3088.000000	0.000459
3087.000000	0.000440
3086.000000	0.000432
3085.000000	0.000435
3084.000000	0.000442
3083.000000	0.000446
3082.000000	0.000445
3081.000000	0.000445
3080.000000	0.000447
3079.000000	0.000453
3078.000000	0.000462
3077.000000	0.000468
3076.000000	0.000464
3075.000000	0.000444
3074.000000	0.000415
3073.000000	0.000390
3072.000000	0.000375
3071.000000	0.000368
3070.000000	0.000364
3069.000000	0.000365
3068.000000	0.000374
3067.000000	0.000392
3066.000000	0.000412
3065.000000	0.000427
3064.000000	0.000431
3063.000000	0.000429
3062.000000	0.000429
3061.000000	0.000438
3060.000000	0.000450
3059.000000	0.000459
3058.000000	0.000463
3057.000000	0.000466
3056.000000	0.000472
3055.000000	0.000485
3054.000000	0.000496
3053.000000	0.000493
3052.000000	0.000472
3051.000000	0.000442
3050.000000	0.000423
3049.000000	0.000425
3048.000000	0.000438
3047.000000	0.000444
3046.000000	0.000435
3045.000000	0.000415
3044.000000	0.000397
3043.000000	0.000388
3042.000000	0.000391
3041.000000	0.000401
3040.000000	0.000405
3039.000000	0.000396
3038.000000	0.000383
3037.000000	0.000380
3036.000000	0.000399
3035.000000	0.000432
3034.000000	0.000461
3033.000000	0.000470
3032.000000	0.000454
3031.000000	0.000425
3030.000000	0.000402
3029.000000	0.000397
3028.000000	0.000413
3027.000000	0.000441
3026.000000	0.000470
3025.000000	0.000490
3024.000000	0.000492
3023.000000	0.000476
3022.000000	0.000456
3021.000000	0.000448
3020.000000	0.000459
3019.000000	0.000478
3018.000000	0.000487
3017.000000	0.000482
3016.000000	0.000473
3015.000000	0.000471
3014.000000	0.000478
3013.000000	0.000481
3012.000000	0.000475
3011.000000	0.000467
3010.000000	0.000473
3009.000000	0.000497
3008.000000	0.000526
3007.000000	0.000546
3006.000000	0.000553
3005.000000	0.000554
3004.000000	0.000556
3003.000000	0.000564
3002.000000	0.000579
3001.000000	0.000603
3000.000000	0.000632
2999.000000	0.000660
2998.000000	0.000681
2997.000000	0.000689
2996.000000	0.000684
2995.000000	0.000675
2994.000000	0.000672
2993.000000	0.000684
2992.000000	0.000710
2991.000000	0.000746
2990.000000	0.000782
2989.000000	0.000815
2988.000000	0.000841
2987.000000	0.000855
2986.000000	0.000859
2985.000000	0.000861
2984.000000	0.000871
2983.000000	0.000894
2982.000000	0.000927
2981.000000	0.000963
2980.000000	0.000993
2979.000000	0.001016
2978.000000	0.001037
2977.000000	0.001062
2976.000000	0.001095
2975.000000	0.001134
2974.000000	0.001175
2973.000000	0.001215
2972.000000	0.001256
2971.000000	0.001301
2970.000000	0.001351
2969.000000	0.001402
2968.000000	0.001446
2967.000000	0.001478
2966.000000	0.001500
2965.000000	0.001522
2964.000000	0.001549
2963.000000	0.001585
2962.000000	0.001625
2961.000000	0.001665
2960.000000	0.001696
2959.000000	0.001712
2958.000000	0.001714
2957.000000	0.001706
2956.000000	0.001693
2955.000000	0.001674
2954.000000	0.001648
2953.000000	0.001611
2952.000000	0.001569
2951.000000	0.001533
2950.000000	0.001512
2949.000000	0.001508
2948.000000	0.001515
2947.000000	0.001527
2946.000000	0.001547
2945.000000	0.001578
2944.000000	0.001616
2943.000000	0.001654
2942.000000	0.001690
2941.000000	0.001727
2940.000000	0.001767
2939.000000	0.001803
2938.000000	0.001833
2937.000000	0.001858
2936.000000	0.001885
2935.000000	0.001916
2934.000000	0.001949
2933.000000	0.001980
2932.000000	0.002007
2931.000000	0.002026
2930.000000	0.002031
2929.000000	0.002020
2928.000000	0.001992
2927.000000	0.001953
2926.000000	0.001920
2925.000000	0.001904
2924.000000	0.001898
2923.000000	0.001885
2922.000000	0.001850
2921.000000	0.001794
2920.000000	0.001731
2919.000000	0.001672
2918.000000	0.001627
2917.000000	0.001601
2916.000000	0.001593
2915.000000	0.001591
2914.000000	0.001580
2913.000000	0.001562
2912.000000	0.001547
2911.000000	0.001542
2910.000000	0.001542
2909.000000	0.001539
2908.000000	0.001530
2907.000000	0.001519
2906.000000	0.001504
2905.000000	0.001481
2904.000000	0.001448
2903.000000	0.001409
2902.000000	0.001373
2901.000000	0.001346
2900.000000	0.001332
2899.000000	0.001325
2898.000000	0.001316
2897.000000	0.001297
2896.000000	0.001271
2895.000000	0.001245
2894.000000	0.001227
2893.000000	0.001216
2892.000000	0.001202
2891.000000	0.001178
2890.000000	0.001145
2889.000000	0.001114
2888.000000	0.001099
2887.000000	0.001105
2886.000000	0.001126
2885.000000	0.001150
2884.000000	0.001164
2883.000000	0.001169
2882.000000	0.001173
2881.000000	0.001187
2880.000000	0.001212
2879.000000	0.001244
2878.000000	0.001271
2877.000000	0.001290
2876.000000	0.001304
2875.000000	0.001323
2874.000000	0.001350
2873.000000	0.001377
2872.000000	0.001391
2871.000000	0.001390
2870.000000	0.001380
2869.000000	0.001374
2868.000000	0.001380
2867.000000	0.001397
2866.000000	0.001416
2865.000000	0.001434
2864.000000	0.001449
2863.000000	0.001460
2862.000000	0.001467
2861.000000	0.001469
2860.000000	0.001464
2859.000000	0.001455
2858.000000	0.001446
2857.000000	0.001436
2856.000000	0.001424
2855.000000	0.001403
2854.000000	0.001367
2853.000000	0.001318
2852.000000	0.001256
2851.000000	0.001187
2850.000000	0.001118
2849.000000	0.001061
2848.000000	0.001032
2847.000000	0.001031
2846.000000	0.001042
2845.000000	0.001046
2844.000000	0.001030
2843.000000	0.001000
2842.000000	0.000968
2841.000000	0.000943
2840.000000	0.000925
2839.000000	0.000909
2838.000000	0.000893
2837.000000	0.000880
2836.000000	0.000871
2835.000000	0.000868
2834.000000	0.000866
2833.000000	0.000864
2832.000000	0.000859
2831.000000	0.000853
2830.000000	0.000848
2829.000000	0.000843
2828.000000	0.000839
2827.000000	0.000841
2826.000000	0.000852
2825.000000	0.000870
2824.000000	0.000891
2823.000000	0.000912
2822.000000	0.000926
2821.000000	0.000929
2820.000000	0.000914
2819.000000	0.000886
2818.000000	0.000852
2817.000000	0.000825
2816.000000	0.000810
2815.000000	0.000804
2814.000000	0.000798
2813.000000	0.000780
2812.000000	0.000748
2811.000000	0.000717
2810.000000	0.000708
2809.000000	0.000728
2808.000000	0.000767
2807.000000	0.000808
2806.000000	0.000836
2805.000000	0.000839
2804.000000	0.000815
2803.000000	0.000774
2802.000000	0.000734
2801.000000	0.000713
2800.000000	0.000715
2799.000000	0.000731
2798.000000	0.000750
2797.000000	0.000759
2796.000000	0.000755
2795.000000	0.000741
2794.000000	0.000731
2793.000000	0.000736
2792.000000	0.000757
2791.000000	0.000783
2790.000000	0.000805
2789.000000	0.000813
2788.000000	0.000805
2787.000000	0.000785
2786.000000	0.000765
2785.000000	0.000758
2784.000000	0.000764
2783.000000	0.000776
2782.000000	0.000784
2781.000000	0.000780
2780.000000	0.000766
2779.000000	0.000747
2778.000000	0.000734
2777.000000	0.000733
2776.000000	0.000743
2775.000000	0.000753
2774.000000	0.000755
2773.000000	0.000750
2772.000000	0.000744
2771.000000	0.000744
2770.000000	0.000755
2769.000000	0.000770
2768.000000	0.000776
2767.000000	0.000765
2766.000000	0.000744
2765.000000	0.000729
2764.000000	0.000728
2763.000000	0.000735
2762.000000	0.000743
2761.000000	0.000750
2760.000000	0.000755
2759.000000	0.000761
2758.000000	0.000768
2757.000000	0.000775
2756.000000	0.000779
2755.000000	0.000777
2754.000000	0.000772
2753.000000	0.000773
2752.000000	0.000781
2751.000000	0.000790
2750.000000	0.000792
2749.000000	0.000785
2748.000000	0.000771
2747.000000	0.000754
2746.000000	0.000736
2745.000000	0.000721
2744.000000	0.000716
2743.000000	0.000724
2742.000000	0.000737
2741.000000	0.000745
2740.000000	0.000741
2739.000000	0.000727
2738.000000	0.000713
2737.000000	0.000708
2736.000000	0.000713
2735.000000	0.000722
2734.000000	0.000729
2733.000000	0.000734
2732.000000	0.000735
2731.000000	0.000736
2730.000000	0.000738
2729.000000	0.000746
2728.000000	0.000758
2727.000000	0.000770
2726.000000	0.000779
2725.000000	0.000789
2724.000000	0.000800
2723.000000	0.000809
2722.000000	0.000805
2721.000000	0.000786
2720.000000	0.000754
2719.000000	0.000722
2718.000000	0.000700
2717.000000	0.000695
2716.000000	0.000703
2715.000000	0.000716
2714.000000	0.000725
2713.000000	0.000731
2712.000000	0.000733
2711.000000	0.000731
2710.000000	0.000728
2709.000000	0.000729
2708.000000	0.000738
2707.000000	0.000750
2706.000000	0.000757
2705.000000	0.000756
2704.000000	0.000755
2703.000000	0.000760
2702.000000	0.000770
2701.000000	0.000779
2700.000000	0.000783
2699.000000	0.000784
2698.000000	0.000785
2697.000000	0.000788
2696.000000	0.000787
2695.000000	0.000776
2694.000000	0.000755
2693.000000	0.000737
2692.000000	0.000729
2691.000000	0.000729
2690.000000	0.000726
2689.000000	0.000720
2688.000000	0.000719
2687.000000	0.000729
2686.000000	0.000740
2685.000000	0.000744
2684.000000	0.000737
2683.000000	0.000726
2682.000000	0.000717
2681.000000	0.000708
2680.000000	0.000697
2679.000000	0.000689
2678.000000	0.000690
2677.000000	0.000706
2676.000000	0.000735
2675.000000	0.000764
2674.000000	0.000781
2673.000000	0.000783
2672.000000	0.000777
2671.000000	0.000772
2670.000000	0.000770
2669.000000	0.000770
2668.000000	0.000767
2667.000000	0.000762
2666.000000	0.000762
2665.000000	0.000775
2664.000000	0.000801
2663.000000	0.000830
2662.000000	0.000849
2661.000000	0.000852
2660.000000	0.000844
2659.000000	0.000834
2658.000000	0.000827
2657.000000	0.000820
2656.000000	0.000815
2655.000000	0.000819
2654.000000	0.000834
2653.000000	0.000850
2652.000000	0.000857
2651.000000	0.000851
2650.000000	0.000839
2649.000000	0.000831
2648.000000	0.000828
2647.000000	0.000824
2646.000000	0.000814
2645.000000	0.000799
2644.000000	0.000786
2643.000000	0.000780
2642.000000	0.000775
2641.000000	0.000766
2640.000000	0.000752
2639.000000	0.000738
2638.000000	0.000733
2637.000000	0.000740
2636.000000	0.000756
2635.000000	0.000769
2634.000000	0.000766
2633.000000	0.000745
2632.000000	0.000716
2631.000000	0.000694
2630.000000	0.000687
2629.000000	0.000695
2628.000000	0.000714
2627.000000	0.000734
2626.000000	0.000746
2625.000000	0.000743
2624.000000	0.000728
2623.000000	0.000713
2622.000000	0.000704
2621.000000	0.000699
2620.000000	0.000688
2619.000000	0.000669
2618.000000	0.000649
2617.000000	0.000642
2616.000000	0.000653
2615.000000	0.000675
2614.000000	0.000692
2613.000000	0.000699
2612.000000	0.000703
2611.000000	0.000719
2610.000000	0.000745
2609.000000	0.000766
2608.000000	0.000768
2607.000000	0.000749
2606.000000	0.000723
2605.000000	0.000706
2604.000000	0.000698
2603.000000	0.000691
2602.000000	0.000678
2601.000000	0.000665
2600.000000	0.000659
2599.000000	0.000651
2598.000000	0.000626
2597.000000	0.000581
2596.000000	0.000536
2595.000000	0.000513
2594.000000	0.000515
2593.000000	0.000522
2592.000000	0.000523
2591.000000	0.000527
2590.000000	0.000544
2589.000000	0.000571
2588.000000	0.000597
2587.000000	0.000614
2586.000000	0.000619
2585.000000	0.000616
2584.000000	0.000612
2583.000000	0.000618
2582.000000	0.000628
2581.000000	0.000622
2580.000000	0.000582
2579.000000	0.000518
2578.000000	0.000467
2577.000000	0.000455
2576.000000	0.000478
2575.000000	0.000512
2574.000000	0.000536
2573.000000	0.000546
2572.000000	0.000551
2571.000000	0.000561
2570.000000	0.000581
2569.000000	0.000607
2568.000000	0.000630
2567.000000	0.000644
2566.000000	0.000642
2565.000000	0.000621
2564.000000	0.000587
2563.000000	0.000554
2562.000000	0.000538
2561.000000	0.000541
2560.000000	0.000550
2559.000000	0.000549
2558.000000	0.000535
2557.000000	0.000514
2556.000000	0.000493
2555.000000	0.000473
2554.000000	0.000450
2553.000000	0.000423
2552.000000	0.000397
2551.000000	0.000383
2550.000000	0.000391
2549.000000	0.000418
2548.000000	0.000457
2547.000000	0.000501
2546.000000	0.000548
2545.000000	0.000593
2544.000000	0.000621
2543.000000	0.000619
2542.000000	0.000588
2541.000000	0.000543
2540.000000	0.000507
2539.000000	0.000498
2538.000000	0.000515
2537.000000	0.000541
2536.000000	0.000559
2535.000000	0.000560
2534.000000	0.000556
2533.000000	0.000558
2532.000000	0.000566
2531.000000	0.000569
2530.000000	0.000556
2529.000000	0.000528
2528.000000	0.000496
2527.000000	0.000469
2526.000000	0.000450
2525.000000	0.000433
2524.000000	0.000417
2523.000000	0.000411
2522.000000	0.000431
2521.000000	0.000481
2520.000000	0.000544
2519.000000	0.000594
2518.000000	0.000618
2517.000000	0.000621
2516.000000	0.000616
2515.000000	0.000616
2514.000000	0.000626
2513.000000	0.000644
2512.000000	0.000658
2511.000000	0.000665
2510.000000	0.000669
2509.000000	0.000676
2508.000000	0.000680
2507.000000	0.000668
2506.000000	0.000639
2505.000000	0.000607
2504.000000	0.000590
2503.000000	0.000594
2502.000000	0.000610
2501.000000	0.000624
2500.000000	0.000620
2499.000000	0.000597
2498.000000	0.000569
2497.000000	0.000559
2496.000000	0.000574
2495.000000	0.000602
2494.000000	0.000622
2493.000000	0.000624
2492.000000	0.000607
2491.000000	0.000580
2490.000000	0.000552
2489.000000	0.000532
2488.000000	0.000523
2487.000000	0.000516
2486.000000	0.000505
2485.000000	0.000493
2484.000000	0.000490
2483.000000	0.000500
2482.000000	0.000513
2481.000000	0.000517
2480.000000	0.000516
2479.000000	0.000518
2478.000000	0.000525
2477.000000	0.000524
2476.000000	0.000506
2475.000000	0.000477
2474.000000	0.000459
2473.000000	0.000467
2472.000000	0.000497
2471.000000	0.000528
2470.000000	0.000545
2469.000000	0.000544
2468.000000	0.000534
2467.000000	0.000516
2466.000000	0.000493
2465.000000	0.000476
2464.000000	0.000478
2463.000000	0.000505
2462.000000	0.000546
2461.000000	0.000582
2460.000000	0.000598
2459.000000	0.000593
2458.000000	0.000579
2457.000000	0.000573
2456.000000	0.000580
2455.000000	0.000596
2454.000000	0.000609
2453.000000	0.000615
2452.000000	0.000616
2451.000000	0.000617
2450.000000	0.000618
2449.000000	0.000612
2448.000000	0.000597
2447.000000	0.000578
2446.000000	0.000559
2445.000000	0.000550
2444.000000	0.000557
2443.000000	0.000575
2442.000000	0.000586
2441.000000	0.000568
2440.000000	0.000518
2439.000000	0.000460
2438.000000	0.000430
2437.000000	0.000440
2436.000000	0.000475
2435.000000	0.000510
2434.000000	0.000536
2433.000000	0.000554
2432.000000	0.000562
2431.000000	0.000547
2430.000000	0.000511
2429.000000	0.000473
2428.000000	0.000461
2427.000000	0.000485
2426.000000	0.000535
2425.000000	0.000587
2424.000000	0.000620
2423.000000	0.000618
2422.000000	0.000585
2421.000000	0.000536
2420.000000	0.000492
2419.000000	0.000467
2418.000000	0.000461
2417.000000	0.000462
2416.000000	0.000451
2415.000000	0.000420
2414.000000	0.000380
2413.000000	0.000358
2412.000000	0.000369
2411.000000	0.000401
2410.000000	0.000431
2409.000000	0.000445
2408.000000	0.000451
2407.000000	0.000453
2406.000000	0.000452
2405.000000	0.000443
2404.000000	0.000432
2403.000000	0.000431
2402.000000	0.000444
2401.000000	0.000469
2400.000000	0.000494
2399.000000	0.000501
2398.000000	0.000483
2397.000000	0.000450
2396.000000	0.000429
2395.000000	0.000438
2394.000000	0.000466
2393.000000	0.000482
2392.000000	0.000467
2391.000000	0.000439
2390.000000	0.000428
2389.000000	0.000447
2388.000000	0.000479
2387.000000	0.000498
2386.000000	0.000491
2385.000000	0.000467
2384.000000	0.000445
2383.000000	0.000441
2382.000000	0.000458
2381.000000	0.000489
2380.000000	0.000520
2379.000000	0.000543
2378.000000	0.000554
2377.000000	0.000556
2376.000000	0.000554
2375.000000	0.000557
2374.000000	0.000570
2373.000000	0.000580
2372.000000	0.000572
2371.000000	0.000550
2370.000000	0.000533
2369.000000	0.000529
2368.000000	0.000530
2367.000000	0.000537
2366.000000	0.000558
2365.000000	0.000585
2364.000000	0.000604
2363.000000	0.000620
2362.000000	0.000657
2361.000000	0.000719
2360.000000	0.000779
2359.000000	0.000811
2358.000000	0.000812
2357.000000	0.000783
2356.000000	0.000742
2355.000000	0.000707
2354.000000	0.000653
2353.000000	0.000561
2352.000000	0.000492
2351.000000	0.000536
2350.000000	0.000679
2349.000000	0.000830
2348.000000	0.000899
2347.000000	0.000862
2346.000000	0.000777
2345.000000	0.000744
2344.000000	0.000801
2343.000000	0.000873
2342.000000	0.000899
2341.000000	0.000874
2340.000000	0.000842
2339.000000	0.000835
2338.000000	0.000846
2337.000000	0.000852
2336.000000	0.000847
2335.000000	0.000835
2334.000000	0.000800
2333.000000	0.000736
2332.000000	0.000670
2331.000000	0.000657
2330.000000	0.000696
2329.000000	0.000765
2328.000000	0.000839
2327.000000	0.000920
2326.000000	0.000996
2325.000000	0.001038
2324.000000	0.001041
2323.000000	0.001025
2322.000000	0.001026
2321.000000	0.001058
2320.000000	0.001106
2319.000000	0.001142
2318.000000	0.001143
2317.000000	0.001112
2316.000000	0.001057
2315.000000	0.000994
2314.000000	0.000946
2313.000000	0.000936
2312.000000	0.000965
2311.000000	0.001009
2310.000000	0.001032
2309.000000	0.001027
2308.000000	0.000999
2307.000000	0.000950
2306.000000	0.000866
2305.000000	0.000756
2304.000000	0.000649
2303.000000	0.000576
2302.000000	0.000547
2301.000000	0.000567
2300.000000	0.000633
2299.000000	0.000732
2298.000000	0.000825
2297.000000	0.000880
2296.000000	0.000884
2295.000000	0.000857
2294.000000	0.000822
2293.000000	0.000800
2292.000000	0.000800
2291.000000	0.000820
2290.000000	0.000841
2289.000000	0.000847
2288.000000	0.000843
2287.000000	0.000852
2286.000000	0.000892
2285.000000	0.000955
2284.000000	0.001010
2283.000000	0.001017
2282.000000	0.000961
2281.000000	0.000861
2280.000000	0.000762
2279.000000	0.000701
2278.000000	0.000688
2277.000000	0.000706
2276.000000	0.000730
2275.000000	0.000733
2274.000000	0.000704
2273.000000	0.000659
2272.000000	0.000625
2271.000000	0.000622
2270.000000	0.000646
2269.000000	0.000676
2268.000000	0.000685
2267.000000	0.000641
2266.000000	0.000534
2265.000000	0.000404
2264.000000	0.000335
2263.000000	0.000385
2262.000000	0.000536
2261.000000	0.000717
2260.000000	0.000860
2259.000000	0.000935
2258.000000	0.000934
2257.000000	0.000861
2256.000000	0.000738
2255.000000	0.000604
2254.000000	0.000501
2253.000000	0.000457
2252.000000	0.000471
2251.000000	0.000514
2250.000000	0.000539
2249.000000	0.000516
2248.000000	0.000461
2247.000000	0.000424
2246.000000	0.000447
2245.000000	0.000536
2244.000000	0.000653
2243.000000	0.000748
2242.000000	0.000794
2241.000000	0.000807
2240.000000	0.000812
2239.000000	0.000811
2238.000000	0.000781
2237.000000	0.000711
2236.000000	0.000625
2235.000000	0.000560
2234.000000	0.000534
2233.000000	0.000547
2232.000000	0.000600
2231.000000	0.000684
2230.000000	0.000757
2229.000000	0.000773
2228.000000	0.000718
2227.000000	0.000630
2226.000000	0.000563
2225.000000	0.000546
2224.000000	0.000559
2223.000000	0.000570
2222.000000	0.000565
2221.000000	0.000565
2220.000000	0.000583
2219.000000	0.000597
2218.000000	0.000574
2217.000000	0.000531
2216.000000	0.000515
2215.000000	0.000536
2214.000000	0.000537
2213.000000	0.000476
2212.000000	0.000396
2211.000000	0.000373
2210.000000	0.000421
2209.000000	0.000492
2208.000000	0.000547
2207.000000	0.000591
2206.000000	0.000627
2205.000000	0.000631
2204.000000	0.000582
2203.000000	0.000503
2202.000000	0.000438
2201.000000	0.000406
2200.000000	0.000398
2199.000000	0.000409
2198.000000	0.000455
2197.000000	0.000544
2196.000000	0.000629
2195.000000	0.000627
2194.000000	0.000511
2193.000000	0.000366
2192.000000	0.000329
2191.000000	0.000442
2190.000000	0.000610
2189.000000	0.000716
2188.000000	0.000735
2187.000000	0.000734
2186.000000	0.000765
2185.000000	0.000823
2184.000000	0.000862
2183.000000	0.000822
2182.000000	0.000667
2181.000000	0.000454
2180.000000	0.000328
2179.000000	0.000380
2178.000000	0.000543
2177.000000	0.000664
2176.000000	0.000675
2175.000000	0.000627
2174.000000	0.000572
2173.000000	0.000499
2172.000000	0.000414
2171.000000	0.000398
2170.000000	0.000533
2169.000000	0.000788
2168.000000	0.001028
2167.000000	0.001128
2166.000000	0.001072
2165.000000	0.000961
2164.000000	0.000928
2163.000000	0.001012
2162.000000	0.001105
2161.000000	0.001054
2160.000000	0.000809
2159.000000	0.000452
2158.000000	0.000078
2157.000000	-0.000254
2156.000000	-0.000474
2155.000000	-0.000494
2154.000000	-0.000301
2153.000000	0.000008
2152.000000	0.000297
2151.000000	0.000460
2150.000000	0.000437
2149.000000	0.000228
2148.000000	-0.000079
2147.000000	-0.000334
2146.000000	-0.000433
2145.000000	-0.000376
2144.000000	-0.000222
2143.000000	-0.000023
2142.000000	0.000182
2141.000000	0.000340
2140.000000	0.000418
2139.000000	0.000440
2138.000000	0.000460
2137.000000	0.000494
2136.000000	0.000501
2135.000000	0.000436
2134.000000	0.000300
2133.000000	0.000153
2132.000000	0.000064
2131.000000	0.000048
2130.000000	0.000067
2129.000000	0.000073
2128.000000	0.000065
2127.000000	0.000072
2126.000000	0.000103
2125.000000	0.000136
2124.000000	0.000163
2123.000000	0.000210
2122.000000	0.000298
2121.000000	0.000407
2120.000000	0.000499
2119.000000	0.000558
2118.000000	0.000592
2117.000000	0.000609
2116.000000	0.000619
2115.000000	0.000635
2114.000000	0.000651
2113.000000	0.000642
2112.000000	0.000593
2111.000000	0.000539
2110.000000	0.000520
2109.000000	0.000530
2108.000000	0.000525
2107.000000	0.000491
2106.000000	0.000465
2105.000000	0.000488
2104.000000	0.000561
2103.000000	0.000651
2102.000000	0.000719
2101.000000	0.000733
2100.000000	0.000689
2099.000000	0.000612
2098.000000	0.000544
2097.000000	0.000500
2096.000000	0.000464
2095.000000	0.000431
2094.000000	0.000421
2093.000000	0.000450
2092.000000	0.000502
2091.000000	0.000543
2090.000000	0.000550
2089.000000	0.000527
2088.000000	0.000495
2087.000000	0.000481
2086.000000	0.000496
2085.000000	0.000526
2084.000000	0.000537
2083.000000	0.000517
2082.000000	0.000499
2081.000000	0.000527
2080.000000	0.000615
2079.000000	0.000729
2078.000000	0.000817
2077.000000	0.000832
2076.000000	0.000769
2075.000000	0.000667
2074.000000	0.000579
2073.000000	0.000533
2072.000000	0.000520
2071.000000	0.000520
2070.000000	0.000538
2069.000000	0.000591
2068.000000	0.000676
2067.000000	0.000763
2066.000000	0.000820
2065.000000	0.000840
2064.000000	0.000837
2063.000000	0.000828
2062.000000	0.000813
2061.000000	0.000782
2060.000000	0.000730
2059.000000	0.000674
2058.000000	0.000637
2057.000000	0.000627
2056.000000	0.000638
2055.000000	0.000674
2054.000000	0.000747
2053.000000	0.000847
2052.000000	0.000919
2051.000000	0.000902
2050.000000	0.000779
2049.000000	0.000605
2048.000000	0.000480
2047.000000	0.000482
2046.000000	0.000612
2045.000000	0.000787
2044.000000	0.000901
2043.000000	0.000893
2042.000000	0.000763
2041.000000	0.000554
2040.000000	0.000328
2039.000000	0.000176
2038.000000	0.000189
2037.000000	0.000379
2036.000000	0.000621
2035.000000	0.000740
2034.000000	0.000650
2033.000000	0.000415
2032.000000	0.000181
2031.000000	0.000062
2030.000000	0.000070
2029.000000	0.000121
2028.000000	0.000097
2027.000000	-0.000036
2026.000000	-0.000184
2025.000000	-0.000223
2024.000000	-0.000138
2023.000000	-0.000017
2022.000000	0.000073
2021.000000	0.000144
2020.000000	0.000208
2019.000000	0.000225
2018.000000	0.000166
2017.000000	0.000088
2016.000000	0.000083
2015.000000	0.000168
2014.000000	0.000279
2013.000000	0.000358
2012.000000	0.000401
2011.000000	0.000421
2010.000000	0.000407
2009.000000	0.000339
2008.000000	0.000233
2007.000000	0.000144
2006.000000	0.000125
2005.000000	0.000185
2004.000000	0.000294
2003.000000	0.000417
2002.000000	0.000536
2001.000000	0.000635
2000.000000	0.000692
1999.000000	0.000690
1998.000000	0.000636
1997.000000	0.000562
1996.000000	0.000497
1995.000000	0.000456
1994.000000	0.000449
1993.000000	0.000473
1992.000000	0.000491
1991.000000	0.000454
1990.000000	0.000357
1989.000000	0.000264
1988.000000	0.000237
1987.000000	0.000276
1986.000000	0.000335
1985.000000	0.000391
1984.000000	0.000451
1983.000000	0.000506
1982.000000	0.000521
1981.000000	0.000485
1980.000000	0.000437
1979.000000	0.000422
1978.000000	0.000430
1977.000000	0.000426
1976.000000	0.000406
1975.000000	0.000416
1974.000000	0.000493
1973.000000	0.000616
1972.000000	0.000711
1971.000000	0.000707
1970.000000	0.000609
1969.000000	0.000508
1968.000000	0.000506
1967.000000	0.000598
1966.000000	0.000667
1965.000000	0.000593
1964.000000	0.000376
1963.000000	0.000112
1962.000000	-0.000085
1961.000000	-0.000158
1960.000000	-0.000140
1959.000000	-0.000122
1958.000000	-0.000166
1957.000000	-0.000236
1956.000000	-0.000236
1955.000000	-0.000118
1954.000000	0.000064
1953.000000	0.000215
1952.000000	0.000304
1951.000000	0.000363
1950.000000	0.000408
1949.000000	0.000417
1948.000000	0.000383
1947.000000	0.000349
1946.000000	0.000364
1945.000000	0.000426
1944.000000	0.000490
1943.000000	0.000512
1942.000000	0.000474
1941.000000	0.000390
1940.000000	0.000303
1939.000000	0.000260
1938.000000	0.000274
1937.000000	0.000310
1936.000000	0.000322
1935.000000	0.000305
1934.000000	0.000290
1933.000000	0.000291
1932.000000	0.000287
1931.000000	0.000260
1930.000000	0.000231
1929.000000	0.000230
1928.000000	0.000260
1927.000000	0.000287
1926.000000	0.000269
1925.000000	0.000189
1924.000000	0.000071
1923.000000	-0.000023
1922.000000	-0.000039
1921.000000	0.000025
1920.000000	0.000132
1919.000000	0.000237
1918.000000	0.000296
1917.000000	0.000285
1916.000000	0.000225
1915.000000	0.000169
1914.000000	0.000157
1913.000000	0.000188
1912.000000	0.000221
1911.000000	0.000225
1910.000000	0.000204
1909.000000	0.000179
1908.000000	0.000158
1907.000000	0.000143
1906.000000	0.000143
1905.000000	0.000165
1904.000000	0.000197
1903.000000	0.000215
1902.000000	0.000220
1901.000000	0.000239
1900.000000	0.000297
1899.000000	0.000375
1898.000000	0.000425
1897.000000	0.000413
1896.000000	0.000352
1895.000000	0.000287
1894.000000	0.000252
1893.000000	0.000245
1892.000000	0.000241
1891.000000	0.000222
1890.000000	0.000199
1889.000000	0.000193
1888.000000	0.000210
1887.000000	0.000229
1886.000000	0.000227
1885.000000	0.000206
1884.000000	0.000191
1883.000000	0.000200
1882.000000	0.000217
1881.000000	0.000221
1880.000000	0.000207
1879.000000	0.000189
1878.000000	0.000177
1877.000000	0.000159
1876.000000	0.000126
1875.000000	0.000089
1874.000000	0.000073
1873.000000	0.000085
1872.000000	0.000108
1871.000000	0.000121
1870.000000	0.000121
1869.000000	0.000113
1868.000000	0.000100
1867.000000	0.000091
1866.000000	0.000104
1865.000000	0.000147
1864.000000	0.000206
1863.000000	0.000250
1862.000000	0.000256
1861.000000	0.000228
1860.000000	0.000190
1859.000000	0.000160
1858.000000	0.000150
1857.000000	0.000162
1856.000000	0.000189
1855.000000	0.000209
1854.000000	0.000206
1853.000000	0.000193
1852.000000	0.000188
1851.000000	0.000187
1850.000000	0.000166
1849.000000	0.000114
1848.000000	0.000056
1847.000000	0.000025
1846.000000	0.000032
1845.000000	0.000068
1844.000000	0.000114
1843.000000	0.000143
1842.000000	0.000136
1841.000000	0.000100
1840.000000	0.000064
1839.000000	0.000058
1838.000000	0.000090
1837.000000	0.000133
1836.000000	0.000152
1835.000000	0.000135
1834.000000	0.000092
1833.000000	0.000047
1832.000000	0.000016
1831.000000	0.000015
1830.000000	0.000049
1829.000000	0.000099
1828.000000	0.000128
1827.000000	0.000125
1826.000000	0.000101
1825.000000	0.000082
1824.000000	0.000084
1823.000000	0.000102
1822.000000	0.000116
1821.000000	0.000115
1820.000000	0.000100
1819.000000	0.000089
1818.000000	0.000093
1817.000000	0.000108
1816.000000	0.000114
1815.000000	0.000093
1814.000000	0.000049
1813.000000	-0.000000
1812.000000	-0.000023
1811.000000	-0.000001
1810.000000	0.000049
1809.000000	0.000090
1808.000000	0.000106
1807.000000	0.000114
1806.000000	0.000133
1805.000000	0.000162
1804.000000	0.000186
1803.000000	0.000204
1802.000000	0.000220
1801.000000	0.000236
1800.000000	0.000244
1799.000000	0.000246
1798.000000	0.000248
1797.000000	0.000255
1796.000000	0.000267
1795.000000	0.000283
1794.000000	0.000295
1793.000000	0.000296
1792.000000	0.000287
1791.000000	0.000272
1790.000000	0.000250
1789.000000	0.000206
1788.000000	0.000141
1787.000000	0.000074
1786.000000	0.000032
1785.000000	0.000030
1784.000000	0.000059
1783.000000	0.000099
1782.000000	0.000141
1781.000000	0.000183
1780.000000	0.000217
1779.000000	0.000232
1778.000000	0.000222
1777.000000	0.000192
1776.000000	0.000156
1775.000000	0.000127
1774.000000	0.000119
1773.000000	0.000137
1772.000000	0.000165
1771.000000	0.000180
1770.000000	0.000181
1769.000000	0.000181
1768.000000	0.000185
1767.000000	0.000190
1766.000000	0.000199
1765.000000	0.000220
1764.000000	0.000257
1763.000000	0.000312
1762.000000	0.000380
1761.000000	0.000452
1760.000000	0.000518
1759.000000	0.000584
1758.000000	0.000672
1757.000000	0.000813
1756.000000	0.000998
1755.000000	0.001189
1754.000000	0.001375
1753.000000	0.001581
1752.000000	0.001828
1751.000000	0.002087
1750.000000	0.002316
1749.000000	0.002520
1748.000000	0.002721
1747.000000	0.002903
1746.000000	0.003044
1745.000000	0.003149
1744.000000	0.003229
1743.000000	0.003285
1742.000000	0.003323
1741.000000	0.003367
1740.000000	0.003427
1739.000000	0.003463
1738.000000	0.003420
1737.000000	0.003301
1736.000000	0.003151
1735.000000	0.003050
1734.000000	0.003047
1733.000000	0.003053
1732.000000	0.002961
1731.000000	0.002787
1730.000000	0.002591
1729.000000	0.002404
1728.000000	0.002219
1727.000000	0.002023
1726.000000	0.001829
1725.000000	0.001662
1724.000000	0.001527
1723.000000	0.001407
1722.000000	0.001282
1721.000000	0.001145
1720.000000	0.001007
1719.000000	0.000893
1718.000000	0.000844
1717.000000	0.000850
1716.000000	0.000848
1715.000000	0.000820
1714.000000	0.000780
1713.000000	0.000738
1712.000000	0.000694
1711.000000	0.000644
1710.000000	0.000592
1709.000000	0.000542
1708.000000	0.000497
1707.000000	0.000466
1706.000000	0.000459
1705.000000	0.000470
1704.000000	0.000480
1703.000000	0.000487
1702.000000	0.000496
1701.000000	0.000513
1700.000000	0.000535
1699.000000	0.000554
1698.000000	0.000568
1697.000000	0.000585
1696.000000	0.000606
1695.000000	0.000631
1694.000000	0.000652
1693.000000	0.000665
1692.000000	0.000679
1691.000000	0.000705
1690.000000	0.000745
1689.000000	0.000789
1688.000000	0.000821
1687.000000	0.000834
1686.000000	0.000827
1685.000000	0.000814
1684.000000	0.000822
1683.000000	0.000858
1682.000000	0.000902
1681.000000	0.000937
1680.000000	0.000952
1679.000000	0.000952
1678.000000	0.000955
1677.000000	0.000977
1676.000000	0.001018
1675.000000	0.001061
1674.000000	0.001092
1673.000000	0.001111
1672.000000	0.001131
1671.000000	0.001158
1670.000000	0.001194
1669.000000	0.001235
1668.000000	0.001267
1667.000000	0.001282
1666.000000	0.001287
1665.000000	0.001292
1664.000000	0.001302
1663.000000	0.001319
1662.000000	0.001346
1661.000000	0.001382
1660.000000	0.001416
1659.000000	0.001439
1658.000000	0.001453
1657.000000	0.001472
1656.000000	0.001513
1655.000000	0.001567
1654.000000	0.001611
1653.000000	0.001618
1652.000000	0.001623
1651.000000	0.001628
1650.000000	0.001632
1649.000000	0.001649
1648.000000	0.001679
1647.000000	0.001691
1646.000000	0.001677
1645.000000	0.001672
1644.000000	0.001691
1643.000000	0.001723
1642.000000	0.001753
1641.000000	0.001762
1640.000000	0.001744
1639.000000	0.001718
1638.000000	0.001704
1637.000000	0.001704
1636.000000	0.001691
1635.000000	0.001654
1634.000000	0.001624
1633.000000	0.001616
1632.000000	0.001623
1631.000000	0.001629
1630.000000	0.001618
1629.000000	0.001589
1628.000000	0.001555
1627.000000	0.001532
1626.000000	0.001522
1625.000000	0.001516
1624.000000	0.001496
1623.000000	0.001453
1622.000000	0.001403
1621.000000	0.001371
1620.000000	0.001360
1619.000000	0.001361
1618.000000	0.001362
1617.000000	0.001350
1616.000000	0.001313
1615.000000	0.001260
1614.000000	0.001211
1613.000000	0.001183
1612.000000	0.001169
1611.000000	0.001152
1610.000000	0.001121
1609.000000	0.001084
1608.000000	0.001048
1607.000000	0.001008
1606.000000	0.000962
1605.000000	0.000928
1604.000000	0.000915
1603.000000	0.000907
1602.000000	0.000884
1601.000000	0.000843
1600.000000	0.000801
1599.000000	0.000773
1598.000000	0.000765
1597.000000	0.000769
1596.000000	0.000774
1595.000000	0.000771
1594.000000	0.000762
1593.000000	0.000758
1592.000000	0.000763
1591.000000	0.000766
1590.000000	0.000753
1589.000000	0.000726
1588.000000	0.000700
1587.000000	0.000684
1586.000000	0.000682
1585.000000	0.000690
1584.000000	0.000699
1583.000000	0.000698
1582.000000	0.000678
1581.000000	0.000644
1580.000000	0.000615
1579.000000	0.000609
1578.000000	0.000635
1577.000000	0.000682
1576.000000	0.000715
1575.000000	0.000714
1574.000000	0.000702
1573.000000	0.000707
1572.000000	0.000730
1571.000000	0.000753
1570.000000	0.000763
1569.000000	0.000765
1568.000000	0.000771
1567.000000	0.000778
1566.000000	0.000786
1565.000000	0.000795
1564.000000	0.000805
1563.000000	0.000816
1562.000000	0.000832
1561.000000	0.000857
1560.000000	0.000908
1559.000000	0.000967
1558.000000	0.000952
1557.000000	0.000946
1556.000000	0.000978
1555.000000	0.001035
1554.000000	0.001096
1553.000000	0.001143
1552.000000	0.001167
1551.000000	0.001180
1550.000000	0.001196
1549.000000	0.001216
1548.000000	0.001233
1547.000000	0.001250
1546.000000	0.001279
1545.000000	0.001329
1544.000000	0.001389
1543.000000	0.001447
1542.000000	0.001507
1541.000000	0.001557
1540.000000	0.001564
1539.000000	0.001549
1538.000000	0.001569
1537.000000	0.001613
1536.000000	0.001660
1535.000000	0.001709
1534.000000	0.001770
1533.000000	0.001845
1532.000000	0.001918
1531.000000	0.001979
1530.000000	0.002022
1529.000000	0.002053
1528.000000	0.002087
1527.000000	0.002136
1526.000000	0.002193
1525.000000	0.002231
1524.000000	0.002235
1523.000000	0.002221
1522.000000	0.002218
1521.000000	0.002233
1520.000000	0.002253
1519.000000	0.002272
1518.000000	0.002303
1517.000000	0.002346
1516.000000	0.002388
1515.000000	0.002428
1514.000000	0.002478
1513.000000	0.002536
1512.000000	0.002577
1511.000000	0.002589
1510.000000	0.002588
1509.000000	0.002608
1508.000000	0.002661
1507.000000	0.002719
1506.000000	0.002754
1505.000000	0.002782
1504.000000	0.002781
1503.000000	0.002763
1502.000000	0.002757
1501.000000	0.002775
1500.000000	0.002798
1499.000000	0.002814
1498.000000	0.002844
1497.000000	0.002909
1496.000000	0.002982
1495.000000	0.003021
1494.000000	0.003022
1493.000000	0.003004
1492.000000	0.002990
1491.000000	0.003003
1490.000000	0.003060
1489.000000	0.003133
1488.000000	0.003183
1487.000000	0.003212
1486.000000	0.003237
1485.000000	0.003268
1484.000000	0.003303
1483.000000	0.003347
1482.000000	0.003410
1481.000000	0.003487
1480.000000	0.003544
1479.000000	0.003567
1478.000000	0.003574
1477.000000	0.003597
1476.000000	0.003646
1475.000000	0.003725
1474.000000	0.003855
1473.000000	0.004045
1472.000000	0.004228
1471.000000	0.004336
1470.000000	0.004381
1469.000000	0.004403
1468.000000	0.004422
1467.000000	0.004452
1466.000000	0.004515
1465.000000	0.004609
1464.000000	0.004687
1463.000000	0.004714
1462.000000	0.004701
1461.000000	0.004670
1460.000000	0.004641
1459.000000	0.004653
1458.000000	0.004797
1457.000000	0.005087
1456.000000	0.005323
1455.000000	0.005379
1454.000000	0.005339
1453.000000	0.005301
1452.000000	0.005292
1451.000000	0.005300
1450.000000	0.005323
1449.000000	0.005375
1448.000000	0.005451
1447.000000	0.005522
1446.000000	0.005567
1445.000000	0.005589
1444.000000	0.005596
1443.000000	0.005603
1442.000000	0.005626
1441.000000	0.005666
1440.000000	0.005703
1439.000000	0.005727
1438.000000	0.005782
1437.000000	0.005923
1436.000000	0.006097
1435.000000	0.006192
1434.000000	0.006196
1433.000000	0.006171
1432.000000	0.006155
1431.000000	0.006159
1430.000000	0.006195
1429.000000	0.006272
1428.000000	0.006361
1427.000000	0.006418
1426.000000	0.006444
1425.000000	0.006474
1424.000000	0.006511
1423.000000	0.006512
1422.000000	0.006466
1421.000000	0.006432
1420.000000	0.006483
1419.000000	0.006621
1418.000000	0.006732
1417.000000	0.006740
1416.000000	0.006673
1415.000000	0.006582
1414.000000	0.006503
1413.000000	0.006447
1412.000000	0.006403
1411.000000	0.006350
1410.000000	0.006276
1409.000000	0.006175
1408.000000	0.006043
1407.000000	0.005901
1406.000000	0.005790
1405.000000	0.005739
1404.000000	0.005716
1403.000000	0.005669
1402.000000	0.005597
1401.000000	0.005544
1400.000000	0.005547
1399.000000	0.005583
1398.000000	0.005595
1397.000000	0.005571
1396.000000	0.005546
1395.000000	0.005545
1394.000000	0.005557
1393.000000	0.005556
1392.000000	0.005521
1391.000000	0.005455
1390.000000	0.005375
1389.000000	0.005308
1388.000000	0.005268
1387.000000	0.005245
1386.000000	0.005214
1385.000000	0.005168
1384.000000	0.005114
1383.000000	0.005062
1382.000000	0.005012
1381.000000	0.004959
1380.000000	0.004897
1379.000000	0.004829
1378.000000	0.004753
1377.000000	0.004670
1376.000000	0.004585
1375.000000	0.004512
1374.000000	0.004455
1373.000000	0.004401
1372.000000	0.004337
1371.000000	0.004259
1370.000000	0.004176
1369.000000	0.004104
1368.000000	0.004052
1367.000000	0.004011
1366.000000	0.003968
1365.000000	0.003915
1364.000000	0.003856
1363.000000	0.003801
1362.000000	0.003754
1361.000000	0.003715
1360.000000	0.003686
1359.000000	0.003671
1358.000000	0.003663
1357.000000	0.003649
1356.000000	0.003630
1355.000000	0.003614
1354.000000	0.003607
1353.000000	0.003594
1352.000000	0.003562
1351.000000	0.003514
1350.000000	0.003467
1349.000000	0.003430
1348.000000	0.003407
1347.000000	0.003394
1346.000000	0.003385
1345.000000	0.003375
1344.000000	0.003360
1343.000000	0.003345
1342.000000	0.003338
1341.000000	0.003342
1340.000000	0.003355
1339.000000	0.003374
1338.000000	0.003396
1337.000000	0.003414
1336.000000	0.003421
1335.000000	0.003414
1334.000000	0.003399
1333.000000	0.003379
1332.000000	0.003351
1331.000000	0.003317
1330.000000	0.003284
1329.000000	0.003251
1328.000000	0.003215
1327.000000	0.003177
1326.000000	0.003143
1325.000000	0.003123
1324.000000	0.003110
1323.000000	0.003094
1322.000000	0.003066
1321.000000	0.003032
1320.000000	0.003000
1319.000000	0.002971
1318.000000	0.002946
1317.000000	0.002920
1316.000000	0.002889
1315.000000	0.002853
1314.000000	0.002816
1313.000000	0.002783
1312.000000	0.002748
1311.000000	0.002709
1310.000000	0.002678
1309.000000	0.002668
1308.000000	0.002678
1307.000000	0.002687
1306.000000	0.002676
1305.000000	0.002642
1304.000000	0.002596
1303.000000	0.002550
1302.000000	0.002513
1301.000000	0.002483
1300.000000	0.002451
1299.000000	0.002414
1298.000000	0.002373
1297.000000	0.002336
1296.000000	0.002299
1295.000000	0.002259
1294.000000	0.002218
1293.000000	0.002189
1292.000000	0.002184
1291.000000	0.002199
1290.000000	0.002216
1289.000000	0.002222
1288.000000	0.002214
1287.000000	0.002197
1286.000000	0.002179
1285.000000	0.002161
1284.000000	0.002142
1283.000000	0.002116
1282.000000	0.002082
1281.000000	0.002047
1280.000000	0.002024
1279.000000	0.002024
1278.000000	0.002048
1277.000000	0.002085
1276.000000	0.002119
1275.000000	0.002141
1274.000000	0.002156
1273.000000	0.002184
1272.000000	0.002237
1271.000000	0.002311
1270.000000	0.002391
1269.000000	0.002466
1268.000000	0.002530
1267.000000	0.002582
1266.000000	0.002626
1265.000000	0.002672
1264.000000	0.002724
1263.000000	0.002777
1262.000000	0.002824
1261.000000	0.002868
1260.000000	0.002920
1259.000000	0.002983
1258.000000	0.003054
1257.000000	0.003124
1256.000000	0.003184
1255.000000	0.003228
1254.000000	0.003255
1253.000000	0.003271
1252.000000	0.003283
1251.000000	0.003290
1250.000000	0.003287
1249.000000	0.003272
1248.000000	0.003244
1247.000000	0.003209
1246.000000	0.003179
1245.000000	0.003170
1244.000000	0.003187
1243.000000	0.003213
1242.000000	0.003220
1241.000000	0.003195
1240.000000	0.003152
1239.000000	0.003111
1238.000000	0.003080
1237.000000	0.003054
1236.000000	0.003024
1235.000000	0.002986
1234.000000	0.002943
1233.000000	0.002898
1232.000000	0.002859
1231.000000	0.002829
1230.000000	0.002808
1229.000000	0.002789
1228.000000	0.002755
1227.000000	0.002691
1226.000000	0.002586
1225.000000	0.002451
1224.000000	0.002310
1223.000000	0.002190
1222.000000	0.002103
1221.000000	0.002044
1220.000000	0.001999
1219.000000	0.001958
1218.000000	0.001912
1217.000000	0.001853
1216.000000	0.001786
1215.000000	0.001722
1214.000000	0.001671
1213.000000	0.001630
1212.000000	0.001592
1211.000000	0.001558
1210.000000	0.001535
1209.000000	0.001526
1208.000000	0.001526
1207.000000	0.001525
1206.000000	0.001521
1205.000000	0.001518
1204.000000	0.001522
1203.000000	0.001532
1202.000000	0.001538
1201.000000	0.001538
1200.000000	0.001535
1199.000000	0.001543
1198.000000	0.001570
1197.000000	0.001616
1196.000000	0.001671
1195.000000	0.001725
1194.000000	0.001772
1193.000000	0.001815
1192.000000	0.001860
1191.000000	0.001913
1190.000000	0.001972
1189.000000	0.002032
1188.000000	0.002085
1187.000000	0.002136
1186.000000	0.002196
1185.000000	0.002272
1184.000000	0.002354
1183.000000	0.002429
1182.000000	0.002495
1181.000000	0.002565
1180.000000	0.002653
1179.000000	0.002760
1178.000000	0.002872
1177.000000	0.002977
1176.000000	0.003075
1175.000000	0.003169
1174.000000	0.003262
1173.000000	0.003351
1172.000000	0.003433
1171.000000	0.003508
1170.000000	0.003580
1169.000000	0.003650
1168.000000	0.003719
1167.000000	0.003784
1166.000000	0.003834
1165.000000	0.003865
1164.000000	0.003876
1163.000000	0.003872
1162.000000	0.003857
1161.000000	0.003838
1160.000000	0.003821
1159.000000	0.003813
1158.000000	0.003815
1157.000000	0.003815
1156.000000	0.003795
1155.000000	0.003745
1154.000000	0.003673
1153.000000	0.003590
1152.000000	0.003505
1151.000000	0.003417
1150.000000	0.003317
1149.000000	0.003197
1148.000000	0.003062
1147.000000	0.002923
1146.000000	0.002791
1145.000000	0.002672
1144.000000	0.002570
1143.000000	0.002482
1142.000000	0.002397
1141.000000	0.002299
1140.000000	0.002189
1139.000000	0.002088
1138.000000	0.002020
1137.000000	0.001977
1136.000000	0.001934
1135.000000	0.001872
1134.000000	0.001796
1133.000000	0.001720
1132.000000	0.001651
1131.000000	0.001588
1130.000000	0.001532
1129.000000	0.001477
1128.000000	0.001416
1127.000000	0.001355
1126.000000	0.001313
1125.000000	0.001310
1124.000000	0.001342
1123.000000	0.001393
1122.000000	0.001453
1121.000000	0.001525
1120.000000	0.001603
1119.000000	0.001675
1118.000000	0.001732
1117.000000	0.001787
1116.000000	0.001859
1115.000000	0.001956
1114.000000	0.002062
1113.000000	0.002160
1112.000000	0.002244
1111.000000	0.002318
1110.000000	0.002380
1109.000000	0.002420
1108.000000	0.002436
1107.000000	0.002437
1106.000000	0.002437
1105.000000	0.002438
1104.000000	0.002431
1103.000000	0.002413
1102.000000	0.002394
1101.000000	0.002390
1100.000000	0.002404
1099.000000	0.002436
1098.000000	0.002484
1097.000000	0.002536
1096.000000	0.002579
1095.000000	0.002603
1094.000000	0.002616
1093.000000	0.002628
1092.000000	0.002644
1091.000000	0.002659
1090.000000	0.002668
1089.000000	0.002665
1088.000000	0.002638
1087.000000	0.002573
1086.000000	0.002477
1085.000000	0.002371
1084.000000	0.002278
1083.000000	0.002207
1082.000000	0.002157
1081.000000	0.002119
1080.000000	0.002081
1079.000000	0.002038
1078.000000	0.001990
1077.000000	0.001944
1076.000000	0.001902
1075.000000	0.001868
1074.000000	0.001847
1073.000000	0.001844
1072.000000	0.001842
1071.000000	0.001818
1070.000000	0.001770
1069.000000	0.001724
1068.000000	0.001715
1067.000000	0.001744
1066.000000	0.001786
1065.000000	0.001811
1064.000000	0.001811
1063.000000	0.001797
1062.000000	0.001788
1061.000000	0.001798
1060.000000	0.001822
1059.000000	0.001833
1058.000000	0.001806
1057.000000	0.001729
1056.000000	0.001611
1055.000000	0.001476
1054.000000	0.001353
1053.000000	0.001273
1052.000000	0.001259
1051.000000	0.001298
1050.000000	0.001345
1049.000000	0.001363
1048.000000	0.001354
1047.000000	0.001355
1046.000000	0.001394
1045.000000	0.001475
1044.000000	0.001575
1043.000000	0.001664
1042.000000	0.001718
1041.000000	0.001729
1040.000000	0.001707
1039.000000	0.001672
1038.000000	0.001634
1037.000000	0.001592
1036.000000	0.001545
1035.000000	0.001505
1034.000000	0.001482
1033.000000	0.001467
1032.000000	0.001429
1031.000000	0.001353
1030.000000	0.001267
1029.000000	0.001215
1028.000000	0.001222
1027.000000	0.001270
1026.000000	0.001327
1025.000000	0.001379
1024.000000	0.001423
1023.000000	0.001457
1022.000000	0.001480
1021.000000	0.001497
1020.000000	0.001520
1019.000000	0.001540
1018.000000	0.001542
1017.000000	0.001518
1016.000000	0.001483
1015.000000	0.001453
1014.000000	0.001432
1013.000000	0.001422
1012.000000	0.001422
1011.000000	0.001429
1010.000000	0.001431
1009.000000	0.001416
1008.000000	0.001382
1007.000000	0.001338
1006.000000	0.001291
1005.000000	0.001243
1004.000000	0.001196
1003.000000	0.001157
1002.000000	0.001132
1001.000000	0.001119
1000.000000	0.001111
999.000000	0.001094
998.000000	0.001060
997.000000	0.001014
996.000000	0.000975
995.000000	0.000954
994.000000	0.000940
993.000000	0.000926
992.000000	0.000915
991.000000	0.000923
990.000000	0.000949
989.000000	0.000976
988.000000	0.000988
987.000000	0.000985
986.000000	0.000982
985.000000	0.000989
984.000000	0.001004
983.000000	0.001007
982.000000	0.000979
981.000000	0.000928
980.000000	0.000884
979.000000	0.000874
978.000000	0.000893
977.000000	0.000923
976.000000	0.000952
975.000000	0.000974
974.000000	0.000977
973.000000	0.000954
972.000000	0.000925
971.000000	0.000923
970.000000	0.000961
969.000000	0.001009
968.000000	0.001035
967.000000	0.001029
966.000000	0.001004
965.000000	0.000972
964.000000	0.000947
963.000000	0.000937
962.000000	0.000941
961.000000	0.000942
960.000000	0.000926
959.000000	0.000896
958.000000	0.000862
957.000000	0.000830
956.000000	0.000801
955.000000	0.000782
954.000000	0.000769
953.000000	0.000736
952.000000	0.000665
951.000000	0.000586
950.000000	0.000559
949.000000	0.000602
948.000000	0.000661
947.000000	0.000671
946.000000	0.000627
945.000000	0.000575
944.000000	0.000553
943.000000	0.000552
942.000000	0.000553
941.000000	0.000553
940.000000	0.000562
939.000000	0.000572
938.000000	0.000559
937.000000	0.000516
936.000000	0.000461
935.000000	0.000422
934.000000	0.000408
933.000000	0.000408
932.000000	0.000410
931.000000	0.000412
930.000000	0.000415
929.000000	0.000417
928.000000	0.000416
927.000000	0.000418
926.000000	0.000424
925.000000	0.000427
924.000000	0.000409
923.000000	0.000368
922.000000	0.000318
921.000000	0.000282
920.000000	0.000271
919.000000	0.000280
918.000000	0.000291
917.000000	0.000290
916.000000	0.000274
915.000000	0.000245
914.000000	0.000214
913.000000	0.000189
912.000000	0.000177
911.000000	0.000174
910.000000	0.000172
909.000000	0.000160
908.000000	0.000131
907.000000	0.000082
906.000000	0.000024
905.000000	-0.000024
904.000000	-0.000048
903.000000	-0.000051
902.000000	-0.000053
901.000000	-0.000065
900.000000	-0.000084
899.000000	-0.000100
898.000000	-0.000110
897.000000	-0.000112
896.000000	-0.000111
895.000000	-0.000112
894.000000	-0.000122
893.000000	-0.000126
892.000000	-0.000103
891.000000	-0.000050
890.000000	0.000008
889.000000	0.000061
888.000000	0.000154
887.000000	0.000348
886.000000	0.000642
885.000000	0.000967
884.000000	0.001244
883.000000	0.001460
882.000000	0.001661
881.000000	0.001914
880.000000	0.002254
879.000000	0.002668
878.000000	0.003098
877.000000	0.003474
876.000000	0.003758
875.000000	0.003937
874.000000	0.003997
873.000000	0.003916
872.000000	0.003692
871.000000	0.003365
870.000000	0.002997
869.000000	0.002634
868.000000	0.002297
867.000000	0.001997
866.000000	0.001740
865.000000	0.001530
864.000000	0.001371
863.000000	0.001254
862.000000	0.001146
861.000000	0.001006
860.000000	0.000825
859.000000	0.000639
858.000000	0.000486
857.000000	0.000371
856.000000	0.000281
855.000000	0.000219
854.000000	0.000198
853.000000	0.000210
852.000000	0.000237
851.000000	0.000276
850.000000	0.000340
849.000000	0.000416
848.000000	0.000465
847.000000	0.000442
846.000000	0.000339
845.000000	0.000183
844.000000	0.000025
843.000000	-0.000076
842.000000	-0.000084
841.000000	-0.000024
840.000000	0.000035
839.000000	0.000045
838.000000	0.000025
837.000000	0.000027
836.000000	0.000075
835.000000	0.000140
834.000000	0.000184
833.000000	0.000200
832.000000	0.000210
831.000000	0.000223
830.000000	0.000225
829.000000	0.000202
828.000000	0.000165
827.000000	0.000138
826.000000	0.000116
825.000000	0.000068
824.000000	-0.000019
823.000000	-0.000107
822.000000	-0.000154
821.000000	-0.000165
820.000000	-0.000175
819.000000	-0.000189
818.000000	-0.000169
817.000000	-0.000090
816.000000	0.000020
815.000000	0.000105
814.000000	0.000132
813.000000	0.000106
812.000000	0.000049
811.000000	-0.000020
810.000000	-0.000088
809.000000	-0.000138
808.000000	-0.000161
807.000000	-0.000158
806.000000	-0.000138
805.000000	-0.000114
804.000000	-0.000095
803.000000	-0.000078
802.000000	-0.000049
801.000000	-0.000001
800.000000	0.000044
799.000000	0.000053
798.000000	0.000009
797.000000	-0.000056
796.000000	-0.000094
795.000000	-0.000083
794.000000	-0.000038
793.000000	0.000008
792.000000	0.000028
791.000000	0.000006
790.000000	-0.000054
789.000000	-0.000126
788.000000	-0.000172
787.000000	-0.000172
786.000000	-0.000134
785.000000	-0.000080
784.000000	-0.000022
783.000000	0.000033
782.000000	0.000076
781.000000	0.000104
780.000000	0.000114
779.000000	0.000103
778.000000	0.000074
777.000000	0.000038
776.000000	0.000013
775.000000	0.000001
774.000000	-0.000012
773.000000	-0.000036
772.000000	-0.000058
771.000000	-0.000059
770.000000	-0.000039
769.000000	-0.000006
768.000000	0.000035
767.000000	0.000080
766.000000	0.000112
765.000000	0.000103
764.000000	0.000050
763.000000	-0.000014
762.000000	-0.000044
761.000000	-0.000012
760.000000	0.000069
759.000000	0.000150
758.000000	0.000186
757.000000	0.000174
756.000000	0.000152
755.000000	0.000148
754.000000	0.000148
753.000000	0.000125
752.000000	0.000083
751.000000	0.000050
750.000000	0.000043
749.000000	0.000054
748.000000	0.000074
747.000000	0.000102
746.000000	0.000140
745.000000	0.000187
744.000000	0.000239
743.000000	0.000281
742.000000	0.000292
741.000000	0.000272
740.000000	0.000249
739.000000	0.000240
738.000000	0.000226
737.000000	0.000183
736.000000	0.000141
735.000000	0.000152
734.000000	0.000212
733.000000	0.000262
732.000000	0.000267
731.000000	0.000251
730.000000	0.000239
729.000000	0.000223
728.000000	0.000190
727.000000	0.000162
726.000000	0.000163
725.000000	0.000190
724.000000	0.000210
723.000000	0.000203
722.000000	0.000176
721.000000	0.000154
720.000000	0.000170
719.000000	0.000249
718.000000	0.000394
717.000000	0.000599
716.000000	0.000871
715.000000	0.001202
714.000000	0.001522
713.000000	0.001723
712.000000	0.001743
711.000000	0.001621
710.000000	0.001441
709.000000	0.001267
708.000000	0.001136
707.000000	0.001064
706.000000	0.001042
705.000000	0.001036
704.000000	0.001025
703.000000	0.001013
702.000000	0.001002
701.000000	0.000977
700.000000	0.000948
699.000000	0.000956
698.000000	0.001025
697.000000	0.001115
696.000000	0.001166
695.000000	0.001167
694.000000	0.001145
693.000000	0.001115
692.000000	0.001079
691.000000	0.001045
690.000000	0.001021
689.000000	0.000995
688.000000	0.000959
687.000000	0.000940
686.000000	0.000951
685.000000	0.000952
684.000000	0.000909
683.000000	0.000850
682.000000	0.000820
681.000000	0.000813
680.000000	0.000799
679.000000	0.000774
678.000000	0.000755
677.000000	0.000755
676.000000	0.000780
675.000000	0.000814
674.000000	0.000823
673.000000	0.000766
672.000000	0.000616
671.000000	0.000349
670.000000	-0.000065
669.000000	-0.000596
668.000000	-0.000921
667.000000	-0.000681
666.000000	-0.000251
665.000000	0.000073
664.000000	0.000245
663.000000	0.000269
662.000000	0.000206
661.000000	0.000132
660.000000	0.000064
659.000000	-0.000027
658.000000	-0.000145
657.000000	-0.000234
656.000000	-0.000250
655.000000	-0.000208
654.000000	-0.000116
653.000000	0.000045
652.000000	0.000244
651.000000	0.000400
650.000000	0.000478
649.000000	0.000529
648.000000	0.000593
647.000000	0.000642
646.000000	0.000666
645.000000	0.000714
644.000000	0.000807
643.000000	0.000890
642.000000	0.000902
641.000000	0.000862
640.000000	0.000837
639.000000	0.000853
638.000000	0.000879
637.000000	0.000879
636.000000	0.000836
635.000000	0.000775
634.000000	0.000758
633.000000	0.000816
632.000000	0.000912
631.000000	0.000975
630.000000	0.000995
629.000000	0.001023
628.000000	0.001085
627.000000	0.001142
626.000000	0.001150
625.000000	0.001107
624.000000	0.001025
623.000000	0.000912
622.000000	0.000802
621.000000	0.000758
620.000000	0.000805
619.000000	0.000901
618.000000	0.000979
617.000000	0.001008
616.000000	0.000998
615.000000	0.000975
614.000000	0.000964
613.000000	0.000983
612.000000	0.001025
611.000000	0.001073
610.000000	0.001127
609.000000	0.001200
608.000000	0.001270
607.000000	0.001275
606.000000	0.001191
605.000000	0.001073
604.000000	0.000993
603.000000	0.000984
602.000000	0.001019
601.000000	0.001052
600.000000	0.001043
599.000000	0.000984
598.000000	0.000911
597.000000	0.000859
596.000000	0.000817
595.000000	0.000745
594.000000	0.000647
593.000000	0.000572
592.000000	0.000551
591.000000	0.000551
590.000000	0.000530
589.000000	0.000487
588.000000	0.000442
587.000000	0.000397
586.000000	0.000361
585.000000	0.000352
584.000000	0.000360
583.000000	0.000342
582.000000	0.000282
581.000000	0.000236
580.000000	0.000258
579.000000	0.000325
578.000000	0.000372
577.000000	0.000378
576.000000	0.000366
575.000000	0.000340
574.000000	0.000279
573.000000	0.000189
572.000000	0.000102
571.000000	0.000039
570.000000	-0.000004
569.000000	-0.000024
568.000000	-0.000009
567.000000	0.000041
566.000000	0.000109
565.000000	0.000167
564.000000	0.000183
563.000000	0.000133
562.000000	0.000031
561.000000	-0.000056
560.000000	-0.000078
559.000000	-0.000046
558.000000	0.000006
557.000000	0.000067
556.000000	0.000138
555.000000	0.000185
554.000000	0.000178
553.000000	0.000159
552.000000	0.000203
551.000000	0.000317
550.000000	0.000419
549.000000	0.000446
548.000000	0.000398
547.000000	0.000291
546.000000	0.000130
545.000000	-0.000033
544.000000	-0.000105
543.000000	-0.000043
542.000000	0.000084
541.000000	0.000179
540.000000	0.000235
539.000000	0.000301
538.000000	0.000381
537.000000	0.000412
536.000000	0.000351
535.000000	0.000226
534.000000	0.000102
533.000000	0.000024
532.000000	0.000019
531.000000	0.000083
530.000000	0.000151
529.000000	0.000136
528.000000	0.000036
527.000000	-0.000052
526.000000	-0.000046
525.000000	0.000009
524.000000	0.000019
523.000000	0.000003
522.000000	0.000060
521.000000	0.000189
520.000000	0.000240
519.000000	0.000083
518.000000	-0.000191
517.000000	-0.000348
516.000000	-0.000270
515.000000	-0.000066
514.000000	0.000085
513.000000	0.000092
512.000000	-0.000025
511.000000	-0.000184
510.000000	-0.000299
509.000000	-0.000314
508.000000	-0.000213
507.000000	-0.000023
506.000000	0.000182
505.000000	0.000311
504.000000	0.000317
503.000000	0.000252
502.000000	0.000238
501.000000	0.000323
500.000000	0.000403
499.000000	0.000344
498.000000	0.000161
497.000000	-0.000004
496.000000	-0.000048
495.000000	0.000002
494.000000	0.000079
493.000000	0.000172
492.000000	0.000287
491.000000	0.000379
490.000000	0.000417
489.000000	0.000435
488.000000	0.000469
487.000000	0.000468
486.000000	0.000352
485.000000	0.000132
484.000000	-0.000074
483.000000	-0.000172
482.000000	-0.000148
481.000000	-0.000019
480.000000	0.000176
479.000000	0.000334
478.000000	0.000324
477.000000	0.000138
476.000000	-0.000077
475.000000	-0.000183
474.000000	-0.000179
473.000000	-0.000161
472.000000	-0.000193
471.000000	-0.000245
470.000000	-0.000244
469.000000	-0.000169
468.000000	-0.000065
467.000000	-0.000007
466.000000	-0.000006
465.000000	-0.000001
464.000000	0.000006
463.000000	-0.000098
462.000000	-0.000416
461.000000	-0.000864
460.000000	-0.001247
459.000000	-0.001441
458.000000	-0.001421
457.000000	-0.001214
456.000000	-0.000897
455.000000	-0.000622
454.000000	-0.000538
453.000000	-0.000451
452.000000	-0.000560
451.000000	-0.000582
450.000000	-0.000647
