PE IR       SUBTECH     SPECTRUM    ASCII       PEDS        4.00        
   -1
P12-Rouge046_1.ASC
23/06/08
15:37:02.00
23/06/08
15:48:35.00
uco
Sample 046 By uco Date Thursday, June 08 2023
450.000000
#HDR
-1
-1
#GR
cm-1
A
1.0
0.0
4000.000000
-1.000000
3551
8
0.019803
0.001580
#DATA
4000.000000	0.001840
3999.000000	0.001860
3998.000000	0.001877
3997.000000	0.001882
3996.000000	0.001874
3995.000000	0.001861
3994.000000	0.001849
3993.000000	0.001841
3992.000000	0.001837
3991.000000	0.001842
3990.000000	0.001859
3989.000000	0.001885
3988.000000	0.001912
3987.000000	0.001927
3986.000000	0.001925
3985.000000	0.001907
3984.000000	0.001884
3983.000000	0.001870
3982.000000	0.001872
3981.000000	0.001889
3980.000000	0.001909
3979.000000	0.001919
3978.000000	0.001911
3977.000000	0.001891
3976.000000	0.001872
3975.000000	0.001865
3974.000000	0.001874
3973.000000	0.001896
3972.000000	0.001922
3971.000000	0.001941
3970.000000	0.001948
3969.000000	0.001941
3968.000000	0.001927
3967.000000	0.001915
3966.000000	0.001912
3965.000000	0.001914
3964.000000	0.001915
3963.000000	0.001908
3962.000000	0.001896
3961.000000	0.001889
3960.000000	0.001894
3959.000000	0.001909
3958.000000	0.001921
3957.000000	0.001924
3956.000000	0.001917
3955.000000	0.001906
3954.000000	0.001896
3953.000000	0.001891
3952.000000	0.001897
3951.000000	0.001913
3950.000000	0.001936
3949.000000	0.001951
3948.000000	0.001949
3947.000000	0.001926
3946.000000	0.001895
3945.000000	0.001871
3944.000000	0.001868
3943.000000	0.001892
3942.000000	0.001935
3941.000000	0.001982
3940.000000	0.002022
3939.000000	0.002043
3938.000000	0.002042
3937.000000	0.002024
3936.000000	0.002001
3935.000000	0.001984
3934.000000	0.001978
3933.000000	0.001977
3932.000000	0.001969
3931.000000	0.001954
3930.000000	0.001940
3929.000000	0.001934
3928.000000	0.001937
3927.000000	0.001942
3926.000000	0.001951
3925.000000	0.001961
3924.000000	0.001971
3923.000000	0.001984
3922.000000	0.002001
3921.000000	0.002023
3920.000000	0.002043
3919.000000	0.002052
3918.000000	0.002042
3917.000000	0.002019
3916.000000	0.001994
3915.000000	0.001979
3914.000000	0.001973
3913.000000	0.001974
3912.000000	0.001977
3911.000000	0.001979
3910.000000	0.001976
3909.000000	0.001964
3908.000000	0.001944
3907.000000	0.001924
3906.000000	0.001917
3905.000000	0.001931
3904.000000	0.001960
3903.000000	0.001982
3902.000000	0.001986
3901.000000	0.001980
3900.000000	0.001974
3899.000000	0.001970
3898.000000	0.001968
3897.000000	0.001963
3896.000000	0.001958
3895.000000	0.001953
3894.000000	0.001953
3893.000000	0.001961
3892.000000	0.001976
3891.000000	0.001989
3890.000000	0.001995
3889.000000	0.001991
3888.000000	0.001977
3887.000000	0.001961
3886.000000	0.001953
3885.000000	0.001953
3884.000000	0.001955
3883.000000	0.001952
3882.000000	0.001945
3881.000000	0.001943
3880.000000	0.001946
3879.000000	0.001957
3878.000000	0.001972
3877.000000	0.001978
3876.000000	0.001967
3875.000000	0.001946
3874.000000	0.001930
3873.000000	0.001937
3872.000000	0.001966
3871.000000	0.002000
3870.000000	0.002012
3869.000000	0.001997
3868.000000	0.001973
3867.000000	0.001957
3866.000000	0.001949
3865.000000	0.001943
3864.000000	0.001938
3863.000000	0.001935
3862.000000	0.001939
3861.000000	0.001952
3860.000000	0.001967
3859.000000	0.001977
3858.000000	0.001977
3857.000000	0.001963
3856.000000	0.001942
3855.000000	0.001932
3854.000000	0.001948
3853.000000	0.001946
3852.000000	0.001908
3851.000000	0.001878
3850.000000	0.001880
3849.000000	0.001904
3848.000000	0.001932
3847.000000	0.001954
3846.000000	0.001960
3845.000000	0.001944
3844.000000	0.001906
3843.000000	0.001859
3842.000000	0.001825
3841.000000	0.001817
3840.000000	0.001838
3839.000000	0.001880
3838.000000	0.001929
3837.000000	0.001974
3836.000000	0.002009
3835.000000	0.002032
3834.000000	0.002042
3833.000000	0.002037
3832.000000	0.002020
3831.000000	0.002000
3830.000000	0.001987
3829.000000	0.001987
3828.000000	0.001998
3827.000000	0.002012
3826.000000	0.002022
3825.000000	0.002019
3824.000000	0.001999
3823.000000	0.001959
3822.000000	0.001909
3821.000000	0.001866
3820.000000	0.001847
3819.000000	0.001862
3818.000000	0.001899
3817.000000	0.001930
3816.000000	0.001939
3815.000000	0.001935
3814.000000	0.001943
3813.000000	0.001971
3812.000000	0.002005
3811.000000	0.002028
3810.000000	0.002029
3809.000000	0.002009
3808.000000	0.001976
3807.000000	0.001938
3806.000000	0.001914
3805.000000	0.001916
3804.000000	0.001941
3803.000000	0.001964
3802.000000	0.001952
3801.000000	0.001893
3800.000000	0.001827
3799.000000	0.001802
3798.000000	0.001828
3797.000000	0.001881
3796.000000	0.001928
3795.000000	0.001951
3794.000000	0.001957
3793.000000	0.001963
3792.000000	0.001975
3791.000000	0.001985
3790.000000	0.001986
3789.000000	0.001974
3788.000000	0.001961
3787.000000	0.001956
3786.000000	0.001960
3785.000000	0.001963
3784.000000	0.001955
3783.000000	0.001940
3782.000000	0.001927
3781.000000	0.001925
3780.000000	0.001933
3779.000000	0.001941
3778.000000	0.001939
3777.000000	0.001931
3776.000000	0.001923
3775.000000	0.001921
3774.000000	0.001928
3773.000000	0.001945
3772.000000	0.001966
3771.000000	0.001981
3770.000000	0.001976
3769.000000	0.001951
3768.000000	0.001926
3767.000000	0.001917
3766.000000	0.001928
3765.000000	0.001949
3764.000000	0.001964
3763.000000	0.001966
3762.000000	0.001956
3761.000000	0.001945
3760.000000	0.001948
3759.000000	0.001969
3758.000000	0.001992
3757.000000	0.002009
3756.000000	0.002019
3755.000000	0.002027
3754.000000	0.002037
3753.000000	0.002059
3752.000000	0.002091
3751.000000	0.002109
3750.000000	0.002084
3749.000000	0.002028
3748.000000	0.001971
3747.000000	0.001922
3746.000000	0.001882
3745.000000	0.001854
3744.000000	0.001835
3743.000000	0.001828
3742.000000	0.001841
3741.000000	0.001866
3740.000000	0.001890
3739.000000	0.001904
3738.000000	0.001906
3737.000000	0.001902
3736.000000	0.001890
3735.000000	0.001858
3734.000000	0.001820
3733.000000	0.001799
3732.000000	0.001801
3731.000000	0.001817
3730.000000	0.001847
3729.000000	0.001896
3728.000000	0.001961
3727.000000	0.002033
3726.000000	0.002094
3725.000000	0.002132
3724.000000	0.002140
3723.000000	0.002118
3722.000000	0.002072
3721.000000	0.002016
3720.000000	0.001970
3719.000000	0.001941
3718.000000	0.001924
3717.000000	0.001906
3716.000000	0.001878
3715.000000	0.001845
3714.000000	0.001821
3713.000000	0.001828
3712.000000	0.001870
3711.000000	0.001913
3710.000000	0.001927
3709.000000	0.001915
3708.000000	0.001896
3707.000000	0.001883
3706.000000	0.001879
3705.000000	0.001871
3704.000000	0.001851
3703.000000	0.001825
3702.000000	0.001809
3701.000000	0.001816
3700.000000	0.001842
3699.000000	0.001877
3698.000000	0.001907
3697.000000	0.001928
3696.000000	0.001936
3695.000000	0.001931
3694.000000	0.001914
3693.000000	0.001889
3692.000000	0.001865
3691.000000	0.001853
3690.000000	0.001857
3689.000000	0.001870
3688.000000	0.001886
3687.000000	0.001902
3686.000000	0.001914
3685.000000	0.001917
3684.000000	0.001915
3683.000000	0.001910
3682.000000	0.001905
3681.000000	0.001906
3680.000000	0.001919
3679.000000	0.001950
3678.000000	0.001994
3677.000000	0.002030
3676.000000	0.002031
3675.000000	0.001979
3674.000000	0.001911
3673.000000	0.001866
3672.000000	0.001844
3671.000000	0.001838
3670.000000	0.001853
3669.000000	0.001885
3668.000000	0.001925
3667.000000	0.001961
3666.000000	0.001983
3665.000000	0.001995
3664.000000	0.002007
3663.000000	0.002026
3662.000000	0.002043
3661.000000	0.002046
3660.000000	0.002029
3659.000000	0.002002
3658.000000	0.001980
3657.000000	0.001973
3656.000000	0.001978
3655.000000	0.001988
3654.000000	0.002002
3653.000000	0.002020
3652.000000	0.002041
3651.000000	0.002071
3650.000000	0.002101
3649.000000	0.002106
3648.000000	0.002081
3647.000000	0.002052
3646.000000	0.002034
3645.000000	0.002024
3644.000000	0.002014
3643.000000	0.002009
3642.000000	0.002013
3641.000000	0.002025
3640.000000	0.002041
3639.000000	0.002057
3638.000000	0.002075
3637.000000	0.002093
3636.000000	0.002110
3635.000000	0.002124
3634.000000	0.002141
3633.000000	0.002160
3632.000000	0.002177
3631.000000	0.002186
3630.000000	0.002196
3629.000000	0.002205
3628.000000	0.002203
3627.000000	0.002204
3626.000000	0.002210
3625.000000	0.002206
3624.000000	0.002178
3623.000000	0.002124
3622.000000	0.002052
3621.000000	0.001979
3620.000000	0.001931
3619.000000	0.001925
3618.000000	0.001961
3617.000000	0.002028
3616.000000	0.002105
3615.000000	0.002173
3614.000000	0.002219
3613.000000	0.002240
3612.000000	0.002242
3611.000000	0.002241
3610.000000	0.002252
3609.000000	0.002273
3608.000000	0.002291
3607.000000	0.002295
3606.000000	0.002295
3605.000000	0.002304
3604.000000	0.002323
3603.000000	0.002344
3602.000000	0.002358
3601.000000	0.002357
3600.000000	0.002342
3599.000000	0.002320
3598.000000	0.002300
3597.000000	0.002292
3596.000000	0.002309
3595.000000	0.002355
3594.000000	0.002416
3593.000000	0.002471
3592.000000	0.002506
3591.000000	0.002515
3590.000000	0.002506
3589.000000	0.002492
3588.000000	0.002484
3587.000000	0.002476
3586.000000	0.002474
3585.000000	0.002486
3584.000000	0.002507
3583.000000	0.002528
3582.000000	0.002544
3581.000000	0.002557
3580.000000	0.002573
3579.000000	0.002596
3578.000000	0.002621
3577.000000	0.002642
3576.000000	0.002658
3575.000000	0.002672
3574.000000	0.002693
3573.000000	0.002721
3572.000000	0.002751
3571.000000	0.002776
3570.000000	0.002799
3569.000000	0.002831
3568.000000	0.002873
3567.000000	0.002899
3566.000000	0.002898
3565.000000	0.002889
3564.000000	0.002890
3563.000000	0.002896
3562.000000	0.002900
3561.000000	0.002905
3560.000000	0.002918
3559.000000	0.002939
3558.000000	0.002955
3557.000000	0.002957
3556.000000	0.002954
3555.000000	0.002964
3554.000000	0.003002
3553.000000	0.003066
3552.000000	0.003139
3551.000000	0.003197
3550.000000	0.003230
3549.000000	0.003242
3548.000000	0.003244
3547.000000	0.003244
3546.000000	0.003241
3545.000000	0.003231
3544.000000	0.003220
3543.000000	0.003215
3542.000000	0.003223
3541.000000	0.003239
3540.000000	0.003259
3539.000000	0.003281
3538.000000	0.003303
3537.000000	0.003321
3536.000000	0.003331
3535.000000	0.003331
3534.000000	0.003324
3533.000000	0.003310
3532.000000	0.003293
3531.000000	0.003278
3530.000000	0.003276
3529.000000	0.003291
3528.000000	0.003317
3527.000000	0.003342
3526.000000	0.003357
3525.000000	0.003368
3524.000000	0.003380
3523.000000	0.003391
3522.000000	0.003392
3521.000000	0.003372
3520.000000	0.003335
3519.000000	0.003292
3518.000000	0.003261
3517.000000	0.003251
3516.000000	0.003258
3515.000000	0.003272
3514.000000	0.003286
3513.000000	0.003298
3512.000000	0.003310
3511.000000	0.003316
3510.000000	0.003312
3509.000000	0.003298
3508.000000	0.003287
3507.000000	0.003288
3506.000000	0.003297
3505.000000	0.003304
3504.000000	0.003299
3503.000000	0.003282
3502.000000	0.003263
3501.000000	0.003251
3500.000000	0.003250
3499.000000	0.003254
3498.000000	0.003259
3497.000000	0.003265
3496.000000	0.003275
3495.000000	0.003290
3494.000000	0.003306
3493.000000	0.003319
3492.000000	0.003325
3491.000000	0.003329
3490.000000	0.003333
3489.000000	0.003336
3488.000000	0.003336
3487.000000	0.003336
3486.000000	0.003341
3485.000000	0.003357
3484.000000	0.003377
3483.000000	0.003390
3482.000000	0.003387
3481.000000	0.003368
3480.000000	0.003343
3479.000000	0.003320
3478.000000	0.003305
3477.000000	0.003301
3476.000000	0.003312
3475.000000	0.003341
3474.000000	0.003384
3473.000000	0.003426
3472.000000	0.003455
3471.000000	0.003462
3470.000000	0.003451
3469.000000	0.003433
3468.000000	0.003418
3467.000000	0.003413
3466.000000	0.003417
3465.000000	0.003430
3464.000000	0.003451
3463.000000	0.003475
3462.000000	0.003492
3461.000000	0.003493
3460.000000	0.003478
3459.000000	0.003460
3458.000000	0.003447
3457.000000	0.003442
3456.000000	0.003442
3455.000000	0.003443
3454.000000	0.003446
3453.000000	0.003452
3452.000000	0.003467
3451.000000	0.003486
3450.000000	0.003505
3449.000000	0.003514
3448.000000	0.003515
3447.000000	0.003521
3446.000000	0.003543
3445.000000	0.003579
3444.000000	0.003612
3443.000000	0.003624
3442.000000	0.003612
3441.000000	0.003595
3440.000000	0.003590
3439.000000	0.003596
3438.000000	0.003603
3437.000000	0.003601
3436.000000	0.003593
3435.000000	0.003590
3434.000000	0.003596
3433.000000	0.003610
3432.000000	0.003625
3431.000000	0.003638
3430.000000	0.003651
3429.000000	0.003662
3428.000000	0.003669
3427.000000	0.003674
3426.000000	0.003681
3425.000000	0.003697
3424.000000	0.003718
3423.000000	0.003736
3422.000000	0.003744
3421.000000	0.003746
3420.000000	0.003748
3419.000000	0.003754
3418.000000	0.003766
3417.000000	0.003784
3416.000000	0.003811
3415.000000	0.003843
3414.000000	0.003873
3413.000000	0.003897
3412.000000	0.003921
3411.000000	0.003952
3410.000000	0.003989
3409.000000	0.004021
3408.000000	0.004037
3407.000000	0.004038
3406.000000	0.004035
3405.000000	0.004040
3404.000000	0.004056
3403.000000	0.004072
3402.000000	0.004076
3401.000000	0.004068
3400.000000	0.004055
3399.000000	0.004042
3398.000000	0.004031
3397.000000	0.004026
3396.000000	0.004036
3395.000000	0.004062
3394.000000	0.004087
3393.000000	0.004090
3392.000000	0.004066
3391.000000	0.004027
3390.000000	0.003993
3389.000000	0.003977
3388.000000	0.003981
3387.000000	0.004001
3386.000000	0.004024
3385.000000	0.004041
3384.000000	0.004049
3383.000000	0.004052
3382.000000	0.004060
3381.000000	0.004071
3380.000000	0.004080
3379.000000	0.004079
3378.000000	0.004065
3377.000000	0.004042
3376.000000	0.004016
3375.000000	0.003995
3374.000000	0.003983
3373.000000	0.003986
3372.000000	0.004005
3371.000000	0.004039
3370.000000	0.004077
3369.000000	0.004107
3368.000000	0.004121
3367.000000	0.004123
3366.000000	0.004117
3365.000000	0.004109
3364.000000	0.004100
3363.000000	0.004096
3362.000000	0.004096
3361.000000	0.004098
3360.000000	0.004098
3359.000000	0.004099
3358.000000	0.004102
3357.000000	0.004104
3356.000000	0.004097
3355.000000	0.004084
3354.000000	0.004077
3353.000000	0.004087
3352.000000	0.004112
3351.000000	0.004140
3350.000000	0.004156
3349.000000	0.004152
3348.000000	0.004130
3347.000000	0.004101
3346.000000	0.004080
3345.000000	0.004075
3344.000000	0.004089
3343.000000	0.004115
3342.000000	0.004146
3341.000000	0.004177
3340.000000	0.004204
3339.000000	0.004223
3338.000000	0.004227
3337.000000	0.004213
3336.000000	0.004191
3335.000000	0.004173
3334.000000	0.004171
3333.000000	0.004187
3332.000000	0.004210
3331.000000	0.004226
3330.000000	0.004231
3329.000000	0.004230
3328.000000	0.004231
3327.000000	0.004235
3326.000000	0.004240
3325.000000	0.004243
3324.000000	0.004247
3323.000000	0.004254
3322.000000	0.004261
3321.000000	0.004262
3320.000000	0.004258
3319.000000	0.004258
3318.000000	0.004270
3317.000000	0.004297
3316.000000	0.004328
3315.000000	0.004353
3314.000000	0.004363
3313.000000	0.004364
3312.000000	0.004368
3311.000000	0.004384
3310.000000	0.004411
3309.000000	0.004440
3308.000000	0.004460
3307.000000	0.004465
3306.000000	0.004456
3305.000000	0.004436
3304.000000	0.004407
3303.000000	0.004373
3302.000000	0.004341
3301.000000	0.004321
3300.000000	0.004323
3299.000000	0.004348
3298.000000	0.004387
3297.000000	0.004423
3296.000000	0.004449
3295.000000	0.004464
3294.000000	0.004474
3293.000000	0.004480
3292.000000	0.004481
3291.000000	0.004472
3290.000000	0.004459
3289.000000	0.004446
3288.000000	0.004439
3287.000000	0.004436
3286.000000	0.004433
3285.000000	0.004425
3284.000000	0.004416
3283.000000	0.004412
3282.000000	0.004415
3281.000000	0.004414
3280.000000	0.004398
3279.000000	0.004369
3278.000000	0.004345
3277.000000	0.004347
3276.000000	0.004378
3275.000000	0.004423
3274.000000	0.004454
3273.000000	0.004453
3272.000000	0.004427
3271.000000	0.004398
3270.000000	0.004389
3269.000000	0.004404
3268.000000	0.004426
3267.000000	0.004437
3266.000000	0.004428
3265.000000	0.004406
3264.000000	0.004387
3263.000000	0.004378
3262.000000	0.004378
3261.000000	0.004380
3260.000000	0.004383
3259.000000	0.004389
3258.000000	0.004401
3257.000000	0.004412
3256.000000	0.004414
3255.000000	0.004402
3254.000000	0.004383
3253.000000	0.004369
3252.000000	0.004365
3251.000000	0.004364
3250.000000	0.004352
3249.000000	0.004327
3248.000000	0.004297
3247.000000	0.004274
3246.000000	0.004262
3245.000000	0.004262
3244.000000	0.004271
3243.000000	0.004281
3242.000000	0.004281
3241.000000	0.004261
3240.000000	0.004223
3239.000000	0.004186
3238.000000	0.004164
3237.000000	0.004162
3236.000000	0.004169
3235.000000	0.004168
3234.000000	0.004156
3233.000000	0.004137
3232.000000	0.004120
3231.000000	0.004108
3230.000000	0.004096
3229.000000	0.004082
3228.000000	0.004073
3227.000000	0.004078
3226.000000	0.004101
3225.000000	0.004135
3224.000000	0.004169
3223.000000	0.004193
3222.000000	0.004195
3221.000000	0.004174
3220.000000	0.004143
3219.000000	0.004119
3218.000000	0.004109
3217.000000	0.004105
3216.000000	0.004096
3215.000000	0.004082
3214.000000	0.004074
3213.000000	0.004073
3212.000000	0.004076
3211.000000	0.004070
3210.000000	0.004052
3209.000000	0.004027
3208.000000	0.004008
3207.000000	0.004010
3206.000000	0.004035
3205.000000	0.004069
3204.000000	0.004094
3203.000000	0.004099
3202.000000	0.004085
3201.000000	0.004060
3200.000000	0.004031
3199.000000	0.004002
3198.000000	0.003983
3197.000000	0.003978
3196.000000	0.003989
3195.000000	0.004004
3194.000000	0.004008
3193.000000	0.003994
3192.000000	0.003967
3191.000000	0.003943
3190.000000	0.003934
3189.000000	0.003938
3188.000000	0.003951
3187.000000	0.003966
3186.000000	0.003980
3185.000000	0.003991
3184.000000	0.003996
3183.000000	0.003996
3182.000000	0.003992
3181.000000	0.003988
3180.000000	0.003986
3179.000000	0.003984
3178.000000	0.003977
3177.000000	0.003963
3176.000000	0.003946
3175.000000	0.003935
3174.000000	0.003925
3173.000000	0.003908
3172.000000	0.003883
3171.000000	0.003857
3170.000000	0.003835
3169.000000	0.003815
3168.000000	0.003792
3167.000000	0.003769
3166.000000	0.003754
3165.000000	0.003751
3164.000000	0.003759
3163.000000	0.003776
3162.000000	0.003795
3161.000000	0.003807
3160.000000	0.003806
3159.000000	0.003798
3158.000000	0.003789
3157.000000	0.003785
3156.000000	0.003788
3155.000000	0.003803
3154.000000	0.003825
3153.000000	0.003837
3152.000000	0.003824
3151.000000	0.003785
3150.000000	0.003736
3149.000000	0.003694
3148.000000	0.003666
3147.000000	0.003655
3146.000000	0.003657
3145.000000	0.003669
3144.000000	0.003686
3143.000000	0.003703
3142.000000	0.003717
3141.000000	0.003723
3140.000000	0.003721
3139.000000	0.003718
3138.000000	0.003720
3137.000000	0.003724
3136.000000	0.003722
3135.000000	0.003705
3134.000000	0.003677
3133.000000	0.003647
3132.000000	0.003626
3131.000000	0.003621
3130.000000	0.003630
3129.000000	0.003644
3128.000000	0.003656
3127.000000	0.003660
3126.000000	0.003655
3125.000000	0.003645
3124.000000	0.003636
3123.000000	0.003633
3122.000000	0.003636
3121.000000	0.003638
3120.000000	0.003631
3119.000000	0.003620
3118.000000	0.003615
3117.000000	0.003616
3116.000000	0.003615
3115.000000	0.003606
3114.000000	0.003588
3113.000000	0.003568
3112.000000	0.003551
3111.000000	0.003546
3110.000000	0.003555
3109.000000	0.003566
3108.000000	0.003564
3107.000000	0.003541
3106.000000	0.003508
3105.000000	0.003483
3104.000000	0.003475
3103.000000	0.003483
3102.000000	0.003501
3101.000000	0.003516
3100.000000	0.003518
3099.000000	0.003506
3098.000000	0.003493
3097.000000	0.003495
3096.000000	0.003514
3095.000000	0.003541
3094.000000	0.003561
3093.000000	0.003562
3092.000000	0.003545
3091.000000	0.003519
3090.000000	0.003496
3089.000000	0.003485
3088.000000	0.003486
3087.000000	0.003494
3086.000000	0.003504
3085.000000	0.003512
3084.000000	0.003513
3083.000000	0.003506
3082.000000	0.003495
3081.000000	0.003487
3080.000000	0.003487
3079.000000	0.003496
3078.000000	0.003514
3077.000000	0.003536
3076.000000	0.003548
3075.000000	0.003539
3074.000000	0.003511
3073.000000	0.003479
3072.000000	0.003457
3071.000000	0.003453
3070.000000	0.003461
3069.000000	0.003474
3068.000000	0.003488
3067.000000	0.003504
3066.000000	0.003523
3065.000000	0.003543
3064.000000	0.003561
3063.000000	0.003573
3062.000000	0.003577
3061.000000	0.003574
3060.000000	0.003566
3059.000000	0.003555
3058.000000	0.003547
3057.000000	0.003542
3056.000000	0.003536
3055.000000	0.003529
3054.000000	0.003520
3053.000000	0.003506
3052.000000	0.003488
3051.000000	0.003470
3050.000000	0.003463
3049.000000	0.003470
3048.000000	0.003480
3047.000000	0.003483
3046.000000	0.003476
3045.000000	0.003462
3044.000000	0.003446
3043.000000	0.003429
3042.000000	0.003419
3041.000000	0.003423
3040.000000	0.003438
3039.000000	0.003451
3038.000000	0.003452
3037.000000	0.003439
3036.000000	0.003423
3035.000000	0.003415
3034.000000	0.003425
3033.000000	0.003446
3032.000000	0.003465
3031.000000	0.003467
3030.000000	0.003452
3029.000000	0.003433
3028.000000	0.003424
3027.000000	0.003426
3026.000000	0.003438
3025.000000	0.003451
3024.000000	0.003460
3023.000000	0.003457
3022.000000	0.003447
3021.000000	0.003439
3020.000000	0.003440
3019.000000	0.003446
3018.000000	0.003451
3017.000000	0.003455
3016.000000	0.003460
3015.000000	0.003466
3014.000000	0.003468
3013.000000	0.003462
3012.000000	0.003451
3011.000000	0.003445
3010.000000	0.003449
3009.000000	0.003461
3008.000000	0.003475
3007.000000	0.003487
3006.000000	0.003497
3005.000000	0.003507
3004.000000	0.003519
3003.000000	0.003534
3002.000000	0.003556
3001.000000	0.003586
3000.000000	0.003620
2999.000000	0.003655
2998.000000	0.003682
2997.000000	0.003696
2996.000000	0.003700
2995.000000	0.003705
2994.000000	0.003725
2993.000000	0.003764
2992.000000	0.003816
2991.000000	0.003873
2990.000000	0.003933
2989.000000	0.003996
2988.000000	0.004056
2987.000000	0.004104
2986.000000	0.004136
2985.000000	0.004163
2984.000000	0.004197
2983.000000	0.004243
2982.000000	0.004296
2981.000000	0.004347
2980.000000	0.004395
2979.000000	0.004447
2978.000000	0.004515
2977.000000	0.004602
2976.000000	0.004698
2975.000000	0.004793
2974.000000	0.004884
2973.000000	0.004972
2972.000000	0.005060
2971.000000	0.005144
2970.000000	0.005224
2969.000000	0.005307
2968.000000	0.005397
2967.000000	0.005492
2966.000000	0.005589
2965.000000	0.005681
2964.000000	0.005763
2963.000000	0.005832
2962.000000	0.005890
2961.000000	0.005939
2960.000000	0.005981
2959.000000	0.006013
2958.000000	0.006024
2957.000000	0.006011
2956.000000	0.005978
2955.000000	0.005936
2954.000000	0.005889
2953.000000	0.005841
2952.000000	0.005795
2951.000000	0.005758
2950.000000	0.005738
2949.000000	0.005736
2948.000000	0.005745
2947.000000	0.005757
2946.000000	0.005772
2945.000000	0.005794
2944.000000	0.005833
2943.000000	0.005890
2942.000000	0.005961
2941.000000	0.006040
2940.000000	0.006121
2939.000000	0.006207
2938.000000	0.006301
2937.000000	0.006400
2936.000000	0.006496
2935.000000	0.006583
2934.000000	0.006660
2933.000000	0.006726
2932.000000	0.006777
2931.000000	0.006811
2930.000000	0.006826
2929.000000	0.006821
2928.000000	0.006797
2927.000000	0.006757
2926.000000	0.006710
2925.000000	0.006668
2924.000000	0.006630
2923.000000	0.006587
2922.000000	0.006531
2921.000000	0.006461
2920.000000	0.006380
2919.000000	0.006293
2918.000000	0.006206
2917.000000	0.006128
2916.000000	0.006066
2915.000000	0.006022
2914.000000	0.005991
2913.000000	0.005966
2912.000000	0.005947
2911.000000	0.005934
2910.000000	0.005924
2909.000000	0.005906
2908.000000	0.005870
2907.000000	0.005816
2906.000000	0.005752
2905.000000	0.005690
2904.000000	0.005630
2903.000000	0.005566
2902.000000	0.005493
2901.000000	0.005415
2900.000000	0.005339
2899.000000	0.005268
2898.000000	0.005201
2897.000000	0.005140
2896.000000	0.005087
2895.000000	0.005044
2894.000000	0.005000
2893.000000	0.004946
2892.000000	0.004883
2891.000000	0.004817
2890.000000	0.004759
2889.000000	0.004718
2888.000000	0.004699
2887.000000	0.004700
2886.000000	0.004713
2885.000000	0.004731
2884.000000	0.004748
2883.000000	0.004767
2882.000000	0.004796
2881.000000	0.004840
2880.000000	0.004900
2879.000000	0.004970
2878.000000	0.005040
2877.000000	0.005101
2876.000000	0.005151
2875.000000	0.005196
2874.000000	0.005237
2873.000000	0.005267
2872.000000	0.005276
2871.000000	0.005267
2870.000000	0.005256
2869.000000	0.005253
2868.000000	0.005257
2867.000000	0.005261
2866.000000	0.005264
2865.000000	0.005274
2864.000000	0.005296
2863.000000	0.005329
2862.000000	0.005364
2861.000000	0.005398
2860.000000	0.005430
2859.000000	0.005455
2858.000000	0.005467
2857.000000	0.005458
2856.000000	0.005426
2855.000000	0.005376
2854.000000	0.005315
2853.000000	0.005241
2852.000000	0.005149
2851.000000	0.005040
2850.000000	0.004922
2849.000000	0.004812
2848.000000	0.004722
2847.000000	0.004656
2846.000000	0.004612
2845.000000	0.004580
2844.000000	0.004546
2843.000000	0.004502
2842.000000	0.004445
2841.000000	0.004381
2840.000000	0.004316
2839.000000	0.004256
2838.000000	0.004205
2837.000000	0.004162
2836.000000	0.004124
2835.000000	0.004088
2834.000000	0.004059
2833.000000	0.004039
2832.000000	0.004026
2831.000000	0.004013
2830.000000	0.003999
2829.000000	0.003987
2828.000000	0.003974
2827.000000	0.003957
2826.000000	0.003937
2825.000000	0.003921
2824.000000	0.003915
2823.000000	0.003919
2822.000000	0.003927
2821.000000	0.003933
2820.000000	0.003935
2819.000000	0.003927
2818.000000	0.003907
2817.000000	0.003879
2816.000000	0.003852
2815.000000	0.003830
2814.000000	0.003808
2813.000000	0.003782
2812.000000	0.003756
2811.000000	0.003741
2810.000000	0.003742
2809.000000	0.003754
2808.000000	0.003763
2807.000000	0.003763
2806.000000	0.003758
2805.000000	0.003748
2804.000000	0.003733
2803.000000	0.003709
2802.000000	0.003681
2801.000000	0.003662
2800.000000	0.003656
2799.000000	0.003662
2798.000000	0.003672
2797.000000	0.003678
2796.000000	0.003680
2795.000000	0.003678
2794.000000	0.003672
2793.000000	0.003665
2792.000000	0.003662
2791.000000	0.003666
2790.000000	0.003674
2789.000000	0.003682
2788.000000	0.003684
2787.000000	0.003678
2786.000000	0.003669
2785.000000	0.003660
2784.000000	0.003653
2783.000000	0.003645
2782.000000	0.003636
2781.000000	0.003621
2780.000000	0.003603
2779.000000	0.003585
2778.000000	0.003575
2777.000000	0.003576
2776.000000	0.003583
2775.000000	0.003589
2774.000000	0.003589
2773.000000	0.003589
2772.000000	0.003593
2771.000000	0.003606
2770.000000	0.003625
2769.000000	0.003642
2768.000000	0.003648
2767.000000	0.003637
2766.000000	0.003614
2765.000000	0.003585
2764.000000	0.003559
2763.000000	0.003542
2762.000000	0.003539
2761.000000	0.003550
2760.000000	0.003567
2759.000000	0.003583
2758.000000	0.003597
2757.000000	0.003609
2756.000000	0.003615
2755.000000	0.003609
2754.000000	0.003597
2753.000000	0.003586
2752.000000	0.003580
2751.000000	0.003575
2750.000000	0.003571
2749.000000	0.003571
2748.000000	0.003578
2747.000000	0.003587
2746.000000	0.003587
2745.000000	0.003574
2744.000000	0.003553
2743.000000	0.003536
2742.000000	0.003530
2741.000000	0.003532
2740.000000	0.003533
2739.000000	0.003526
2738.000000	0.003517
2737.000000	0.003512
2736.000000	0.003513
2735.000000	0.003515
2734.000000	0.003513
2733.000000	0.003509
2732.000000	0.003504
2731.000000	0.003503
2730.000000	0.003509
2729.000000	0.003525
2728.000000	0.003543
2727.000000	0.003550
2726.000000	0.003545
2725.000000	0.003537
2724.000000	0.003539
2723.000000	0.003552
2722.000000	0.003563
2721.000000	0.003559
2720.000000	0.003540
2719.000000	0.003517
2718.000000	0.003506
2717.000000	0.003511
2716.000000	0.003519
2715.000000	0.003517
2714.000000	0.003504
2713.000000	0.003494
2712.000000	0.003496
2711.000000	0.003505
2710.000000	0.003510
2709.000000	0.003512
2708.000000	0.003515
2707.000000	0.003520
2706.000000	0.003521
2705.000000	0.003510
2704.000000	0.003491
2703.000000	0.003474
2702.000000	0.003470
2701.000000	0.003481
2700.000000	0.003504
2699.000000	0.003530
2698.000000	0.003548
2697.000000	0.003552
2696.000000	0.003539
2695.000000	0.003512
2694.000000	0.003482
2693.000000	0.003461
2692.000000	0.003454
2691.000000	0.003454
2690.000000	0.003454
2689.000000	0.003454
2688.000000	0.003458
2687.000000	0.003466
2686.000000	0.003470
2685.000000	0.003465
2684.000000	0.003453
2683.000000	0.003442
2682.000000	0.003435
2681.000000	0.003430
2680.000000	0.003425
2679.000000	0.003419
2678.000000	0.003415
2677.000000	0.003417
2676.000000	0.003426
2675.000000	0.003439
2674.000000	0.003448
2673.000000	0.003445
2672.000000	0.003428
2671.000000	0.003407
2670.000000	0.003397
2669.000000	0.003403
2668.000000	0.003422
2667.000000	0.003446
2666.000000	0.003468
2665.000000	0.003485
2664.000000	0.003495
2663.000000	0.003497
2662.000000	0.003495
2661.000000	0.003495
2660.000000	0.003500
2659.000000	0.003508
2658.000000	0.003515
2657.000000	0.003518
2656.000000	0.003518
2655.000000	0.003521
2654.000000	0.003527
2653.000000	0.003530
2652.000000	0.003523
2651.000000	0.003500
2650.000000	0.003465
2649.000000	0.003429
2648.000000	0.003404
2647.000000	0.003391
2646.000000	0.003387
2645.000000	0.003388
2644.000000	0.003394
2643.000000	0.003398
2642.000000	0.003395
2641.000000	0.003383
2640.000000	0.003367
2639.000000	0.003351
2638.000000	0.003339
2637.000000	0.003327
2636.000000	0.003319
2635.000000	0.003318
2634.000000	0.003323
2633.000000	0.003325
2632.000000	0.003319
2631.000000	0.003307
2630.000000	0.003295
2629.000000	0.003291
2628.000000	0.003296
2627.000000	0.003308
2626.000000	0.003319
2625.000000	0.003323
2624.000000	0.003316
2623.000000	0.003306
2622.000000	0.003297
2621.000000	0.003285
2620.000000	0.003260
2619.000000	0.003222
2618.000000	0.003188
2617.000000	0.003176
2616.000000	0.003188
2615.000000	0.003211
2614.000000	0.003231
2613.000000	0.003241
2612.000000	0.003245
2611.000000	0.003248
2610.000000	0.003261
2609.000000	0.003282
2608.000000	0.003300
2607.000000	0.003296
2606.000000	0.003262
2605.000000	0.003215
2604.000000	0.003183
2603.000000	0.003180
2602.000000	0.003197
2601.000000	0.003215
2600.000000	0.003218
2599.000000	0.003205
2598.000000	0.003189
2597.000000	0.003176
2596.000000	0.003168
2595.000000	0.003162
2594.000000	0.003159
2593.000000	0.003159
2592.000000	0.003154
2591.000000	0.003136
2590.000000	0.003109
2589.000000	0.003084
2588.000000	0.003075
2587.000000	0.003089
2586.000000	0.003117
2585.000000	0.003145
2584.000000	0.003157
2583.000000	0.003153
2582.000000	0.003146
2581.000000	0.003143
2580.000000	0.003134
2579.000000	0.003112
2578.000000	0.003087
2577.000000	0.003078
2576.000000	0.003087
2575.000000	0.003099
2574.000000	0.003103
2573.000000	0.003104
2572.000000	0.003109
2571.000000	0.003114
2570.000000	0.003115
2569.000000	0.003113
2568.000000	0.003108
2567.000000	0.003099
2566.000000	0.003083
2565.000000	0.003063
2564.000000	0.003044
2563.000000	0.003027
2562.000000	0.003020
2561.000000	0.003034
2560.000000	0.003067
2559.000000	0.003098
2558.000000	0.003108
2557.000000	0.003103
2556.000000	0.003097
2555.000000	0.003085
2554.000000	0.003053
2553.000000	0.002996
2552.000000	0.002934
2551.000000	0.002895
2550.000000	0.002896
2549.000000	0.002934
2548.000000	0.002991
2547.000000	0.003044
2546.000000	0.003074
2545.000000	0.003076
2544.000000	0.003061
2543.000000	0.003043
2542.000000	0.003033
2541.000000	0.003038
2540.000000	0.003055
2539.000000	0.003074
2538.000000	0.003088
2537.000000	0.003096
2536.000000	0.003104
2535.000000	0.003111
2534.000000	0.003111
2533.000000	0.003097
2532.000000	0.003077
2531.000000	0.003061
2530.000000	0.003058
2529.000000	0.003064
2528.000000	0.003074
2527.000000	0.003076
2526.000000	0.003063
2525.000000	0.003041
2524.000000	0.003024
2523.000000	0.003033
2522.000000	0.003078
2521.000000	0.003149
2520.000000	0.003219
2519.000000	0.003259
2518.000000	0.003265
2517.000000	0.003254
2516.000000	0.003245
2515.000000	0.003242
2514.000000	0.003238
2513.000000	0.003233
2512.000000	0.003231
2511.000000	0.003238
2510.000000	0.003248
2509.000000	0.003252
2508.000000	0.003245
2507.000000	0.003224
2506.000000	0.003191
2505.000000	0.003154
2504.000000	0.003118
2503.000000	0.003092
2502.000000	0.003080
2501.000000	0.003084
2500.000000	0.003095
2499.000000	0.003097
2498.000000	0.003076
2497.000000	0.003037
2496.000000	0.002998
2495.000000	0.002975
2494.000000	0.002972
2493.000000	0.002987
2492.000000	0.003011
2491.000000	0.003034
2490.000000	0.003047
2489.000000	0.003049
2488.000000	0.003040
2487.000000	0.003019
2486.000000	0.002982
2485.000000	0.002932
2484.000000	0.002889
2483.000000	0.002872
2482.000000	0.002883
2481.000000	0.002912
2480.000000	0.002946
2479.000000	0.002980
2478.000000	0.003003
2477.000000	0.002994
2476.000000	0.002942
2475.000000	0.002861
2474.000000	0.002787
2473.000000	0.002752
2472.000000	0.002768
2471.000000	0.002820
2470.000000	0.002881
2469.000000	0.002930
2468.000000	0.002959
2467.000000	0.002970
2466.000000	0.002966
2465.000000	0.002955
2464.000000	0.002952
2463.000000	0.002965
2462.000000	0.002991
2461.000000	0.003008
2460.000000	0.002999
2459.000000	0.002972
2458.000000	0.002950
2457.000000	0.002948
2456.000000	0.002962
2455.000000	0.002982
2454.000000	0.003008
2453.000000	0.003042
2452.000000	0.003072
2451.000000	0.003085
2450.000000	0.003076
2449.000000	0.003054
2448.000000	0.003029
2447.000000	0.003004
2446.000000	0.002979
2445.000000	0.002961
2444.000000	0.002951
2443.000000	0.002940
2442.000000	0.002913
2441.000000	0.002861
2440.000000	0.002798
2439.000000	0.002755
2438.000000	0.002764
2437.000000	0.002823
2436.000000	0.002903
2435.000000	0.002969
2434.000000	0.003006
2433.000000	0.003020
2432.000000	0.003019
2431.000000	0.003003
2430.000000	0.002977
2429.000000	0.002951
2428.000000	0.002930
2427.000000	0.002919
2426.000000	0.002923
2425.000000	0.002949
2424.000000	0.002989
2423.000000	0.003019
2422.000000	0.003025
2421.000000	0.003003
2420.000000	0.002965
2419.000000	0.002917
2418.000000	0.002866
2417.000000	0.002821
2416.000000	0.002793
2415.000000	0.002786
2414.000000	0.002798
2413.000000	0.002818
2412.000000	0.002834
2411.000000	0.002840
2410.000000	0.002839
2409.000000	0.002846
2408.000000	0.002863
2407.000000	0.002876
2406.000000	0.002867
2405.000000	0.002840
2404.000000	0.002814
2403.000000	0.002804
2402.000000	0.002809
2401.000000	0.002821
2400.000000	0.002830
2399.000000	0.002832
2398.000000	0.002826
2397.000000	0.002817
2396.000000	0.002822
2395.000000	0.002852
2394.000000	0.002897
2393.000000	0.002932
2392.000000	0.002939
2391.000000	0.002928
2390.000000	0.002922
2389.000000	0.002927
2388.000000	0.002932
2387.000000	0.002921
2386.000000	0.002891
2385.000000	0.002849
2384.000000	0.002801
2383.000000	0.002752
2382.000000	0.002706
2381.000000	0.002669
2380.000000	0.002644
2379.000000	0.002637
2378.000000	0.002658
2377.000000	0.002707
2376.000000	0.002767
2375.000000	0.002812
2374.000000	0.002825
2373.000000	0.002801
2372.000000	0.002755
2371.000000	0.002719
2370.000000	0.002719
2369.000000	0.002736
2368.000000	0.002731
2367.000000	0.002701
2366.000000	0.002685
2365.000000	0.002711
2364.000000	0.002756
2363.000000	0.002805
2362.000000	0.002870
2361.000000	0.002938
2360.000000	0.002978
2359.000000	0.002963
2358.000000	0.002910
2357.000000	0.002860
2356.000000	0.002832
2355.000000	0.002836
2354.000000	0.002844
2353.000000	0.002803
2352.000000	0.002703
2351.000000	0.002601
2350.000000	0.002575
2349.000000	0.002645
2348.000000	0.002782
2347.000000	0.002904
2346.000000	0.002952
2345.000000	0.002939
2344.000000	0.002919
2343.000000	0.002929
2342.000000	0.002938
2341.000000	0.002929
2340.000000	0.002931
2339.000000	0.002972
2338.000000	0.003022
2337.000000	0.003039
2336.000000	0.003019
2335.000000	0.002992
2334.000000	0.002962
2333.000000	0.002920
2332.000000	0.002881
2331.000000	0.002875
2330.000000	0.002915
2329.000000	0.002976
2328.000000	0.003050
2327.000000	0.003134
2326.000000	0.003217
2325.000000	0.003273
2324.000000	0.003274
2323.000000	0.003228
2322.000000	0.003161
2321.000000	0.003124
2320.000000	0.003148
2319.000000	0.003221
2318.000000	0.003297
2317.000000	0.003322
2316.000000	0.003284
2315.000000	0.003204
2314.000000	0.003133
2313.000000	0.003103
2312.000000	0.003105
2311.000000	0.003098
2310.000000	0.003056
2309.000000	0.003007
2308.000000	0.002991
2307.000000	0.003014
2306.000000	0.003033
2305.000000	0.003019
2304.000000	0.002978
2303.000000	0.002940
2302.000000	0.002918
2301.000000	0.002909
2300.000000	0.002914
2299.000000	0.002937
2298.000000	0.002980
2297.000000	0.003033
2296.000000	0.003076
2295.000000	0.003091
2294.000000	0.003080
2293.000000	0.003065
2292.000000	0.003073
2291.000000	0.003105
2290.000000	0.003137
2289.000000	0.003153
2288.000000	0.003161
2287.000000	0.003173
2286.000000	0.003191
2285.000000	0.003208
2284.000000	0.003224
2283.000000	0.003237
2282.000000	0.003235
2281.000000	0.003207
2280.000000	0.003166
2279.000000	0.003138
2278.000000	0.003130
2277.000000	0.003122
2276.000000	0.003087
2275.000000	0.003017
2274.000000	0.002934
2273.000000	0.002871
2272.000000	0.002844
2271.000000	0.002847
2270.000000	0.002872
2269.000000	0.002918
2268.000000	0.002974
2267.000000	0.002996
2266.000000	0.002933
2265.000000	0.002796
2264.000000	0.002674
2263.000000	0.002655
2262.000000	0.002745
2261.000000	0.002868
2260.000000	0.002957
2259.000000	0.003001
2258.000000	0.003024
2257.000000	0.003027
2256.000000	0.002989
2255.000000	0.002909
2254.000000	0.002826
2253.000000	0.002789
2252.000000	0.002815
2251.000000	0.002874
2250.000000	0.002914
2249.000000	0.002908
2248.000000	0.002871
2247.000000	0.002844
2246.000000	0.002849
2245.000000	0.002882
2244.000000	0.002921
2243.000000	0.002962
2242.000000	0.003019
2241.000000	0.003091
2240.000000	0.003148
2239.000000	0.003145
2238.000000	0.003068
2237.000000	0.002940
2236.000000	0.002802
2235.000000	0.002692
2234.000000	0.002642
2233.000000	0.002674
2232.000000	0.002774
2231.000000	0.002897
2230.000000	0.002990
2229.000000	0.003019
2228.000000	0.002980
2227.000000	0.002900
2226.000000	0.002843
2225.000000	0.002869
2224.000000	0.002974
2223.000000	0.003076
2222.000000	0.003105
2221.000000	0.003080
2220.000000	0.003065
2219.000000	0.003072
2218.000000	0.003043
2217.000000	0.002943
2216.000000	0.002800
2215.000000	0.002652
2214.000000	0.002508
2213.000000	0.002370
2212.000000	0.002268
2211.000000	0.002228
2210.000000	0.002229
2209.000000	0.002231
2208.000000	0.002227
2207.000000	0.002238
2206.000000	0.002272
2205.000000	0.002311
2204.000000	0.002349
2203.000000	0.002405
2202.000000	0.002497
2201.000000	0.002616
2200.000000	0.002726
2199.000000	0.002819
2198.000000	0.002922
2197.000000	0.003053
2196.000000	0.003149
2195.000000	0.003099
2194.000000	0.002868
2193.000000	0.002570
2192.000000	0.002385
2191.000000	0.002384
2190.000000	0.002494
2189.000000	0.002609
2188.000000	0.002689
2187.000000	0.002745
2186.000000	0.002778
2185.000000	0.002786
2184.000000	0.002773
2183.000000	0.002709
2182.000000	0.002532
2181.000000	0.002240
2180.000000	0.001955
2179.000000	0.001825
2178.000000	0.001893
2177.000000	0.002089
2176.000000	0.002312
2175.000000	0.002479
2174.000000	0.002517
2173.000000	0.002421
2172.000000	0.002319
2171.000000	0.002395
2170.000000	0.002700
2169.000000	0.003073
2168.000000	0.003283
2167.000000	0.003237
2166.000000	0.003028
2165.000000	0.002821
2164.000000	0.002745
2163.000000	0.002838
2162.000000	0.003025
2161.000000	0.003140
2160.000000	0.003031
2159.000000	0.002698
2158.000000	0.002297
2157.000000	0.001982
2156.000000	0.001793
2155.000000	0.001700
2154.000000	0.001680
2153.000000	0.001727
2152.000000	0.001816
2151.000000	0.001907
2150.000000	0.001963
2149.000000	0.001971
2148.000000	0.001930
2147.000000	0.001858
2146.000000	0.001793
2145.000000	0.001781
2144.000000	0.001843
2143.000000	0.001958
2142.000000	0.002080
2141.000000	0.002173
2140.000000	0.002238
2139.000000	0.002302
2138.000000	0.002379
2137.000000	0.002440
2136.000000	0.002438
2135.000000	0.002365
2134.000000	0.002272
2133.000000	0.002232
2132.000000	0.002267
2131.000000	0.002340
2130.000000	0.002397
2129.000000	0.002415
2128.000000	0.002409
2127.000000	0.002395
2126.000000	0.002373
2125.000000	0.002340
2124.000000	0.002321
2123.000000	0.002362
2122.000000	0.002480
2121.000000	0.002643
2120.000000	0.002787
2119.000000	0.002875
2118.000000	0.002910
2117.000000	0.002915
2116.000000	0.002909
2115.000000	0.002903
2114.000000	0.002905
2113.000000	0.002918
2112.000000	0.002932
2111.000000	0.002929
2110.000000	0.002902
2109.000000	0.002865
2108.000000	0.002836
2107.000000	0.002814
2106.000000	0.002776
2105.000000	0.002713
2104.000000	0.002653
2103.000000	0.002641
2102.000000	0.002683
2101.000000	0.002729
2100.000000	0.002729
2099.000000	0.002696
2098.000000	0.002683
2097.000000	0.002710
2096.000000	0.002738
2095.000000	0.002729
2094.000000	0.002695
2093.000000	0.002683
2092.000000	0.002710
2091.000000	0.002757
2090.000000	0.002797
2089.000000	0.002817
2088.000000	0.002823
2087.000000	0.002828
2086.000000	0.002848
2085.000000	0.002889
2084.000000	0.002949
2083.000000	0.003015
2082.000000	0.003067
2081.000000	0.003074
2080.000000	0.003017
2079.000000	0.002925
2078.000000	0.002864
2077.000000	0.002875
2076.000000	0.002923
2075.000000	0.002927
2074.000000	0.002852
2073.000000	0.002741
2072.000000	0.002667
2071.000000	0.002662
2070.000000	0.002704
2069.000000	0.002754
2068.000000	0.002795
2067.000000	0.002836
2066.000000	0.002886
2065.000000	0.002935
2064.000000	0.002956
2063.000000	0.002936
2062.000000	0.002889
2061.000000	0.002834
2060.000000	0.002780
2059.000000	0.002740
2058.000000	0.002736
2057.000000	0.002765
2056.000000	0.002792
2055.000000	0.002805
2054.000000	0.002856
2053.000000	0.002990
2052.000000	0.003144
2051.000000	0.003169
2050.000000	0.002981
2049.000000	0.002667
2048.000000	0.002434
2047.000000	0.002423
2046.000000	0.002600
2045.000000	0.002805
2044.000000	0.002880
2043.000000	0.002781
2042.000000	0.002586
2041.000000	0.002408
2040.000000	0.002294
2039.000000	0.002242
2038.000000	0.002269
2037.000000	0.002407
2036.000000	0.002591
2035.000000	0.002669
2034.000000	0.002546
2033.000000	0.002281
2032.000000	0.002002
2031.000000	0.001785
2030.000000	0.001656
2029.000000	0.001646
2028.000000	0.001742
2027.000000	0.001870
2026.000000	0.001965
2025.000000	0.002028
2024.000000	0.002067
2023.000000	0.002053
2022.000000	0.001979
2021.000000	0.001916
2020.000000	0.001931
2019.000000	0.001978
2018.000000	0.001956
2017.000000	0.001856
2016.000000	0.001787
2015.000000	0.001829
2014.000000	0.001952
2013.000000	0.002068
2012.000000	0.002126
2011.000000	0.002124
2010.000000	0.002091
2009.000000	0.002062
2008.000000	0.002073
2007.000000	0.002147
2006.000000	0.002269
2005.000000	0.002378
2004.000000	0.002397
2003.000000	0.002303
2002.000000	0.002156
2001.000000	0.002053
2000.000000	0.002034
1999.000000	0.002065
1998.000000	0.002115
1997.000000	0.002193
1996.000000	0.002296
1995.000000	0.002367
1994.000000	0.002359
1993.000000	0.002289
1992.000000	0.002205
1991.000000	0.002123
1990.000000	0.002064
1989.000000	0.002095
1988.000000	0.002268
1987.000000	0.002519
1986.000000	0.002698
1985.000000	0.002714
1984.000000	0.002607
1983.000000	0.002489
1982.000000	0.002436
1981.000000	0.002452
1980.000000	0.002469
1979.000000	0.002385
1978.000000	0.002166
1977.000000	0.001924
1976.000000	0.001831
1975.000000	0.001947
1974.000000	0.002193
1973.000000	0.002451
1972.000000	0.002616
1971.000000	0.002621
1970.000000	0.002472
1969.000000	0.002294
1968.000000	0.002237
1967.000000	0.002315
1966.000000	0.002386
1965.000000	0.002337
1964.000000	0.002203
1963.000000	0.002085
1962.000000	0.002006
1961.000000	0.001909
1960.000000	0.001767
1959.000000	0.001630
1958.000000	0.001580
1957.000000	0.001661
1956.000000	0.001860
1955.000000	0.002110
1954.000000	0.002302
1953.000000	0.002352
1952.000000	0.002264
1951.000000	0.002135
1950.000000	0.002062
1949.000000	0.002069
1948.000000	0.002122
1947.000000	0.002188
1946.000000	0.002251
1945.000000	0.002299
1944.000000	0.002318
1943.000000	0.002310
1942.000000	0.002297
1941.000000	0.002290
1940.000000	0.002276
1939.000000	0.002241
1938.000000	0.002198
1937.000000	0.002176
1936.000000	0.002182
1935.000000	0.002189
1934.000000	0.002161
1933.000000	0.002091
1932.000000	0.002009
1931.000000	0.001965
1930.000000	0.001978
1929.000000	0.002035
1928.000000	0.002101
1927.000000	0.002144
1926.000000	0.002146
1925.000000	0.002103
1924.000000	0.002042
1923.000000	0.002008
1922.000000	0.002034
1921.000000	0.002113
1920.000000	0.002219
1919.000000	0.002327
1918.000000	0.002406
1917.000000	0.002417
1916.000000	0.002373
1915.000000	0.002321
1914.000000	0.002292
1913.000000	0.002270
1912.000000	0.002222
1911.000000	0.002166
1910.000000	0.002156
1909.000000	0.002210
1908.000000	0.002272
1907.000000	0.002286
1906.000000	0.002264
1905.000000	0.002253
1904.000000	0.002268
1903.000000	0.002278
1902.000000	0.002262
1901.000000	0.002240
1900.000000	0.002236
1899.000000	0.002233
1898.000000	0.002202
1897.000000	0.002149
1896.000000	0.002117
1895.000000	0.002138
1894.000000	0.002187
1893.000000	0.002203
1892.000000	0.002156
1891.000000	0.002089
1890.000000	0.002091
1889.000000	0.002197
1888.000000	0.002330
1887.000000	0.002380
1886.000000	0.002318
1885.000000	0.002207
1884.000000	0.002128
1883.000000	0.002101
1882.000000	0.002100
1881.000000	0.002106
1880.000000	0.002120
1879.000000	0.002134
1878.000000	0.002132
1877.000000	0.002105
1876.000000	0.002058
1875.000000	0.002009
1874.000000	0.001976
1873.000000	0.001959
1872.000000	0.001944
1871.000000	0.001923
1870.000000	0.001915
1869.000000	0.001959
1868.000000	0.002057
1867.000000	0.002163
1866.000000	0.002227
1865.000000	0.002242
1864.000000	0.002235
1863.000000	0.002222
1862.000000	0.002204
1861.000000	0.002173
1860.000000	0.002131
1859.000000	0.002082
1858.000000	0.002041
1857.000000	0.002027
1856.000000	0.002050
1855.000000	0.002091
1854.000000	0.002124
1853.000000	0.002146
1852.000000	0.002160
1851.000000	0.002149
1850.000000	0.002108
1849.000000	0.002052
1848.000000	0.002001
1847.000000	0.001952
1846.000000	0.001909
1845.000000	0.001910
1844.000000	0.001975
1843.000000	0.002053
1842.000000	0.002080
1841.000000	0.002059
1840.000000	0.002032
1839.000000	0.002022
1838.000000	0.002019
1837.000000	0.002005
1836.000000	0.001989
1835.000000	0.001979
1834.000000	0.001966
1833.000000	0.001930
1832.000000	0.001878
1831.000000	0.001854
1830.000000	0.001899
1829.000000	0.001971
1828.000000	0.001989
1827.000000	0.001934
1826.000000	0.001864
1825.000000	0.001845
1824.000000	0.001879
1823.000000	0.001926
1822.000000	0.001955
1821.000000	0.001963
1820.000000	0.001959
1819.000000	0.001949
1818.000000	0.001943
1817.000000	0.001945
1816.000000	0.001946
1815.000000	0.001920
1814.000000	0.001856
1813.000000	0.001781
1812.000000	0.001741
1811.000000	0.001767
1810.000000	0.001837
1809.000000	0.001904
1808.000000	0.001948
1807.000000	0.001977
1806.000000	0.001996
1805.000000	0.002005
1804.000000	0.002018
1803.000000	0.002060
1802.000000	0.002143
1801.000000	0.002246
1800.000000	0.002329
1799.000000	0.002370
1798.000000	0.002364
1797.000000	0.002328
1796.000000	0.002285
1795.000000	0.002241
1794.000000	0.002195
1793.000000	0.002167
1792.000000	0.002176
1791.000000	0.002203
1790.000000	0.002198
1789.000000	0.002128
1788.000000	0.002006
1787.000000	0.001881
1786.000000	0.001805
1785.000000	0.001791
1784.000000	0.001812
1783.000000	0.001824
1782.000000	0.001824
1781.000000	0.001843
1780.000000	0.001887
1779.000000	0.001924
1778.000000	0.001921
1777.000000	0.001884
1776.000000	0.001831
1775.000000	0.001776
1774.000000	0.001755
1773.000000	0.001834
1772.000000	0.001985
1771.000000	0.002077
1770.000000	0.002051
1769.000000	0.001971
1768.000000	0.001932
1767.000000	0.001959
1766.000000	0.001997
1765.000000	0.001997
1764.000000	0.001977
1763.000000	0.002010
1762.000000	0.002144
1761.000000	0.002328
1760.000000	0.002483
1759.000000	0.002602
1758.000000	0.002763
1757.000000	0.003057
1756.000000	0.003449
1755.000000	0.003816
1754.000000	0.004114
1753.000000	0.004420
1752.000000	0.004841
1751.000000	0.005383
1750.000000	0.005941
1749.000000	0.006437
1748.000000	0.006858
1747.000000	0.007197
1746.000000	0.007471
1745.000000	0.007725
1744.000000	0.007980
1743.000000	0.008216
1742.000000	0.008408
1741.000000	0.008562
1740.000000	0.008684
1739.000000	0.008740
1738.000000	0.008695
1737.000000	0.008554
1736.000000	0.008348
1735.000000	0.008141
1734.000000	0.007954
1733.000000	0.007743
1732.000000	0.007469
1731.000000	0.007133
1730.000000	0.006765
1729.000000	0.006417
1728.000000	0.006088
1727.000000	0.005748
1726.000000	0.005396
1725.000000	0.005064
1724.000000	0.004772
1723.000000	0.004513
1722.000000	0.004252
1721.000000	0.003965
1720.000000	0.003656
1719.000000	0.003393
1718.000000	0.003267
1717.000000	0.003254
1716.000000	0.003248
1715.000000	0.003209
1714.000000	0.003145
1713.000000	0.003074
1712.000000	0.003004
1711.000000	0.002934
1710.000000	0.002859
1709.000000	0.002782
1708.000000	0.002702
1707.000000	0.002631
1706.000000	0.002615
1705.000000	0.002659
1704.000000	0.002710
1703.000000	0.002716
1702.000000	0.002707
1701.000000	0.002794
1700.000000	0.002981
1699.000000	0.003114
1698.000000	0.003120
1697.000000	0.003094
1696.000000	0.003159
1695.000000	0.003310
1694.000000	0.003428
1693.000000	0.003466
1692.000000	0.003471
1691.000000	0.003506
1690.000000	0.003595
1689.000000	0.003710
1688.000000	0.003796
1687.000000	0.003810
1686.000000	0.003772
1685.000000	0.003794
1684.000000	0.003947
1683.000000	0.004120
1682.000000	0.004224
1681.000000	0.004282
1680.000000	0.004315
1679.000000	0.004332
1678.000000	0.004332
1677.000000	0.004350
1676.000000	0.004428
1675.000000	0.004557
1674.000000	0.004686
1673.000000	0.004786
1672.000000	0.004858
1671.000000	0.004928
1670.000000	0.005017
1669.000000	0.005129
1668.000000	0.005242
1667.000000	0.005329
1666.000000	0.005393
1665.000000	0.005454
1664.000000	0.005530
1663.000000	0.005618
1662.000000	0.005704
1661.000000	0.005799
1660.000000	0.005896
1659.000000	0.005975
1658.000000	0.006031
1657.000000	0.006092
1656.000000	0.006159
1655.000000	0.006237
1654.000000	0.006337
1653.000000	0.006389
1652.000000	0.006406
1651.000000	0.006442
1650.000000	0.006470
1649.000000	0.006490
1648.000000	0.006545
1647.000000	0.006606
1646.000000	0.006640
1645.000000	0.006675
1644.000000	0.006735
1643.000000	0.006785
1642.000000	0.006807
1641.000000	0.006810
1640.000000	0.006816
1639.000000	0.006836
1638.000000	0.006860
1637.000000	0.006869
1636.000000	0.006829
1635.000000	0.006742
1634.000000	0.006694
1633.000000	0.006707
1632.000000	0.006744
1631.000000	0.006772
1630.000000	0.006766
1629.000000	0.006732
1628.000000	0.006698
1627.000000	0.006682
1626.000000	0.006683
1625.000000	0.006687
1624.000000	0.006665
1623.000000	0.006594
1622.000000	0.006505
1621.000000	0.006464
1620.000000	0.006476
1619.000000	0.006494
1618.000000	0.006470
1617.000000	0.006369
1616.000000	0.006200
1615.000000	0.006022
1614.000000	0.005877
1613.000000	0.005772
1612.000000	0.005698
1611.000000	0.005624
1610.000000	0.005536
1609.000000	0.005449
1608.000000	0.005363
1607.000000	0.005259
1606.000000	0.005133
1605.000000	0.005018
1604.000000	0.004919
1603.000000	0.004823
1602.000000	0.004726
1601.000000	0.004646
1600.000000	0.004588
1599.000000	0.004539
1598.000000	0.004492
1597.000000	0.004452
1596.000000	0.004424
1595.000000	0.004402
1594.000000	0.004382
1593.000000	0.004367
1592.000000	0.004348
1591.000000	0.004309
1590.000000	0.004257
1589.000000	0.004215
1588.000000	0.004194
1587.000000	0.004179
1586.000000	0.004159
1585.000000	0.004144
1584.000000	0.004139
1583.000000	0.004120
1582.000000	0.004080
1581.000000	0.004041
1580.000000	0.004019
1579.000000	0.004014
1578.000000	0.004033
1577.000000	0.004093
1576.000000	0.004167
1575.000000	0.004211
1574.000000	0.004239
1573.000000	0.004283
1572.000000	0.004332
1571.000000	0.004373
1570.000000	0.004398
1569.000000	0.004427
1568.000000	0.004465
1567.000000	0.004495
1566.000000	0.004516
1565.000000	0.004551
1564.000000	0.004600
1563.000000	0.004643
1562.000000	0.004672
1561.000000	0.004709
1560.000000	0.004825
1559.000000	0.004946
1558.000000	0.004943
1557.000000	0.004969
1556.000000	0.005068
1555.000000	0.005158
1554.000000	0.005266
1553.000000	0.005364
1552.000000	0.005446
1551.000000	0.005518
1550.000000	0.005621
1549.000000	0.005748
1548.000000	0.005862
1547.000000	0.005937
1546.000000	0.006011
1545.000000	0.006143
1544.000000	0.006325
1543.000000	0.006494
1542.000000	0.006610
1541.000000	0.006664
1540.000000	0.006673
1539.000000	0.006703
1538.000000	0.006810
1537.000000	0.006949
1536.000000	0.007064
1535.000000	0.007149
1534.000000	0.007224
1533.000000	0.007311
1532.000000	0.007411
1531.000000	0.007516
1530.000000	0.007597
1529.000000	0.007647
1528.000000	0.007689
1527.000000	0.007749
1526.000000	0.007838
1525.000000	0.007951
1524.000000	0.008057
1523.000000	0.008131
1522.000000	0.008164
1521.000000	0.008176
1520.000000	0.008219
1519.000000	0.008305
1518.000000	0.008403
1517.000000	0.008491
1516.000000	0.008569
1515.000000	0.008650
1514.000000	0.008743
1513.000000	0.008830
1512.000000	0.008893
1511.000000	0.008933
1510.000000	0.008965
1509.000000	0.009003
1508.000000	0.009059
1507.000000	0.009095
1506.000000	0.009107
1505.000000	0.009184
1504.000000	0.009289
1503.000000	0.009355
1502.000000	0.009406
1501.000000	0.009449
1500.000000	0.009482
1499.000000	0.009500
1498.000000	0.009536
1497.000000	0.009601
1496.000000	0.009675
1495.000000	0.009748
1494.000000	0.009811
1493.000000	0.009850
1492.000000	0.009860
1491.000000	0.009874
1490.000000	0.009935
1489.000000	0.010032
1488.000000	0.010138
1487.000000	0.010247
1486.000000	0.010352
1485.000000	0.010463
1484.000000	0.010580
1483.000000	0.010685
1482.000000	0.010790
1481.000000	0.010914
1480.000000	0.011048
1479.000000	0.011165
1478.000000	0.011263
1477.000000	0.011371
1476.000000	0.011515
1475.000000	0.011695
1474.000000	0.011912
1473.000000	0.012170
1472.000000	0.012432
1471.000000	0.012671
1470.000000	0.012897
1469.000000	0.013110
1468.000000	0.013301
1467.000000	0.013468
1466.000000	0.013622
1465.000000	0.013781
1464.000000	0.013934
1463.000000	0.014073
1462.000000	0.014204
1461.000000	0.014325
1460.000000	0.014431
1459.000000	0.014533
1458.000000	0.014706
1457.000000	0.014973
1456.000000	0.015230
1455.000000	0.015409
1454.000000	0.015540
1453.000000	0.015659
1452.000000	0.015776
1451.000000	0.015884
1450.000000	0.015989
1449.000000	0.016102
1448.000000	0.016226
1447.000000	0.016356
1446.000000	0.016496
1445.000000	0.016647
1444.000000	0.016782
1443.000000	0.016894
1442.000000	0.017011
1441.000000	0.017149
1440.000000	0.017286
1439.000000	0.017406
1438.000000	0.017544
1437.000000	0.017743
1436.000000	0.017956
1435.000000	0.018123
1434.000000	0.018259
1433.000000	0.018381
1432.000000	0.018480
1431.000000	0.018555
1430.000000	0.018647
1429.000000	0.018795
1428.000000	0.018979
1427.000000	0.019147
1426.000000	0.019284
1425.000000	0.019414
1424.000000	0.019522
1423.000000	0.019584
1422.000000	0.019620
1421.000000	0.019658
1420.000000	0.019693
1419.000000	0.019712
1418.000000	0.019733
1417.000000	0.019775
1416.000000	0.019803
1415.000000	0.019785
1414.000000	0.019739
1413.000000	0.019683
1412.000000	0.019595
1411.000000	0.019452
1410.000000	0.019274
1409.000000	0.019083
1408.000000	0.018871
1407.000000	0.018633
1406.000000	0.018397
1405.000000	0.018199
1404.000000	0.018036
1403.000000	0.017902
1402.000000	0.017804
1401.000000	0.017730
1400.000000	0.017650
1399.000000	0.017547
1398.000000	0.017448
1397.000000	0.017375
1396.000000	0.017306
1395.000000	0.017210
1394.000000	0.017106
1393.000000	0.017029
1392.000000	0.016957
1391.000000	0.016850
1390.000000	0.016706
1389.000000	0.016545
1388.000000	0.016375
1387.000000	0.016207
1386.000000	0.016066
1385.000000	0.015957
1384.000000	0.015845
1383.000000	0.015708
1382.000000	0.015554
1381.000000	0.015397
1380.000000	0.015234
1379.000000	0.015060
1378.000000	0.014880
1377.000000	0.014697
1376.000000	0.014497
1375.000000	0.014271
1374.000000	0.014041
1373.000000	0.013846
1372.000000	0.013691
1371.000000	0.013549
1370.000000	0.013398
1369.000000	0.013242
1368.000000	0.013085
1367.000000	0.012924
1366.000000	0.012761
1365.000000	0.012597
1364.000000	0.012436
1363.000000	0.012282
1362.000000	0.012146
1361.000000	0.012042
1360.000000	0.011977
1359.000000	0.011937
1358.000000	0.011901
1357.000000	0.011853
1356.000000	0.011786
1355.000000	0.011713
1354.000000	0.011645
1353.000000	0.011574
1352.000000	0.011481
1351.000000	0.011366
1350.000000	0.011244
1349.000000	0.011132
1348.000000	0.011043
1347.000000	0.010980
1346.000000	0.010940
1345.000000	0.010913
1344.000000	0.010878
1343.000000	0.010830
1342.000000	0.010778
1341.000000	0.010737
1340.000000	0.010721
1339.000000	0.010730
1338.000000	0.010761
1337.000000	0.010800
1336.000000	0.010822
1335.000000	0.010817
1334.000000	0.010792
1333.000000	0.010753
1332.000000	0.010701
1331.000000	0.010636
1330.000000	0.010566
1329.000000	0.010497
1328.000000	0.010424
1327.000000	0.010345
1326.000000	0.010269
1325.000000	0.010205
1324.000000	0.010144
1323.000000	0.010072
1322.000000	0.009989
1321.000000	0.009905
1320.000000	0.009823
1319.000000	0.009739
1318.000000	0.009655
1317.000000	0.009575
1316.000000	0.009498
1315.000000	0.009419
1314.000000	0.009343
1313.000000	0.009274
1312.000000	0.009205
1311.000000	0.009131
1310.000000	0.009058
1309.000000	0.008998
1308.000000	0.008949
1307.000000	0.008900
1306.000000	0.008842
1305.000000	0.008776
1304.000000	0.008708
1303.000000	0.008635
1302.000000	0.008554
1301.000000	0.008461
1300.000000	0.008357
1299.000000	0.008249
1298.000000	0.008148
1297.000000	0.008058
1296.000000	0.007981
1295.000000	0.007914
1294.000000	0.007859
1293.000000	0.007815
1292.000000	0.007779
1291.000000	0.007751
1290.000000	0.007732
1289.000000	0.007713
1288.000000	0.007681
1287.000000	0.007640
1286.000000	0.007599
1285.000000	0.007564
1284.000000	0.007524
1283.000000	0.007470
1282.000000	0.007406
1281.000000	0.007347
1280.000000	0.007308
1279.000000	0.007298
1278.000000	0.007319
1277.000000	0.007359
1276.000000	0.007399
1275.000000	0.007433
1274.000000	0.007468
1273.000000	0.007523
1272.000000	0.007605
1271.000000	0.007717
1270.000000	0.007853
1269.000000	0.008003
1268.000000	0.008156
1267.000000	0.008299
1266.000000	0.008429
1265.000000	0.008540
1264.000000	0.008634
1263.000000	0.008717
1262.000000	0.008812
1261.000000	0.008932
1260.000000	0.009075
1259.000000	0.009228
1258.000000	0.009379
1257.000000	0.009520
1256.000000	0.009635
1255.000000	0.009707
1254.000000	0.009740
1253.000000	0.009754
1252.000000	0.009766
1251.000000	0.009779
1250.000000	0.009790
1249.000000	0.009799
1248.000000	0.009804
1247.000000	0.009800
1246.000000	0.009784
1245.000000	0.009764
1244.000000	0.009748
1243.000000	0.009741
1242.000000	0.009734
1241.000000	0.009717
1240.000000	0.009688
1239.000000	0.009654
1238.000000	0.009623
1237.000000	0.009593
1236.000000	0.009548
1235.000000	0.009480
1234.000000	0.009392
1233.000000	0.009297
1232.000000	0.009207
1231.000000	0.009130
1230.000000	0.009060
1229.000000	0.008977
1228.000000	0.008857
1227.000000	0.008692
1226.000000	0.008496
1225.000000	0.008292
1224.000000	0.008093
1223.000000	0.007904
1222.000000	0.007729
1221.000000	0.007570
1220.000000	0.007418
1219.000000	0.007270
1218.000000	0.007129
1217.000000	0.007004
1216.000000	0.006896
1215.000000	0.006801
1214.000000	0.006709
1213.000000	0.006618
1212.000000	0.006532
1211.000000	0.006465
1210.000000	0.006424
1209.000000	0.006397
1208.000000	0.006369
1207.000000	0.006338
1206.000000	0.006324
1205.000000	0.006340
1204.000000	0.006377
1203.000000	0.006419
1202.000000	0.006455
1201.000000	0.006481
1200.000000	0.006496
1199.000000	0.006504
1198.000000	0.006520
1197.000000	0.006558
1196.000000	0.006621
1195.000000	0.006702
1194.000000	0.006789
1193.000000	0.006875
1192.000000	0.006961
1191.000000	0.007053
1190.000000	0.007152
1189.000000	0.007258
1188.000000	0.007370
1187.000000	0.007492
1186.000000	0.007631
1185.000000	0.007783
1184.000000	0.007929
1183.000000	0.008059
1182.000000	0.008186
1181.000000	0.008338
1180.000000	0.008531
1179.000000	0.008758
1178.000000	0.008996
1177.000000	0.009228
1176.000000	0.009449
1175.000000	0.009665
1174.000000	0.009881
1173.000000	0.010096
1172.000000	0.010299
1171.000000	0.010481
1170.000000	0.010644
1169.000000	0.010799
1168.000000	0.010961
1167.000000	0.011137
1166.000000	0.011320
1165.000000	0.011490
1164.000000	0.011622
1163.000000	0.011705
1162.000000	0.011745
1161.000000	0.011751
1160.000000	0.011735
1159.000000	0.011710
1158.000000	0.011689
1157.000000	0.011675
1156.000000	0.011647
1155.000000	0.011586
1154.000000	0.011489
1153.000000	0.011368
1152.000000	0.011236
1151.000000	0.011099
1150.000000	0.010952
1149.000000	0.010788
1148.000000	0.010597
1147.000000	0.010378
1146.000000	0.010146
1145.000000	0.009917
1144.000000	0.009700
1143.000000	0.009493
1142.000000	0.009292
1141.000000	0.009094
1140.000000	0.008901
1139.000000	0.008723
1138.000000	0.008567
1137.000000	0.008424
1136.000000	0.008271
1135.000000	0.008105
1134.000000	0.007947
1133.000000	0.007821
1132.000000	0.007726
1131.000000	0.007647
1130.000000	0.007576
1129.000000	0.007511
1128.000000	0.007452
1127.000000	0.007400
1126.000000	0.007370
1125.000000	0.007382
1124.000000	0.007440
1123.000000	0.007530
1122.000000	0.007634
1121.000000	0.007747
1120.000000	0.007864
1119.000000	0.007985
1118.000000	0.008117
1117.000000	0.008275
1116.000000	0.008468
1115.000000	0.008679
1114.000000	0.008880
1113.000000	0.009054
1112.000000	0.009201
1111.000000	0.009324
1110.000000	0.009423
1109.000000	0.009493
1108.000000	0.009530
1107.000000	0.009536
1106.000000	0.009521
1105.000000	0.009492
1104.000000	0.009452
1103.000000	0.009401
1102.000000	0.009355
1101.000000	0.009338
1100.000000	0.009365
1099.000000	0.009428
1098.000000	0.009500
1097.000000	0.009562
1096.000000	0.009610
1095.000000	0.009646
1094.000000	0.009670
1093.000000	0.009679
1092.000000	0.009670
1091.000000	0.009638
1090.000000	0.009575
1089.000000	0.009477
1088.000000	0.009350
1087.000000	0.009209
1086.000000	0.009062
1085.000000	0.008905
1084.000000	0.008737
1083.000000	0.008567
1082.000000	0.008406
1081.000000	0.008257
1080.000000	0.008115
1079.000000	0.007986
1078.000000	0.007876
1077.000000	0.007781
1076.000000	0.007687
1075.000000	0.007596
1074.000000	0.007518
1073.000000	0.007454
1072.000000	0.007394
1071.000000	0.007332
1070.000000	0.007277
1069.000000	0.007241
1068.000000	0.007222
1067.000000	0.007207
1066.000000	0.007194
1065.000000	0.007191
1064.000000	0.007196
1063.000000	0.007201
1062.000000	0.007199
1061.000000	0.007192
1060.000000	0.007182
1059.000000	0.007162
1058.000000	0.007123
1057.000000	0.007062
1056.000000	0.006983
1055.000000	0.006893
1054.000000	0.006806
1053.000000	0.006735
1052.000000	0.006692
1051.000000	0.006673
1050.000000	0.006659
1049.000000	0.006634
1048.000000	0.006603
1047.000000	0.006588
1046.000000	0.006606
1045.000000	0.006657
1044.000000	0.006725
1043.000000	0.006788
1042.000000	0.006828
1041.000000	0.006845
1040.000000	0.006855
1039.000000	0.006879
1038.000000	0.006923
1037.000000	0.006969
1036.000000	0.006991
1035.000000	0.006985
1034.000000	0.006961
1033.000000	0.006931
1032.000000	0.006900
1031.000000	0.006867
1030.000000	0.006836
1029.000000	0.006816
1028.000000	0.006817
1027.000000	0.006848
1026.000000	0.006903
1025.000000	0.006965
1024.000000	0.007015
1023.000000	0.007045
1022.000000	0.007058
1021.000000	0.007054
1020.000000	0.007037
1019.000000	0.007014
1018.000000	0.006997
1017.000000	0.006983
1016.000000	0.006960
1015.000000	0.006920
1014.000000	0.006867
1013.000000	0.006811
1012.000000	0.006751
1011.000000	0.006681
1010.000000	0.006599
1009.000000	0.006513
1008.000000	0.006439
1007.000000	0.006387
1006.000000	0.006352
1005.000000	0.006311
1004.000000	0.006244
1003.000000	0.006150
1002.000000	0.006048
1001.000000	0.005961
1000.000000	0.005897
999.000000	0.005851
998.000000	0.005814
997.000000	0.005784
996.000000	0.005753
995.000000	0.005710
994.000000	0.005641
993.000000	0.005553
992.000000	0.005479
991.000000	0.005447
990.000000	0.005452
989.000000	0.005457
988.000000	0.005440
987.000000	0.005409
986.000000	0.005392
985.000000	0.005400
984.000000	0.005420
983.000000	0.005428
982.000000	0.005406
981.000000	0.005354
980.000000	0.005296
979.000000	0.005264
978.000000	0.005265
977.000000	0.005283
976.000000	0.005302
975.000000	0.005319
974.000000	0.005341
973.000000	0.005361
972.000000	0.005375
971.000000	0.005387
970.000000	0.005403
969.000000	0.005415
968.000000	0.005411
967.000000	0.005395
966.000000	0.005380
965.000000	0.005373
964.000000	0.005363
963.000000	0.005339
962.000000	0.005295
961.000000	0.005232
960.000000	0.005161
959.000000	0.005097
958.000000	0.005046
957.000000	0.004991
956.000000	0.004911
955.000000	0.004817
954.000000	0.004733
953.000000	0.004664
952.000000	0.004589
951.000000	0.004506
950.000000	0.004441
949.000000	0.004408
948.000000	0.004383
947.000000	0.004329
946.000000	0.004247
945.000000	0.004169
944.000000	0.004116
943.000000	0.004072
942.000000	0.004016
941.000000	0.003949
940.000000	0.003885
939.000000	0.003828
938.000000	0.003770
937.000000	0.003703
936.000000	0.003632
935.000000	0.003572
934.000000	0.003524
933.000000	0.003485
932.000000	0.003456
931.000000	0.003445
930.000000	0.003454
929.000000	0.003466
928.000000	0.003461
927.000000	0.003429
926.000000	0.003377
925.000000	0.003311
924.000000	0.003237
923.000000	0.003167
922.000000	0.003110
921.000000	0.003067
920.000000	0.003028
919.000000	0.002992
918.000000	0.002966
917.000000	0.002955
916.000000	0.002945
915.000000	0.002911
914.000000	0.002850
913.000000	0.002779
912.000000	0.002721
911.000000	0.002679
910.000000	0.002635
909.000000	0.002577
908.000000	0.002512
907.000000	0.002452
906.000000	0.002393
905.000000	0.002324
904.000000	0.002250
903.000000	0.002189
902.000000	0.002145
901.000000	0.002108
900.000000	0.002072
899.000000	0.002044
898.000000	0.002035
897.000000	0.002036
896.000000	0.002031
895.000000	0.002010
894.000000	0.001977
893.000000	0.001949
892.000000	0.001942
891.000000	0.001963
890.000000	0.002018
889.000000	0.002137
888.000000	0.002386
887.000000	0.002828
886.000000	0.003453
885.000000	0.004181
884.000000	0.004913
883.000000	0.005601
882.000000	0.006270
881.000000	0.006995
880.000000	0.007855
879.000000	0.008873
878.000000	0.009978
877.000000	0.011036
876.000000	0.011911
875.000000	0.012513
874.000000	0.012774
873.000000	0.012647
872.000000	0.012126
871.000000	0.011279
870.000000	0.010245
869.000000	0.009174
868.000000	0.008186
867.000000	0.007344
866.000000	0.006652
865.000000	0.006082
864.000000	0.005608
863.000000	0.005215
862.000000	0.004879
861.000000	0.004562
860.000000	0.004244
859.000000	0.003941
858.000000	0.003677
857.000000	0.003448
856.000000	0.003246
855.000000	0.003087
854.000000	0.002984
853.000000	0.002918
852.000000	0.002869
851.000000	0.002862
850.000000	0.002940
849.000000	0.003086
848.000000	0.003206
847.000000	0.003211
846.000000	0.003092
845.000000	0.002898
844.000000	0.002694
843.000000	0.002531
842.000000	0.002446
841.000000	0.002435
840.000000	0.002450
839.000000	0.002447
838.000000	0.002431
837.000000	0.002443
836.000000	0.002502
835.000000	0.002569
834.000000	0.002589
833.000000	0.002543
832.000000	0.002462
831.000000	0.002387
830.000000	0.002335
829.000000	0.002291
828.000000	0.002241
827.000000	0.002182
826.000000	0.002124
825.000000	0.002066
824.000000	0.002017
823.000000	0.001994
822.000000	0.002016
821.000000	0.002064
820.000000	0.002090
819.000000	0.002057
818.000000	0.001979
817.000000	0.001906
816.000000	0.001880
815.000000	0.001898
814.000000	0.001923
813.000000	0.001922
812.000000	0.001891
811.000000	0.001849
810.000000	0.001811
809.000000	0.001787
808.000000	0.001782
807.000000	0.001793
806.000000	0.001810
805.000000	0.001819
804.000000	0.001826
803.000000	0.001851
802.000000	0.001904
801.000000	0.001970
800.000000	0.002022
799.000000	0.002043
798.000000	0.002033
797.000000	0.002003
796.000000	0.001978
795.000000	0.001979
794.000000	0.002005
793.000000	0.002037
792.000000	0.002059
791.000000	0.002068
790.000000	0.002065
789.000000	0.002047
788.000000	0.002018
787.000000	0.001999
786.000000	0.002011
785.000000	0.002061
784.000000	0.002139
783.000000	0.002212
782.000000	0.002236
781.000000	0.002188
780.000000	0.002102
779.000000	0.002044
778.000000	0.002051
777.000000	0.002099
776.000000	0.002123
775.000000	0.002088
774.000000	0.002014
773.000000	0.001947
772.000000	0.001928
771.000000	0.001968
770.000000	0.002044
769.000000	0.002124
768.000000	0.002183
767.000000	0.002211
766.000000	0.002208
765.000000	0.002179
764.000000	0.002143
763.000000	0.002128
762.000000	0.002150
761.000000	0.002207
760.000000	0.002282
759.000000	0.002348
758.000000	0.002386
757.000000	0.002396
756.000000	0.002407
755.000000	0.002442
754.000000	0.002474
753.000000	0.002450
752.000000	0.002363
751.000000	0.002272
750.000000	0.002248
749.000000	0.002293
748.000000	0.002359
747.000000	0.002406
746.000000	0.002436
745.000000	0.002466
744.000000	0.002496
743.000000	0.002508
742.000000	0.002492
741.000000	0.002461
740.000000	0.002439
739.000000	0.002434
738.000000	0.002426
737.000000	0.002406
736.000000	0.002392
735.000000	0.002410
734.000000	0.002462
733.000000	0.002526
732.000000	0.002590
731.000000	0.002645
730.000000	0.002666
729.000000	0.002627
728.000000	0.002552
727.000000	0.002500
726.000000	0.002510
725.000000	0.002561
724.000000	0.002603
723.000000	0.002610
722.000000	0.002605
721.000000	0.002635
720.000000	0.002739
719.000000	0.002929
718.000000	0.003202
717.000000	0.003579
716.000000	0.004118
715.000000	0.004841
714.000000	0.005630
713.000000	0.006239
712.000000	0.006452
711.000000	0.006237
710.000000	0.005751
709.000000	0.005218
708.000000	0.004808
707.000000	0.004571
706.000000	0.004459
705.000000	0.004401
704.000000	0.004357
703.000000	0.004324
702.000000	0.004302
701.000000	0.004279
700.000000	0.004257
699.000000	0.004261
698.000000	0.004297
697.000000	0.004345
696.000000	0.004381
695.000000	0.004403
694.000000	0.004408
693.000000	0.004375
692.000000	0.004312
691.000000	0.004249
690.000000	0.004201
689.000000	0.004144
688.000000	0.004067
687.000000	0.004017
686.000000	0.004034
685.000000	0.004096
684.000000	0.004159
683.000000	0.004204
682.000000	0.004220
681.000000	0.004195
680.000000	0.004161
679.000000	0.004183
678.000000	0.004280
677.000000	0.004418
676.000000	0.004545
675.000000	0.004623
674.000000	0.004614
673.000000	0.004482
672.000000	0.004240
671.000000	0.003920
670.000000	0.003521
669.000000	0.003051
668.000000	0.002788
667.000000	0.002987
666.000000	0.003320
665.000000	0.003610
664.000000	0.003799
663.000000	0.003799
662.000000	0.003620
661.000000	0.003377
660.000000	0.003172
659.000000	0.003017
658.000000	0.002894
657.000000	0.002832
656.000000	0.002855
655.000000	0.002942
654.000000	0.003069
653.000000	0.003234
652.000000	0.003411
651.000000	0.003556
650.000000	0.003674
649.000000	0.003804
648.000000	0.003938
647.000000	0.004021
646.000000	0.004056
645.000000	0.004117
644.000000	0.004232
643.000000	0.004351
642.000000	0.004421
641.000000	0.004459
640.000000	0.004500
639.000000	0.004543
638.000000	0.004570
637.000000	0.004582
636.000000	0.004570
635.000000	0.004527
634.000000	0.004488
633.000000	0.004516
632.000000	0.004624
631.000000	0.004760
630.000000	0.004858
629.000000	0.004909
628.000000	0.004944
627.000000	0.004988
626.000000	0.005050
625.000000	0.005107
624.000000	0.005111
623.000000	0.005038
622.000000	0.004921
621.000000	0.004822
620.000000	0.004775
619.000000	0.004794
618.000000	0.004896
617.000000	0.005071
616.000000	0.005256
615.000000	0.005386
614.000000	0.005462
613.000000	0.005526
612.000000	0.005591
611.000000	0.005639
610.000000	0.005679
609.000000	0.005735
608.000000	0.005806
607.000000	0.005873
606.000000	0.005961
605.000000	0.006088
604.000000	0.006193
603.000000	0.006171
602.000000	0.006004
601.000000	0.005777
600.000000	0.005578
599.000000	0.005421
598.000000	0.005286
597.000000	0.005162
596.000000	0.005038
595.000000	0.004893
594.000000	0.004723
593.000000	0.004553
592.000000	0.004410
591.000000	0.004302
590.000000	0.004233
589.000000	0.004189
588.000000	0.004124
587.000000	0.004015
586.000000	0.003919
585.000000	0.003911
584.000000	0.003970
583.000000	0.003999
582.000000	0.003966
581.000000	0.003941
580.000000	0.003976
579.000000	0.004014
578.000000	0.003975
577.000000	0.003867
576.000000	0.003761
575.000000	0.003694
574.000000	0.003644
573.000000	0.003577
572.000000	0.003476
571.000000	0.003370
570.000000	0.003319
569.000000	0.003353
568.000000	0.003409
567.000000	0.003402
566.000000	0.003344
565.000000	0.003319
564.000000	0.003335
563.000000	0.003302
562.000000	0.003175
561.000000	0.003045
560.000000	0.003014
559.000000	0.003076
558.000000	0.003157
557.000000	0.003213
556.000000	0.003237
555.000000	0.003220
554.000000	0.003188
553.000000	0.003202
552.000000	0.003278
551.000000	0.003347
550.000000	0.003358
549.000000	0.003362
548.000000	0.003419
547.000000	0.003478
546.000000	0.003446
545.000000	0.003332
544.000000	0.003236
543.000000	0.003207
542.000000	0.003200
541.000000	0.003164
540.000000	0.003094
539.000000	0.003009
538.000000	0.002943
537.000000	0.002962
536.000000	0.003107
535.000000	0.003314
534.000000	0.003455
533.000000	0.003473
532.000000	0.003437
531.000000	0.003426
530.000000	0.003430
529.000000	0.003387
528.000000	0.003287
527.000000	0.003181
526.000000	0.003099
525.000000	0.003021
524.000000	0.002923
523.000000	0.002846
522.000000	0.002856
521.000000	0.002957
520.000000	0.003065
519.000000	0.003099
518.000000	0.003079
517.000000	0.003091
516.000000	0.003154
515.000000	0.003194
514.000000	0.003140
513.000000	0.002983
512.000000	0.002768
511.000000	0.002586
510.000000	0.002554
509.000000	0.002720
508.000000	0.002994
507.000000	0.003203
506.000000	0.003261
505.000000	0.003239
504.000000	0.003239
503.000000	0.003283
502.000000	0.003342
501.000000	0.003402
500.000000	0.003448
499.000000	0.003439
498.000000	0.003371
497.000000	0.003317
496.000000	0.003328
495.000000	0.003359
494.000000	0.003328
493.000000	0.003242
492.000000	0.003181
491.000000	0.003195
490.000000	0.003275
489.000000	0.003399
488.000000	0.003514
487.000000	0.003525
486.000000	0.003366
485.000000	0.003099
484.000000	0.002876
483.000000	0.002791
482.000000	0.002837
481.000000	0.002984
480.000000	0.003184
479.000000	0.003335
478.000000	0.003350
477.000000	0.003259
476.000000	0.003152
475.000000	0.003045
474.000000	0.002909
473.000000	0.002794
472.000000	0.002809
471.000000	0.002948
470.000000	0.003093
469.000000	0.003158
468.000000	0.003120
467.000000	0.002975
466.000000	0.002794
465.000000	0.002736
464.000000	0.002906
463.000000	0.003223
462.000000	0.003470
461.000000	0.003525
460.000000	0.003399
459.000000	0.003083
458.000000	0.002554
457.000000	0.001988
456.000000	0.001675
455.000000	0.001702
454.000000	0.001837
453.000000	0.001946
452.000000	0.002167
451.000000	0.001941
450.000000	0.001823
