PE IR       SUBTECH     SPECTRUM    ASCII       PEDS        4.00        
   -1
P12-Rouge041_1.ASC
23/06/08
15:31:22.00
23/06/08
15:48:35.00
uco
Sample 041 By uco Date Thursday, June 08 2023
450.000000
#HDR
-1
-1
#GR
cm-1
A
1.0
0.0
4000.000000
-1.000000
3551
8
0.018842
0.000832
#DATA
4000.000000	0.000986
3999.000000	0.001020
3998.000000	0.001052
3997.000000	0.001067
3996.000000	0.001060
3995.000000	0.001042
3994.000000	0.001030
3993.000000	0.001033
3992.000000	0.001049
3991.000000	0.001071
3990.000000	0.001096
3989.000000	0.001120
3988.000000	0.001138
3987.000000	0.001142
3986.000000	0.001128
3985.000000	0.001100
3984.000000	0.001067
3983.000000	0.001046
3982.000000	0.001047
3981.000000	0.001072
3980.000000	0.001106
3979.000000	0.001131
3978.000000	0.001136
3977.000000	0.001128
3976.000000	0.001122
3975.000000	0.001126
3974.000000	0.001136
3973.000000	0.001143
3972.000000	0.001139
3971.000000	0.001128
3970.000000	0.001114
3969.000000	0.001102
3968.000000	0.001096
3967.000000	0.001100
3966.000000	0.001110
3965.000000	0.001122
3964.000000	0.001123
3963.000000	0.001113
3962.000000	0.001099
3961.000000	0.001094
3960.000000	0.001103
3959.000000	0.001119
3958.000000	0.001129
3957.000000	0.001130
3956.000000	0.001125
3955.000000	0.001122
3954.000000	0.001127
3953.000000	0.001137
3952.000000	0.001151
3951.000000	0.001167
3950.000000	0.001183
3949.000000	0.001197
3948.000000	0.001202
3947.000000	0.001198
3946.000000	0.001185
3945.000000	0.001170
3944.000000	0.001159
3943.000000	0.001158
3942.000000	0.001170
3941.000000	0.001193
3940.000000	0.001214
3939.000000	0.001218
3938.000000	0.001203
3937.000000	0.001177
3936.000000	0.001157
3935.000000	0.001154
3934.000000	0.001161
3933.000000	0.001166
3932.000000	0.001162
3931.000000	0.001152
3930.000000	0.001148
3929.000000	0.001154
3928.000000	0.001163
3927.000000	0.001168
3926.000000	0.001168
3925.000000	0.001166
3924.000000	0.001167
3923.000000	0.001176
3922.000000	0.001190
3921.000000	0.001205
3920.000000	0.001216
3919.000000	0.001216
3918.000000	0.001204
3917.000000	0.001184
3916.000000	0.001164
3915.000000	0.001149
3914.000000	0.001138
3913.000000	0.001126
3912.000000	0.001113
3911.000000	0.001105
3910.000000	0.001107
3909.000000	0.001117
3908.000000	0.001127
3907.000000	0.001135
3906.000000	0.001148
3905.000000	0.001174
3904.000000	0.001209
3903.000000	0.001239
3902.000000	0.001250
3901.000000	0.001245
3900.000000	0.001230
3899.000000	0.001208
3898.000000	0.001182
3897.000000	0.001156
3896.000000	0.001138
3895.000000	0.001129
3894.000000	0.001128
3893.000000	0.001130
3892.000000	0.001136
3891.000000	0.001144
3890.000000	0.001154
3889.000000	0.001167
3888.000000	0.001183
3887.000000	0.001198
3886.000000	0.001208
3885.000000	0.001213
3884.000000	0.001211
3883.000000	0.001197
3882.000000	0.001165
3881.000000	0.001119
3880.000000	0.001081
3879.000000	0.001066
3878.000000	0.001075
3877.000000	0.001086
3876.000000	0.001080
3875.000000	0.001054
3874.000000	0.001032
3873.000000	0.001041
3872.000000	0.001088
3871.000000	0.001148
3870.000000	0.001183
3869.000000	0.001184
3868.000000	0.001169
3867.000000	0.001160
3866.000000	0.001153
3865.000000	0.001142
3864.000000	0.001132
3863.000000	0.001135
3862.000000	0.001153
3861.000000	0.001179
3860.000000	0.001204
3859.000000	0.001223
3858.000000	0.001234
3857.000000	0.001241
3856.000000	0.001245
3855.000000	0.001236
3854.000000	0.001201
3853.000000	0.001136
3852.000000	0.001064
3851.000000	0.001023
3850.000000	0.001027
3849.000000	0.001058
3848.000000	0.001101
3847.000000	0.001144
3846.000000	0.001172
3845.000000	0.001175
3844.000000	0.001146
3843.000000	0.001093
3842.000000	0.001034
3841.000000	0.000986
3840.000000	0.000966
3839.000000	0.000982
3838.000000	0.001025
3837.000000	0.001072
3836.000000	0.001103
3835.000000	0.001116
3834.000000	0.001123
3833.000000	0.001131
3832.000000	0.001135
3831.000000	0.001132
3830.000000	0.001126
3829.000000	0.001125
3828.000000	0.001130
3827.000000	0.001133
3826.000000	0.001128
3825.000000	0.001116
3824.000000	0.001100
3823.000000	0.001073
3822.000000	0.001033
3821.000000	0.000995
3820.000000	0.000979
3819.000000	0.000997
3818.000000	0.001043
3817.000000	0.001096
3816.000000	0.001129
3815.000000	0.001136
3814.000000	0.001134
3813.000000	0.001137
3812.000000	0.001141
3811.000000	0.001138
3810.000000	0.001127
3809.000000	0.001110
3808.000000	0.001090
3807.000000	0.001068
3806.000000	0.001049
3805.000000	0.001039
3804.000000	0.001038
3803.000000	0.001038
3802.000000	0.001029
3801.000000	0.001015
3800.000000	0.001010
3799.000000	0.001022
3798.000000	0.001045
3797.000000	0.001067
3796.000000	0.001080
3795.000000	0.001090
3794.000000	0.001102
3793.000000	0.001121
3792.000000	0.001142
3791.000000	0.001157
3790.000000	0.001160
3789.000000	0.001153
3788.000000	0.001137
3787.000000	0.001117
3786.000000	0.001099
3785.000000	0.001085
3784.000000	0.001078
3783.000000	0.001077
3782.000000	0.001081
3781.000000	0.001091
3780.000000	0.001109
3779.000000	0.001132
3778.000000	0.001148
3777.000000	0.001147
3776.000000	0.001128
3775.000000	0.001101
3774.000000	0.001080
3773.000000	0.001078
3772.000000	0.001092
3771.000000	0.001104
3770.000000	0.001093
3769.000000	0.001061
3768.000000	0.001030
3767.000000	0.001023
3766.000000	0.001046
3765.000000	0.001087
3764.000000	0.001123
3763.000000	0.001141
3762.000000	0.001135
3761.000000	0.001108
3760.000000	0.001078
3759.000000	0.001067
3758.000000	0.001078
3757.000000	0.001099
3756.000000	0.001115
3755.000000	0.001124
3754.000000	0.001129
3753.000000	0.001144
3752.000000	0.001184
3751.000000	0.001244
3750.000000	0.001282
3749.000000	0.001273
3748.000000	0.001239
3747.000000	0.001211
3746.000000	0.001192
3745.000000	0.001169
3744.000000	0.001135
3743.000000	0.001107
3742.000000	0.001097
3741.000000	0.001094
3740.000000	0.001081
3739.000000	0.001054
3738.000000	0.001029
3737.000000	0.001017
3736.000000	0.001014
3735.000000	0.001004
3734.000000	0.000987
3733.000000	0.000976
3732.000000	0.000977
3731.000000	0.000993
3730.000000	0.001029
3729.000000	0.001090
3728.000000	0.001161
3727.000000	0.001214
3726.000000	0.001230
3725.000000	0.001219
3724.000000	0.001201
3723.000000	0.001185
3722.000000	0.001170
3721.000000	0.001146
3720.000000	0.001117
3719.000000	0.001091
3718.000000	0.001072
3717.000000	0.001059
3716.000000	0.001046
3715.000000	0.001031
3714.000000	0.001019
3713.000000	0.001022
3712.000000	0.001051
3711.000000	0.001093
3710.000000	0.001118
3709.000000	0.001113
3708.000000	0.001085
3707.000000	0.001047
3706.000000	0.001014
3705.000000	0.000992
3704.000000	0.000980
3703.000000	0.000978
3702.000000	0.000989
3701.000000	0.001009
3700.000000	0.001028
3699.000000	0.001041
3698.000000	0.001047
3697.000000	0.001047
3696.000000	0.001047
3695.000000	0.001055
3694.000000	0.001068
3693.000000	0.001075
3692.000000	0.001067
3691.000000	0.001047
3690.000000	0.001031
3689.000000	0.001029
3688.000000	0.001027
3687.000000	0.001015
3686.000000	0.000994
3685.000000	0.000977
3684.000000	0.000973
3683.000000	0.000991
3682.000000	0.001025
3681.000000	0.001066
3680.000000	0.001105
3679.000000	0.001146
3678.000000	0.001190
3677.000000	0.001215
3676.000000	0.001192
3675.000000	0.001122
3674.000000	0.001055
3673.000000	0.001032
3672.000000	0.001053
3671.000000	0.001092
3670.000000	0.001123
3669.000000	0.001136
3668.000000	0.001134
3667.000000	0.001126
3666.000000	0.001120
3665.000000	0.001122
3664.000000	0.001139
3663.000000	0.001171
3662.000000	0.001205
3661.000000	0.001226
3660.000000	0.001229
3659.000000	0.001218
3658.000000	0.001204
3657.000000	0.001194
3656.000000	0.001186
3655.000000	0.001180
3654.000000	0.001178
3653.000000	0.001176
3652.000000	0.001166
3651.000000	0.001154
3650.000000	0.001163
3649.000000	0.001199
3648.000000	0.001228
3647.000000	0.001221
3646.000000	0.001184
3645.000000	0.001139
3644.000000	0.001106
3643.000000	0.001090
3642.000000	0.001086
3641.000000	0.001084
3640.000000	0.001079
3639.000000	0.001077
3638.000000	0.001086
3637.000000	0.001109
3636.000000	0.001139
3635.000000	0.001165
3634.000000	0.001184
3633.000000	0.001201
3632.000000	0.001226
3631.000000	0.001258
3630.000000	0.001286
3629.000000	0.001303
3628.000000	0.001304
3627.000000	0.001297
3626.000000	0.001288
3625.000000	0.001271
3624.000000	0.001243
3623.000000	0.001202
3622.000000	0.001153
3621.000000	0.001104
3620.000000	0.001067
3619.000000	0.001065
3618.000000	0.001101
3617.000000	0.001163
3616.000000	0.001227
3615.000000	0.001279
3614.000000	0.001312
3613.000000	0.001332
3612.000000	0.001352
3611.000000	0.001376
3610.000000	0.001402
3609.000000	0.001414
3608.000000	0.001397
3607.000000	0.001355
3606.000000	0.001307
3605.000000	0.001273
3604.000000	0.001259
3603.000000	0.001259
3602.000000	0.001269
3601.000000	0.001282
3600.000000	0.001292
3599.000000	0.001295
3598.000000	0.001289
3597.000000	0.001284
3596.000000	0.001301
3595.000000	0.001351
3594.000000	0.001423
3593.000000	0.001493
3592.000000	0.001540
3591.000000	0.001555
3590.000000	0.001538
3589.000000	0.001497
3588.000000	0.001450
3587.000000	0.001415
3586.000000	0.001403
3585.000000	0.001413
3584.000000	0.001433
3583.000000	0.001451
3582.000000	0.001456
3581.000000	0.001447
3580.000000	0.001429
3579.000000	0.001407
3578.000000	0.001390
3577.000000	0.001383
3576.000000	0.001392
3575.000000	0.001417
3574.000000	0.001452
3573.000000	0.001486
3572.000000	0.001516
3571.000000	0.001548
3570.000000	0.001586
3569.000000	0.001634
3568.000000	0.001678
3567.000000	0.001701
3566.000000	0.001697
3565.000000	0.001685
3564.000000	0.001680
3563.000000	0.001684
3562.000000	0.001688
3561.000000	0.001691
3560.000000	0.001697
3559.000000	0.001705
3558.000000	0.001706
3557.000000	0.001694
3556.000000	0.001674
3555.000000	0.001661
3554.000000	0.001667
3553.000000	0.001690
3552.000000	0.001720
3551.000000	0.001751
3550.000000	0.001788
3549.000000	0.001832
3548.000000	0.001875
3547.000000	0.001898
3546.000000	0.001889
3545.000000	0.001858
3544.000000	0.001831
3543.000000	0.001824
3542.000000	0.001837
3541.000000	0.001853
3540.000000	0.001862
3539.000000	0.001863
3538.000000	0.001865
3537.000000	0.001875
3536.000000	0.001887
3535.000000	0.001892
3534.000000	0.001881
3533.000000	0.001856
3532.000000	0.001825
3531.000000	0.001801
3530.000000	0.001795
3529.000000	0.001813
3528.000000	0.001847
3527.000000	0.001878
3526.000000	0.001890
3525.000000	0.001884
3524.000000	0.001872
3523.000000	0.001867
3522.000000	0.001867
3521.000000	0.001860
3520.000000	0.001841
3519.000000	0.001813
3518.000000	0.001784
3517.000000	0.001764
3516.000000	0.001759
3515.000000	0.001768
3514.000000	0.001788
3513.000000	0.001816
3512.000000	0.001848
3511.000000	0.001872
3510.000000	0.001876
3509.000000	0.001863
3508.000000	0.001847
3507.000000	0.001842
3506.000000	0.001848
3505.000000	0.001856
3504.000000	0.001856
3503.000000	0.001848
3502.000000	0.001834
3501.000000	0.001822
3500.000000	0.001812
3499.000000	0.001803
3498.000000	0.001791
3497.000000	0.001781
3496.000000	0.001779
3495.000000	0.001787
3494.000000	0.001798
3493.000000	0.001804
3492.000000	0.001807
3491.000000	0.001816
3490.000000	0.001837
3489.000000	0.001864
3488.000000	0.001888
3487.000000	0.001902
3486.000000	0.001910
3485.000000	0.001916
3484.000000	0.001924
3483.000000	0.001933
3482.000000	0.001935
3481.000000	0.001926
3480.000000	0.001910
3479.000000	0.001894
3478.000000	0.001886
3477.000000	0.001886
3476.000000	0.001893
3475.000000	0.001906
3474.000000	0.001925
3473.000000	0.001945
3472.000000	0.001961
3471.000000	0.001967
3470.000000	0.001961
3469.000000	0.001946
3468.000000	0.001929
3467.000000	0.001913
3466.000000	0.001900
3465.000000	0.001890
3464.000000	0.001886
3463.000000	0.001890
3462.000000	0.001901
3461.000000	0.001914
3460.000000	0.001932
3459.000000	0.001959
3458.000000	0.001991
3457.000000	0.002014
3456.000000	0.002016
3455.000000	0.001997
3454.000000	0.001974
3453.000000	0.001963
3452.000000	0.001971
3451.000000	0.001994
3450.000000	0.002023
3449.000000	0.002046
3448.000000	0.002054
3447.000000	0.002051
3446.000000	0.002050
3445.000000	0.002057
3444.000000	0.002063
3443.000000	0.002053
3442.000000	0.002027
3441.000000	0.002000
3440.000000	0.001993
3439.000000	0.002011
3438.000000	0.002040
3437.000000	0.002058
3436.000000	0.002056
3435.000000	0.002044
3434.000000	0.002038
3433.000000	0.002047
3432.000000	0.002066
3431.000000	0.002083
3430.000000	0.002092
3429.000000	0.002092
3428.000000	0.002082
3427.000000	0.002060
3426.000000	0.002037
3425.000000	0.002024
3424.000000	0.002032
3423.000000	0.002056
3422.000000	0.002080
3421.000000	0.002094
3420.000000	0.002099
3419.000000	0.002105
3418.000000	0.002120
3417.000000	0.002148
3416.000000	0.002183
3415.000000	0.002210
3414.000000	0.002216
3413.000000	0.002204
3412.000000	0.002191
3411.000000	0.002193
3410.000000	0.002213
3409.000000	0.002235
3408.000000	0.002246
3407.000000	0.002239
3406.000000	0.002220
3405.000000	0.002199
3404.000000	0.002190
3403.000000	0.002197
3402.000000	0.002213
3401.000000	0.002226
3400.000000	0.002223
3399.000000	0.002206
3398.000000	0.002186
3397.000000	0.002180
3396.000000	0.002200
3395.000000	0.002244
3394.000000	0.002291
3393.000000	0.002318
3392.000000	0.002311
3391.000000	0.002276
3390.000000	0.002236
3389.000000	0.002210
3388.000000	0.002202
3387.000000	0.002204
3386.000000	0.002206
3385.000000	0.002204
3384.000000	0.002204
3383.000000	0.002212
3382.000000	0.002225
3381.000000	0.002236
3380.000000	0.002239
3379.000000	0.002237
3378.000000	0.002236
3377.000000	0.002241
3376.000000	0.002251
3375.000000	0.002264
3374.000000	0.002269
3373.000000	0.002263
3372.000000	0.002255
3371.000000	0.002257
3370.000000	0.002277
3369.000000	0.002304
3368.000000	0.002323
3367.000000	0.002327
3366.000000	0.002322
3365.000000	0.002317
3364.000000	0.002311
3363.000000	0.002306
3362.000000	0.002300
3361.000000	0.002295
3360.000000	0.002294
3359.000000	0.002296
3358.000000	0.002298
3357.000000	0.002299
3356.000000	0.002298
3355.000000	0.002299
3354.000000	0.002308
3353.000000	0.002326
3352.000000	0.002347
3351.000000	0.002361
3350.000000	0.002361
3349.000000	0.002349
3348.000000	0.002331
3347.000000	0.002315
3346.000000	0.002308
3345.000000	0.002313
3344.000000	0.002322
3343.000000	0.002328
3342.000000	0.002329
3341.000000	0.002328
3340.000000	0.002330
3339.000000	0.002337
3338.000000	0.002347
3337.000000	0.002359
3336.000000	0.002368
3335.000000	0.002372
3334.000000	0.002369
3333.000000	0.002365
3332.000000	0.002364
3331.000000	0.002365
3330.000000	0.002364
3329.000000	0.002361
3328.000000	0.002360
3327.000000	0.002361
3326.000000	0.002362
3325.000000	0.002363
3324.000000	0.002369
3323.000000	0.002381
3322.000000	0.002390
3321.000000	0.002385
3320.000000	0.002365
3319.000000	0.002345
3318.000000	0.002344
3317.000000	0.002370
3316.000000	0.002416
3315.000000	0.002461
3314.000000	0.002490
3313.000000	0.002497
3312.000000	0.002491
3311.000000	0.002486
3310.000000	0.002489
3309.000000	0.002500
3308.000000	0.002515
3307.000000	0.002524
3306.000000	0.002521
3305.000000	0.002504
3304.000000	0.002479
3303.000000	0.002457
3302.000000	0.002444
3301.000000	0.002440
3300.000000	0.002438
3299.000000	0.002433
3298.000000	0.002426
3297.000000	0.002424
3296.000000	0.002432
3295.000000	0.002451
3294.000000	0.002477
3293.000000	0.002502
3292.000000	0.002520
3291.000000	0.002529
3290.000000	0.002533
3289.000000	0.002533
3288.000000	0.002532
3287.000000	0.002527
3286.000000	0.002517
3285.000000	0.002499
3284.000000	0.002478
3283.000000	0.002463
3282.000000	0.002461
3281.000000	0.002468
3280.000000	0.002474
3279.000000	0.002472
3278.000000	0.002468
3277.000000	0.002469
3276.000000	0.002477
3275.000000	0.002487
3274.000000	0.002495
3273.000000	0.002503
3272.000000	0.002514
3271.000000	0.002520
3270.000000	0.002517
3269.000000	0.002507
3268.000000	0.002502
3267.000000	0.002506
3266.000000	0.002516
3265.000000	0.002522
3264.000000	0.002519
3263.000000	0.002510
3262.000000	0.002497
3261.000000	0.002486
3260.000000	0.002478
3259.000000	0.002476
3258.000000	0.002479
3257.000000	0.002479
3256.000000	0.002467
3255.000000	0.002443
3254.000000	0.002418
3253.000000	0.002406
3252.000000	0.002412
3251.000000	0.002428
3250.000000	0.002445
3249.000000	0.002457
3248.000000	0.002467
3247.000000	0.002479
3246.000000	0.002494
3245.000000	0.002510
3244.000000	0.002521
3243.000000	0.002522
3242.000000	0.002509
3241.000000	0.002485
3240.000000	0.002457
3239.000000	0.002429
3238.000000	0.002405
3237.000000	0.002385
3236.000000	0.002368
3235.000000	0.002354
3234.000000	0.002343
3233.000000	0.002338
3232.000000	0.002340
3231.000000	0.002347
3230.000000	0.002348
3229.000000	0.002335
3228.000000	0.002314
3227.000000	0.002299
3226.000000	0.002299
3225.000000	0.002316
3224.000000	0.002342
3223.000000	0.002367
3222.000000	0.002383
3221.000000	0.002381
3220.000000	0.002365
3219.000000	0.002346
3218.000000	0.002337
3217.000000	0.002339
3216.000000	0.002347
3215.000000	0.002353
3214.000000	0.002355
3213.000000	0.002350
3212.000000	0.002337
3211.000000	0.002319
3210.000000	0.002305
3209.000000	0.002302
3208.000000	0.002310
3207.000000	0.002325
3206.000000	0.002345
3205.000000	0.002361
3204.000000	0.002365
3203.000000	0.002357
3202.000000	0.002341
3201.000000	0.002325
3200.000000	0.002312
3199.000000	0.002300
3198.000000	0.002287
3197.000000	0.002276
3196.000000	0.002267
3195.000000	0.002255
3194.000000	0.002239
3193.000000	0.002229
3192.000000	0.002232
3191.000000	0.002248
3190.000000	0.002266
3189.000000	0.002280
3188.000000	0.002288
3187.000000	0.002291
3186.000000	0.002288
3185.000000	0.002277
3184.000000	0.002265
3183.000000	0.002264
3182.000000	0.002279
3181.000000	0.002306
3180.000000	0.002336
3179.000000	0.002353
3178.000000	0.002345
3177.000000	0.002312
3176.000000	0.002266
3175.000000	0.002225
3174.000000	0.002193
3173.000000	0.002163
3172.000000	0.002135
3171.000000	0.002119
3170.000000	0.002122
3169.000000	0.002138
3168.000000	0.002154
3167.000000	0.002160
3166.000000	0.002158
3165.000000	0.002151
3164.000000	0.002135
3163.000000	0.002109
3162.000000	0.002076
3161.000000	0.002048
3160.000000	0.002033
3159.000000	0.002035
3158.000000	0.002052
3157.000000	0.002077
3156.000000	0.002108
3155.000000	0.002143
3154.000000	0.002178
3153.000000	0.002201
3152.000000	0.002203
3151.000000	0.002185
3150.000000	0.002161
3149.000000	0.002145
3148.000000	0.002140
3147.000000	0.002143
3146.000000	0.002147
3145.000000	0.002149
3144.000000	0.002151
3143.000000	0.002153
3142.000000	0.002155
3141.000000	0.002152
3140.000000	0.002144
3139.000000	0.002133
3138.000000	0.002124
3137.000000	0.002120
3136.000000	0.002116
3135.000000	0.002108
3134.000000	0.002095
3133.000000	0.002082
3132.000000	0.002075
3131.000000	0.002080
3130.000000	0.002097
3129.000000	0.002119
3128.000000	0.002136
3127.000000	0.002143
3126.000000	0.002138
3125.000000	0.002121
3124.000000	0.002100
3123.000000	0.002083
3122.000000	0.002079
3121.000000	0.002091
3120.000000	0.002112
3119.000000	0.002130
3118.000000	0.002140
3117.000000	0.002138
3116.000000	0.002124
3115.000000	0.002107
3114.000000	0.002094
3113.000000	0.002092
3112.000000	0.002098
3111.000000	0.002108
3110.000000	0.002116
3109.000000	0.002116
3108.000000	0.002104
3107.000000	0.002077
3106.000000	0.002040
3105.000000	0.002005
3104.000000	0.001984
3103.000000	0.001983
3102.000000	0.001999
3101.000000	0.002016
3100.000000	0.002021
3099.000000	0.002015
3098.000000	0.002009
3097.000000	0.002013
3096.000000	0.002024
3095.000000	0.002034
3094.000000	0.002039
3093.000000	0.002043
3092.000000	0.002049
3091.000000	0.002053
3090.000000	0.002047
3089.000000	0.002030
3088.000000	0.002007
3087.000000	0.001992
3086.000000	0.001990
3085.000000	0.001999
3084.000000	0.002012
3083.000000	0.002019
3082.000000	0.002021
3081.000000	0.002023
3080.000000	0.002031
3079.000000	0.002045
3078.000000	0.002061
3077.000000	0.002069
3076.000000	0.002064
3075.000000	0.002042
3074.000000	0.002014
3073.000000	0.001995
3072.000000	0.001993
3071.000000	0.002002
3070.000000	0.002009
3069.000000	0.002004
3068.000000	0.001992
3067.000000	0.001988
3066.000000	0.002000
3065.000000	0.002024
3064.000000	0.002043
3063.000000	0.002046
3062.000000	0.002033
3061.000000	0.002018
3060.000000	0.002009
3059.000000	0.002012
3058.000000	0.002020
3057.000000	0.002027
3056.000000	0.002030
3055.000000	0.002031
3054.000000	0.002032
3053.000000	0.002028
3052.000000	0.002018
3051.000000	0.002001
3050.000000	0.001987
3049.000000	0.001982
3048.000000	0.001987
3047.000000	0.001994
3046.000000	0.001997
3045.000000	0.001997
3044.000000	0.001995
3043.000000	0.001994
3042.000000	0.001991
3041.000000	0.001986
3040.000000	0.001980
3039.000000	0.001971
3038.000000	0.001961
3037.000000	0.001951
3036.000000	0.001946
3035.000000	0.001953
3034.000000	0.001972
3033.000000	0.001996
3032.000000	0.002010
3031.000000	0.002010
3030.000000	0.002000
3029.000000	0.001993
3028.000000	0.001995
3027.000000	0.002007
3026.000000	0.002025
3025.000000	0.002044
3024.000000	0.002060
3023.000000	0.002067
3022.000000	0.002070
3021.000000	0.002072
3020.000000	0.002073
3019.000000	0.002068
3018.000000	0.002053
3017.000000	0.002036
3016.000000	0.002025
3015.000000	0.002028
3014.000000	0.002038
3013.000000	0.002046
3012.000000	0.002051
3011.000000	0.002062
3010.000000	0.002086
3009.000000	0.002116
3008.000000	0.002142
3007.000000	0.002161
3006.000000	0.002176
3005.000000	0.002191
3004.000000	0.002203
3003.000000	0.002212
3002.000000	0.002226
3001.000000	0.002254
3000.000000	0.002297
2999.000000	0.002345
2998.000000	0.002393
2997.000000	0.002434
2996.000000	0.002469
2995.000000	0.002498
2994.000000	0.002526
2993.000000	0.002558
2992.000000	0.002596
2991.000000	0.002643
2990.000000	0.002698
2989.000000	0.002755
2988.000000	0.002807
2987.000000	0.002851
2986.000000	0.002890
2985.000000	0.002930
2984.000000	0.002974
2983.000000	0.003021
2982.000000	0.003070
2981.000000	0.003123
2980.000000	0.003182
2979.000000	0.003251
2978.000000	0.003340
2977.000000	0.003453
2976.000000	0.003580
2975.000000	0.003700
2974.000000	0.003803
2973.000000	0.003896
2972.000000	0.003992
2971.000000	0.004102
2970.000000	0.004224
2969.000000	0.004351
2968.000000	0.004469
2967.000000	0.004570
2966.000000	0.004659
2965.000000	0.004749
2964.000000	0.004857
2963.000000	0.004980
2962.000000	0.005105
2961.000000	0.005212
2960.000000	0.005286
2959.000000	0.005321
2958.000000	0.005321
2957.000000	0.005297
2956.000000	0.005258
2955.000000	0.005203
2954.000000	0.005134
2953.000000	0.005055
2952.000000	0.004976
2951.000000	0.004910
2950.000000	0.004863
2949.000000	0.004839
2948.000000	0.004834
2947.000000	0.004844
2946.000000	0.004868
2945.000000	0.004911
2944.000000	0.004974
2943.000000	0.005051
2942.000000	0.005138
2941.000000	0.005229
2940.000000	0.005324
2939.000000	0.005423
2938.000000	0.005528
2937.000000	0.005646
2936.000000	0.005776
2935.000000	0.005907
2934.000000	0.006020
2933.000000	0.006098
2932.000000	0.006144
2931.000000	0.006169
2930.000000	0.006184
2929.000000	0.006190
2928.000000	0.006182
2927.000000	0.006157
2926.000000	0.006119
2925.000000	0.006075
2924.000000	0.006030
2923.000000	0.005979
2922.000000	0.005910
2921.000000	0.005820
2920.000000	0.005710
2919.000000	0.005591
2918.000000	0.005482
2917.000000	0.005397
2916.000000	0.005335
2915.000000	0.005284
2914.000000	0.005225
2913.000000	0.005157
2912.000000	0.005092
2911.000000	0.005042
2910.000000	0.005008
2909.000000	0.004980
2908.000000	0.004948
2907.000000	0.004908
2906.000000	0.004861
2905.000000	0.004804
2904.000000	0.004733
2903.000000	0.004646
2902.000000	0.004550
2901.000000	0.004454
2900.000000	0.004368
2899.000000	0.004290
2898.000000	0.004210
2897.000000	0.004122
2896.000000	0.004033
2895.000000	0.003955
2894.000000	0.003892
2893.000000	0.003833
2892.000000	0.003765
2891.000000	0.003685
2890.000000	0.003609
2889.000000	0.003557
2888.000000	0.003541
2887.000000	0.003557
2886.000000	0.003589
2885.000000	0.003619
2884.000000	0.003638
2883.000000	0.003648
2882.000000	0.003661
2881.000000	0.003689
2880.000000	0.003740
2879.000000	0.003810
2878.000000	0.003890
2877.000000	0.003968
2876.000000	0.004038
2875.000000	0.004102
2874.000000	0.004163
2873.000000	0.004214
2872.000000	0.004246
2871.000000	0.004257
2870.000000	0.004259
2869.000000	0.004266
2868.000000	0.004285
2867.000000	0.004311
2866.000000	0.004340
2865.000000	0.004370
2864.000000	0.004398
2863.000000	0.004422
2862.000000	0.004442
2861.000000	0.004464
2860.000000	0.004493
2859.000000	0.004526
2858.000000	0.004554
2857.000000	0.004565
2856.000000	0.004551
2855.000000	0.004510
2854.000000	0.004446
2853.000000	0.004362
2852.000000	0.004252
2851.000000	0.004116
2850.000000	0.003966
2849.000000	0.003824
2848.000000	0.003704
2847.000000	0.003603
2846.000000	0.003513
2845.000000	0.003428
2844.000000	0.003348
2843.000000	0.003276
2842.000000	0.003211
2841.000000	0.003150
2840.000000	0.003091
2839.000000	0.003032
2838.000000	0.002975
2837.000000	0.002926
2836.000000	0.002891
2835.000000	0.002869
2834.000000	0.002855
2833.000000	0.002844
2832.000000	0.002830
2831.000000	0.002810
2830.000000	0.002785
2829.000000	0.002764
2828.000000	0.002753
2827.000000	0.002744
2826.000000	0.002728
2825.000000	0.002704
2824.000000	0.002687
2823.000000	0.002687
2822.000000	0.002696
2821.000000	0.002699
2820.000000	0.002683
2819.000000	0.002651
2818.000000	0.002615
2817.000000	0.002590
2816.000000	0.002586
2815.000000	0.002595
2814.000000	0.002596
2813.000000	0.002576
2812.000000	0.002542
2811.000000	0.002515
2810.000000	0.002509
2809.000000	0.002518
2808.000000	0.002529
2807.000000	0.002533
2806.000000	0.002529
2805.000000	0.002517
2804.000000	0.002497
2803.000000	0.002469
2802.000000	0.002441
2801.000000	0.002420
2800.000000	0.002410
2799.000000	0.002414
2798.000000	0.002428
2797.000000	0.002443
2796.000000	0.002451
2795.000000	0.002448
2794.000000	0.002439
2793.000000	0.002434
2792.000000	0.002437
2791.000000	0.002446
2790.000000	0.002455
2789.000000	0.002457
2788.000000	0.002452
2787.000000	0.002440
2786.000000	0.002424
2785.000000	0.002408
2784.000000	0.002394
2783.000000	0.002387
2782.000000	0.002387
2781.000000	0.002390
2780.000000	0.002391
2779.000000	0.002385
2778.000000	0.002375
2777.000000	0.002368
2776.000000	0.002366
2775.000000	0.002369
2774.000000	0.002369
2773.000000	0.002364
2772.000000	0.002358
2771.000000	0.002358
2770.000000	0.002367
2769.000000	0.002379
2768.000000	0.002384
2767.000000	0.002380
2766.000000	0.002372
2765.000000	0.002366
2764.000000	0.002360
2763.000000	0.002351
2762.000000	0.002341
2761.000000	0.002337
2760.000000	0.002343
2759.000000	0.002356
2758.000000	0.002372
2757.000000	0.002383
2756.000000	0.002381
2755.000000	0.002365
2754.000000	0.002342
2753.000000	0.002324
2752.000000	0.002318
2751.000000	0.002322
2750.000000	0.002334
2749.000000	0.002350
2748.000000	0.002361
2747.000000	0.002359
2746.000000	0.002343
2745.000000	0.002324
2744.000000	0.002313
2743.000000	0.002317
2742.000000	0.002329
2741.000000	0.002342
2740.000000	0.002346
2739.000000	0.002337
2738.000000	0.002323
2737.000000	0.002313
2736.000000	0.002312
2735.000000	0.002313
2734.000000	0.002309
2733.000000	0.002299
2732.000000	0.002290
2731.000000	0.002285
2730.000000	0.002290
2729.000000	0.002304
2728.000000	0.002321
2727.000000	0.002329
2726.000000	0.002321
2725.000000	0.002301
2724.000000	0.002283
2723.000000	0.002272
2722.000000	0.002265
2721.000000	0.002258
2720.000000	0.002253
2719.000000	0.002255
2718.000000	0.002267
2717.000000	0.002283
2716.000000	0.002293
2715.000000	0.002287
2714.000000	0.002273
2713.000000	0.002264
2712.000000	0.002267
2711.000000	0.002276
2710.000000	0.002282
2709.000000	0.002284
2708.000000	0.002286
2707.000000	0.002284
2706.000000	0.002271
2705.000000	0.002255
2704.000000	0.002251
2703.000000	0.002269
2702.000000	0.002301
2701.000000	0.002332
2700.000000	0.002353
2699.000000	0.002361
2698.000000	0.002361
2697.000000	0.002351
2696.000000	0.002330
2695.000000	0.002300
2694.000000	0.002270
2693.000000	0.002250
2692.000000	0.002242
2691.000000	0.002238
2690.000000	0.002232
2689.000000	0.002222
2688.000000	0.002220
2687.000000	0.002230
2686.000000	0.002245
2685.000000	0.002255
2684.000000	0.002255
2683.000000	0.002249
2682.000000	0.002241
2681.000000	0.002235
2680.000000	0.002233
2679.000000	0.002238
2678.000000	0.002251
2677.000000	0.002268
2676.000000	0.002283
2675.000000	0.002291
2674.000000	0.002289
2673.000000	0.002278
2672.000000	0.002261
2671.000000	0.002243
2670.000000	0.002231
2669.000000	0.002229
2668.000000	0.002237
2667.000000	0.002249
2666.000000	0.002261
2665.000000	0.002275
2664.000000	0.002291
2663.000000	0.002305
2662.000000	0.002307
2661.000000	0.002297
2660.000000	0.002283
2659.000000	0.002276
2658.000000	0.002280
2657.000000	0.002288
2656.000000	0.002292
2655.000000	0.002294
2654.000000	0.002301
2653.000000	0.002317
2652.000000	0.002334
2651.000000	0.002340
2650.000000	0.002330
2649.000000	0.002314
2648.000000	0.002305
2647.000000	0.002305
2646.000000	0.002302
2645.000000	0.002287
2644.000000	0.002265
2643.000000	0.002246
2642.000000	0.002237
2641.000000	0.002235
2640.000000	0.002235
2639.000000	0.002233
2638.000000	0.002229
2637.000000	0.002228
2636.000000	0.002233
2635.000000	0.002240
2634.000000	0.002235
2633.000000	0.002212
2632.000000	0.002177
2631.000000	0.002147
2630.000000	0.002133
2629.000000	0.002139
2628.000000	0.002157
2627.000000	0.002182
2626.000000	0.002202
2625.000000	0.002207
2624.000000	0.002192
2623.000000	0.002161
2622.000000	0.002126
2621.000000	0.002096
2620.000000	0.002072
2619.000000	0.002052
2618.000000	0.002033
2617.000000	0.002025
2616.000000	0.002038
2615.000000	0.002071
2614.000000	0.002110
2613.000000	0.002137
2612.000000	0.002146
2611.000000	0.002152
2610.000000	0.002168
2609.000000	0.002192
2608.000000	0.002207
2607.000000	0.002196
2606.000000	0.002162
2605.000000	0.002122
2604.000000	0.002094
2603.000000	0.002080
2602.000000	0.002073
2601.000000	0.002067
2600.000000	0.002068
2599.000000	0.002076
2598.000000	0.002079
2597.000000	0.002066
2596.000000	0.002044
2595.000000	0.002034
2594.000000	0.002046
2593.000000	0.002068
2592.000000	0.002077
2591.000000	0.002059
2590.000000	0.002023
2589.000000	0.001987
2588.000000	0.001968
2587.000000	0.001974
2586.000000	0.002001
2585.000000	0.002040
2584.000000	0.002078
2583.000000	0.002107
2582.000000	0.002117
2581.000000	0.002105
2580.000000	0.002075
2579.000000	0.002043
2578.000000	0.002027
2577.000000	0.002039
2576.000000	0.002075
2575.000000	0.002118
2574.000000	0.002148
2573.000000	0.002152
2572.000000	0.002133
2571.000000	0.002108
2570.000000	0.002096
2569.000000	0.002103
2568.000000	0.002113
2567.000000	0.002105
2566.000000	0.002067
2565.000000	0.002011
2564.000000	0.001958
2563.000000	0.001928
2562.000000	0.001924
2561.000000	0.001942
2560.000000	0.001973
2559.000000	0.002010
2558.000000	0.002045
2557.000000	0.002067
2556.000000	0.002066
2555.000000	0.002043
2554.000000	0.002007
2553.000000	0.001974
2552.000000	0.001956
2551.000000	0.001958
2550.000000	0.001977
2549.000000	0.002006
2548.000000	0.002032
2547.000000	0.002047
2546.000000	0.002046
2545.000000	0.002035
2544.000000	0.002025
2543.000000	0.002022
2542.000000	0.002028
2541.000000	0.002042
2540.000000	0.002065
2539.000000	0.002087
2538.000000	0.002099
2537.000000	0.002103
2536.000000	0.002111
2535.000000	0.002129
2534.000000	0.002153
2533.000000	0.002169
2532.000000	0.002176
2531.000000	0.002178
2530.000000	0.002175
2529.000000	0.002159
2528.000000	0.002133
2527.000000	0.002106
2526.000000	0.002083
2525.000000	0.002061
2524.000000	0.002039
2523.000000	0.002031
2522.000000	0.002055
2521.000000	0.002109
2520.000000	0.002165
2519.000000	0.002201
2518.000000	0.002215
2517.000000	0.002222
2516.000000	0.002230
2515.000000	0.002239
2514.000000	0.002245
2513.000000	0.002252
2512.000000	0.002262
2511.000000	0.002265
2510.000000	0.002253
2509.000000	0.002226
2508.000000	0.002197
2507.000000	0.002183
2506.000000	0.002187
2505.000000	0.002199
2504.000000	0.002200
2503.000000	0.002181
2502.000000	0.002151
2501.000000	0.002122
2500.000000	0.002096
2499.000000	0.002063
2498.000000	0.002023
2497.000000	0.001992
2496.000000	0.001988
2495.000000	0.002006
2494.000000	0.002020
2493.000000	0.002009
2492.000000	0.001979
2491.000000	0.001947
2490.000000	0.001924
2489.000000	0.001909
2488.000000	0.001898
2487.000000	0.001899
2486.000000	0.001918
2485.000000	0.001950
2484.000000	0.001976
2483.000000	0.001983
2482.000000	0.001966
2481.000000	0.001935
2480.000000	0.001912
2479.000000	0.001912
2478.000000	0.001928
2477.000000	0.001934
2476.000000	0.001909
2475.000000	0.001864
2474.000000	0.001835
2473.000000	0.001847
2472.000000	0.001891
2471.000000	0.001935
2470.000000	0.001952
2469.000000	0.001937
2468.000000	0.001907
2467.000000	0.001889
2466.000000	0.001898
2465.000000	0.001923
2464.000000	0.001948
2463.000000	0.001969
2462.000000	0.001998
2461.000000	0.002031
2460.000000	0.002040
2459.000000	0.002007
2458.000000	0.001944
2457.000000	0.001893
2456.000000	0.001880
2455.000000	0.001903
2454.000000	0.001936
2453.000000	0.001964
2452.000000	0.001981
2451.000000	0.001991
2450.000000	0.002002
2449.000000	0.002017
2448.000000	0.002024
2447.000000	0.002012
2446.000000	0.001986
2445.000000	0.001961
2444.000000	0.001949
2443.000000	0.001939
2442.000000	0.001917
2441.000000	0.001880
2440.000000	0.001846
2439.000000	0.001835
2438.000000	0.001854
2437.000000	0.001892
2436.000000	0.001929
2435.000000	0.001954
2434.000000	0.001969
2433.000000	0.001983
2432.000000	0.001996
2431.000000	0.001999
2430.000000	0.001991
2429.000000	0.001984
2428.000000	0.001988
2427.000000	0.001998
2426.000000	0.002007
2425.000000	0.002007
2424.000000	0.001995
2423.000000	0.001967
2422.000000	0.001927
2421.000000	0.001889
2420.000000	0.001865
2419.000000	0.001855
2418.000000	0.001848
2417.000000	0.001836
2416.000000	0.001824
2415.000000	0.001820
2414.000000	0.001827
2413.000000	0.001841
2412.000000	0.001858
2411.000000	0.001869
2410.000000	0.001875
2409.000000	0.001881
2408.000000	0.001892
2407.000000	0.001904
2406.000000	0.001906
2405.000000	0.001893
2404.000000	0.001868
2403.000000	0.001843
2402.000000	0.001827
2401.000000	0.001821
2400.000000	0.001822
2399.000000	0.001823
2398.000000	0.001821
2397.000000	0.001823
2396.000000	0.001843
2395.000000	0.001884
2394.000000	0.001928
2393.000000	0.001952
2392.000000	0.001949
2391.000000	0.001933
2390.000000	0.001923
2389.000000	0.001921
2388.000000	0.001912
2387.000000	0.001884
2386.000000	0.001835
2385.000000	0.001778
2384.000000	0.001730
2383.000000	0.001702
2382.000000	0.001695
2381.000000	0.001693
2380.000000	0.001681
2379.000000	0.001660
2378.000000	0.001649
2377.000000	0.001663
2376.000000	0.001697
2375.000000	0.001739
2374.000000	0.001770
2373.000000	0.001778
2372.000000	0.001759
2371.000000	0.001728
2370.000000	0.001703
2369.000000	0.001677
2368.000000	0.001635
2367.000000	0.001583
2366.000000	0.001547
2365.000000	0.001545
2364.000000	0.001577
2363.000000	0.001649
2362.000000	0.001762
2361.000000	0.001868
2360.000000	0.001906
2359.000000	0.001866
2358.000000	0.001797
2357.000000	0.001751
2356.000000	0.001743
2355.000000	0.001771
2354.000000	0.001797
2353.000000	0.001775
2352.000000	0.001711
2351.000000	0.001664
2350.000000	0.001676
2349.000000	0.001739
2348.000000	0.001816
2347.000000	0.001856
2346.000000	0.001849
2345.000000	0.001839
2344.000000	0.001856
2343.000000	0.001884
2342.000000	0.001894
2341.000000	0.001886
2340.000000	0.001893
2339.000000	0.001933
2338.000000	0.001975
2337.000000	0.001979
2336.000000	0.001944
2335.000000	0.001912
2334.000000	0.001904
2333.000000	0.001910
2332.000000	0.001915
2331.000000	0.001916
2330.000000	0.001924
2329.000000	0.001941
2328.000000	0.001976
2327.000000	0.002032
2326.000000	0.002098
2325.000000	0.002151
2324.000000	0.002173
2323.000000	0.002165
2322.000000	0.002140
2321.000000	0.002131
2320.000000	0.002162
2319.000000	0.002227
2318.000000	0.002296
2317.000000	0.002337
2316.000000	0.002330
2315.000000	0.002277
2314.000000	0.002202
2313.000000	0.002139
2312.000000	0.002106
2311.000000	0.002091
2310.000000	0.002074
2309.000000	0.002056
2308.000000	0.002048
2307.000000	0.002043
2306.000000	0.002024
2305.000000	0.001986
2304.000000	0.001947
2303.000000	0.001926
2302.000000	0.001926
2301.000000	0.001939
2300.000000	0.001960
2299.000000	0.001984
2298.000000	0.002003
2297.000000	0.002008
2296.000000	0.001999
2295.000000	0.001981
2294.000000	0.001969
2293.000000	0.001974
2292.000000	0.002000
2291.000000	0.002033
2290.000000	0.002062
2289.000000	0.002091
2288.000000	0.002123
2287.000000	0.002154
2286.000000	0.002171
2285.000000	0.002178
2284.000000	0.002186
2283.000000	0.002193
2282.000000	0.002174
2281.000000	0.002114
2280.000000	0.002038
2279.000000	0.001987
2278.000000	0.001981
2277.000000	0.001999
2276.000000	0.002005
2275.000000	0.001973
2274.000000	0.001911
2273.000000	0.001851
2272.000000	0.001823
2271.000000	0.001832
2270.000000	0.001861
2269.000000	0.001888
2268.000000	0.001891
2267.000000	0.001846
2266.000000	0.001746
2265.000000	0.001626
2264.000000	0.001559
2263.000000	0.001593
2262.000000	0.001715
2261.000000	0.001863
2260.000000	0.001970
2259.000000	0.002008
2258.000000	0.001985
2257.000000	0.001935
2256.000000	0.001898
2255.000000	0.001898
2254.000000	0.001932
2253.000000	0.001971
2252.000000	0.001982
2251.000000	0.001946
2250.000000	0.001870
2249.000000	0.001784
2248.000000	0.001729
2247.000000	0.001733
2246.000000	0.001796
2245.000000	0.001886
2244.000000	0.001955
2243.000000	0.001975
2242.000000	0.001956
2241.000000	0.001942
2240.000000	0.001961
2239.000000	0.001994
2238.000000	0.001997
2237.000000	0.001954
2236.000000	0.001893
2235.000000	0.001870
2234.000000	0.001922
2233.000000	0.002041
2232.000000	0.002179
2231.000000	0.002271
2230.000000	0.002273
2229.000000	0.002179
2228.000000	0.002029
2227.000000	0.001898
2226.000000	0.001867
2225.000000	0.001957
2224.000000	0.002100
2223.000000	0.002185
2222.000000	0.002167
2221.000000	0.002096
2220.000000	0.002034
2219.000000	0.001986
2218.000000	0.001924
2217.000000	0.001853
2216.000000	0.001808
2215.000000	0.001799
2214.000000	0.001799
2213.000000	0.001775
2212.000000	0.001722
2211.000000	0.001644
2210.000000	0.001564
2209.000000	0.001525
2208.000000	0.001563
2207.000000	0.001640
2206.000000	0.001669
2205.000000	0.001602
2204.000000	0.001487
2203.000000	0.001424
2202.000000	0.001467
2201.000000	0.001585
2200.000000	0.001691
2199.000000	0.001729
2198.000000	0.001721
2197.000000	0.001733
2196.000000	0.001781
2195.000000	0.001806
2194.000000	0.001764
2193.000000	0.001706
2192.000000	0.001720
2191.000000	0.001799
2190.000000	0.001851
2189.000000	0.001824
2188.000000	0.001753
2187.000000	0.001696
2186.000000	0.001667
2185.000000	0.001682
2184.000000	0.001766
2183.000000	0.001883
2182.000000	0.001921
2181.000000	0.001821
2180.000000	0.001665
2179.000000	0.001578
2178.000000	0.001581
2177.000000	0.001607
2176.000000	0.001608
2175.000000	0.001577
2174.000000	0.001503
2173.000000	0.001393
2172.000000	0.001321
2171.000000	0.001401
2170.000000	0.001666
2169.000000	0.002035
2168.000000	0.002374
2167.000000	0.002575
2166.000000	0.002576
2165.000000	0.002397
2164.000000	0.002164
2163.000000	0.002053
2162.000000	0.002133
2161.000000	0.002309
2160.000000	0.002400
2159.000000	0.002271
2158.000000	0.001911
2157.000000	0.001439
2156.000000	0.001044
2155.000000	0.000850
2154.000000	0.000836
2153.000000	0.000887
2152.000000	0.000923
2151.000000	0.000957
2150.000000	0.001022
2149.000000	0.001097
2148.000000	0.001141
2147.000000	0.001157
2146.000000	0.001191
2145.000000	0.001279
2144.000000	0.001420
2143.000000	0.001586
2142.000000	0.001733
2141.000000	0.001817
2140.000000	0.001829
2139.000000	0.001808
2138.000000	0.001796
2137.000000	0.001787
2136.000000	0.001733
2135.000000	0.001616
2134.000000	0.001477
2133.000000	0.001384
2132.000000	0.001370
2131.000000	0.001420
2130.000000	0.001496
2129.000000	0.001562
2128.000000	0.001602
2127.000000	0.001612
2126.000000	0.001590
2125.000000	0.001543
2124.000000	0.001502
2123.000000	0.001504
2122.000000	0.001554
2121.000000	0.001623
2120.000000	0.001684
2119.000000	0.001743
2118.000000	0.001823
2117.000000	0.001917
2116.000000	0.001994
2115.000000	0.002033
2114.000000	0.002040
2113.000000	0.002018
2112.000000	0.001973
2111.000000	0.001921
2110.000000	0.001886
2109.000000	0.001876
2108.000000	0.001867
2107.000000	0.001841
2106.000000	0.001808
2105.000000	0.001801
2104.000000	0.001843
2103.000000	0.001927
2102.000000	0.002010
2101.000000	0.002030
2100.000000	0.001964
2099.000000	0.001854
2098.000000	0.001768
2097.000000	0.001733
2096.000000	0.001730
2095.000000	0.001751
2094.000000	0.001822
2093.000000	0.001939
2092.000000	0.002040
2091.000000	0.002064
2090.000000	0.002025
2089.000000	0.001986
2088.000000	0.001998
2087.000000	0.002057
2086.000000	0.002130
2085.000000	0.002181
2084.000000	0.002190
2083.000000	0.002170
2082.000000	0.002158
2081.000000	0.002168
2080.000000	0.002172
2079.000000	0.002143
2078.000000	0.002110
2077.000000	0.002121
2076.000000	0.002169
2075.000000	0.002189
2074.000000	0.002143
2073.000000	0.002066
2072.000000	0.002012
2071.000000	0.002001
2070.000000	0.002013
2069.000000	0.002024
2068.000000	0.002022
2067.000000	0.002010
2066.000000	0.002009
2065.000000	0.002034
2064.000000	0.002066
2063.000000	0.002067
2062.000000	0.002029
2061.000000	0.001975
2060.000000	0.001932
2059.000000	0.001904
2058.000000	0.001895
2057.000000	0.001907
2056.000000	0.001927
2055.000000	0.001934
2054.000000	0.001936
2053.000000	0.001971
2052.000000	0.002048
2051.000000	0.002120
2050.000000	0.002131
2049.000000	0.002071
2048.000000	0.001995
2047.000000	0.001968
2046.000000	0.002016
2045.000000	0.002094
2044.000000	0.002113
2043.000000	0.002009
2042.000000	0.001795
2041.000000	0.001553
2040.000000	0.001362
2039.000000	0.001269
2038.000000	0.001287
2037.000000	0.001390
2036.000000	0.001495
2035.000000	0.001527
2034.000000	0.001505
2033.000000	0.001494
2032.000000	0.001493
2031.000000	0.001421
2030.000000	0.001250
2029.000000	0.001064
2028.000000	0.000950
2027.000000	0.000915
2026.000000	0.000921
2025.000000	0.000948
2024.000000	0.000984
2023.000000	0.001008
2022.000000	0.001032
2021.000000	0.001084
2020.000000	0.001149
2019.000000	0.001162
2018.000000	0.001110
2017.000000	0.001070
2016.000000	0.001120
2015.000000	0.001247
2014.000000	0.001384
2013.000000	0.001490
2012.000000	0.001563
2011.000000	0.001603
2010.000000	0.001598
2009.000000	0.001527
2008.000000	0.001377
2007.000000	0.001203
2006.000000	0.001113
2005.000000	0.001159
2004.000000	0.001248
2003.000000	0.001241
2002.000000	0.001128
2001.000000	0.001037
2000.000000	0.001067
1999.000000	0.001197
1998.000000	0.001366
1997.000000	0.001546
1996.000000	0.001696
1995.000000	0.001739
1994.000000	0.001646
1993.000000	0.001495
1992.000000	0.001405
1991.000000	0.001416
1990.000000	0.001510
1989.000000	0.001677
1988.000000	0.001886
1987.000000	0.002046
1986.000000	0.002063
1985.000000	0.001937
1984.000000	0.001739
1983.000000	0.001531
1982.000000	0.001348
1981.000000	0.001217
1980.000000	0.001135
1979.000000	0.001055
1978.000000	0.000973
1977.000000	0.000981
1976.000000	0.001138
1975.000000	0.001349
1974.000000	0.001463
1973.000000	0.001453
1972.000000	0.001391
1971.000000	0.001318
1970.000000	0.001235
1969.000000	0.001206
1968.000000	0.001321
1967.000000	0.001549
1966.000000	0.001703
1965.000000	0.001629
1964.000000	0.001358
1963.000000	0.001054
1962.000000	0.000865
1961.000000	0.000832
1960.000000	0.000890
1959.000000	0.000950
1958.000000	0.000977
1957.000000	0.001010
1956.000000	0.001084
1955.000000	0.001181
1954.000000	0.001247
1953.000000	0.001251
1952.000000	0.001211
1951.000000	0.001166
1950.000000	0.001143
1949.000000	0.001145
1948.000000	0.001152
1947.000000	0.001148
1946.000000	0.001143
1945.000000	0.001158
1944.000000	0.001196
1943.000000	0.001245
1942.000000	0.001299
1941.000000	0.001360
1940.000000	0.001402
1939.000000	0.001395
1938.000000	0.001361
1937.000000	0.001369
1936.000000	0.001440
1935.000000	0.001502
1934.000000	0.001471
1933.000000	0.001359
1932.000000	0.001255
1931.000000	0.001226
1930.000000	0.001261
1929.000000	0.001316
1928.000000	0.001360
1927.000000	0.001376
1926.000000	0.001355
1925.000000	0.001311
1924.000000	0.001280
1923.000000	0.001287
1922.000000	0.001325
1921.000000	0.001368
1920.000000	0.001400
1919.000000	0.001414
1918.000000	0.001408
1917.000000	0.001388
1916.000000	0.001374
1915.000000	0.001378
1914.000000	0.001400
1913.000000	0.001424
1912.000000	0.001426
1911.000000	0.001388
1910.000000	0.001327
1909.000000	0.001288
1908.000000	0.001294
1907.000000	0.001322
1906.000000	0.001339
1905.000000	0.001346
1904.000000	0.001360
1903.000000	0.001373
1902.000000	0.001363
1901.000000	0.001335
1900.000000	0.001330
1899.000000	0.001359
1898.000000	0.001391
1897.000000	0.001397
1896.000000	0.001392
1895.000000	0.001408
1894.000000	0.001440
1893.000000	0.001442
1892.000000	0.001381
1891.000000	0.001283
1890.000000	0.001219
1889.000000	0.001239
1888.000000	0.001304
1887.000000	0.001332
1886.000000	0.001293
1885.000000	0.001237
1884.000000	0.001227
1883.000000	0.001260
1882.000000	0.001274
1881.000000	0.001239
1880.000000	0.001186
1879.000000	0.001155
1878.000000	0.001143
1877.000000	0.001127
1876.000000	0.001098
1875.000000	0.001072
1874.000000	0.001065
1873.000000	0.001079
1872.000000	0.001106
1871.000000	0.001135
1870.000000	0.001158
1869.000000	0.001167
1868.000000	0.001164
1867.000000	0.001165
1866.000000	0.001186
1865.000000	0.001233
1864.000000	0.001287
1863.000000	0.001316
1862.000000	0.001304
1861.000000	0.001268
1860.000000	0.001240
1859.000000	0.001222
1858.000000	0.001199
1857.000000	0.001171
1856.000000	0.001162
1855.000000	0.001178
1854.000000	0.001206
1853.000000	0.001239
1852.000000	0.001276
1851.000000	0.001297
1850.000000	0.001272
1849.000000	0.001204
1848.000000	0.001134
1847.000000	0.001102
1846.000000	0.001113
1845.000000	0.001153
1844.000000	0.001206
1843.000000	0.001246
1842.000000	0.001250
1841.000000	0.001220
1840.000000	0.001176
1839.000000	0.001143
1838.000000	0.001128
1837.000000	0.001124
1836.000000	0.001121
1835.000000	0.001108
1834.000000	0.001083
1833.000000	0.001053
1832.000000	0.001026
1831.000000	0.001010
1830.000000	0.001010
1829.000000	0.001017
1828.000000	0.001019
1827.000000	0.001012
1826.000000	0.001005
1825.000000	0.001014
1824.000000	0.001042
1823.000000	0.001075
1822.000000	0.001096
1821.000000	0.001101
1820.000000	0.001091
1819.000000	0.001074
1818.000000	0.001060
1817.000000	0.001054
1816.000000	0.001053
1815.000000	0.001043
1814.000000	0.001009
1813.000000	0.000960
1812.000000	0.000933
1811.000000	0.000955
1810.000000	0.001012
1809.000000	0.001061
1808.000000	0.001084
1807.000000	0.001104
1806.000000	0.001144
1805.000000	0.001206
1804.000000	0.001276
1803.000000	0.001345
1802.000000	0.001409
1801.000000	0.001465
1800.000000	0.001506
1799.000000	0.001530
1798.000000	0.001533
1797.000000	0.001515
1796.000000	0.001491
1795.000000	0.001471
1794.000000	0.001446
1793.000000	0.001415
1792.000000	0.001388
1791.000000	0.001372
1790.000000	0.001354
1789.000000	0.001312
1788.000000	0.001243
1787.000000	0.001164
1786.000000	0.001100
1785.000000	0.001073
1784.000000	0.001085
1783.000000	0.001111
1782.000000	0.001123
1781.000000	0.001119
1780.000000	0.001119
1779.000000	0.001132
1778.000000	0.001142
1777.000000	0.001136
1776.000000	0.001118
1775.000000	0.001093
1774.000000	0.001074
1773.000000	0.001092
1772.000000	0.001160
1771.000000	0.001232
1770.000000	0.001261
1769.000000	0.001249
1768.000000	0.001236
1767.000000	0.001253
1766.000000	0.001297
1765.000000	0.001349
1764.000000	0.001401
1763.000000	0.001474
1762.000000	0.001594
1761.000000	0.001768
1760.000000	0.001973
1759.000000	0.002198
1758.000000	0.002469
1757.000000	0.002825
1756.000000	0.003256
1755.000000	0.003702
1754.000000	0.004133
1753.000000	0.004588
1752.000000	0.005119
1751.000000	0.005721
1750.000000	0.006328
1749.000000	0.006899
1748.000000	0.007425
1747.000000	0.007888
1746.000000	0.008283
1745.000000	0.008635
1744.000000	0.008957
1743.000000	0.009237
1742.000000	0.009458
1741.000000	0.009609
1740.000000	0.009679
1739.000000	0.009671
1738.000000	0.009635
1737.000000	0.009593
1736.000000	0.009492
1735.000000	0.009236
1734.000000	0.008808
1733.000000	0.008354
1732.000000	0.007962
1731.000000	0.007569
1730.000000	0.007129
1729.000000	0.006673
1728.000000	0.006235
1727.000000	0.005821
1726.000000	0.005425
1725.000000	0.005055
1724.000000	0.004717
1723.000000	0.004403
1722.000000	0.004108
1721.000000	0.003830
1720.000000	0.003550
1719.000000	0.003268
1718.000000	0.003030
1717.000000	0.002866
1716.000000	0.002738
1715.000000	0.002608
1714.000000	0.002478
1713.000000	0.002371
1712.000000	0.002291
1711.000000	0.002226
1710.000000	0.002161
1709.000000	0.002096
1708.000000	0.002020
1707.000000	0.001927
1706.000000	0.001844
1705.000000	0.001810
1704.000000	0.001830
1703.000000	0.001871
1702.000000	0.001898
1701.000000	0.001911
1700.000000	0.001943
1699.000000	0.001988
1698.000000	0.002021
1697.000000	0.002048
1696.000000	0.002089
1695.000000	0.002152
1694.000000	0.002208
1693.000000	0.002240
1692.000000	0.002259
1691.000000	0.002283
1690.000000	0.002327
1689.000000	0.002398
1688.000000	0.002479
1687.000000	0.002542
1686.000000	0.002559
1685.000000	0.002533
1684.000000	0.002509
1683.000000	0.002514
1682.000000	0.002552
1681.000000	0.002609
1680.000000	0.002662
1679.000000	0.002703
1678.000000	0.002734
1677.000000	0.002772
1676.000000	0.002819
1675.000000	0.002866
1674.000000	0.002907
1673.000000	0.002950
1672.000000	0.002996
1671.000000	0.003043
1670.000000	0.003099
1669.000000	0.003173
1668.000000	0.003251
1667.000000	0.003304
1666.000000	0.003330
1665.000000	0.003345
1664.000000	0.003364
1663.000000	0.003403
1662.000000	0.003465
1661.000000	0.003541
1660.000000	0.003604
1659.000000	0.003641
1658.000000	0.003660
1657.000000	0.003699
1656.000000	0.003771
1655.000000	0.003846
1654.000000	0.003875
1653.000000	0.003866
1652.000000	0.003878
1651.000000	0.003907
1650.000000	0.003933
1649.000000	0.003963
1648.000000	0.004004
1647.000000	0.004034
1646.000000	0.004044
1645.000000	0.004061
1644.000000	0.004097
1643.000000	0.004131
1642.000000	0.004150
1641.000000	0.004150
1640.000000	0.004141
1639.000000	0.004139
1638.000000	0.004146
1637.000000	0.004150
1636.000000	0.004120
1635.000000	0.004048
1634.000000	0.003984
1633.000000	0.003963
1632.000000	0.003973
1631.000000	0.003990
1630.000000	0.003984
1629.000000	0.003951
1628.000000	0.003909
1627.000000	0.003875
1626.000000	0.003850
1625.000000	0.003824
1624.000000	0.003784
1623.000000	0.003723
1622.000000	0.003658
1621.000000	0.003615
1620.000000	0.003596
1619.000000	0.003580
1618.000000	0.003538
1617.000000	0.003463
1616.000000	0.003370
1615.000000	0.003279
1614.000000	0.003204
1613.000000	0.003148
1612.000000	0.003098
1611.000000	0.003035
1610.000000	0.002961
1609.000000	0.002893
1608.000000	0.002837
1607.000000	0.002776
1606.000000	0.002706
1605.000000	0.002645
1604.000000	0.002603
1603.000000	0.002568
1602.000000	0.002528
1601.000000	0.002490
1600.000000	0.002462
1599.000000	0.002440
1598.000000	0.002417
1597.000000	0.002393
1596.000000	0.002370
1595.000000	0.002352
1594.000000	0.002344
1593.000000	0.002353
1592.000000	0.002367
1591.000000	0.002370
1590.000000	0.002353
1589.000000	0.002328
1588.000000	0.002302
1587.000000	0.002276
1586.000000	0.002252
1585.000000	0.002242
1584.000000	0.002245
1583.000000	0.002239
1582.000000	0.002216
1581.000000	0.002192
1580.000000	0.002193
1579.000000	0.002220
1578.000000	0.002254
1577.000000	0.002282
1576.000000	0.002304
1575.000000	0.002324
1574.000000	0.002355
1573.000000	0.002397
1572.000000	0.002429
1571.000000	0.002423
1570.000000	0.002397
1569.000000	0.002401
1568.000000	0.002450
1567.000000	0.002506
1566.000000	0.002546
1565.000000	0.002574
1564.000000	0.002599
1563.000000	0.002623
1562.000000	0.002656
1561.000000	0.002686
1560.000000	0.002733
1559.000000	0.002800
1558.000000	0.002823
1557.000000	0.002866
1556.000000	0.002961
1555.000000	0.003056
1554.000000	0.003159
1553.000000	0.003254
1552.000000	0.003338
1551.000000	0.003403
1550.000000	0.003465
1549.000000	0.003531
1548.000000	0.003597
1547.000000	0.003655
1546.000000	0.003714
1545.000000	0.003802
1544.000000	0.003912
1543.000000	0.004013
1542.000000	0.004098
1541.000000	0.004177
1540.000000	0.004257
1539.000000	0.004341
1538.000000	0.004447
1537.000000	0.004564
1536.000000	0.004673
1535.000000	0.004763
1534.000000	0.004848
1533.000000	0.004955
1532.000000	0.005077
1531.000000	0.005190
1530.000000	0.005271
1529.000000	0.005324
1528.000000	0.005373
1527.000000	0.005439
1526.000000	0.005524
1525.000000	0.005617
1524.000000	0.005707
1523.000000	0.005786
1522.000000	0.005861
1521.000000	0.005933
1520.000000	0.005999
1519.000000	0.006060
1518.000000	0.006123
1517.000000	0.006196
1516.000000	0.006277
1515.000000	0.006359
1514.000000	0.006443
1513.000000	0.006524
1512.000000	0.006594
1511.000000	0.006652
1510.000000	0.006713
1509.000000	0.006792
1508.000000	0.006887
1507.000000	0.006955
1506.000000	0.006994
1505.000000	0.007061
1504.000000	0.007139
1503.000000	0.007202
1502.000000	0.007274
1501.000000	0.007362
1500.000000	0.007459
1499.000000	0.007552
1498.000000	0.007652
1497.000000	0.007763
1496.000000	0.007862
1495.000000	0.007938
1494.000000	0.008009
1493.000000	0.008087
1492.000000	0.008168
1491.000000	0.008253
1490.000000	0.008358
1489.000000	0.008480
1488.000000	0.008599
1487.000000	0.008710
1486.000000	0.008815
1485.000000	0.008929
1484.000000	0.009058
1483.000000	0.009196
1482.000000	0.009350
1481.000000	0.009525
1480.000000	0.009698
1479.000000	0.009843
1478.000000	0.009967
1477.000000	0.010106
1476.000000	0.010287
1475.000000	0.010504
1474.000000	0.010748
1473.000000	0.011012
1472.000000	0.011267
1471.000000	0.011501
1470.000000	0.011738
1469.000000	0.011984
1468.000000	0.012219
1467.000000	0.012422
1466.000000	0.012590
1465.000000	0.012734
1464.000000	0.012862
1463.000000	0.012984
1462.000000	0.013117
1461.000000	0.013263
1460.000000	0.013413
1459.000000	0.013565
1458.000000	0.013758
1457.000000	0.014005
1456.000000	0.014223
1455.000000	0.014369
1454.000000	0.014484
1453.000000	0.014598
1452.000000	0.014705
1451.000000	0.014795
1450.000000	0.014878
1449.000000	0.014969
1448.000000	0.015065
1447.000000	0.015169
1446.000000	0.015294
1445.000000	0.015441
1444.000000	0.015583
1443.000000	0.015709
1442.000000	0.015838
1441.000000	0.015989
1440.000000	0.016149
1439.000000	0.016297
1438.000000	0.016445
1437.000000	0.016625
1436.000000	0.016817
1435.000000	0.016984
1434.000000	0.017135
1433.000000	0.017283
1432.000000	0.017408
1431.000000	0.017498
1430.000000	0.017591
1429.000000	0.017735
1428.000000	0.017927
1427.000000	0.018126
1426.000000	0.018312
1425.000000	0.018480
1424.000000	0.018604
1423.000000	0.018674
1422.000000	0.018727
1421.000000	0.018785
1420.000000	0.018821
1419.000000	0.018810
1418.000000	0.018795
1417.000000	0.018817
1416.000000	0.018842
1415.000000	0.018825
1414.000000	0.018772
1413.000000	0.018698
1412.000000	0.018589
1411.000000	0.018423
1410.000000	0.018220
1409.000000	0.018009
1408.000000	0.017787
1407.000000	0.017543
1406.000000	0.017296
1405.000000	0.017074
1404.000000	0.016888
1403.000000	0.016745
1402.000000	0.016654
1401.000000	0.016596
1400.000000	0.016525
1399.000000	0.016426
1398.000000	0.016342
1397.000000	0.016297
1396.000000	0.016252
1395.000000	0.016153
1394.000000	0.016025
1393.000000	0.015927
1392.000000	0.015861
1391.000000	0.015793
1390.000000	0.015708
1389.000000	0.015602
1388.000000	0.015458
1387.000000	0.015277
1386.000000	0.015100
1385.000000	0.014959
1384.000000	0.014839
1383.000000	0.014717
1382.000000	0.014591
1381.000000	0.014465
1380.000000	0.014320
1379.000000	0.014144
1378.000000	0.013952
1377.000000	0.013760
1376.000000	0.013554
1375.000000	0.013311
1374.000000	0.013047
1373.000000	0.012812
1372.000000	0.012637
1371.000000	0.012503
1370.000000	0.012377
1369.000000	0.012241
1368.000000	0.012097
1367.000000	0.011957
1366.000000	0.011836
1365.000000	0.011719
1364.000000	0.011583
1363.000000	0.011422
1362.000000	0.011263
1361.000000	0.011140
1360.000000	0.011063
1359.000000	0.011016
1358.000000	0.010983
1357.000000	0.010943
1356.000000	0.010879
1355.000000	0.010795
1354.000000	0.010710
1353.000000	0.010629
1352.000000	0.010539
1351.000000	0.010436
1350.000000	0.010328
1349.000000	0.010230
1348.000000	0.010142
1347.000000	0.010064
1346.000000	0.010003
1345.000000	0.009964
1344.000000	0.009941
1343.000000	0.009923
1342.000000	0.009907
1341.000000	0.009902
1340.000000	0.009913
1339.000000	0.009934
1338.000000	0.009958
1337.000000	0.009980
1336.000000	0.009991
1335.000000	0.009986
1334.000000	0.009965
1333.000000	0.009924
1332.000000	0.009863
1331.000000	0.009789
1330.000000	0.009716
1329.000000	0.009652
1328.000000	0.009586
1327.000000	0.009512
1326.000000	0.009430
1325.000000	0.009346
1324.000000	0.009258
1323.000000	0.009161
1322.000000	0.009064
1321.000000	0.008981
1320.000000	0.008919
1319.000000	0.008869
1318.000000	0.008820
1317.000000	0.008755
1316.000000	0.008664
1315.000000	0.008554
1314.000000	0.008444
1313.000000	0.008351
1312.000000	0.008270
1311.000000	0.008189
1310.000000	0.008111
1309.000000	0.008049
1308.000000	0.008009
1307.000000	0.007977
1306.000000	0.007927
1305.000000	0.007848
1304.000000	0.007746
1303.000000	0.007640
1302.000000	0.007543
1301.000000	0.007456
1300.000000	0.007372
1299.000000	0.007287
1298.000000	0.007201
1297.000000	0.007109
1296.000000	0.007014
1295.000000	0.006928
1294.000000	0.006866
1293.000000	0.006828
1292.000000	0.006806
1291.000000	0.006789
1290.000000	0.006770
1289.000000	0.006738
1288.000000	0.006687
1287.000000	0.006628
1286.000000	0.006579
1285.000000	0.006546
1284.000000	0.006510
1283.000000	0.006460
1282.000000	0.006401
1281.000000	0.006351
1280.000000	0.006325
1279.000000	0.006323
1278.000000	0.006344
1277.000000	0.006378
1276.000000	0.006420
1275.000000	0.006469
1274.000000	0.006529
1273.000000	0.006605
1272.000000	0.006700
1271.000000	0.006815
1270.000000	0.006957
1269.000000	0.007123
1268.000000	0.007304
1267.000000	0.007488
1266.000000	0.007667
1265.000000	0.007828
1264.000000	0.007960
1263.000000	0.008068
1262.000000	0.008176
1261.000000	0.008311
1260.000000	0.008480
1259.000000	0.008668
1258.000000	0.008854
1257.000000	0.009020
1256.000000	0.009149
1255.000000	0.009231
1254.000000	0.009269
1253.000000	0.009281
1252.000000	0.009288
1251.000000	0.009300
1250.000000	0.009315
1249.000000	0.009321
1248.000000	0.009315
1247.000000	0.009301
1246.000000	0.009294
1245.000000	0.009298
1244.000000	0.009306
1243.000000	0.009305
1242.000000	0.009287
1241.000000	0.009252
1240.000000	0.009202
1239.000000	0.009148
1238.000000	0.009099
1237.000000	0.009056
1236.000000	0.009008
1235.000000	0.008942
1234.000000	0.008856
1233.000000	0.008758
1232.000000	0.008656
1231.000000	0.008558
1230.000000	0.008460
1229.000000	0.008348
1228.000000	0.008205
1227.000000	0.008026
1226.000000	0.007823
1225.000000	0.007609
1224.000000	0.007395
1223.000000	0.007186
1222.000000	0.006992
1221.000000	0.006812
1220.000000	0.006641
1219.000000	0.006476
1218.000000	0.006326
1217.000000	0.006192
1216.000000	0.006067
1215.000000	0.005944
1214.000000	0.005829
1213.000000	0.005734
1212.000000	0.005667
1211.000000	0.005629
1210.000000	0.005616
1209.000000	0.005611
1208.000000	0.005596
1207.000000	0.005572
1206.000000	0.005552
1205.000000	0.005550
1204.000000	0.005566
1203.000000	0.005590
1202.000000	0.005615
1201.000000	0.005635
1200.000000	0.005652
1199.000000	0.005678
1198.000000	0.005734
1197.000000	0.005830
1196.000000	0.005951
1195.000000	0.006070
1194.000000	0.006170
1193.000000	0.006256
1192.000000	0.006340
1191.000000	0.006436
1190.000000	0.006553
1189.000000	0.006689
1188.000000	0.006827
1187.000000	0.006962
1186.000000	0.007103
1185.000000	0.007264
1184.000000	0.007443
1183.000000	0.007621
1182.000000	0.007794
1181.000000	0.007978
1180.000000	0.008192
1179.000000	0.008436
1178.000000	0.008693
1177.000000	0.008940
1176.000000	0.009168
1175.000000	0.009380
1174.000000	0.009583
1173.000000	0.009779
1172.000000	0.009967
1171.000000	0.010152
1170.000000	0.010344
1169.000000	0.010551
1168.000000	0.010766
1167.000000	0.010972
1166.000000	0.011148
1165.000000	0.011280
1164.000000	0.011365
1163.000000	0.011414
1162.000000	0.011440
1161.000000	0.011448
1160.000000	0.011437
1159.000000	0.011411
1158.000000	0.011381
1157.000000	0.011346
1156.000000	0.011281
1155.000000	0.011164
1154.000000	0.011000
1153.000000	0.010814
1152.000000	0.010620
1151.000000	0.010414
1150.000000	0.010194
1149.000000	0.009958
1148.000000	0.009700
1147.000000	0.009416
1146.000000	0.009119
1145.000000	0.008831
1144.000000	0.008561
1143.000000	0.008296
1142.000000	0.008021
1141.000000	0.007734
1140.000000	0.007445
1139.000000	0.007172
1138.000000	0.006928
1137.000000	0.006712
1136.000000	0.006516
1135.000000	0.006333
1134.000000	0.006158
1133.000000	0.005989
1132.000000	0.005826
1131.000000	0.005682
1130.000000	0.005573
1129.000000	0.005494
1128.000000	0.005427
1127.000000	0.005362
1126.000000	0.005316
1125.000000	0.005314
1124.000000	0.005361
1123.000000	0.005437
1122.000000	0.005529
1121.000000	0.005631
1120.000000	0.005741
1119.000000	0.005854
1118.000000	0.005971
1117.000000	0.006111
1116.000000	0.006292
1115.000000	0.006513
1114.000000	0.006750
1113.000000	0.006977
1112.000000	0.007177
1111.000000	0.007347
1110.000000	0.007490
1109.000000	0.007604
1108.000000	0.007686
1107.000000	0.007734
1106.000000	0.007751
1105.000000	0.007739
1104.000000	0.007690
1103.000000	0.007608
1102.000000	0.007525
1101.000000	0.007485
1100.000000	0.007506
1099.000000	0.007577
1098.000000	0.007668
1097.000000	0.007761
1096.000000	0.007847
1095.000000	0.007918
1094.000000	0.007976
1093.000000	0.008023
1092.000000	0.008052
1091.000000	0.008051
1090.000000	0.008007
1089.000000	0.007916
1088.000000	0.007779
1087.000000	0.007599
1086.000000	0.007392
1085.000000	0.007176
1084.000000	0.006964
1083.000000	0.006760
1082.000000	0.006556
1081.000000	0.006354
1080.000000	0.006158
1079.000000	0.005981
1078.000000	0.005832
1077.000000	0.005708
1076.000000	0.005600
1075.000000	0.005501
1074.000000	0.005413
1073.000000	0.005342
1072.000000	0.005281
1071.000000	0.005213
1070.000000	0.005137
1069.000000	0.005073
1068.000000	0.005046
1067.000000	0.005063
1066.000000	0.005104
1065.000000	0.005142
1064.000000	0.005159
1063.000000	0.005159
1062.000000	0.005158
1061.000000	0.005156
1060.000000	0.005138
1059.000000	0.005086
1058.000000	0.004998
1057.000000	0.004899
1056.000000	0.004812
1055.000000	0.004745
1054.000000	0.004697
1053.000000	0.004670
1052.000000	0.004664
1051.000000	0.004662
1050.000000	0.004636
1049.000000	0.004581
1048.000000	0.004525
1047.000000	0.004503
1046.000000	0.004521
1045.000000	0.004561
1044.000000	0.004602
1043.000000	0.004631
1042.000000	0.004647
1041.000000	0.004660
1040.000000	0.004691
1039.000000	0.004756
1038.000000	0.004836
1037.000000	0.004892
1036.000000	0.004907
1035.000000	0.004901
1034.000000	0.004899
1033.000000	0.004892
1032.000000	0.004857
1031.000000	0.004795
1030.000000	0.004744
1029.000000	0.004744
1028.000000	0.004798
1027.000000	0.004872
1026.000000	0.004933
1025.000000	0.004967
1024.000000	0.004988
1023.000000	0.005016
1022.000000	0.005062
1021.000000	0.005118
1020.000000	0.005162
1019.000000	0.005169
1018.000000	0.005129
1017.000000	0.005051
1016.000000	0.004960
1015.000000	0.004884
1014.000000	0.004839
1013.000000	0.004819
1012.000000	0.004804
1011.000000	0.004776
1010.000000	0.004724
1009.000000	0.004656
1008.000000	0.004592
1007.000000	0.004540
1006.000000	0.004489
1005.000000	0.004412
1004.000000	0.004300
1003.000000	0.004175
1002.000000	0.004069
1001.000000	0.003998
1000.000000	0.003957
999.000000	0.003930
998.000000	0.003904
997.000000	0.003874
996.000000	0.003843
995.000000	0.003811
994.000000	0.003774
993.000000	0.003724
992.000000	0.003666
991.000000	0.003621
990.000000	0.003606
989.000000	0.003608
988.000000	0.003601
987.000000	0.003573
986.000000	0.003537
985.000000	0.003514
984.000000	0.003515
983.000000	0.003530
982.000000	0.003542
981.000000	0.003535
980.000000	0.003517
979.000000	0.003509
978.000000	0.003529
977.000000	0.003569
976.000000	0.003606
975.000000	0.003622
974.000000	0.003626
973.000000	0.003645
972.000000	0.003696
971.000000	0.003769
970.000000	0.003834
969.000000	0.003868
968.000000	0.003875
967.000000	0.003871
966.000000	0.003864
965.000000	0.003848
964.000000	0.003828
963.000000	0.003806
962.000000	0.003770
961.000000	0.003704
960.000000	0.003615
959.000000	0.003541
958.000000	0.003507
957.000000	0.003496
956.000000	0.003473
955.000000	0.003427
954.000000	0.003366
953.000000	0.003291
952.000000	0.003202
951.000000	0.003117
950.000000	0.003064
949.000000	0.003050
948.000000	0.003049
947.000000	0.003028
946.000000	0.002979
945.000000	0.002909
944.000000	0.002831
943.000000	0.002757
942.000000	0.002697
941.000000	0.002655
940.000000	0.002621
939.000000	0.002577
938.000000	0.002510
937.000000	0.002418
936.000000	0.002328
935.000000	0.002275
934.000000	0.002265
933.000000	0.002270
932.000000	0.002254
931.000000	0.002220
930.000000	0.002194
929.000000	0.002187
928.000000	0.002178
927.000000	0.002148
926.000000	0.002100
925.000000	0.002054
924.000000	0.002028
923.000000	0.002027
922.000000	0.002032
921.000000	0.002012
920.000000	0.001951
919.000000	0.001867
918.000000	0.001800
917.000000	0.001762
916.000000	0.001729
915.000000	0.001677
914.000000	0.001616
913.000000	0.001578
912.000000	0.001571
911.000000	0.001577
910.000000	0.001566
909.000000	0.001519
908.000000	0.001441
907.000000	0.001348
906.000000	0.001264
905.000000	0.001195
904.000000	0.001138
903.000000	0.001085
902.000000	0.001039
901.000000	0.001007
900.000000	0.000992
899.000000	0.000993
898.000000	0.001004
897.000000	0.001018
896.000000	0.001021
895.000000	0.001005
894.000000	0.000978
893.000000	0.000968
892.000000	0.000994
891.000000	0.001057
890.000000	0.001145
889.000000	0.001272
888.000000	0.001503
887.000000	0.001923
886.000000	0.002569
885.000000	0.003380
884.000000	0.004231
883.000000	0.005018
882.000000	0.005735
881.000000	0.006471
880.000000	0.007334
879.000000	0.008351
878.000000	0.009445
877.000000	0.010486
876.000000	0.011361
875.000000	0.012000
874.000000	0.012341
873.000000	0.012310
872.000000	0.011852
871.000000	0.011007
870.000000	0.009930
869.000000	0.008816
868.000000	0.007813
867.000000	0.006974
866.000000	0.006280
865.000000	0.005688
864.000000	0.005170
863.000000	0.004718
862.000000	0.004328
861.000000	0.003978
860.000000	0.003642
859.000000	0.003311
858.000000	0.002997
857.000000	0.002714
856.000000	0.002476
855.000000	0.002301
854.000000	0.002187
853.000000	0.002116
852.000000	0.002074
851.000000	0.002098
850.000000	0.002235
849.000000	0.002461
848.000000	0.002650
847.000000	0.002665
846.000000	0.002473
845.000000	0.002163
844.000000	0.001865
843.000000	0.001667
842.000000	0.001595
841.000000	0.001618
840.000000	0.001667
839.000000	0.001685
838.000000	0.001667
837.000000	0.001661
836.000000	0.001705
835.000000	0.001774
834.000000	0.001813
833.000000	0.001791
832.000000	0.001729
831.000000	0.001661
830.000000	0.001605
829.000000	0.001565
828.000000	0.001536
827.000000	0.001512
826.000000	0.001478
825.000000	0.001425
824.000000	0.001364
823.000000	0.001314
822.000000	0.001287
821.000000	0.001269
820.000000	0.001234
819.000000	0.001172
818.000000	0.001104
817.000000	0.001070
816.000000	0.001091
815.000000	0.001140
814.000000	0.001166
813.000000	0.001138
812.000000	0.001070
811.000000	0.000998
810.000000	0.000944
809.000000	0.000917
808.000000	0.000922
807.000000	0.000956
806.000000	0.000997
805.000000	0.001018
804.000000	0.001017
803.000000	0.001020
802.000000	0.001048
801.000000	0.001094
800.000000	0.001130
799.000000	0.001133
798.000000	0.001110
797.000000	0.001087
796.000000	0.001079
795.000000	0.001077
794.000000	0.001064
793.000000	0.001042
792.000000	0.001034
791.000000	0.001047
790.000000	0.001059
789.000000	0.001051
788.000000	0.001039
787.000000	0.001050
786.000000	0.001091
785.000000	0.001154
784.000000	0.001231
783.000000	0.001307
782.000000	0.001354
781.000000	0.001352
780.000000	0.001313
779.000000	0.001275
778.000000	0.001257
777.000000	0.001251
776.000000	0.001244
775.000000	0.001236
774.000000	0.001226
773.000000	0.001213
772.000000	0.001206
771.000000	0.001228
770.000000	0.001280
769.000000	0.001339
768.000000	0.001384
767.000000	0.001409
766.000000	0.001418
765.000000	0.001407
764.000000	0.001377
763.000000	0.001347
762.000000	0.001350
761.000000	0.001410
760.000000	0.001524
759.000000	0.001652
758.000000	0.001740
757.000000	0.001770
756.000000	0.001771
755.000000	0.001786
754.000000	0.001813
753.000000	0.001818
752.000000	0.001787
751.000000	0.001742
750.000000	0.001703
749.000000	0.001675
748.000000	0.001654
747.000000	0.001649
746.000000	0.001662
745.000000	0.001685
744.000000	0.001714
743.000000	0.001749
742.000000	0.001773
741.000000	0.001753
740.000000	0.001685
739.000000	0.001606
738.000000	0.001553
737.000000	0.001547
736.000000	0.001599
735.000000	0.001708
734.000000	0.001838
733.000000	0.001927
732.000000	0.001955
731.000000	0.001958
730.000000	0.001971
729.000000	0.001986
728.000000	0.001985
727.000000	0.001976
726.000000	0.001980
725.000000	0.001997
724.000000	0.002011
723.000000	0.002022
722.000000	0.002042
721.000000	0.002087
720.000000	0.002167
719.000000	0.002313
718.000000	0.002578
717.000000	0.003024
716.000000	0.003694
715.000000	0.004555
714.000000	0.005443
713.000000	0.006106
712.000000	0.006341
711.000000	0.006134
710.000000	0.005644
709.000000	0.005089
708.000000	0.004631
707.000000	0.004332
706.000000	0.004159
705.000000	0.004036
704.000000	0.003906
703.000000	0.003776
702.000000	0.003689
701.000000	0.003675
700.000000	0.003732
699.000000	0.003840
698.000000	0.003967
697.000000	0.004069
696.000000	0.004106
695.000000	0.004072
694.000000	0.003990
693.000000	0.003895
692.000000	0.003828
691.000000	0.003804
690.000000	0.003799
689.000000	0.003769
688.000000	0.003703
687.000000	0.003629
686.000000	0.003564
685.000000	0.003497
684.000000	0.003450
683.000000	0.003474
682.000000	0.003560
681.000000	0.003627
680.000000	0.003634
679.000000	0.003626
678.000000	0.003647
677.000000	0.003677
676.000000	0.003675
675.000000	0.003647
674.000000	0.003610
673.000000	0.003534
672.000000	0.003375
671.000000	0.003117
670.000000	0.002749
669.000000	0.002280
668.000000	0.001987
667.000000	0.002092
666.000000	0.002269
665.000000	0.002437
664.000000	0.002590
663.000000	0.002631
662.000000	0.002528
661.000000	0.002342
660.000000	0.002148
659.000000	0.001969
658.000000	0.001828
657.000000	0.001782
656.000000	0.001846
655.000000	0.001973
654.000000	0.002129
653.000000	0.002327
652.000000	0.002542
651.000000	0.002710
650.000000	0.002826
649.000000	0.002962
648.000000	0.003152
647.000000	0.003340
646.000000	0.003481
645.000000	0.003592
644.000000	0.003694
643.000000	0.003782
642.000000	0.003858
641.000000	0.003951
640.000000	0.004066
639.000000	0.004159
638.000000	0.004199
637.000000	0.004197
636.000000	0.004158
635.000000	0.004085
634.000000	0.004022
633.000000	0.004039
632.000000	0.004146
631.000000	0.004276
630.000000	0.004372
629.000000	0.004431
628.000000	0.004462
627.000000	0.004456
626.000000	0.004427
625.000000	0.004414
624.000000	0.004428
623.000000	0.004430
622.000000	0.004387
621.000000	0.004309
620.000000	0.004232
619.000000	0.004206
618.000000	0.004289
617.000000	0.004490
616.000000	0.004735
615.000000	0.004926
614.000000	0.005036
613.000000	0.005102
612.000000	0.005140
611.000000	0.005134
610.000000	0.005106
609.000000	0.005115
608.000000	0.005177
607.000000	0.005247
606.000000	0.005306
605.000000	0.005367
604.000000	0.005393
603.000000	0.005287
602.000000	0.005019
601.000000	0.004677
600.000000	0.004385
599.000000	0.004192
598.000000	0.004072
597.000000	0.003985
596.000000	0.003890
595.000000	0.003752
594.000000	0.003577
593.000000	0.003420
592.000000	0.003314
591.000000	0.003240
590.000000	0.003166
589.000000	0.003098
588.000000	0.003060
587.000000	0.003056
586.000000	0.003090
585.000000	0.003158
584.000000	0.003226
583.000000	0.003241
582.000000	0.003196
581.000000	0.003148
580.000000	0.003130
579.000000	0.003096
578.000000	0.002994
577.000000	0.002848
576.000000	0.002722
575.000000	0.002639
574.000000	0.002568
573.000000	0.002476
572.000000	0.002353
571.000000	0.002210
570.000000	0.002069
569.000000	0.001955
568.000000	0.001884
567.000000	0.001871
566.000000	0.001939
565.000000	0.002080
564.000000	0.002217
563.000000	0.002255
562.000000	0.002192
561.000000	0.002117
560.000000	0.002098
559.000000	0.002121
558.000000	0.002152
557.000000	0.002181
556.000000	0.002176
555.000000	0.002091
554.000000	0.001959
553.000000	0.001917
552.000000	0.002058
551.000000	0.002316
550.000000	0.002531
549.000000	0.002614
548.000000	0.002573
547.000000	0.002447
546.000000	0.002283
545.000000	0.002149
544.000000	0.002086
543.000000	0.002078
542.000000	0.002094
541.000000	0.002141
540.000000	0.002225
539.000000	0.002308
538.000000	0.002358
537.000000	0.002398
536.000000	0.002453
535.000000	0.002490
534.000000	0.002483
533.000000	0.002487
532.000000	0.002578
531.000000	0.002722
530.000000	0.002791
529.000000	0.002710
528.000000	0.002529
527.000000	0.002333
526.000000	0.002169
525.000000	0.002057
524.000000	0.002019
523.000000	0.002072
522.000000	0.002203
521.000000	0.002364
520.000000	0.002474
519.000000	0.002472
518.000000	0.002380
517.000000	0.002288
516.000000	0.002248
515.000000	0.002221
514.000000	0.002161
513.000000	0.002092
512.000000	0.002066
511.000000	0.002086
510.000000	0.002113
509.000000	0.002134
508.000000	0.002177
507.000000	0.002254
506.000000	0.002345
505.000000	0.002442
504.000000	0.002551
503.000000	0.002652
502.000000	0.002687
501.000000	0.002619
500.000000	0.002477
499.000000	0.002331
498.000000	0.002262
497.000000	0.002319
496.000000	0.002446
495.000000	0.002508
494.000000	0.002435
493.000000	0.002329
492.000000	0.002370
491.000000	0.002595
490.000000	0.002875
489.000000	0.003067
488.000000	0.003120
487.000000	0.003042
486.000000	0.002872
485.000000	0.002713
484.000000	0.002669
483.000000	0.002722
482.000000	0.002740
481.000000	0.002645
480.000000	0.002484
479.000000	0.002330
478.000000	0.002218
477.000000	0.002157
476.000000	0.002149
475.000000	0.002134
474.000000	0.002021
473.000000	0.001805
472.000000	0.001622
471.000000	0.001610
470.000000	0.001773
469.000000	0.002021
468.000000	0.002240
467.000000	0.002316
466.000000	0.002254
465.000000	0.002201
464.000000	0.002278
463.000000	0.002389
462.000000	0.002288
461.000000	0.001892
460.000000	0.001419
459.000000	0.001195
458.000000	0.001389
457.000000	0.001817
456.000000	0.002110
455.000000	0.002080
454.000000	0.001772
453.000000	0.001363
452.000000	0.001059
451.000000	0.000923
450.000000	0.000858
