PE IR       SUBTECH     SPECTRUM    ASCII       PEDS        4.00        
   -1
P12-Rouge015_1.ASC
23/06/08
15:02:40.00
23/06/08
15:48:35.00
uco
Sample 015 By uco Date Thursday, June 08 2023
450.000000
#HDR
-1
-1
#GR
cm-1
A
1.0
0.0
4000.000000
-1.000000
3551
8
0.002554
-0.002058
#DATA
4000.000000	-0.000643
3999.000000	-0.000625
3998.000000	-0.000614
3997.000000	-0.000620
3996.000000	-0.000641
3995.000000	-0.000663
3994.000000	-0.000676
3993.000000	-0.000677
3992.000000	-0.000668
3991.000000	-0.000655
3990.000000	-0.000634
3989.000000	-0.000603
3988.000000	-0.000567
3987.000000	-0.000539
3986.000000	-0.000532
3985.000000	-0.000548
3984.000000	-0.000577
3983.000000	-0.000599
3982.000000	-0.000602
3981.000000	-0.000588
3980.000000	-0.000569
3979.000000	-0.000560
3978.000000	-0.000566
3977.000000	-0.000583
3976.000000	-0.000599
3975.000000	-0.000607
3974.000000	-0.000603
3973.000000	-0.000591
3972.000000	-0.000577
3971.000000	-0.000570
3970.000000	-0.000577
3969.000000	-0.000601
3968.000000	-0.000632
3967.000000	-0.000654
3966.000000	-0.000655
3965.000000	-0.000638
3964.000000	-0.000616
3963.000000	-0.000604
3962.000000	-0.000601
3961.000000	-0.000600
3960.000000	-0.000593
3959.000000	-0.000583
3958.000000	-0.000577
3957.000000	-0.000577
3956.000000	-0.000584
3955.000000	-0.000596
3954.000000	-0.000609
3953.000000	-0.000619
3952.000000	-0.000622
3951.000000	-0.000615
3950.000000	-0.000604
3949.000000	-0.000601
3948.000000	-0.000609
3947.000000	-0.000625
3946.000000	-0.000641
3945.000000	-0.000650
3944.000000	-0.000653
3943.000000	-0.000646
3942.000000	-0.000630
3941.000000	-0.000604
3940.000000	-0.000575
3939.000000	-0.000554
3938.000000	-0.000550
3937.000000	-0.000562
3936.000000	-0.000580
3935.000000	-0.000591
3934.000000	-0.000591
3933.000000	-0.000590
3932.000000	-0.000594
3931.000000	-0.000602
3930.000000	-0.000606
3929.000000	-0.000599
3928.000000	-0.000581
3927.000000	-0.000559
3926.000000	-0.000540
3925.000000	-0.000535
3924.000000	-0.000545
3923.000000	-0.000561
3922.000000	-0.000574
3921.000000	-0.000577
3920.000000	-0.000575
3919.000000	-0.000575
3918.000000	-0.000578
3917.000000	-0.000583
3916.000000	-0.000586
3915.000000	-0.000587
3914.000000	-0.000587
3913.000000	-0.000587
3912.000000	-0.000587
3911.000000	-0.000587
3910.000000	-0.000589
3909.000000	-0.000597
3908.000000	-0.000612
3907.000000	-0.000631
3906.000000	-0.000646
3905.000000	-0.000653
3904.000000	-0.000654
3903.000000	-0.000654
3902.000000	-0.000650
3901.000000	-0.000634
3900.000000	-0.000607
3899.000000	-0.000582
3898.000000	-0.000571
3897.000000	-0.000574
3896.000000	-0.000581
3895.000000	-0.000582
3894.000000	-0.000570
3893.000000	-0.000550
3892.000000	-0.000537
3891.000000	-0.000545
3890.000000	-0.000573
3889.000000	-0.000608
3888.000000	-0.000630
3887.000000	-0.000624
3886.000000	-0.000601
3885.000000	-0.000586
3884.000000	-0.000592
3883.000000	-0.000613
3882.000000	-0.000633
3881.000000	-0.000638
3880.000000	-0.000628
3879.000000	-0.000607
3878.000000	-0.000582
3877.000000	-0.000564
3876.000000	-0.000559
3875.000000	-0.000576
3874.000000	-0.000613
3873.000000	-0.000651
3872.000000	-0.000661
3871.000000	-0.000639
3870.000000	-0.000610
3869.000000	-0.000599
3868.000000	-0.000605
3867.000000	-0.000612
3866.000000	-0.000611
3865.000000	-0.000607
3864.000000	-0.000605
3863.000000	-0.000600
3862.000000	-0.000586
3861.000000	-0.000564
3860.000000	-0.000541
3859.000000	-0.000523
3858.000000	-0.000518
3857.000000	-0.000534
3856.000000	-0.000552
3855.000000	-0.000545
3854.000000	-0.000530
3853.000000	-0.000538
3852.000000	-0.000565
3851.000000	-0.000587
3850.000000	-0.000596
3849.000000	-0.000595
3848.000000	-0.000589
3847.000000	-0.000575
3846.000000	-0.000556
3845.000000	-0.000536
3844.000000	-0.000529
3843.000000	-0.000538
3842.000000	-0.000558
3841.000000	-0.000575
3840.000000	-0.000579
3839.000000	-0.000566
3838.000000	-0.000540
3837.000000	-0.000515
3836.000000	-0.000502
3835.000000	-0.000507
3834.000000	-0.000523
3833.000000	-0.000545
3832.000000	-0.000565
3831.000000	-0.000581
3830.000000	-0.000588
3829.000000	-0.000586
3828.000000	-0.000578
3827.000000	-0.000574
3826.000000	-0.000582
3825.000000	-0.000604
3824.000000	-0.000624
3823.000000	-0.000623
3822.000000	-0.000606
3821.000000	-0.000593
3820.000000	-0.000588
3819.000000	-0.000580
3818.000000	-0.000563
3817.000000	-0.000536
3816.000000	-0.000513
3815.000000	-0.000499
3814.000000	-0.000491
3813.000000	-0.000484
3812.000000	-0.000483
3811.000000	-0.000489
3810.000000	-0.000501
3809.000000	-0.000511
3808.000000	-0.000524
3807.000000	-0.000548
3806.000000	-0.000579
3805.000000	-0.000595
3804.000000	-0.000587
3803.000000	-0.000571
3802.000000	-0.000578
3801.000000	-0.000620
3800.000000	-0.000666
3799.000000	-0.000681
3798.000000	-0.000656
3797.000000	-0.000610
3796.000000	-0.000570
3795.000000	-0.000552
3794.000000	-0.000552
3793.000000	-0.000558
3792.000000	-0.000562
3791.000000	-0.000565
3790.000000	-0.000569
3789.000000	-0.000571
3788.000000	-0.000566
3787.000000	-0.000553
3786.000000	-0.000543
3785.000000	-0.000547
3784.000000	-0.000567
3783.000000	-0.000587
3782.000000	-0.000587
3781.000000	-0.000561
3780.000000	-0.000524
3779.000000	-0.000502
3778.000000	-0.000503
3777.000000	-0.000521
3776.000000	-0.000541
3775.000000	-0.000554
3774.000000	-0.000560
3773.000000	-0.000559
3772.000000	-0.000556
3771.000000	-0.000562
3770.000000	-0.000588
3769.000000	-0.000627
3768.000000	-0.000659
3767.000000	-0.000665
3766.000000	-0.000642
3765.000000	-0.000606
3764.000000	-0.000578
3763.000000	-0.000566
3762.000000	-0.000565
3761.000000	-0.000565
3760.000000	-0.000562
3759.000000	-0.000555
3758.000000	-0.000541
3757.000000	-0.000525
3756.000000	-0.000514
3755.000000	-0.000510
3754.000000	-0.000506
3753.000000	-0.000494
3752.000000	-0.000481
3751.000000	-0.000485
3750.000000	-0.000509
3749.000000	-0.000538
3748.000000	-0.000556
3747.000000	-0.000556
3746.000000	-0.000538
3745.000000	-0.000532
3744.000000	-0.000574
3743.000000	-0.000634
3742.000000	-0.000663
3741.000000	-0.000654
3740.000000	-0.000633
3739.000000	-0.000623
3738.000000	-0.000631
3737.000000	-0.000649
3736.000000	-0.000668
3735.000000	-0.000672
3734.000000	-0.000651
3733.000000	-0.000617
3732.000000	-0.000599
3731.000000	-0.000608
3730.000000	-0.000633
3729.000000	-0.000651
3728.000000	-0.000643
3727.000000	-0.000607
3726.000000	-0.000559
3725.000000	-0.000521
3724.000000	-0.000509
3723.000000	-0.000525
3722.000000	-0.000557
3721.000000	-0.000589
3720.000000	-0.000609
3719.000000	-0.000614
3718.000000	-0.000614
3717.000000	-0.000620
3716.000000	-0.000639
3715.000000	-0.000665
3714.000000	-0.000679
3713.000000	-0.000667
3712.000000	-0.000634
3711.000000	-0.000602
3710.000000	-0.000592
3709.000000	-0.000600
3708.000000	-0.000613
3707.000000	-0.000619
3706.000000	-0.000615
3705.000000	-0.000601
3704.000000	-0.000582
3703.000000	-0.000566
3702.000000	-0.000565
3701.000000	-0.000576
3700.000000	-0.000587
3699.000000	-0.000586
3698.000000	-0.000568
3697.000000	-0.000545
3696.000000	-0.000533
3695.000000	-0.000540
3694.000000	-0.000556
3693.000000	-0.000567
3692.000000	-0.000566
3691.000000	-0.000555
3690.000000	-0.000539
3689.000000	-0.000521
3688.000000	-0.000516
3687.000000	-0.000536
3686.000000	-0.000575
3685.000000	-0.000611
3684.000000	-0.000628
3683.000000	-0.000624
3682.000000	-0.000607
3681.000000	-0.000588
3680.000000	-0.000575
3679.000000	-0.000567
3678.000000	-0.000557
3677.000000	-0.000546
3676.000000	-0.000557
3675.000000	-0.000597
3674.000000	-0.000639
3673.000000	-0.000664
3672.000000	-0.000667
3671.000000	-0.000650
3670.000000	-0.000621
3669.000000	-0.000587
3668.000000	-0.000559
3667.000000	-0.000547
3666.000000	-0.000553
3665.000000	-0.000564
3664.000000	-0.000564
3663.000000	-0.000548
3662.000000	-0.000531
3661.000000	-0.000531
3660.000000	-0.000556
3659.000000	-0.000590
3658.000000	-0.000615
3657.000000	-0.000626
3656.000000	-0.000634
3655.000000	-0.000652
3654.000000	-0.000673
3653.000000	-0.000682
3652.000000	-0.000660
3651.000000	-0.000617
3650.000000	-0.000581
3649.000000	-0.000569
3648.000000	-0.000565
3647.000000	-0.000562
3646.000000	-0.000567
3645.000000	-0.000587
3644.000000	-0.000613
3643.000000	-0.000637
3642.000000	-0.000653
3641.000000	-0.000664
3640.000000	-0.000671
3639.000000	-0.000666
3638.000000	-0.000646
3637.000000	-0.000616
3636.000000	-0.000586
3635.000000	-0.000567
3634.000000	-0.000562
3633.000000	-0.000574
3632.000000	-0.000596
3631.000000	-0.000610
3630.000000	-0.000610
3629.000000	-0.000598
3628.000000	-0.000574
3627.000000	-0.000538
3626.000000	-0.000509
3625.000000	-0.000499
3624.000000	-0.000512
3623.000000	-0.000537
3622.000000	-0.000565
3621.000000	-0.000591
3620.000000	-0.000616
3619.000000	-0.000636
3618.000000	-0.000642
3617.000000	-0.000635
3616.000000	-0.000623
3615.000000	-0.000607
3614.000000	-0.000586
3613.000000	-0.000561
3612.000000	-0.000540
3611.000000	-0.000531
3610.000000	-0.000531
3609.000000	-0.000535
3608.000000	-0.000540
3607.000000	-0.000541
3606.000000	-0.000536
3605.000000	-0.000523
3604.000000	-0.000506
3603.000000	-0.000495
3602.000000	-0.000496
3601.000000	-0.000507
3600.000000	-0.000519
3599.000000	-0.000526
3598.000000	-0.000536
3597.000000	-0.000553
3596.000000	-0.000571
3595.000000	-0.000575
3594.000000	-0.000558
3593.000000	-0.000529
3592.000000	-0.000506
3591.000000	-0.000499
3590.000000	-0.000506
3589.000000	-0.000524
3588.000000	-0.000548
3587.000000	-0.000561
3586.000000	-0.000548
3585.000000	-0.000514
3584.000000	-0.000477
3583.000000	-0.000451
3582.000000	-0.000447
3581.000000	-0.000464
3580.000000	-0.000497
3579.000000	-0.000533
3578.000000	-0.000564
3577.000000	-0.000583
3576.000000	-0.000586
3575.000000	-0.000572
3574.000000	-0.000546
3573.000000	-0.000519
3572.000000	-0.000499
3571.000000	-0.000484
3570.000000	-0.000460
3569.000000	-0.000427
3568.000000	-0.000404
3567.000000	-0.000406
3566.000000	-0.000423
3565.000000	-0.000432
3564.000000	-0.000426
3563.000000	-0.000412
3562.000000	-0.000401
3561.000000	-0.000397
3560.000000	-0.000400
3559.000000	-0.000413
3558.000000	-0.000434
3557.000000	-0.000463
3556.000000	-0.000491
3555.000000	-0.000504
3554.000000	-0.000492
3553.000000	-0.000461
3552.000000	-0.000432
3551.000000	-0.000422
3550.000000	-0.000432
3549.000000	-0.000447
3548.000000	-0.000450
3547.000000	-0.000441
3546.000000	-0.000433
3545.000000	-0.000438
3544.000000	-0.000450
3543.000000	-0.000451
3542.000000	-0.000433
3541.000000	-0.000401
3540.000000	-0.000370
3539.000000	-0.000351
3538.000000	-0.000343
3537.000000	-0.000341
3536.000000	-0.000348
3535.000000	-0.000363
3534.000000	-0.000381
3533.000000	-0.000392
3532.000000	-0.000396
3531.000000	-0.000400
3530.000000	-0.000407
3529.000000	-0.000410
3528.000000	-0.000396
3527.000000	-0.000370
3526.000000	-0.000345
3525.000000	-0.000328
3524.000000	-0.000318
3523.000000	-0.000310
3522.000000	-0.000311
3521.000000	-0.000327
3520.000000	-0.000353
3519.000000	-0.000374
3518.000000	-0.000378
3517.000000	-0.000365
3516.000000	-0.000345
3515.000000	-0.000327
3514.000000	-0.000319
3513.000000	-0.000318
3512.000000	-0.000322
3511.000000	-0.000324
3510.000000	-0.000323
3509.000000	-0.000315
3508.000000	-0.000299
3507.000000	-0.000274
3506.000000	-0.000251
3505.000000	-0.000240
3504.000000	-0.000248
3503.000000	-0.000273
3502.000000	-0.000305
3501.000000	-0.000333
3500.000000	-0.000352
3499.000000	-0.000359
3498.000000	-0.000358
3497.000000	-0.000355
3496.000000	-0.000355
3495.000000	-0.000355
3494.000000	-0.000354
3493.000000	-0.000347
3492.000000	-0.000334
3491.000000	-0.000319
3490.000000	-0.000307
3489.000000	-0.000303
3488.000000	-0.000305
3487.000000	-0.000304
3486.000000	-0.000298
3485.000000	-0.000290
3484.000000	-0.000283
3483.000000	-0.000282
3482.000000	-0.000287
3481.000000	-0.000300
3480.000000	-0.000315
3479.000000	-0.000322
3478.000000	-0.000316
3477.000000	-0.000307
3476.000000	-0.000307
3475.000000	-0.000319
3474.000000	-0.000328
3473.000000	-0.000327
3472.000000	-0.000320
3471.000000	-0.000322
3470.000000	-0.000340
3469.000000	-0.000367
3468.000000	-0.000389
3467.000000	-0.000397
3466.000000	-0.000388
3465.000000	-0.000364
3464.000000	-0.000332
3463.000000	-0.000301
3462.000000	-0.000286
3461.000000	-0.000295
3460.000000	-0.000316
3459.000000	-0.000327
3458.000000	-0.000311
3457.000000	-0.000271
3456.000000	-0.000230
3455.000000	-0.000205
3454.000000	-0.000201
3453.000000	-0.000212
3452.000000	-0.000227
3451.000000	-0.000238
3450.000000	-0.000243
3449.000000	-0.000244
3448.000000	-0.000248
3447.000000	-0.000256
3446.000000	-0.000258
3445.000000	-0.000245
3444.000000	-0.000224
3443.000000	-0.000209
3442.000000	-0.000208
3441.000000	-0.000216
3440.000000	-0.000222
3439.000000	-0.000222
3438.000000	-0.000220
3437.000000	-0.000220
3436.000000	-0.000219
3435.000000	-0.000215
3434.000000	-0.000209
3433.000000	-0.000209
3432.000000	-0.000217
3431.000000	-0.000229
3430.000000	-0.000237
3429.000000	-0.000239
3428.000000	-0.000240
3427.000000	-0.000244
3426.000000	-0.000248
3425.000000	-0.000246
3424.000000	-0.000240
3423.000000	-0.000239
3422.000000	-0.000247
3421.000000	-0.000258
3420.000000	-0.000260
3419.000000	-0.000250
3418.000000	-0.000232
3417.000000	-0.000215
3416.000000	-0.000203
3415.000000	-0.000198
3414.000000	-0.000201
3413.000000	-0.000213
3412.000000	-0.000224
3411.000000	-0.000224
3410.000000	-0.000210
3409.000000	-0.000193
3408.000000	-0.000184
3407.000000	-0.000185
3406.000000	-0.000189
3405.000000	-0.000192
3404.000000	-0.000194
3403.000000	-0.000198
3402.000000	-0.000201
3401.000000	-0.000200
3400.000000	-0.000198
3399.000000	-0.000203
3398.000000	-0.000217
3397.000000	-0.000231
3396.000000	-0.000235
3395.000000	-0.000224
3394.000000	-0.000212
3393.000000	-0.000214
3392.000000	-0.000236
3391.000000	-0.000266
3390.000000	-0.000291
3389.000000	-0.000303
3388.000000	-0.000303
3387.000000	-0.000293
3386.000000	-0.000269
3385.000000	-0.000232
3384.000000	-0.000187
3383.000000	-0.000148
3382.000000	-0.000126
3381.000000	-0.000128
3380.000000	-0.000147
3379.000000	-0.000171
3378.000000	-0.000193
3377.000000	-0.000205
3376.000000	-0.000205
3375.000000	-0.000189
3374.000000	-0.000161
3373.000000	-0.000133
3372.000000	-0.000120
3371.000000	-0.000124
3370.000000	-0.000134
3369.000000	-0.000139
3368.000000	-0.000135
3367.000000	-0.000128
3366.000000	-0.000123
3365.000000	-0.000122
3364.000000	-0.000124
3363.000000	-0.000129
3362.000000	-0.000137
3361.000000	-0.000147
3360.000000	-0.000156
3359.000000	-0.000157
3358.000000	-0.000148
3357.000000	-0.000134
3356.000000	-0.000127
3355.000000	-0.000128
3354.000000	-0.000129
3353.000000	-0.000120
3352.000000	-0.000108
3351.000000	-0.000105
3350.000000	-0.000118
3349.000000	-0.000145
3348.000000	-0.000178
3347.000000	-0.000206
3346.000000	-0.000219
3345.000000	-0.000215
3344.000000	-0.000202
3343.000000	-0.000192
3342.000000	-0.000186
3341.000000	-0.000182
3340.000000	-0.000173
3339.000000	-0.000162
3338.000000	-0.000151
3337.000000	-0.000139
3336.000000	-0.000127
3335.000000	-0.000118
3334.000000	-0.000117
3333.000000	-0.000121
3332.000000	-0.000128
3331.000000	-0.000137
3330.000000	-0.000145
3329.000000	-0.000145
3328.000000	-0.000135
3327.000000	-0.000118
3326.000000	-0.000105
3325.000000	-0.000105
3324.000000	-0.000116
3323.000000	-0.000135
3322.000000	-0.000156
3321.000000	-0.000176
3320.000000	-0.000193
3319.000000	-0.000198
3318.000000	-0.000183
3317.000000	-0.000143
3316.000000	-0.000093
3315.000000	-0.000057
3314.000000	-0.000052
3313.000000	-0.000073
3312.000000	-0.000100
3311.000000	-0.000110
3310.000000	-0.000099
3309.000000	-0.000076
3308.000000	-0.000057
3307.000000	-0.000051
3306.000000	-0.000056
3305.000000	-0.000059
3304.000000	-0.000054
3303.000000	-0.000047
3302.000000	-0.000052
3301.000000	-0.000071
3300.000000	-0.000094
3299.000000	-0.000106
3298.000000	-0.000101
3297.000000	-0.000084
3296.000000	-0.000063
3295.000000	-0.000044
3294.000000	-0.000031
3293.000000	-0.000027
3292.000000	-0.000032
3291.000000	-0.000038
3290.000000	-0.000043
3289.000000	-0.000045
3288.000000	-0.000053
3287.000000	-0.000068
3286.000000	-0.000089
3285.000000	-0.000111
3284.000000	-0.000127
3283.000000	-0.000132
3282.000000	-0.000122
3281.000000	-0.000106
3280.000000	-0.000097
3279.000000	-0.000106
3278.000000	-0.000130
3277.000000	-0.000153
3276.000000	-0.000161
3275.000000	-0.000153
3274.000000	-0.000138
3273.000000	-0.000126
3272.000000	-0.000120
3271.000000	-0.000118
3270.000000	-0.000111
3269.000000	-0.000095
3268.000000	-0.000071
3267.000000	-0.000046
3266.000000	-0.000030
3265.000000	-0.000024
3264.000000	-0.000023
3263.000000	-0.000019
3262.000000	-0.000012
3261.000000	-0.000012
3260.000000	-0.000022
3259.000000	-0.000037
3258.000000	-0.000050
3257.000000	-0.000057
3256.000000	-0.000062
3255.000000	-0.000071
3254.000000	-0.000081
3253.000000	-0.000086
3252.000000	-0.000083
3251.000000	-0.000078
3250.000000	-0.000076
3249.000000	-0.000076
3248.000000	-0.000076
3247.000000	-0.000075
3246.000000	-0.000076
3245.000000	-0.000079
3244.000000	-0.000081
3243.000000	-0.000082
3242.000000	-0.000089
3241.000000	-0.000103
3240.000000	-0.000124
3239.000000	-0.000146
3238.000000	-0.000164
3237.000000	-0.000173
3236.000000	-0.000174
3235.000000	-0.000166
3234.000000	-0.000154
3233.000000	-0.000141
3232.000000	-0.000127
3231.000000	-0.000117
3230.000000	-0.000114
3229.000000	-0.000117
3228.000000	-0.000122
3227.000000	-0.000122
3226.000000	-0.000116
3225.000000	-0.000109
3224.000000	-0.000102
3223.000000	-0.000096
3222.000000	-0.000091
3221.000000	-0.000087
3220.000000	-0.000086
3219.000000	-0.000089
3218.000000	-0.000099
3217.000000	-0.000114
3216.000000	-0.000132
3215.000000	-0.000141
3214.000000	-0.000134
3213.000000	-0.000113
3212.000000	-0.000089
3211.000000	-0.000076
3210.000000	-0.000080
3209.000000	-0.000093
3208.000000	-0.000102
3207.000000	-0.000099
3206.000000	-0.000086
3205.000000	-0.000073
3204.000000	-0.000065
3203.000000	-0.000062
3202.000000	-0.000060
3201.000000	-0.000058
3200.000000	-0.000063
3199.000000	-0.000078
3198.000000	-0.000095
3197.000000	-0.000103
3196.000000	-0.000100
3195.000000	-0.000093
3194.000000	-0.000092
3193.000000	-0.000098
3192.000000	-0.000100
3191.000000	-0.000092
3190.000000	-0.000082
3189.000000	-0.000077
3188.000000	-0.000079
3187.000000	-0.000084
3186.000000	-0.000091
3185.000000	-0.000104
3184.000000	-0.000124
3183.000000	-0.000142
3182.000000	-0.000155
3181.000000	-0.000161
3180.000000	-0.000167
3179.000000	-0.000175
3178.000000	-0.000185
3177.000000	-0.000194
3176.000000	-0.000195
3175.000000	-0.000189
3174.000000	-0.000183
3173.000000	-0.000182
3172.000000	-0.000183
3171.000000	-0.000176
3170.000000	-0.000160
3169.000000	-0.000141
3168.000000	-0.000131
3167.000000	-0.000134
3166.000000	-0.000145
3165.000000	-0.000162
3164.000000	-0.000185
3163.000000	-0.000209
3162.000000	-0.000228
3161.000000	-0.000233
3160.000000	-0.000220
3159.000000	-0.000192
3158.000000	-0.000162
3157.000000	-0.000143
3156.000000	-0.000135
3155.000000	-0.000133
3154.000000	-0.000129
3153.000000	-0.000129
3152.000000	-0.000141
3151.000000	-0.000163
3150.000000	-0.000180
3149.000000	-0.000179
3148.000000	-0.000160
3147.000000	-0.000133
3146.000000	-0.000112
3145.000000	-0.000107
3144.000000	-0.000114
3143.000000	-0.000123
3142.000000	-0.000123
3141.000000	-0.000114
3140.000000	-0.000107
3139.000000	-0.000108
3138.000000	-0.000116
3137.000000	-0.000124
3136.000000	-0.000135
3135.000000	-0.000154
3134.000000	-0.000178
3133.000000	-0.000195
3132.000000	-0.000196
3131.000000	-0.000180
3130.000000	-0.000156
3129.000000	-0.000133
3128.000000	-0.000114
3127.000000	-0.000099
3126.000000	-0.000087
3125.000000	-0.000077
3124.000000	-0.000070
3123.000000	-0.000066
3122.000000	-0.000068
3121.000000	-0.000079
3120.000000	-0.000096
3119.000000	-0.000115
3118.000000	-0.000133
3117.000000	-0.000150
3116.000000	-0.000163
3115.000000	-0.000172
3114.000000	-0.000176
3113.000000	-0.000175
3112.000000	-0.000169
3111.000000	-0.000161
3110.000000	-0.000152
3109.000000	-0.000146
3108.000000	-0.000148
3107.000000	-0.000157
3106.000000	-0.000169
3105.000000	-0.000175
3104.000000	-0.000169
3103.000000	-0.000155
3102.000000	-0.000140
3101.000000	-0.000134
3100.000000	-0.000142
3099.000000	-0.000163
3098.000000	-0.000185
3097.000000	-0.000196
3096.000000	-0.000186
3095.000000	-0.000158
3094.000000	-0.000126
3093.000000	-0.000100
3092.000000	-0.000083
3091.000000	-0.000077
3090.000000	-0.000085
3089.000000	-0.000104
3088.000000	-0.000123
3087.000000	-0.000129
3086.000000	-0.000119
3085.000000	-0.000105
3084.000000	-0.000104
3083.000000	-0.000121
3082.000000	-0.000145
3081.000000	-0.000162
3080.000000	-0.000165
3079.000000	-0.000156
3078.000000	-0.000146
3077.000000	-0.000143
3076.000000	-0.000152
3075.000000	-0.000170
3074.000000	-0.000189
3073.000000	-0.000198
3072.000000	-0.000194
3071.000000	-0.000181
3070.000000	-0.000169
3069.000000	-0.000164
3068.000000	-0.000166
3067.000000	-0.000167
3066.000000	-0.000163
3065.000000	-0.000156
3064.000000	-0.000146
3063.000000	-0.000133
3062.000000	-0.000119
3061.000000	-0.000108
3060.000000	-0.000108
3059.000000	-0.000117
3058.000000	-0.000128
3057.000000	-0.000133
3056.000000	-0.000129
3055.000000	-0.000118
3054.000000	-0.000111
3053.000000	-0.000121
3052.000000	-0.000150
3051.000000	-0.000180
3050.000000	-0.000193
3049.000000	-0.000181
3048.000000	-0.000159
3047.000000	-0.000141
3046.000000	-0.000130
3045.000000	-0.000123
3044.000000	-0.000118
3043.000000	-0.000118
3042.000000	-0.000121
3041.000000	-0.000124
3040.000000	-0.000124
3039.000000	-0.000126
3038.000000	-0.000134
3037.000000	-0.000146
3036.000000	-0.000151
3035.000000	-0.000138
3034.000000	-0.000109
3033.000000	-0.000078
3032.000000	-0.000061
3031.000000	-0.000065
3030.000000	-0.000078
3029.000000	-0.000089
3028.000000	-0.000091
3027.000000	-0.000085
3026.000000	-0.000069
3025.000000	-0.000049
3024.000000	-0.000033
3023.000000	-0.000027
3022.000000	-0.000030
3021.000000	-0.000033
3020.000000	-0.000032
3019.000000	-0.000030
3018.000000	-0.000035
3017.000000	-0.000046
3016.000000	-0.000056
3015.000000	-0.000061
3014.000000	-0.000063
3013.000000	-0.000071
3012.000000	-0.000088
3011.000000	-0.000107
3010.000000	-0.000113
3009.000000	-0.000097
3008.000000	-0.000068
3007.000000	-0.000039
3006.000000	-0.000022
3005.000000	-0.000016
3004.000000	-0.000012
3003.000000	-0.000004
3002.000000	0.000007
3001.000000	0.000016
3000.000000	0.000020
2999.000000	0.000022
2998.000000	0.000026
2997.000000	0.000031
2996.000000	0.000031
2995.000000	0.000024
2994.000000	0.000017
2993.000000	0.000023
2992.000000	0.000045
2991.000000	0.000077
2990.000000	0.000111
2989.000000	0.000142
2988.000000	0.000165
2987.000000	0.000178
2986.000000	0.000183
2985.000000	0.000186
2984.000000	0.000190
2983.000000	0.000192
2982.000000	0.000189
2981.000000	0.000180
2980.000000	0.000172
2979.000000	0.000174
2978.000000	0.000192
2977.000000	0.000225
2976.000000	0.000260
2975.000000	0.000285
2974.000000	0.000296
2973.000000	0.000304
2972.000000	0.000321
2971.000000	0.000349
2970.000000	0.000387
2969.000000	0.000427
2968.000000	0.000464
2967.000000	0.000489
2966.000000	0.000505
2965.000000	0.000519
2964.000000	0.000539
2963.000000	0.000562
2962.000000	0.000583
2961.000000	0.000598
2960.000000	0.000604
2959.000000	0.000597
2958.000000	0.000579
2957.000000	0.000562
2956.000000	0.000557
2955.000000	0.000561
2954.000000	0.000562
2953.000000	0.000550
2952.000000	0.000530
2951.000000	0.000515
2950.000000	0.000510
2949.000000	0.000513
2948.000000	0.000517
2947.000000	0.000519
2946.000000	0.000524
2945.000000	0.000538
2944.000000	0.000564
2943.000000	0.000597
2942.000000	0.000626
2941.000000	0.000644
2940.000000	0.000652
2939.000000	0.000655
2938.000000	0.000660
2937.000000	0.000672
2936.000000	0.000698
2935.000000	0.000735
2934.000000	0.000771
2933.000000	0.000790
2932.000000	0.000792
2931.000000	0.000788
2930.000000	0.000792
2929.000000	0.000801
2928.000000	0.000804
2927.000000	0.000795
2926.000000	0.000782
2925.000000	0.000775
2924.000000	0.000776
2923.000000	0.000778
2922.000000	0.000771
2921.000000	0.000753
2920.000000	0.000731
2919.000000	0.000712
2918.000000	0.000703
2917.000000	0.000700
2916.000000	0.000697
2915.000000	0.000686
2914.000000	0.000665
2913.000000	0.000637
2912.000000	0.000607
2911.000000	0.000580
2910.000000	0.000555
2909.000000	0.000536
2908.000000	0.000523
2907.000000	0.000518
2906.000000	0.000513
2905.000000	0.000497
2904.000000	0.000466
2903.000000	0.000428
2902.000000	0.000395
2901.000000	0.000378
2900.000000	0.000375
2899.000000	0.000380
2898.000000	0.000384
2897.000000	0.000386
2896.000000	0.000387
2895.000000	0.000389
2894.000000	0.000389
2893.000000	0.000378
2892.000000	0.000353
2891.000000	0.000318
2890.000000	0.000288
2889.000000	0.000273
2888.000000	0.000273
2887.000000	0.000282
2886.000000	0.000291
2885.000000	0.000294
2884.000000	0.000296
2883.000000	0.000300
2882.000000	0.000313
2881.000000	0.000335
2880.000000	0.000362
2879.000000	0.000385
2878.000000	0.000393
2877.000000	0.000383
2876.000000	0.000364
2875.000000	0.000354
2874.000000	0.000365
2873.000000	0.000392
2872.000000	0.000420
2871.000000	0.000436
2870.000000	0.000439
2869.000000	0.000435
2868.000000	0.000428
2867.000000	0.000419
2866.000000	0.000411
2865.000000	0.000409
2864.000000	0.000418
2863.000000	0.000433
2862.000000	0.000453
2861.000000	0.000477
2860.000000	0.000507
2859.000000	0.000539
2858.000000	0.000563
2857.000000	0.000571
2856.000000	0.000560
2855.000000	0.000536
2854.000000	0.000508
2853.000000	0.000481
2852.000000	0.000454
2851.000000	0.000425
2850.000000	0.000391
2849.000000	0.000357
2848.000000	0.000327
2847.000000	0.000306
2846.000000	0.000294
2845.000000	0.000287
2844.000000	0.000274
2843.000000	0.000249
2842.000000	0.000210
2841.000000	0.000163
2840.000000	0.000120
2839.000000	0.000089
2838.000000	0.000069
2837.000000	0.000054
2836.000000	0.000043
2835.000000	0.000040
2834.000000	0.000048
2833.000000	0.000069
2832.000000	0.000094
2831.000000	0.000115
2830.000000	0.000124
2829.000000	0.000119
2828.000000	0.000104
2827.000000	0.000083
2826.000000	0.000064
2825.000000	0.000057
2824.000000	0.000066
2823.000000	0.000089
2822.000000	0.000117
2821.000000	0.000137
2820.000000	0.000139
2819.000000	0.000122
2818.000000	0.000089
2817.000000	0.000050
2816.000000	0.000022
2815.000000	0.000014
2814.000000	0.000023
2813.000000	0.000033
2812.000000	0.000032
2811.000000	0.000022
2810.000000	0.000010
2809.000000	0.000001
2808.000000	-0.000006
2807.000000	-0.000009
2806.000000	-0.000004
2805.000000	0.000009
2804.000000	0.000019
2803.000000	0.000015
2802.000000	-0.000002
2801.000000	-0.000014
2800.000000	-0.000009
2799.000000	0.000011
2798.000000	0.000030
2797.000000	0.000037
2796.000000	0.000032
2795.000000	0.000022
2794.000000	0.000015
2793.000000	0.000012
2792.000000	0.000011
2791.000000	0.000015
2790.000000	0.000021
2789.000000	0.000027
2788.000000	0.000030
2787.000000	0.000028
2786.000000	0.000019
2785.000000	0.000002
2784.000000	-0.000016
2783.000000	-0.000027
2782.000000	-0.000026
2781.000000	-0.000015
2780.000000	-0.000002
2779.000000	0.000007
2778.000000	0.000015
2777.000000	0.000026
2776.000000	0.000038
2775.000000	0.000045
2774.000000	0.000041
2773.000000	0.000023
2772.000000	0.000001
2771.000000	-0.000011
2770.000000	-0.000008
2769.000000	0.000006
2768.000000	0.000018
2767.000000	0.000023
2766.000000	0.000022
2765.000000	0.000017
2764.000000	0.000011
2763.000000	0.000001
2762.000000	-0.000007
2761.000000	-0.000007
2760.000000	0.000005
2759.000000	0.000028
2758.000000	0.000053
2757.000000	0.000072
2756.000000	0.000080
2755.000000	0.000079
2754.000000	0.000074
2753.000000	0.000069
2752.000000	0.000062
2751.000000	0.000051
2750.000000	0.000041
2749.000000	0.000036
2748.000000	0.000032
2747.000000	0.000022
2746.000000	0.000009
2745.000000	0.000000
2744.000000	0.000007
2743.000000	0.000026
2742.000000	0.000047
2741.000000	0.000058
2740.000000	0.000050
2739.000000	0.000027
2738.000000	0.000002
2737.000000	-0.000012
2736.000000	-0.000012
2735.000000	-0.000008
2734.000000	-0.000012
2733.000000	-0.000023
2732.000000	-0.000031
2731.000000	-0.000026
2730.000000	-0.000007
2729.000000	0.000015
2728.000000	0.000029
2727.000000	0.000028
2726.000000	0.000020
2725.000000	0.000014
2724.000000	0.000019
2723.000000	0.000032
2722.000000	0.000047
2721.000000	0.000050
2720.000000	0.000037
2719.000000	0.000012
2718.000000	-0.000009
2717.000000	-0.000010
2716.000000	0.000008
2715.000000	0.000031
2714.000000	0.000045
2713.000000	0.000048
2712.000000	0.000046
2711.000000	0.000042
2710.000000	0.000037
2709.000000	0.000031
2708.000000	0.000029
2707.000000	0.000030
2706.000000	0.000030
2705.000000	0.000025
2704.000000	0.000021
2703.000000	0.000026
2702.000000	0.000038
2701.000000	0.000051
2700.000000	0.000056
2699.000000	0.000058
2698.000000	0.000062
2697.000000	0.000069
2696.000000	0.000068
2695.000000	0.000050
2694.000000	0.000018
2693.000000	-0.000011
2692.000000	-0.000022
2691.000000	-0.000015
2690.000000	-0.000003
2689.000000	0.000007
2688.000000	0.000015
2687.000000	0.000025
2686.000000	0.000030
2685.000000	0.000025
2684.000000	0.000014
2683.000000	0.000005
2682.000000	0.000005
2681.000000	0.000008
2680.000000	0.000010
2679.000000	0.000009
2678.000000	0.000008
2677.000000	0.000014
2676.000000	0.000030
2675.000000	0.000049
2674.000000	0.000061
2673.000000	0.000055
2672.000000	0.000033
2671.000000	0.000005
2670.000000	-0.000015
2669.000000	-0.000024
2668.000000	-0.000020
2667.000000	-0.000005
2666.000000	0.000022
2665.000000	0.000055
2664.000000	0.000089
2663.000000	0.000116
2662.000000	0.000131
2661.000000	0.000134
2660.000000	0.000130
2659.000000	0.000125
2658.000000	0.000123
2657.000000	0.000124
2656.000000	0.000122
2655.000000	0.000119
2654.000000	0.000118
2653.000000	0.000121
2652.000000	0.000123
2651.000000	0.000120
2650.000000	0.000113
2649.000000	0.000112
2648.000000	0.000121
2647.000000	0.000132
2646.000000	0.000133
2645.000000	0.000119
2644.000000	0.000096
2643.000000	0.000076
2642.000000	0.000063
2641.000000	0.000057
2640.000000	0.000054
2639.000000	0.000053
2638.000000	0.000056
2637.000000	0.000061
2636.000000	0.000066
2635.000000	0.000069
2634.000000	0.000068
2633.000000	0.000061
2632.000000	0.000046
2631.000000	0.000029
2630.000000	0.000022
2629.000000	0.000029
2628.000000	0.000045
2627.000000	0.000058
2626.000000	0.000058
2625.000000	0.000048
2624.000000	0.000031
2623.000000	0.000015
2622.000000	0.000000
2621.000000	-0.000008
2620.000000	-0.000007
2619.000000	0.000003
2618.000000	0.000016
2617.000000	0.000028
2616.000000	0.000037
2615.000000	0.000040
2614.000000	0.000039
2613.000000	0.000041
2612.000000	0.000056
2611.000000	0.000088
2610.000000	0.000122
2609.000000	0.000137
2608.000000	0.000123
2607.000000	0.000092
2606.000000	0.000063
2605.000000	0.000048
2604.000000	0.000042
2603.000000	0.000035
2602.000000	0.000021
2601.000000	0.000001
2600.000000	-0.000014
2599.000000	-0.000021
2598.000000	-0.000024
2597.000000	-0.000033
2596.000000	-0.000054
2595.000000	-0.000079
2594.000000	-0.000099
2593.000000	-0.000110
2592.000000	-0.000113
2591.000000	-0.000110
2590.000000	-0.000103
2589.000000	-0.000092
2588.000000	-0.000076
2587.000000	-0.000058
2586.000000	-0.000046
2585.000000	-0.000044
2584.000000	-0.000049
2583.000000	-0.000049
2582.000000	-0.000039
2581.000000	-0.000031
2580.000000	-0.000040
2579.000000	-0.000067
2578.000000	-0.000095
2577.000000	-0.000104
2576.000000	-0.000091
2575.000000	-0.000066
2574.000000	-0.000044
2573.000000	-0.000037
2572.000000	-0.000046
2571.000000	-0.000067
2570.000000	-0.000093
2569.000000	-0.000115
2568.000000	-0.000123
2567.000000	-0.000118
2566.000000	-0.000108
2565.000000	-0.000106
2564.000000	-0.000116
2563.000000	-0.000129
2562.000000	-0.000135
2561.000000	-0.000135
2560.000000	-0.000137
2559.000000	-0.000145
2558.000000	-0.000152
2557.000000	-0.000150
2556.000000	-0.000141
2555.000000	-0.000134
2554.000000	-0.000130
2553.000000	-0.000128
2552.000000	-0.000135
2551.000000	-0.000154
2550.000000	-0.000174
2549.000000	-0.000169
2548.000000	-0.000122
2547.000000	-0.000045
2546.000000	0.000029
2545.000000	0.000066
2544.000000	0.000059
2543.000000	0.000031
2542.000000	0.000012
2541.000000	0.000014
2540.000000	0.000031
2539.000000	0.000047
2538.000000	0.000051
2537.000000	0.000037
2536.000000	0.000006
2535.000000	-0.000031
2534.000000	-0.000060
2533.000000	-0.000071
2532.000000	-0.000071
2531.000000	-0.000068
2530.000000	-0.000065
2529.000000	-0.000058
2528.000000	-0.000052
2527.000000	-0.000060
2526.000000	-0.000089
2525.000000	-0.000132
2524.000000	-0.000166
2523.000000	-0.000173
2522.000000	-0.000147
2521.000000	-0.000098
2520.000000	-0.000051
2519.000000	-0.000025
2518.000000	-0.000025
2517.000000	-0.000039
2516.000000	-0.000050
2515.000000	-0.000043
2514.000000	-0.000014
2513.000000	0.000029
2512.000000	0.000066
2511.000000	0.000081
2510.000000	0.000071
2509.000000	0.000045
2508.000000	0.000012
2507.000000	-0.000028
2506.000000	-0.000073
2505.000000	-0.000120
2504.000000	-0.000163
2503.000000	-0.000197
2502.000000	-0.000204
2501.000000	-0.000175
2500.000000	-0.000117
2499.000000	-0.000061
2498.000000	-0.000033
2497.000000	-0.000030
2496.000000	-0.000031
2495.000000	-0.000023
2494.000000	-0.000015
2493.000000	-0.000019
2492.000000	-0.000036
2491.000000	-0.000058
2490.000000	-0.000084
2489.000000	-0.000109
2488.000000	-0.000130
2487.000000	-0.000136
2486.000000	-0.000127
2485.000000	-0.000112
2484.000000	-0.000108
2483.000000	-0.000124
2482.000000	-0.000153
2481.000000	-0.000178
2480.000000	-0.000177
2479.000000	-0.000148
2478.000000	-0.000110
2477.000000	-0.000092
2476.000000	-0.000112
2475.000000	-0.000159
2474.000000	-0.000202
2473.000000	-0.000208
2472.000000	-0.000173
2471.000000	-0.000121
2470.000000	-0.000085
2469.000000	-0.000079
2468.000000	-0.000096
2467.000000	-0.000124
2466.000000	-0.000152
2465.000000	-0.000172
2464.000000	-0.000177
2463.000000	-0.000166
2462.000000	-0.000152
2461.000000	-0.000148
2460.000000	-0.000159
2459.000000	-0.000174
2458.000000	-0.000180
2457.000000	-0.000175
2456.000000	-0.000164
2455.000000	-0.000150
2454.000000	-0.000133
2453.000000	-0.000115
2452.000000	-0.000098
2451.000000	-0.000087
2450.000000	-0.000087
2449.000000	-0.000099
2448.000000	-0.000117
2447.000000	-0.000131
2446.000000	-0.000132
2445.000000	-0.000121
2444.000000	-0.000105
2443.000000	-0.000096
2442.000000	-0.000104
2441.000000	-0.000138
2440.000000	-0.000192
2439.000000	-0.000243
2438.000000	-0.000265
2437.000000	-0.000245
2436.000000	-0.000199
2435.000000	-0.000156
2434.000000	-0.000131
2433.000000	-0.000120
2432.000000	-0.000112
2431.000000	-0.000104
2430.000000	-0.000097
2429.000000	-0.000087
2428.000000	-0.000064
2427.000000	-0.000026
2426.000000	0.000016
2425.000000	0.000041
2424.000000	0.000040
2423.000000	0.000017
2422.000000	-0.000020
2421.000000	-0.000064
2420.000000	-0.000118
2419.000000	-0.000182
2418.000000	-0.000246
2417.000000	-0.000288
2416.000000	-0.000297
2415.000000	-0.000282
2414.000000	-0.000260
2413.000000	-0.000245
2412.000000	-0.000230
2411.000000	-0.000207
2410.000000	-0.000181
2409.000000	-0.000167
2408.000000	-0.000175
2407.000000	-0.000198
2406.000000	-0.000214
2405.000000	-0.000210
2404.000000	-0.000191
2403.000000	-0.000173
2402.000000	-0.000169
2401.000000	-0.000173
2400.000000	-0.000175
2399.000000	-0.000177
2398.000000	-0.000188
2397.000000	-0.000209
2396.000000	-0.000218
2395.000000	-0.000198
2394.000000	-0.000158
2393.000000	-0.000127
2392.000000	-0.000126
2391.000000	-0.000146
2390.000000	-0.000166
2389.000000	-0.000175
2388.000000	-0.000181
2387.000000	-0.000200
2386.000000	-0.000236
2385.000000	-0.000278
2384.000000	-0.000310
2383.000000	-0.000323
2382.000000	-0.000323
2381.000000	-0.000326
2380.000000	-0.000345
2379.000000	-0.000379
2378.000000	-0.000424
2377.000000	-0.000475
2376.000000	-0.000523
2375.000000	-0.000547
2374.000000	-0.000533
2373.000000	-0.000487
2372.000000	-0.000430
2371.000000	-0.000385
2370.000000	-0.000363
2369.000000	-0.000364
2368.000000	-0.000377
2367.000000	-0.000384
2366.000000	-0.000375
2365.000000	-0.000366
2364.000000	-0.000376
2363.000000	-0.000398
2362.000000	-0.000406
2361.000000	-0.000392
2360.000000	-0.000375
2359.000000	-0.000368
2358.000000	-0.000364
2357.000000	-0.000344
2356.000000	-0.000316
2355.000000	-0.000306
2354.000000	-0.000330
2353.000000	-0.000368
2352.000000	-0.000382
2351.000000	-0.000360
2350.000000	-0.000323
2349.000000	-0.000303
2348.000000	-0.000312
2347.000000	-0.000332
2346.000000	-0.000324
2345.000000	-0.000274
2344.000000	-0.000210
2343.000000	-0.000171
2342.000000	-0.000169
2341.000000	-0.000188
2340.000000	-0.000206
2339.000000	-0.000216
2338.000000	-0.000224
2337.000000	-0.000232
2336.000000	-0.000234
2335.000000	-0.000223
2334.000000	-0.000201
2333.000000	-0.000178
2332.000000	-0.000164
2331.000000	-0.000162
2330.000000	-0.000165
2329.000000	-0.000165
2328.000000	-0.000152
2327.000000	-0.000120
2326.000000	-0.000066
2325.000000	-0.000002
2324.000000	0.000050
2323.000000	0.000070
2322.000000	0.000061
2321.000000	0.000043
2320.000000	0.000029
2319.000000	0.000018
2318.000000	0.000004
2317.000000	-0.000017
2316.000000	-0.000046
2315.000000	-0.000074
2314.000000	-0.000083
2313.000000	-0.000062
2312.000000	-0.000025
2311.000000	-0.000000
2310.000000	0.000008
2309.000000	0.000019
2308.000000	0.000039
2307.000000	0.000045
2306.000000	0.000012
2305.000000	-0.000048
2304.000000	-0.000093
2303.000000	-0.000100
2302.000000	-0.000079
2301.000000	-0.000050
2300.000000	-0.000024
2299.000000	-0.000002
2298.000000	0.000014
2297.000000	0.000022
2296.000000	0.000028
2295.000000	0.000036
2294.000000	0.000048
2293.000000	0.000062
2292.000000	0.000083
2291.000000	0.000107
2290.000000	0.000124
2289.000000	0.000129
2288.000000	0.000134
2287.000000	0.000159
2286.000000	0.000212
2285.000000	0.000273
2284.000000	0.000312
2283.000000	0.000299
2282.000000	0.000230
2281.000000	0.000135
2280.000000	0.000058
2279.000000	0.000031
2278.000000	0.000042
2277.000000	0.000050
2276.000000	0.000014
2275.000000	-0.000065
2274.000000	-0.000149
2273.000000	-0.000198
2272.000000	-0.000204
2271.000000	-0.000185
2270.000000	-0.000152
2269.000000	-0.000099
2268.000000	-0.000032
2267.000000	0.000005
2266.000000	-0.000036
2265.000000	-0.000149
2264.000000	-0.000265
2263.000000	-0.000311
2262.000000	-0.000264
2261.000000	-0.000156
2260.000000	-0.000036
2259.000000	0.000060
2258.000000	0.000114
2257.000000	0.000127
2256.000000	0.000118
2255.000000	0.000114
2254.000000	0.000129
2253.000000	0.000156
2252.000000	0.000174
2251.000000	0.000160
2250.000000	0.000104
2249.000000	0.000021
2248.000000	-0.000047
2247.000000	-0.000064
2246.000000	-0.000037
2245.000000	-0.000015
2244.000000	-0.000041
2243.000000	-0.000106
2242.000000	-0.000160
2241.000000	-0.000159
2240.000000	-0.000107
2239.000000	-0.000042
2238.000000	-0.000002
2237.000000	0.000002
2236.000000	-0.000023
2235.000000	-0.000062
2234.000000	-0.000096
2233.000000	-0.000112
2232.000000	-0.000105
2231.000000	-0.000080
2230.000000	-0.000054
2229.000000	-0.000039
2228.000000	-0.000043
2227.000000	-0.000053
2226.000000	-0.000038
2225.000000	0.000027
2224.000000	0.000127
2223.000000	0.000226
2222.000000	0.000293
2221.000000	0.000322
2220.000000	0.000305
2219.000000	0.000234
2218.000000	0.000124
2217.000000	0.000028
2216.000000	-0.000013
2215.000000	-0.000007
2214.000000	-0.000001
2213.000000	-0.000029
2212.000000	-0.000095
2211.000000	-0.000189
2210.000000	-0.000298
2209.000000	-0.000394
2208.000000	-0.000440
2207.000000	-0.000426
2206.000000	-0.000381
2205.000000	-0.000349
2204.000000	-0.000357
2203.000000	-0.000388
2202.000000	-0.000403
2201.000000	-0.000374
2200.000000	-0.000317
2199.000000	-0.000257
2198.000000	-0.000178
2197.000000	-0.000047
2196.000000	0.000102
2195.000000	0.000160
2194.000000	0.000062
2193.000000	-0.000095
2192.000000	-0.000129
2191.000000	0.000032
2190.000000	0.000283
2189.000000	0.000466
2188.000000	0.000511
2187.000000	0.000434
2186.000000	0.000277
2185.000000	0.000090
2184.000000	-0.000062
2183.000000	-0.000154
2182.000000	-0.000230
2181.000000	-0.000342
2180.000000	-0.000465
2179.000000	-0.000519
2178.000000	-0.000462
2177.000000	-0.000329
2176.000000	-0.000194
2175.000000	-0.000123
2174.000000	-0.000140
2173.000000	-0.000214
2172.000000	-0.000267
2171.000000	-0.000221
2170.000000	-0.000060
2169.000000	0.000160
2168.000000	0.000343
2167.000000	0.000421
2166.000000	0.000400
2165.000000	0.000368
2164.000000	0.000399
2163.000000	0.000464
2162.000000	0.000449
2161.000000	0.000285
2160.000000	0.000025
2159.000000	-0.000248
2158.000000	-0.000516
2157.000000	-0.000761
2156.000000	-0.000911
2155.000000	-0.000908
2154.000000	-0.000793
2153.000000	-0.000647
2152.000000	-0.000508
2151.000000	-0.000376
2150.000000	-0.000275
2149.000000	-0.000251
2148.000000	-0.000309
2147.000000	-0.000405
2146.000000	-0.000499
2145.000000	-0.000558
2144.000000	-0.000540
2143.000000	-0.000422
2142.000000	-0.000259
2141.000000	-0.000155
2140.000000	-0.000165
2139.000000	-0.000248
2138.000000	-0.000325
2137.000000	-0.000363
2136.000000	-0.000383
2135.000000	-0.000422
2134.000000	-0.000505
2133.000000	-0.000628
2132.000000	-0.000752
2131.000000	-0.000830
2130.000000	-0.000838
2129.000000	-0.000790
2128.000000	-0.000709
2127.000000	-0.000615
2126.000000	-0.000527
2125.000000	-0.000459
2124.000000	-0.000402
2123.000000	-0.000329
2122.000000	-0.000236
2121.000000	-0.000156
2120.000000	-0.000121
2119.000000	-0.000122
2118.000000	-0.000121
2117.000000	-0.000097
2116.000000	-0.000057
2115.000000	-0.000020
2114.000000	0.000001
2113.000000	-0.000003
2112.000000	-0.000032
2111.000000	-0.000072
2110.000000	-0.000095
2109.000000	-0.000082
2108.000000	-0.000041
2107.000000	-0.000012
2106.000000	-0.000032
2105.000000	-0.000103
2104.000000	-0.000175
2103.000000	-0.000196
2102.000000	-0.000170
2101.000000	-0.000151
2100.000000	-0.000173
2099.000000	-0.000207
2098.000000	-0.000209
2097.000000	-0.000189
2096.000000	-0.000195
2095.000000	-0.000244
2094.000000	-0.000285
2093.000000	-0.000261
2092.000000	-0.000177
2091.000000	-0.000101
2090.000000	-0.000096
2089.000000	-0.000160
2088.000000	-0.000217
2087.000000	-0.000186
2086.000000	-0.000064
2085.000000	0.000070
2084.000000	0.000134
2083.000000	0.000126
2082.000000	0.000106
2081.000000	0.000115
2080.000000	0.000148
2079.000000	0.000190
2078.000000	0.000240
2077.000000	0.000281
2076.000000	0.000266
2075.000000	0.000163
2074.000000	0.000018
2073.000000	-0.000086
2072.000000	-0.000105
2071.000000	-0.000072
2070.000000	-0.000047
2069.000000	-0.000046
2068.000000	-0.000041
2067.000000	-0.000012
2066.000000	0.000017
2065.000000	-0.000005
2064.000000	-0.000087
2063.000000	-0.000181
2062.000000	-0.000231
2061.000000	-0.000233
2060.000000	-0.000223
2059.000000	-0.000211
2058.000000	-0.000167
2057.000000	-0.000069
2056.000000	0.000047
2055.000000	0.000130
2054.000000	0.000171
2053.000000	0.000202
2052.000000	0.000228
2051.000000	0.000195
2050.000000	0.000046
2049.000000	-0.000188
2048.000000	-0.000368
2047.000000	-0.000353
2046.000000	-0.000144
2045.000000	0.000101
2044.000000	0.000201
2043.000000	0.000113
2042.000000	-0.000057
2041.000000	-0.000182
2040.000000	-0.000219
2039.000000	-0.000187
2038.000000	-0.000099
2037.000000	0.000026
2036.000000	0.000103
2035.000000	0.000035
2034.000000	-0.000178
2033.000000	-0.000418
2032.000000	-0.000568
2031.000000	-0.000611
2030.000000	-0.000599
2029.000000	-0.000579
2028.000000	-0.000576
2027.000000	-0.000608
2026.000000	-0.000677
2025.000000	-0.000739
2024.000000	-0.000736
2023.000000	-0.000641
2022.000000	-0.000478
2021.000000	-0.000313
2020.000000	-0.000248
2019.000000	-0.000368
2018.000000	-0.000637
2017.000000	-0.000871
2016.000000	-0.000864
2015.000000	-0.000591
2014.000000	-0.000230
2013.000000	0.000004
2012.000000	0.000041
2011.000000	-0.000039
2010.000000	-0.000135
2009.000000	-0.000218
2008.000000	-0.000303
2007.000000	-0.000371
2006.000000	-0.000371
2005.000000	-0.000302
2004.000000	-0.000244
2003.000000	-0.000289
2002.000000	-0.000446
2001.000000	-0.000627
2000.000000	-0.000712
1999.000000	-0.000648
1998.000000	-0.000475
1997.000000	-0.000294
1996.000000	-0.000190
1995.000000	-0.000182
1994.000000	-0.000222
1993.000000	-0.000239
1992.000000	-0.000195
1991.000000	-0.000121
1990.000000	-0.000070
1989.000000	-0.000050
1988.000000	-0.000020
1987.000000	0.000046
1986.000000	0.000104
1985.000000	0.000084
1984.000000	-0.000024
1983.000000	-0.000141
1982.000000	-0.000197
1981.000000	-0.000219
1980.000000	-0.000311
1979.000000	-0.000524
1978.000000	-0.000773
1977.000000	-0.000898
1976.000000	-0.000805
1975.000000	-0.000535
1974.000000	-0.000195
1973.000000	0.000104
1972.000000	0.000280
1971.000000	0.000308
1970.000000	0.000227
1969.000000	0.000122
1968.000000	0.000061
1967.000000	0.000045
1966.000000	0.000005
1965.000000	-0.000128
1964.000000	-0.000358
1963.000000	-0.000611
1962.000000	-0.000784
1961.000000	-0.000824
1960.000000	-0.000777
1959.000000	-0.000734
1958.000000	-0.000735
1957.000000	-0.000738
1956.000000	-0.000679
1955.000000	-0.000556
1954.000000	-0.000430
1953.000000	-0.000368
1952.000000	-0.000368
1951.000000	-0.000371
1950.000000	-0.000332
1949.000000	-0.000273
1948.000000	-0.000248
1947.000000	-0.000272
1946.000000	-0.000306
1945.000000	-0.000303
1944.000000	-0.000252
1943.000000	-0.000175
1942.000000	-0.000097
1941.000000	-0.000041
1940.000000	-0.000032
1939.000000	-0.000076
1938.000000	-0.000143
1937.000000	-0.000180
1936.000000	-0.000169
1935.000000	-0.000150
1934.000000	-0.000173
1933.000000	-0.000245
1932.000000	-0.000322
1931.000000	-0.000358
1930.000000	-0.000338
1929.000000	-0.000278
1928.000000	-0.000206
1927.000000	-0.000153
1926.000000	-0.000143
1925.000000	-0.000182
1924.000000	-0.000251
1923.000000	-0.000312
1922.000000	-0.000322
1921.000000	-0.000262
1920.000000	-0.000155
1919.000000	-0.000052
1918.000000	-0.000016
1917.000000	-0.000063
1916.000000	-0.000137
1915.000000	-0.000178
1914.000000	-0.000174
1913.000000	-0.000162
1912.000000	-0.000180
1911.000000	-0.000229
1910.000000	-0.000278
1909.000000	-0.000303
1908.000000	-0.000310
1907.000000	-0.000309
1906.000000	-0.000288
1905.000000	-0.000231
1904.000000	-0.000154
1903.000000	-0.000105
1902.000000	-0.000111
1901.000000	-0.000149
1900.000000	-0.000170
1899.000000	-0.000160
1898.000000	-0.000144
1897.000000	-0.000145
1896.000000	-0.000150
1895.000000	-0.000141
1894.000000	-0.000129
1893.000000	-0.000141
1892.000000	-0.000183
1891.000000	-0.000221
1890.000000	-0.000219
1889.000000	-0.000178
1888.000000	-0.000140
1887.000000	-0.000136
1886.000000	-0.000158
1885.000000	-0.000172
1884.000000	-0.000160
1883.000000	-0.000136
1882.000000	-0.000133
1881.000000	-0.000158
1880.000000	-0.000185
1879.000000	-0.000190
1878.000000	-0.000182
1877.000000	-0.000196
1876.000000	-0.000244
1875.000000	-0.000297
1874.000000	-0.000327
1873.000000	-0.000334
1872.000000	-0.000337
1871.000000	-0.000341
1870.000000	-0.000330
1869.000000	-0.000294
1868.000000	-0.000251
1867.000000	-0.000219
1866.000000	-0.000193
1865.000000	-0.000161
1864.000000	-0.000130
1863.000000	-0.000123
1862.000000	-0.000150
1861.000000	-0.000202
1860.000000	-0.000254
1859.000000	-0.000291
1858.000000	-0.000305
1857.000000	-0.000290
1856.000000	-0.000251
1855.000000	-0.000202
1854.000000	-0.000164
1853.000000	-0.000149
1852.000000	-0.000155
1851.000000	-0.000167
1850.000000	-0.000174
1849.000000	-0.000177
1848.000000	-0.000186
1847.000000	-0.000210
1846.000000	-0.000242
1845.000000	-0.000264
1844.000000	-0.000263
1843.000000	-0.000251
1842.000000	-0.000250
1841.000000	-0.000265
1840.000000	-0.000283
1839.000000	-0.000284
1838.000000	-0.000265
1837.000000	-0.000244
1836.000000	-0.000240
1835.000000	-0.000252
1834.000000	-0.000268
1833.000000	-0.000276
1832.000000	-0.000281
1831.000000	-0.000281
1830.000000	-0.000264
1829.000000	-0.000229
1828.000000	-0.000198
1827.000000	-0.000195
1826.000000	-0.000223
1825.000000	-0.000263
1824.000000	-0.000287
1823.000000	-0.000290
1822.000000	-0.000279
1821.000000	-0.000262
1820.000000	-0.000243
1819.000000	-0.000228
1818.000000	-0.000222
1817.000000	-0.000232
1816.000000	-0.000253
1815.000000	-0.000279
1814.000000	-0.000306
1813.000000	-0.000327
1812.000000	-0.000331
1811.000000	-0.000313
1810.000000	-0.000291
1809.000000	-0.000286
1808.000000	-0.000296
1807.000000	-0.000299
1806.000000	-0.000280
1805.000000	-0.000244
1804.000000	-0.000208
1803.000000	-0.000184
1802.000000	-0.000172
1801.000000	-0.000167
1800.000000	-0.000166
1799.000000	-0.000168
1798.000000	-0.000171
1797.000000	-0.000166
1796.000000	-0.000152
1795.000000	-0.000134
1794.000000	-0.000119
1793.000000	-0.000119
1792.000000	-0.000132
1791.000000	-0.000148
1790.000000	-0.000166
1789.000000	-0.000193
1788.000000	-0.000229
1787.000000	-0.000260
1786.000000	-0.000275
1785.000000	-0.000270
1784.000000	-0.000252
1783.000000	-0.000233
1782.000000	-0.000213
1781.000000	-0.000189
1780.000000	-0.000168
1779.000000	-0.000158
1778.000000	-0.000166
1777.000000	-0.000191
1776.000000	-0.000235
1775.000000	-0.000284
1774.000000	-0.000298
1773.000000	-0.000239
1772.000000	-0.000133
1771.000000	-0.000057
1770.000000	-0.000050
1769.000000	-0.000086
1768.000000	-0.000121
1767.000000	-0.000135
1766.000000	-0.000134
1765.000000	-0.000134
1764.000000	-0.000138
1763.000000	-0.000140
1762.000000	-0.000135
1761.000000	-0.000124
1760.000000	-0.000110
1759.000000	-0.000088
1758.000000	-0.000042
1757.000000	0.000041
1756.000000	0.000149
1755.000000	0.000259
1754.000000	0.000364
1753.000000	0.000474
1752.000000	0.000599
1751.000000	0.000729
1750.000000	0.000848
1749.000000	0.000949
1748.000000	0.001034
1747.000000	0.001103
1746.000000	0.001159
1745.000000	0.001206
1744.000000	0.001251
1743.000000	0.001310
1742.000000	0.001390
1741.000000	0.001475
1740.000000	0.001526
1739.000000	0.001522
1738.000000	0.001493
1737.000000	0.001470
1736.000000	0.001453
1735.000000	0.001406
1734.000000	0.001300
1733.000000	0.001191
1732.000000	0.001129
1731.000000	0.001086
1730.000000	0.001028
1729.000000	0.000952
1728.000000	0.000864
1727.000000	0.000769
1726.000000	0.000672
1725.000000	0.000581
1724.000000	0.000504
1723.000000	0.000435
1722.000000	0.000360
1721.000000	0.000268
1720.000000	0.000166
1719.000000	0.000085
1718.000000	0.000056
1717.000000	0.000072
1716.000000	0.000093
1715.000000	0.000089
1714.000000	0.000065
1713.000000	0.000039
1712.000000	0.000024
1711.000000	0.000017
1710.000000	0.000009
1709.000000	-0.000009
1708.000000	-0.000041
1707.000000	-0.000082
1706.000000	-0.000119
1705.000000	-0.000142
1704.000000	-0.000154
1703.000000	-0.000166
1702.000000	-0.000173
1701.000000	-0.000155
1700.000000	-0.000129
1699.000000	-0.000122
1698.000000	-0.000134
1697.000000	-0.000134
1696.000000	-0.000097
1695.000000	-0.000046
1694.000000	-0.000011
1693.000000	0.000006
1692.000000	0.000020
1691.000000	0.000043
1690.000000	0.000070
1689.000000	0.000089
1688.000000	0.000087
1687.000000	0.000069
1686.000000	0.000062
1685.000000	0.000098
1684.000000	0.000157
1683.000000	0.000186
1682.000000	0.000180
1681.000000	0.000160
1680.000000	0.000140
1679.000000	0.000127
1678.000000	0.000131
1677.000000	0.000163
1676.000000	0.000212
1675.000000	0.000237
1674.000000	0.000222
1673.000000	0.000192
1672.000000	0.000176
1671.000000	0.000196
1670.000000	0.000255
1669.000000	0.000330
1668.000000	0.000383
1667.000000	0.000400
1666.000000	0.000389
1665.000000	0.000366
1664.000000	0.000348
1663.000000	0.000350
1662.000000	0.000375
1661.000000	0.000410
1660.000000	0.000427
1659.000000	0.000416
1658.000000	0.000391
1657.000000	0.000377
1656.000000	0.000381
1655.000000	0.000415
1654.000000	0.000483
1653.000000	0.000520
1652.000000	0.000508
1651.000000	0.000495
1650.000000	0.000482
1649.000000	0.000466
1648.000000	0.000458
1647.000000	0.000456
1646.000000	0.000458
1645.000000	0.000474
1644.000000	0.000506
1643.000000	0.000541
1642.000000	0.000572
1641.000000	0.000588
1640.000000	0.000580
1639.000000	0.000554
1638.000000	0.000526
1637.000000	0.000521
1636.000000	0.000538
1635.000000	0.000546
1634.000000	0.000548
1633.000000	0.000555
1632.000000	0.000569
1631.000000	0.000580
1630.000000	0.000577
1629.000000	0.000560
1628.000000	0.000543
1627.000000	0.000538
1626.000000	0.000548
1625.000000	0.000561
1624.000000	0.000559
1623.000000	0.000533
1622.000000	0.000502
1621.000000	0.000486
1620.000000	0.000483
1619.000000	0.000480
1618.000000	0.000475
1617.000000	0.000468
1616.000000	0.000453
1615.000000	0.000431
1614.000000	0.000411
1613.000000	0.000393
1612.000000	0.000372
1611.000000	0.000345
1610.000000	0.000323
1609.000000	0.000316
1608.000000	0.000313
1607.000000	0.000292
1606.000000	0.000256
1605.000000	0.000231
1604.000000	0.000225
1603.000000	0.000232
1602.000000	0.000239
1601.000000	0.000247
1600.000000	0.000251
1599.000000	0.000247
1598.000000	0.000235
1597.000000	0.000223
1596.000000	0.000217
1595.000000	0.000210
1594.000000	0.000200
1593.000000	0.000192
1592.000000	0.000191
1591.000000	0.000196
1590.000000	0.000204
1589.000000	0.000211
1588.000000	0.000214
1587.000000	0.000205
1586.000000	0.000188
1585.000000	0.000177
1584.000000	0.000176
1583.000000	0.000177
1582.000000	0.000169
1581.000000	0.000155
1580.000000	0.000141
1579.000000	0.000130
1578.000000	0.000134
1577.000000	0.000157
1576.000000	0.000178
1575.000000	0.000179
1574.000000	0.000174
1573.000000	0.000170
1572.000000	0.000166
1571.000000	0.000161
1570.000000	0.000157
1569.000000	0.000161
1568.000000	0.000175
1567.000000	0.000190
1566.000000	0.000206
1565.000000	0.000225
1564.000000	0.000238
1563.000000	0.000246
1562.000000	0.000262
1561.000000	0.000312
1560.000000	0.000403
1559.000000	0.000454
1558.000000	0.000400
1557.000000	0.000345
1556.000000	0.000334
1555.000000	0.000354
1554.000000	0.000398
1553.000000	0.000445
1552.000000	0.000479
1551.000000	0.000493
1550.000000	0.000493
1549.000000	0.000490
1548.000000	0.000497
1547.000000	0.000521
1546.000000	0.000562
1545.000000	0.000614
1544.000000	0.000655
1543.000000	0.000672
1542.000000	0.000670
1541.000000	0.000666
1540.000000	0.000662
1539.000000	0.000656
1538.000000	0.000670
1537.000000	0.000706
1536.000000	0.000749
1535.000000	0.000780
1534.000000	0.000786
1533.000000	0.000776
1532.000000	0.000782
1531.000000	0.000810
1530.000000	0.000838
1529.000000	0.000853
1528.000000	0.000857
1527.000000	0.000855
1526.000000	0.000852
1525.000000	0.000853
1524.000000	0.000861
1523.000000	0.000871
1522.000000	0.000867
1521.000000	0.000844
1520.000000	0.000835
1519.000000	0.000850
1518.000000	0.000868
1517.000000	0.000876
1516.000000	0.000883
1515.000000	0.000913
1514.000000	0.000966
1513.000000	0.001015
1512.000000	0.001037
1511.000000	0.001031
1510.000000	0.001013
1509.000000	0.000992
1508.000000	0.000964
1507.000000	0.000926
1506.000000	0.000896
1505.000000	0.000911
1504.000000	0.000951
1503.000000	0.000991
1502.000000	0.001027
1501.000000	0.001053
1500.000000	0.001063
1499.000000	0.001061
1498.000000	0.001065
1497.000000	0.001082
1496.000000	0.001095
1495.000000	0.001088
1494.000000	0.001066
1493.000000	0.001045
1492.000000	0.001037
1491.000000	0.001038
1490.000000	0.001040
1489.000000	0.001038
1488.000000	0.001042
1487.000000	0.001053
1486.000000	0.001067
1485.000000	0.001087
1484.000000	0.001112
1483.000000	0.001134
1482.000000	0.001145
1481.000000	0.001156
1480.000000	0.001185
1479.000000	0.001232
1478.000000	0.001280
1477.000000	0.001311
1476.000000	0.001328
1475.000000	0.001343
1474.000000	0.001356
1473.000000	0.001363
1472.000000	0.001373
1471.000000	0.001411
1470.000000	0.001478
1469.000000	0.001551
1468.000000	0.001615
1467.000000	0.001658
1466.000000	0.001675
1465.000000	0.001664
1464.000000	0.001638
1463.000000	0.001625
1462.000000	0.001642
1461.000000	0.001690
1460.000000	0.001757
1459.000000	0.001824
1458.000000	0.001861
1457.000000	0.001841
1456.000000	0.001799
1455.000000	0.001788
1454.000000	0.001808
1453.000000	0.001845
1452.000000	0.001888
1451.000000	0.001932
1450.000000	0.001968
1449.000000	0.001982
1448.000000	0.001973
1447.000000	0.001964
1446.000000	0.001986
1445.000000	0.002032
1444.000000	0.002071
1443.000000	0.002087
1442.000000	0.002097
1441.000000	0.002123
1440.000000	0.002171
1439.000000	0.002221
1438.000000	0.002241
1437.000000	0.002203
1436.000000	0.002135
1435.000000	0.002108
1434.000000	0.002143
1433.000000	0.002209
1432.000000	0.002261
1431.000000	0.002277
1430.000000	0.002270
1429.000000	0.002277
1428.000000	0.002318
1427.000000	0.002381
1426.000000	0.002437
1425.000000	0.002464
1424.000000	0.002461
1423.000000	0.002457
1422.000000	0.002481
1421.000000	0.002524
1420.000000	0.002544
1419.000000	0.002514
1418.000000	0.002468
1417.000000	0.002454
1416.000000	0.002468
1415.000000	0.002492
1414.000000	0.002517
1413.000000	0.002541
1412.000000	0.002554
1411.000000	0.002547
1410.000000	0.002524
1409.000000	0.002496
1408.000000	0.002472
1407.000000	0.002454
1406.000000	0.002437
1405.000000	0.002404
1404.000000	0.002353
1403.000000	0.002311
1402.000000	0.002301
1401.000000	0.002314
1400.000000	0.002312
1399.000000	0.002278
1398.000000	0.002238
1397.000000	0.002221
1396.000000	0.002216
1395.000000	0.002197
1394.000000	0.002168
1393.000000	0.002157
1392.000000	0.002169
1391.000000	0.002196
1390.000000	0.002226
1389.000000	0.002239
1388.000000	0.002215
1387.000000	0.002150
1386.000000	0.002087
1385.000000	0.002065
1384.000000	0.002079
1383.000000	0.002096
1382.000000	0.002098
1381.000000	0.002085
1380.000000	0.002063
1379.000000	0.002030
1378.000000	0.001989
1377.000000	0.001953
1376.000000	0.001925
1375.000000	0.001891
1374.000000	0.001839
1373.000000	0.001782
1372.000000	0.001742
1371.000000	0.001721
1370.000000	0.001708
1369.000000	0.001695
1368.000000	0.001678
1367.000000	0.001662
1366.000000	0.001647
1365.000000	0.001628
1364.000000	0.001597
1363.000000	0.001548
1362.000000	0.001498
1361.000000	0.001472
1360.000000	0.001475
1359.000000	0.001493
1358.000000	0.001506
1357.000000	0.001506
1356.000000	0.001499
1355.000000	0.001495
1354.000000	0.001495
1353.000000	0.001490
1352.000000	0.001475
1351.000000	0.001451
1350.000000	0.001429
1349.000000	0.001418
1348.000000	0.001416
1347.000000	0.001416
1346.000000	0.001411
1345.000000	0.001405
1344.000000	0.001401
1343.000000	0.001400
1342.000000	0.001396
1341.000000	0.001383
1340.000000	0.001361
1339.000000	0.001339
1338.000000	0.001331
1337.000000	0.001341
1336.000000	0.001357
1335.000000	0.001364
1334.000000	0.001356
1333.000000	0.001340
1332.000000	0.001323
1331.000000	0.001310
1330.000000	0.001300
1329.000000	0.001284
1328.000000	0.001258
1327.000000	0.001227
1326.000000	0.001208
1325.000000	0.001208
1324.000000	0.001217
1323.000000	0.001219
1322.000000	0.001211
1321.000000	0.001201
1320.000000	0.001195
1319.000000	0.001187
1318.000000	0.001170
1317.000000	0.001148
1316.000000	0.001126
1315.000000	0.001111
1314.000000	0.001104
1313.000000	0.001105
1312.000000	0.001105
1311.000000	0.001096
1310.000000	0.001082
1309.000000	0.001080
1308.000000	0.001098
1307.000000	0.001125
1306.000000	0.001138
1305.000000	0.001126
1304.000000	0.001097
1303.000000	0.001067
1302.000000	0.001048
1301.000000	0.001039
1300.000000	0.001031
1299.000000	0.001012
1298.000000	0.000982
1297.000000	0.000952
1296.000000	0.000932
1295.000000	0.000919
1294.000000	0.000907
1293.000000	0.000898
1292.000000	0.000899
1291.000000	0.000911
1290.000000	0.000924
1289.000000	0.000926
1288.000000	0.000917
1287.000000	0.000906
1286.000000	0.000899
1285.000000	0.000897
1284.000000	0.000894
1283.000000	0.000883
1282.000000	0.000858
1281.000000	0.000824
1280.000000	0.000794
1279.000000	0.000781
1278.000000	0.000788
1277.000000	0.000803
1276.000000	0.000815
1275.000000	0.000822
1274.000000	0.000828
1273.000000	0.000835
1272.000000	0.000843
1271.000000	0.000860
1270.000000	0.000890
1269.000000	0.000930
1268.000000	0.000970
1267.000000	0.001003
1266.000000	0.001028
1265.000000	0.001049
1264.000000	0.001060
1263.000000	0.001060
1262.000000	0.001058
1261.000000	0.001069
1260.000000	0.001097
1259.000000	0.001130
1258.000000	0.001162
1257.000000	0.001199
1256.000000	0.001239
1255.000000	0.001270
1254.000000	0.001282
1253.000000	0.001284
1252.000000	0.001295
1251.000000	0.001320
1250.000000	0.001341
1249.000000	0.001343
1248.000000	0.001328
1247.000000	0.001312
1246.000000	0.001302
1245.000000	0.001298
1244.000000	0.001300
1243.000000	0.001307
1242.000000	0.001311
1241.000000	0.001302
1240.000000	0.001282
1239.000000	0.001270
1238.000000	0.001278
1237.000000	0.001296
1236.000000	0.001305
1235.000000	0.001299
1234.000000	0.001289
1233.000000	0.001281
1232.000000	0.001269
1231.000000	0.001247
1230.000000	0.001227
1229.000000	0.001217
1228.000000	0.001208
1227.000000	0.001181
1226.000000	0.001128
1225.000000	0.001066
1224.000000	0.001012
1223.000000	0.000969
1222.000000	0.000929
1221.000000	0.000891
1220.000000	0.000865
1219.000000	0.000860
1218.000000	0.000873
1217.000000	0.000889
1216.000000	0.000895
1215.000000	0.000884
1214.000000	0.000853
1213.000000	0.000810
1212.000000	0.000766
1211.000000	0.000734
1210.000000	0.000722
1209.000000	0.000726
1208.000000	0.000733
1207.000000	0.000734
1206.000000	0.000730
1205.000000	0.000727
1204.000000	0.000733
1203.000000	0.000746
1202.000000	0.000760
1201.000000	0.000765
1200.000000	0.000759
1199.000000	0.000747
1198.000000	0.000740
1197.000000	0.000744
1196.000000	0.000759
1195.000000	0.000783
1194.000000	0.000810
1193.000000	0.000838
1192.000000	0.000868
1191.000000	0.000905
1190.000000	0.000951
1189.000000	0.000995
1188.000000	0.001021
1187.000000	0.001025
1186.000000	0.001021
1185.000000	0.001030
1184.000000	0.001057
1183.000000	0.001088
1182.000000	0.001114
1181.000000	0.001140
1180.000000	0.001178
1179.000000	0.001227
1178.000000	0.001276
1177.000000	0.001316
1176.000000	0.001351
1175.000000	0.001385
1174.000000	0.001418
1173.000000	0.001446
1172.000000	0.001470
1171.000000	0.001494
1170.000000	0.001514
1169.000000	0.001529
1168.000000	0.001547
1167.000000	0.001581
1166.000000	0.001628
1165.000000	0.001670
1164.000000	0.001694
1163.000000	0.001704
1162.000000	0.001716
1161.000000	0.001734
1160.000000	0.001748
1159.000000	0.001754
1158.000000	0.001754
1157.000000	0.001752
1156.000000	0.001739
1155.000000	0.001710
1154.000000	0.001676
1153.000000	0.001654
1152.000000	0.001650
1151.000000	0.001651
1150.000000	0.001633
1149.000000	0.001581
1148.000000	0.001504
1147.000000	0.001418
1146.000000	0.001334
1145.000000	0.001255
1144.000000	0.001180
1143.000000	0.001115
1142.000000	0.001059
1141.000000	0.001010
1140.000000	0.000968
1139.000000	0.000942
1138.000000	0.000936
1137.000000	0.000933
1136.000000	0.000914
1135.000000	0.000876
1134.000000	0.000839
1133.000000	0.000815
1132.000000	0.000796
1131.000000	0.000768
1130.000000	0.000729
1129.000000	0.000692
1128.000000	0.000661
1127.000000	0.000638
1126.000000	0.000618
1125.000000	0.000600
1124.000000	0.000587
1123.000000	0.000589
1122.000000	0.000611
1121.000000	0.000650
1120.000000	0.000691
1119.000000	0.000724
1118.000000	0.000752
1117.000000	0.000784
1116.000000	0.000824
1115.000000	0.000865
1114.000000	0.000899
1113.000000	0.000924
1112.000000	0.000944
1111.000000	0.000965
1110.000000	0.000986
1109.000000	0.001008
1108.000000	0.001031
1107.000000	0.001056
1106.000000	0.001077
1105.000000	0.001079
1104.000000	0.001055
1103.000000	0.001016
1102.000000	0.000980
1101.000000	0.000960
1100.000000	0.000956
1099.000000	0.000967
1098.000000	0.000995
1097.000000	0.001031
1096.000000	0.001063
1095.000000	0.001086
1094.000000	0.001107
1093.000000	0.001126
1092.000000	0.001140
1091.000000	0.001150
1090.000000	0.001163
1089.000000	0.001179
1088.000000	0.001176
1087.000000	0.001135
1086.000000	0.001060
1085.000000	0.000978
1084.000000	0.000913
1083.000000	0.000870
1082.000000	0.000841
1081.000000	0.000812
1080.000000	0.000773
1079.000000	0.000728
1078.000000	0.000690
1077.000000	0.000665
1076.000000	0.000646
1075.000000	0.000623
1074.000000	0.000605
1073.000000	0.000602
1072.000000	0.000612
1071.000000	0.000618
1070.000000	0.000614
1069.000000	0.000607
1068.000000	0.000610
1067.000000	0.000620
1066.000000	0.000627
1065.000000	0.000621
1064.000000	0.000603
1063.000000	0.000587
1062.000000	0.000594
1061.000000	0.000625
1060.000000	0.000656
1059.000000	0.000658
1058.000000	0.000627
1057.000000	0.000592
1056.000000	0.000575
1055.000000	0.000566
1054.000000	0.000547
1053.000000	0.000512
1052.000000	0.000474
1051.000000	0.000442
1050.000000	0.000413
1049.000000	0.000390
1048.000000	0.000385
1047.000000	0.000404
1046.000000	0.000434
1045.000000	0.000454
1044.000000	0.000458
1043.000000	0.000452
1042.000000	0.000447
1041.000000	0.000452
1040.000000	0.000471
1039.000000	0.000499
1038.000000	0.000524
1037.000000	0.000530
1036.000000	0.000521
1035.000000	0.000530
1034.000000	0.000581
1033.000000	0.000660
1032.000000	0.000716
1031.000000	0.000717
1030.000000	0.000676
1029.000000	0.000639
1028.000000	0.000636
1027.000000	0.000658
1026.000000	0.000678
1025.000000	0.000679
1024.000000	0.000657
1023.000000	0.000619
1022.000000	0.000579
1021.000000	0.000551
1020.000000	0.000539
1019.000000	0.000531
1018.000000	0.000510
1017.000000	0.000468
1016.000000	0.000420
1015.000000	0.000390
1014.000000	0.000392
1013.000000	0.000422
1012.000000	0.000456
1011.000000	0.000467
1010.000000	0.000450
1009.000000	0.000424
1008.000000	0.000416
1007.000000	0.000424
1006.000000	0.000424
1005.000000	0.000393
1004.000000	0.000340
1003.000000	0.000289
1002.000000	0.000258
1001.000000	0.000246
1000.000000	0.000243
999.000000	0.000245
998.000000	0.000245
997.000000	0.000230
996.000000	0.000197
995.000000	0.000163
994.000000	0.000151
993.000000	0.000168
992.000000	0.000195
991.000000	0.000210
990.000000	0.000207
989.000000	0.000195
988.000000	0.000184
987.000000	0.000180
986.000000	0.000183
985.000000	0.000193
984.000000	0.000208
983.000000	0.000216
982.000000	0.000202
981.000000	0.000160
980.000000	0.000109
979.000000	0.000078
978.000000	0.000078
977.000000	0.000091
976.000000	0.000094
975.000000	0.000088
974.000000	0.000086
973.000000	0.000092
972.000000	0.000097
971.000000	0.000095
970.000000	0.000091
969.000000	0.000087
968.000000	0.000080
967.000000	0.000073
966.000000	0.000075
965.000000	0.000085
964.000000	0.000095
963.000000	0.000095
962.000000	0.000088
961.000000	0.000078
960.000000	0.000061
959.000000	0.000034
958.000000	-0.000000
957.000000	-0.000034
956.000000	-0.000059
955.000000	-0.000072
954.000000	-0.000074
953.000000	-0.000081
952.000000	-0.000103
951.000000	-0.000123
950.000000	-0.000102
949.000000	-0.000033
948.000000	0.000040
947.000000	0.000061
946.000000	0.000022
945.000000	-0.000035
944.000000	-0.000077
943.000000	-0.000104
942.000000	-0.000132
941.000000	-0.000163
940.000000	-0.000187
939.000000	-0.000200
938.000000	-0.000206
937.000000	-0.000205
936.000000	-0.000198
935.000000	-0.000189
934.000000	-0.000184
933.000000	-0.000186
932.000000	-0.000196
931.000000	-0.000208
930.000000	-0.000216
929.000000	-0.000215
928.000000	-0.000209
927.000000	-0.000211
926.000000	-0.000229
925.000000	-0.000257
924.000000	-0.000278
923.000000	-0.000284
922.000000	-0.000277
921.000000	-0.000273
920.000000	-0.000283
919.000000	-0.000302
918.000000	-0.000316
917.000000	-0.000310
916.000000	-0.000286
915.000000	-0.000260
914.000000	-0.000246
913.000000	-0.000250
912.000000	-0.000265
911.000000	-0.000287
910.000000	-0.000315
909.000000	-0.000348
908.000000	-0.000386
907.000000	-0.000426
906.000000	-0.000462
905.000000	-0.000494
904.000000	-0.000518
903.000000	-0.000526
902.000000	-0.000511
901.000000	-0.000477
900.000000	-0.000442
899.000000	-0.000426
898.000000	-0.000423
897.000000	-0.000418
896.000000	-0.000410
895.000000	-0.000418
894.000000	-0.000452
893.000000	-0.000490
892.000000	-0.000493
891.000000	-0.000458
890.000000	-0.000418
889.000000	-0.000398
888.000000	-0.000378
887.000000	-0.000324
886.000000	-0.000226
885.000000	-0.000111
884.000000	-0.000010
883.000000	0.000069
882.000000	0.000139
881.000000	0.000218
880.000000	0.000325
879.000000	0.000465
878.000000	0.000620
877.000000	0.000765
876.000000	0.000892
875.000000	0.001010
874.000000	0.001112
873.000000	0.001160
872.000000	0.001125
871.000000	0.001019
870.000000	0.000891
869.000000	0.000776
868.000000	0.000673
867.000000	0.000563
866.000000	0.000442
865.000000	0.000327
864.000000	0.000249
863.000000	0.000218
862.000000	0.000214
861.000000	0.000190
860.000000	0.000121
859.000000	0.000018
858.000000	-0.000091
857.000000	-0.000185
856.000000	-0.000255
855.000000	-0.000289
854.000000	-0.000282
853.000000	-0.000263
852.000000	-0.000269
851.000000	-0.000309
850.000000	-0.000350
849.000000	-0.000351
848.000000	-0.000306
847.000000	-0.000246
846.000000	-0.000218
845.000000	-0.000259
844.000000	-0.000365
843.000000	-0.000475
842.000000	-0.000516
841.000000	-0.000478
840.000000	-0.000424
839.000000	-0.000414
838.000000	-0.000432
837.000000	-0.000423
836.000000	-0.000368
835.000000	-0.000306
834.000000	-0.000279
833.000000	-0.000295
832.000000	-0.000338
831.000000	-0.000395
830.000000	-0.000455
829.000000	-0.000500
828.000000	-0.000519
827.000000	-0.000514
826.000000	-0.000499
825.000000	-0.000484
824.000000	-0.000471
823.000000	-0.000457
822.000000	-0.000442
821.000000	-0.000437
820.000000	-0.000457
819.000000	-0.000498
818.000000	-0.000527
817.000000	-0.000510
816.000000	-0.000452
815.000000	-0.000402
814.000000	-0.000404
813.000000	-0.000464
812.000000	-0.000554
811.000000	-0.000641
810.000000	-0.000707
809.000000	-0.000748
808.000000	-0.000757
807.000000	-0.000725
806.000000	-0.000652
805.000000	-0.000560
804.000000	-0.000484
803.000000	-0.000443
802.000000	-0.000416
801.000000	-0.000374
800.000000	-0.000323
799.000000	-0.000302
798.000000	-0.000339
797.000000	-0.000421
796.000000	-0.000514
795.000000	-0.000594
794.000000	-0.000648
793.000000	-0.000662
792.000000	-0.000631
791.000000	-0.000577
790.000000	-0.000537
789.000000	-0.000530
788.000000	-0.000549
787.000000	-0.000567
786.000000	-0.000560
785.000000	-0.000520
784.000000	-0.000461
783.000000	-0.000416
782.000000	-0.000407
781.000000	-0.000422
780.000000	-0.000439
779.000000	-0.000451
778.000000	-0.000467
777.000000	-0.000495
776.000000	-0.000528
775.000000	-0.000556
774.000000	-0.000580
773.000000	-0.000607
772.000000	-0.000633
771.000000	-0.000649
770.000000	-0.000647
769.000000	-0.000628
768.000000	-0.000600
767.000000	-0.000572
766.000000	-0.000561
765.000000	-0.000578
764.000000	-0.000619
763.000000	-0.000658
762.000000	-0.000663
761.000000	-0.000624
760.000000	-0.000568
759.000000	-0.000536
758.000000	-0.000541
757.000000	-0.000555
756.000000	-0.000542
755.000000	-0.000504
754.000000	-0.000476
753.000000	-0.000487
752.000000	-0.000532
751.000000	-0.000585
750.000000	-0.000619
749.000000	-0.000626
748.000000	-0.000608
747.000000	-0.000580
746.000000	-0.000555
745.000000	-0.000535
744.000000	-0.000510
743.000000	-0.000477
742.000000	-0.000447
741.000000	-0.000438
740.000000	-0.000455
739.000000	-0.000489
738.000000	-0.000527
737.000000	-0.000546
736.000000	-0.000526
735.000000	-0.000467
734.000000	-0.000396
733.000000	-0.000350
732.000000	-0.000343
731.000000	-0.000363
730.000000	-0.000394
729.000000	-0.000435
728.000000	-0.000485
727.000000	-0.000531
726.000000	-0.000549
725.000000	-0.000528
724.000000	-0.000483
723.000000	-0.000446
722.000000	-0.000435
721.000000	-0.000443
720.000000	-0.000451
719.000000	-0.000445
718.000000	-0.000415
717.000000	-0.000349
716.000000	-0.000238
715.000000	-0.000094
714.000000	0.000045
713.000000	0.000142
712.000000	0.000183
711.000000	0.000167
710.000000	0.000095
709.000000	-0.000017
708.000000	-0.000127
707.000000	-0.000191
706.000000	-0.000206
705.000000	-0.000211
704.000000	-0.000238
703.000000	-0.000287
702.000000	-0.000340
701.000000	-0.000381
700.000000	-0.000387
699.000000	-0.000330
698.000000	-0.000212
697.000000	-0.000086
696.000000	-0.000020
695.000000	-0.000030
694.000000	-0.000073
693.000000	-0.000090
692.000000	-0.000054
691.000000	0.000009
690.000000	0.000043
689.000000	0.000005
688.000000	-0.000094
687.000000	-0.000189
686.000000	-0.000226
685.000000	-0.000216
684.000000	-0.000202
683.000000	-0.000205
682.000000	-0.000210
681.000000	-0.000203
680.000000	-0.000195
679.000000	-0.000198
678.000000	-0.000215
677.000000	-0.000241
676.000000	-0.000269
675.000000	-0.000285
674.000000	-0.000285
673.000000	-0.000292
672.000000	-0.000339
671.000000	-0.000445
670.000000	-0.000591
669.000000	-0.000733
668.000000	-0.000768
667.000000	-0.000643
666.000000	-0.000466
665.000000	-0.000313
664.000000	-0.000211
663.000000	-0.000185
662.000000	-0.000236
661.000000	-0.000330
660.000000	-0.000433
659.000000	-0.000522
658.000000	-0.000573
657.000000	-0.000564
656.000000	-0.000499
655.000000	-0.000400
654.000000	-0.000279
653.000000	-0.000136
652.000000	0.000001
651.000000	0.000081
650.000000	0.000084
649.000000	0.000048
648.000000	0.000019
647.000000	0.000005
646.000000	-0.000012
645.000000	-0.000036
644.000000	-0.000052
643.000000	-0.000057
642.000000	-0.000069
641.000000	-0.000099
640.000000	-0.000129
639.000000	-0.000134
638.000000	-0.000119
637.000000	-0.000111
636.000000	-0.000130
635.000000	-0.000170
634.000000	-0.000212
633.000000	-0.000242
632.000000	-0.000249
631.000000	-0.000223
630.000000	-0.000171
629.000000	-0.000121
628.000000	-0.000094
627.000000	-0.000077
626.000000	-0.000048
625.000000	-0.000019
624.000000	-0.000030
623.000000	-0.000095
622.000000	-0.000183
621.000000	-0.000259
620.000000	-0.000311
619.000000	-0.000327
618.000000	-0.000287
617.000000	-0.000199
616.000000	-0.000107
615.000000	-0.000051
614.000000	-0.000031
613.000000	-0.000035
612.000000	-0.000074
611.000000	-0.000154
610.000000	-0.000237
609.000000	-0.000266
608.000000	-0.000232
607.000000	-0.000169
606.000000	-0.000103
605.000000	-0.000034
604.000000	0.000022
603.000000	0.000026
602.000000	-0.000028
601.000000	-0.000097
600.000000	-0.000129
599.000000	-0.000105
598.000000	-0.000043
597.000000	0.000024
596.000000	0.000057
595.000000	0.000024
594.000000	-0.000067
593.000000	-0.000173
592.000000	-0.000260
591.000000	-0.000324
590.000000	-0.000371
589.000000	-0.000400
588.000000	-0.000419
587.000000	-0.000447
586.000000	-0.000482
585.000000	-0.000486
584.000000	-0.000428
583.000000	-0.000334
582.000000	-0.000268
581.000000	-0.000259
580.000000	-0.000283
579.000000	-0.000307
578.000000	-0.000331
577.000000	-0.000375
576.000000	-0.000438
575.000000	-0.000498
574.000000	-0.000551
573.000000	-0.000621
572.000000	-0.000709
571.000000	-0.000759
570.000000	-0.000707
569.000000	-0.000577
568.000000	-0.000472
567.000000	-0.000455
566.000000	-0.000476
565.000000	-0.000452
564.000000	-0.000393
563.000000	-0.000383
562.000000	-0.000450
561.000000	-0.000519
560.000000	-0.000507
559.000000	-0.000418
558.000000	-0.000314
557.000000	-0.000253
556.000000	-0.000267
555.000000	-0.000365
554.000000	-0.000514
553.000000	-0.000629
552.000000	-0.000640
551.000000	-0.000557
550.000000	-0.000454
549.000000	-0.000397
548.000000	-0.000405
547.000000	-0.000466
546.000000	-0.000561
545.000000	-0.000654
544.000000	-0.000722
543.000000	-0.000758
542.000000	-0.000764
541.000000	-0.000725
540.000000	-0.000633
539.000000	-0.000516
538.000000	-0.000434
537.000000	-0.000420
536.000000	-0.000454
535.000000	-0.000499
534.000000	-0.000540
533.000000	-0.000565
532.000000	-0.000548
531.000000	-0.000479
530.000000	-0.000403
529.000000	-0.000389
528.000000	-0.000468
527.000000	-0.000615
526.000000	-0.000784
525.000000	-0.000933
524.000000	-0.001010
523.000000	-0.000945
522.000000	-0.000715
521.000000	-0.000429
520.000000	-0.000259
519.000000	-0.000275
518.000000	-0.000359
517.000000	-0.000375
516.000000	-0.000356
515.000000	-0.000432
514.000000	-0.000617
513.000000	-0.000777
512.000000	-0.000810
511.000000	-0.000762
510.000000	-0.000754
509.000000	-0.000821
508.000000	-0.000878
507.000000	-0.000824
506.000000	-0.000633
505.000000	-0.000360
504.000000	-0.000096
503.000000	0.000071
502.000000	0.000082
501.000000	-0.000054
500.000000	-0.000284
499.000000	-0.000550
498.000000	-0.000788
497.000000	-0.000924
496.000000	-0.000929
495.000000	-0.000859
494.000000	-0.000805
493.000000	-0.000792
492.000000	-0.000757
491.000000	-0.000623
490.000000	-0.000394
489.000000	-0.000169
488.000000	-0.000078
487.000000	-0.000211
486.000000	-0.000547
485.000000	-0.000948
484.000000	-0.001245
483.000000	-0.001331
482.000000	-0.001191
481.000000	-0.000871
480.000000	-0.000464
479.000000	-0.000123
478.000000	-0.000018
477.000000	-0.000232
476.000000	-0.000698
475.000000	-0.001255
474.000000	-0.001727
473.000000	-0.001963
472.000000	-0.001895
471.000000	-0.001587
470.000000	-0.001160
469.000000	-0.000699
468.000000	-0.000283
467.000000	-0.000045
466.000000	-0.000092
465.000000	-0.000387
464.000000	-0.000783
463.000000	-0.001131
462.000000	-0.001344
461.000000	-0.001427
460.000000	-0.001430
459.000000	-0.001392
458.000000	-0.001256
457.000000	-0.001000
456.000000	-0.000812
455.000000	-0.000869
454.000000	-0.001257
453.000000	-0.001775
452.000000	-0.002058
451.000000	-0.001911
450.000000	-0.001543
