PE IR       SUBTECH     SPECTRUM    ASCII       PEDS        4.00        
   -1
P12-Rouge018_1.ASC
23/06/08
15:05:51.00
23/06/08
15:48:35.00
uco
Sample 018 By uco Date Thursday, June 08 2023
450.000000
#HDR
-1
-1
#GR
cm-1
A
1.0
0.0
4000.000000
-1.000000
3551
8
0.010728
0.000540
#DATA
4000.000000	0.000948
3999.000000	0.000985
3998.000000	0.001027
3997.000000	0.001056
3996.000000	0.001061
3995.000000	0.001049
3994.000000	0.001035
3993.000000	0.001027
3992.000000	0.001026
3991.000000	0.001029
3990.000000	0.001035
3989.000000	0.001046
3988.000000	0.001062
3987.000000	0.001078
3986.000000	0.001085
3985.000000	0.001078
3984.000000	0.001059
3983.000000	0.001040
3982.000000	0.001031
3981.000000	0.001040
3980.000000	0.001060
3979.000000	0.001076
3978.000000	0.001076
3977.000000	0.001058
3976.000000	0.001032
3975.000000	0.001014
3974.000000	0.001010
3973.000000	0.001019
3972.000000	0.001032
3971.000000	0.001040
3970.000000	0.001035
3969.000000	0.001019
3968.000000	0.001002
3967.000000	0.000993
3966.000000	0.000997
3965.000000	0.001010
3964.000000	0.001022
3963.000000	0.001026
3962.000000	0.001025
3961.000000	0.001029
3960.000000	0.001045
3959.000000	0.001066
3958.000000	0.001084
3957.000000	0.001088
3956.000000	0.001079
3955.000000	0.001062
3954.000000	0.001048
3953.000000	0.001043
3952.000000	0.001053
3951.000000	0.001078
3950.000000	0.001104
3949.000000	0.001115
3948.000000	0.001105
3947.000000	0.001085
3946.000000	0.001074
3945.000000	0.001080
3944.000000	0.001096
3943.000000	0.001110
3942.000000	0.001121
3941.000000	0.001135
3940.000000	0.001151
3939.000000	0.001158
3938.000000	0.001149
3937.000000	0.001129
3936.000000	0.001117
3935.000000	0.001122
3934.000000	0.001138
3933.000000	0.001150
3932.000000	0.001146
3931.000000	0.001129
3930.000000	0.001111
3929.000000	0.001103
3928.000000	0.001109
3927.000000	0.001124
3926.000000	0.001134
3925.000000	0.001129
3924.000000	0.001111
3923.000000	0.001096
3922.000000	0.001094
3921.000000	0.001104
3920.000000	0.001123
3919.000000	0.001141
3918.000000	0.001148
3917.000000	0.001137
3916.000000	0.001114
3915.000000	0.001093
3914.000000	0.001081
3913.000000	0.001076
3912.000000	0.001075
3911.000000	0.001072
3910.000000	0.001063
3909.000000	0.001045
3908.000000	0.001020
3907.000000	0.000994
3906.000000	0.000982
3905.000000	0.000991
3904.000000	0.001017
3903.000000	0.001047
3902.000000	0.001067
3901.000000	0.001072
3900.000000	0.001070
3899.000000	0.001072
3898.000000	0.001083
3897.000000	0.001096
3896.000000	0.001100
3895.000000	0.001098
3894.000000	0.001096
3893.000000	0.001097
3892.000000	0.001090
3891.000000	0.001065
3890.000000	0.001034
3889.000000	0.001020
3888.000000	0.001031
3887.000000	0.001057
3886.000000	0.001081
3885.000000	0.001093
3884.000000	0.001097
3883.000000	0.001095
3882.000000	0.001078
3881.000000	0.001043
3880.000000	0.001003
3879.000000	0.000988
3878.000000	0.001007
3877.000000	0.001042
3876.000000	0.001063
3875.000000	0.001050
3874.000000	0.001014
3873.000000	0.000995
3872.000000	0.001015
3871.000000	0.001052
3870.000000	0.001065
3869.000000	0.001058
3868.000000	0.001058
3867.000000	0.001074
3866.000000	0.001084
3865.000000	0.001075
3864.000000	0.001059
3863.000000	0.001061
3862.000000	0.001081
3861.000000	0.001107
3860.000000	0.001118
3859.000000	0.001109
3858.000000	0.001079
3857.000000	0.001043
3856.000000	0.001016
3855.000000	0.001015
3854.000000	0.001024
3853.000000	0.001015
3852.000000	0.000998
3851.000000	0.000994
3850.000000	0.001002
3849.000000	0.001013
3848.000000	0.001024
3847.000000	0.001038
3846.000000	0.001052
3845.000000	0.001059
3844.000000	0.001054
3843.000000	0.001039
3842.000000	0.001025
3841.000000	0.001022
3840.000000	0.001023
3839.000000	0.001024
3838.000000	0.001026
3837.000000	0.001031
3836.000000	0.001043
3835.000000	0.001061
3834.000000	0.001085
3833.000000	0.001106
3832.000000	0.001116
3831.000000	0.001114
3830.000000	0.001107
3829.000000	0.001103
3828.000000	0.001099
3827.000000	0.001084
3826.000000	0.001055
3825.000000	0.001027
3824.000000	0.001013
3823.000000	0.001010
3822.000000	0.000996
3821.000000	0.000966
3820.000000	0.000956
3819.000000	0.000999
3818.000000	0.001070
3817.000000	0.001114
3816.000000	0.001107
3815.000000	0.001091
3814.000000	0.001112
3813.000000	0.001159
3812.000000	0.001192
3811.000000	0.001193
3810.000000	0.001177
3809.000000	0.001165
3808.000000	0.001151
3807.000000	0.001120
3806.000000	0.001088
3805.000000	0.001089
3804.000000	0.001127
3803.000000	0.001162
3802.000000	0.001138
3801.000000	0.001065
3800.000000	0.001009
3799.000000	0.001011
3798.000000	0.001054
3797.000000	0.001098
3796.000000	0.001122
3795.000000	0.001133
3794.000000	0.001151
3793.000000	0.001182
3792.000000	0.001223
3791.000000	0.001261
3790.000000	0.001284
3789.000000	0.001285
3788.000000	0.001272
3787.000000	0.001261
3786.000000	0.001252
3785.000000	0.001238
3784.000000	0.001212
3783.000000	0.001187
3782.000000	0.001175
3781.000000	0.001180
3780.000000	0.001192
3779.000000	0.001198
3778.000000	0.001200
3777.000000	0.001205
3776.000000	0.001211
3775.000000	0.001208
3774.000000	0.001199
3773.000000	0.001192
3772.000000	0.001193
3771.000000	0.001188
3770.000000	0.001164
3769.000000	0.001126
3768.000000	0.001093
3767.000000	0.001078
3766.000000	0.001080
3765.000000	0.001092
3764.000000	0.001112
3763.000000	0.001138
3762.000000	0.001161
3761.000000	0.001177
3760.000000	0.001191
3759.000000	0.001207
3758.000000	0.001215
3757.000000	0.001207
3756.000000	0.001187
3755.000000	0.001160
3754.000000	0.001133
3753.000000	0.001113
3752.000000	0.001114
3751.000000	0.001128
3750.000000	0.001124
3749.000000	0.001095
3748.000000	0.001064
3747.000000	0.001055
3746.000000	0.001047
3745.000000	0.001001
3744.000000	0.000929
3743.000000	0.000894
3742.000000	0.000916
3741.000000	0.000959
3740.000000	0.000995
3739.000000	0.001025
3738.000000	0.001062
3737.000000	0.001098
3736.000000	0.001109
3735.000000	0.001090
3734.000000	0.001069
3733.000000	0.001068
3732.000000	0.001080
3731.000000	0.001096
3730.000000	0.001121
3729.000000	0.001157
3728.000000	0.001196
3727.000000	0.001222
3726.000000	0.001237
3725.000000	0.001252
3724.000000	0.001272
3723.000000	0.001284
3722.000000	0.001274
3721.000000	0.001239
3720.000000	0.001192
3719.000000	0.001144
3718.000000	0.001104
3717.000000	0.001073
3716.000000	0.001053
3715.000000	0.001044
3714.000000	0.001042
3713.000000	0.001050
3712.000000	0.001062
3711.000000	0.001070
3710.000000	0.001072
3709.000000	0.001076
3708.000000	0.001087
3707.000000	0.001103
3706.000000	0.001122
3705.000000	0.001151
3704.000000	0.001188
3703.000000	0.001225
3702.000000	0.001241
3701.000000	0.001225
3700.000000	0.001199
3699.000000	0.001189
3698.000000	0.001200
3697.000000	0.001217
3696.000000	0.001219
3695.000000	0.001195
3694.000000	0.001141
3693.000000	0.001067
3692.000000	0.000997
3691.000000	0.000959
3690.000000	0.000972
3689.000000	0.001027
3688.000000	0.001091
3687.000000	0.001135
3686.000000	0.001154
3685.000000	0.001158
3684.000000	0.001155
3683.000000	0.001148
3682.000000	0.001140
3681.000000	0.001125
3680.000000	0.001098
3679.000000	0.001075
3678.000000	0.001077
3677.000000	0.001103
3676.000000	0.001121
3675.000000	0.001119
3674.000000	0.001127
3673.000000	0.001166
3672.000000	0.001220
3671.000000	0.001252
3670.000000	0.001249
3669.000000	0.001237
3668.000000	0.001243
3667.000000	0.001265
3666.000000	0.001286
3665.000000	0.001298
3664.000000	0.001310
3663.000000	0.001327
3662.000000	0.001340
3661.000000	0.001333
3660.000000	0.001307
3659.000000	0.001280
3658.000000	0.001269
3657.000000	0.001269
3656.000000	0.001262
3655.000000	0.001248
3654.000000	0.001241
3653.000000	0.001248
3652.000000	0.001269
3651.000000	0.001292
3650.000000	0.001309
3649.000000	0.001324
3648.000000	0.001345
3647.000000	0.001368
3646.000000	0.001378
3645.000000	0.001372
3644.000000	0.001359
3643.000000	0.001352
3642.000000	0.001359
3641.000000	0.001380
3640.000000	0.001403
3639.000000	0.001414
3638.000000	0.001405
3637.000000	0.001388
3636.000000	0.001376
3635.000000	0.001376
3634.000000	0.001382
3633.000000	0.001391
3632.000000	0.001403
3631.000000	0.001417
3630.000000	0.001430
3629.000000	0.001440
3628.000000	0.001465
3627.000000	0.001514
3626.000000	0.001559
3625.000000	0.001571
3624.000000	0.001546
3623.000000	0.001507
3622.000000	0.001480
3621.000000	0.001475
3620.000000	0.001476
3619.000000	0.001465
3618.000000	0.001442
3617.000000	0.001426
3616.000000	0.001427
3615.000000	0.001446
3614.000000	0.001473
3613.000000	0.001502
3612.000000	0.001533
3611.000000	0.001570
3610.000000	0.001616
3609.000000	0.001664
3608.000000	0.001699
3607.000000	0.001709
3606.000000	0.001700
3605.000000	0.001688
3604.000000	0.001687
3603.000000	0.001699
3602.000000	0.001718
3601.000000	0.001734
3600.000000	0.001749
3599.000000	0.001761
3598.000000	0.001765
3597.000000	0.001764
3596.000000	0.001770
3595.000000	0.001796
3594.000000	0.001835
3593.000000	0.001865
3592.000000	0.001868
3591.000000	0.001844
3590.000000	0.001808
3589.000000	0.001781
3588.000000	0.001778
3587.000000	0.001806
3586.000000	0.001862
3585.000000	0.001931
3584.000000	0.001996
3583.000000	0.002044
3582.000000	0.002070
3581.000000	0.002073
3580.000000	0.002058
3579.000000	0.002033
3578.000000	0.002005
3577.000000	0.001983
3576.000000	0.001980
3575.000000	0.002002
3574.000000	0.002046
3573.000000	0.002093
3572.000000	0.002128
3571.000000	0.002148
3570.000000	0.002169
3569.000000	0.002205
3568.000000	0.002253
3567.000000	0.002295
3566.000000	0.002319
3565.000000	0.002330
3564.000000	0.002334
3563.000000	0.002333
3562.000000	0.002331
3561.000000	0.002339
3560.000000	0.002362
3559.000000	0.002391
3558.000000	0.002405
3557.000000	0.002396
3556.000000	0.002380
3555.000000	0.002386
3554.000000	0.002428
3553.000000	0.002495
3552.000000	0.002556
3551.000000	0.002589
3550.000000	0.002597
3549.000000	0.002598
3548.000000	0.002604
3547.000000	0.002615
3546.000000	0.002620
3545.000000	0.002610
3544.000000	0.002590
3543.000000	0.002577
3542.000000	0.002583
3541.000000	0.002609
3540.000000	0.002646
3539.000000	0.002684
3538.000000	0.002719
3537.000000	0.002748
3536.000000	0.002768
3535.000000	0.002774
3534.000000	0.002763
3533.000000	0.002739
3532.000000	0.002714
3531.000000	0.002702
3530.000000	0.002706
3529.000000	0.002725
3528.000000	0.002750
3527.000000	0.002775
3526.000000	0.002794
3525.000000	0.002808
3524.000000	0.002821
3523.000000	0.002840
3522.000000	0.002865
3521.000000	0.002890
3520.000000	0.002904
3519.000000	0.002904
3518.000000	0.002896
3517.000000	0.002893
3516.000000	0.002904
3515.000000	0.002924
3514.000000	0.002942
3513.000000	0.002950
3512.000000	0.002952
3511.000000	0.002953
3510.000000	0.002956
3509.000000	0.002958
3508.000000	0.002958
3507.000000	0.002960
3506.000000	0.002972
3505.000000	0.002997
3504.000000	0.003027
3503.000000	0.003046
3502.000000	0.003047
3501.000000	0.003042
3500.000000	0.003047
3499.000000	0.003068
3498.000000	0.003094
3497.000000	0.003111
3496.000000	0.003114
3495.000000	0.003110
3494.000000	0.003106
3493.000000	0.003105
3492.000000	0.003109
3491.000000	0.003121
3490.000000	0.003138
3489.000000	0.003155
3488.000000	0.003164
3487.000000	0.003160
3486.000000	0.003148
3485.000000	0.003136
3484.000000	0.003130
3483.000000	0.003132
3482.000000	0.003138
3481.000000	0.003146
3480.000000	0.003159
3479.000000	0.003178
3478.000000	0.003202
3477.000000	0.003223
3476.000000	0.003238
3475.000000	0.003246
3474.000000	0.003257
3473.000000	0.003277
3472.000000	0.003309
3471.000000	0.003346
3470.000000	0.003377
3469.000000	0.003392
3468.000000	0.003394
3467.000000	0.003388
3466.000000	0.003379
3465.000000	0.003369
3464.000000	0.003359
3463.000000	0.003356
3462.000000	0.003362
3461.000000	0.003372
3460.000000	0.003380
3459.000000	0.003385
3458.000000	0.003395
3457.000000	0.003416
3456.000000	0.003446
3455.000000	0.003476
3454.000000	0.003496
3453.000000	0.003506
3452.000000	0.003511
3451.000000	0.003520
3450.000000	0.003537
3449.000000	0.003558
3448.000000	0.003574
3447.000000	0.003580
3446.000000	0.003579
3445.000000	0.003578
3444.000000	0.003583
3443.000000	0.003596
3442.000000	0.003611
3441.000000	0.003626
3440.000000	0.003637
3439.000000	0.003643
3438.000000	0.003645
3437.000000	0.003642
3436.000000	0.003638
3435.000000	0.003635
3434.000000	0.003637
3433.000000	0.003644
3432.000000	0.003658
3431.000000	0.003677
3430.000000	0.003696
3429.000000	0.003709
3428.000000	0.003712
3427.000000	0.003713
3426.000000	0.003722
3425.000000	0.003740
3424.000000	0.003763
3423.000000	0.003788
3422.000000	0.003816
3421.000000	0.003844
3420.000000	0.003868
3419.000000	0.003881
3418.000000	0.003887
3417.000000	0.003897
3416.000000	0.003920
3415.000000	0.003954
3414.000000	0.003981
3413.000000	0.003991
3412.000000	0.003987
3411.000000	0.003986
3410.000000	0.003998
3409.000000	0.004020
3408.000000	0.004038
3407.000000	0.004042
3406.000000	0.004035
3405.000000	0.004029
3404.000000	0.004037
3403.000000	0.004063
3402.000000	0.004100
3401.000000	0.004135
3400.000000	0.004152
3399.000000	0.004148
3398.000000	0.004129
3397.000000	0.004112
3396.000000	0.004113
3395.000000	0.004136
3394.000000	0.004170
3393.000000	0.004190
3392.000000	0.004182
3391.000000	0.004146
3390.000000	0.004101
3389.000000	0.004072
3388.000000	0.004072
3387.000000	0.004101
3386.000000	0.004143
3385.000000	0.004183
3384.000000	0.004212
3383.000000	0.004228
3382.000000	0.004234
3381.000000	0.004233
3380.000000	0.004232
3379.000000	0.004235
3378.000000	0.004245
3377.000000	0.004258
3376.000000	0.004271
3375.000000	0.004288
3374.000000	0.004310
3373.000000	0.004333
3372.000000	0.004350
3371.000000	0.004360
3370.000000	0.004366
3369.000000	0.004374
3368.000000	0.004389
3367.000000	0.004410
3366.000000	0.004433
3365.000000	0.004452
3364.000000	0.004459
3363.000000	0.004454
3362.000000	0.004446
3361.000000	0.004443
3360.000000	0.004453
3359.000000	0.004477
3358.000000	0.004506
3357.000000	0.004527
3356.000000	0.004534
3355.000000	0.004534
3354.000000	0.004540
3353.000000	0.004556
3352.000000	0.004576
3351.000000	0.004589
3350.000000	0.004594
3349.000000	0.004593
3348.000000	0.004589
3347.000000	0.004587
3346.000000	0.004590
3345.000000	0.004597
3344.000000	0.004602
3343.000000	0.004606
3342.000000	0.004616
3341.000000	0.004641
3340.000000	0.004675
3339.000000	0.004707
3338.000000	0.004728
3337.000000	0.004743
3336.000000	0.004755
3335.000000	0.004763
3334.000000	0.004764
3333.000000	0.004760
3332.000000	0.004755
3331.000000	0.004753
3330.000000	0.004759
3329.000000	0.004772
3328.000000	0.004791
3327.000000	0.004812
3326.000000	0.004834
3325.000000	0.004857
3324.000000	0.004877
3323.000000	0.004887
3322.000000	0.004882
3321.000000	0.004865
3320.000000	0.004849
3319.000000	0.004845
3318.000000	0.004866
3317.000000	0.004910
3316.000000	0.004965
3315.000000	0.005010
3314.000000	0.005030
3313.000000	0.005029
3312.000000	0.005025
3311.000000	0.005032
3310.000000	0.005052
3309.000000	0.005076
3308.000000	0.005091
3307.000000	0.005093
3306.000000	0.005087
3305.000000	0.005082
3304.000000	0.005085
3303.000000	0.005098
3302.000000	0.005117
3301.000000	0.005138
3300.000000	0.005157
3299.000000	0.005170
3298.000000	0.005179
3297.000000	0.005185
3296.000000	0.005191
3295.000000	0.005197
3294.000000	0.005204
3293.000000	0.005215
3292.000000	0.005228
3291.000000	0.005239
3290.000000	0.005242
3289.000000	0.005236
3288.000000	0.005227
3287.000000	0.005225
3286.000000	0.005228
3285.000000	0.005232
3284.000000	0.005234
3283.000000	0.005236
3282.000000	0.005239
3281.000000	0.005239
3280.000000	0.005228
3279.000000	0.005209
3278.000000	0.005193
3277.000000	0.005195
3276.000000	0.005217
3275.000000	0.005246
3274.000000	0.005265
3273.000000	0.005269
3272.000000	0.005268
3271.000000	0.005275
3270.000000	0.005296
3269.000000	0.005325
3268.000000	0.005351
3267.000000	0.005363
3266.000000	0.005361
3265.000000	0.005354
3264.000000	0.005352
3263.000000	0.005352
3262.000000	0.005341
3261.000000	0.005316
3260.000000	0.005288
3259.000000	0.005272
3258.000000	0.005272
3257.000000	0.005276
3256.000000	0.005271
3255.000000	0.005253
3254.000000	0.005226
3253.000000	0.005195
3252.000000	0.005165
3251.000000	0.005141
3250.000000	0.005130
3249.000000	0.005132
3248.000000	0.005144
3247.000000	0.005156
3246.000000	0.005159
3245.000000	0.005152
3244.000000	0.005142
3243.000000	0.005135
3242.000000	0.005127
3241.000000	0.005111
3240.000000	0.005081
3239.000000	0.005043
3238.000000	0.005007
3237.000000	0.004981
3236.000000	0.004969
3235.000000	0.004966
3234.000000	0.004969
3233.000000	0.004972
3232.000000	0.004973
3231.000000	0.004970
3230.000000	0.004962
3229.000000	0.004951
3228.000000	0.004939
3227.000000	0.004929
3226.000000	0.004922
3225.000000	0.004918
3224.000000	0.004913
3223.000000	0.004907
3222.000000	0.004898
3221.000000	0.004893
3220.000000	0.004895
3219.000000	0.004907
3218.000000	0.004921
3217.000000	0.004930
3216.000000	0.004931
3215.000000	0.004924
3214.000000	0.004912
3213.000000	0.004899
3212.000000	0.004883
3211.000000	0.004862
3210.000000	0.004835
3209.000000	0.004811
3208.000000	0.004802
3207.000000	0.004815
3206.000000	0.004844
3205.000000	0.004873
3204.000000	0.004884
3203.000000	0.004871
3202.000000	0.004836
3201.000000	0.004797
3200.000000	0.004767
3199.000000	0.004748
3198.000000	0.004733
3197.000000	0.004715
3196.000000	0.004696
3195.000000	0.004680
3194.000000	0.004669
3193.000000	0.004660
3192.000000	0.004652
3191.000000	0.004645
3190.000000	0.004639
3189.000000	0.004629
3188.000000	0.004618
3187.000000	0.004609
3186.000000	0.004605
3185.000000	0.004605
3184.000000	0.004606
3183.000000	0.004607
3182.000000	0.004607
3181.000000	0.004608
3180.000000	0.004608
3179.000000	0.004604
3178.000000	0.004589
3177.000000	0.004564
3176.000000	0.004530
3175.000000	0.004490
3174.000000	0.004445
3173.000000	0.004397
3172.000000	0.004358
3171.000000	0.004337
3170.000000	0.004338
3169.000000	0.004352
3168.000000	0.004363
3167.000000	0.004364
3166.000000	0.004356
3165.000000	0.004345
3164.000000	0.004332
3163.000000	0.004312
3162.000000	0.004279
3161.000000	0.004237
3160.000000	0.004197
3159.000000	0.004175
3158.000000	0.004170
3157.000000	0.004178
3156.000000	0.004195
3155.000000	0.004223
3154.000000	0.004256
3153.000000	0.004274
3152.000000	0.004264
3151.000000	0.004229
3150.000000	0.004189
3149.000000	0.004162
3148.000000	0.004155
3147.000000	0.004166
3146.000000	0.004184
3145.000000	0.004197
3144.000000	0.004194
3143.000000	0.004177
3142.000000	0.004151
3141.000000	0.004123
3140.000000	0.004097
3139.000000	0.004080
3138.000000	0.004078
3137.000000	0.004085
3136.000000	0.004090
3135.000000	0.004084
3134.000000	0.004068
3133.000000	0.004050
3132.000000	0.004036
3131.000000	0.004033
3130.000000	0.004041
3129.000000	0.004057
3128.000000	0.004072
3127.000000	0.004079
3126.000000	0.004076
3125.000000	0.004064
3124.000000	0.004046
3123.000000	0.004030
3122.000000	0.004023
3121.000000	0.004025
3120.000000	0.004030
3119.000000	0.004027
3118.000000	0.004018
3117.000000	0.004010
3116.000000	0.004009
3115.000000	0.004017
3114.000000	0.004030
3113.000000	0.004041
3112.000000	0.004048
3111.000000	0.004053
3110.000000	0.004054
3109.000000	0.004044
3108.000000	0.004016
3107.000000	0.003974
3106.000000	0.003936
3105.000000	0.003915
3104.000000	0.003917
3103.000000	0.003934
3102.000000	0.003957
3101.000000	0.003973
3100.000000	0.003975
3099.000000	0.003964
3098.000000	0.003952
3097.000000	0.003948
3096.000000	0.003959
3095.000000	0.003982
3094.000000	0.004008
3093.000000	0.004030
3092.000000	0.004039
3091.000000	0.004035
3090.000000	0.004025
3089.000000	0.004015
3088.000000	0.004007
3087.000000	0.003998
3086.000000	0.003988
3085.000000	0.003978
3084.000000	0.003968
3083.000000	0.003956
3082.000000	0.003943
3081.000000	0.003938
3080.000000	0.003950
3079.000000	0.003984
3078.000000	0.004034
3077.000000	0.004079
3076.000000	0.004101
3075.000000	0.004097
3074.000000	0.004078
3073.000000	0.004057
3072.000000	0.004043
3071.000000	0.004036
3070.000000	0.004037
3069.000000	0.004046
3068.000000	0.004056
3067.000000	0.004062
3066.000000	0.004060
3065.000000	0.004053
3064.000000	0.004049
3063.000000	0.004049
3062.000000	0.004055
3061.000000	0.004065
3060.000000	0.004075
3059.000000	0.004084
3058.000000	0.004086
3057.000000	0.004079
3056.000000	0.004062
3055.000000	0.004037
3054.000000	0.004007
3053.000000	0.003971
3052.000000	0.003934
3051.000000	0.003908
3050.000000	0.003906
3049.000000	0.003925
3048.000000	0.003947
3047.000000	0.003956
3046.000000	0.003951
3045.000000	0.003945
3044.000000	0.003941
3043.000000	0.003935
3042.000000	0.003928
3041.000000	0.003924
3040.000000	0.003925
3039.000000	0.003922
3038.000000	0.003903
3037.000000	0.003875
3036.000000	0.003853
3035.000000	0.003852
3034.000000	0.003869
3033.000000	0.003885
3032.000000	0.003882
3031.000000	0.003858
3030.000000	0.003827
3029.000000	0.003808
3028.000000	0.003808
3027.000000	0.003822
3026.000000	0.003845
3025.000000	0.003870
3024.000000	0.003892
3023.000000	0.003904
3022.000000	0.003901
3021.000000	0.003883
3020.000000	0.003859
3019.000000	0.003833
3018.000000	0.003810
3017.000000	0.003795
3016.000000	0.003789
3015.000000	0.003791
3014.000000	0.003794
3013.000000	0.003787
3012.000000	0.003768
3011.000000	0.003748
3010.000000	0.003744
3009.000000	0.003764
3008.000000	0.003801
3007.000000	0.003843
3006.000000	0.003876
3005.000000	0.003898
3004.000000	0.003913
3003.000000	0.003926
3002.000000	0.003941
3001.000000	0.003956
3000.000000	0.003966
2999.000000	0.003969
2998.000000	0.003966
2997.000000	0.003963
2996.000000	0.003968
2995.000000	0.003986
2994.000000	0.004018
2993.000000	0.004059
2992.000000	0.004101
2991.000000	0.004140
2990.000000	0.004181
2989.000000	0.004227
2988.000000	0.004280
2987.000000	0.004334
2986.000000	0.004384
2985.000000	0.004425
2984.000000	0.004459
2983.000000	0.004492
2982.000000	0.004530
2981.000000	0.004577
2980.000000	0.004630
2979.000000	0.004689
2978.000000	0.004757
2977.000000	0.004832
2976.000000	0.004910
2975.000000	0.004989
2974.000000	0.005070
2973.000000	0.005159
2972.000000	0.005255
2971.000000	0.005350
2970.000000	0.005437
2969.000000	0.005512
2968.000000	0.005576
2967.000000	0.005631
2966.000000	0.005682
2965.000000	0.005737
2964.000000	0.005805
2963.000000	0.005885
2962.000000	0.005970
2961.000000	0.006043
2960.000000	0.006088
2959.000000	0.006100
2958.000000	0.006091
2957.000000	0.006077
2956.000000	0.006066
2955.000000	0.006052
2954.000000	0.006022
2953.000000	0.005972
2952.000000	0.005912
2951.000000	0.005860
2950.000000	0.005831
2949.000000	0.005826
2948.000000	0.005835
2947.000000	0.005848
2946.000000	0.005862
2945.000000	0.005876
2944.000000	0.005888
2943.000000	0.005904
2942.000000	0.005939
2941.000000	0.006001
2940.000000	0.006086
2939.000000	0.006182
2938.000000	0.006276
2937.000000	0.006367
2936.000000	0.006453
2935.000000	0.006531
2934.000000	0.006598
2933.000000	0.006657
2932.000000	0.006708
2931.000000	0.006755
2930.000000	0.006793
2929.000000	0.006816
2928.000000	0.006820
2927.000000	0.006806
2926.000000	0.006784
2925.000000	0.006763
2924.000000	0.006738
2923.000000	0.006694
2922.000000	0.006629
2921.000000	0.006549
2920.000000	0.006467
2919.000000	0.006388
2918.000000	0.006318
2917.000000	0.006264
2916.000000	0.006224
2915.000000	0.006184
2914.000000	0.006126
2913.000000	0.006045
2912.000000	0.005949
2911.000000	0.005857
2910.000000	0.005780
2909.000000	0.005718
2908.000000	0.005666
2907.000000	0.005615
2906.000000	0.005561
2905.000000	0.005508
2904.000000	0.005459
2903.000000	0.005415
2902.000000	0.005374
2901.000000	0.005333
2900.000000	0.005288
2899.000000	0.005238
2898.000000	0.005181
2897.000000	0.005127
2896.000000	0.005081
2895.000000	0.005043
2894.000000	0.005005
2893.000000	0.004963
2892.000000	0.004916
2891.000000	0.004868
2890.000000	0.004824
2889.000000	0.004792
2888.000000	0.004775
2887.000000	0.004769
2886.000000	0.004766
2885.000000	0.004762
2884.000000	0.004757
2883.000000	0.004758
2882.000000	0.004771
2881.000000	0.004805
2880.000000	0.004861
2879.000000	0.004927
2878.000000	0.004979
2877.000000	0.005005
2876.000000	0.005014
2875.000000	0.005027
2874.000000	0.005054
2873.000000	0.005089
2872.000000	0.005113
2871.000000	0.005114
2870.000000	0.005100
2869.000000	0.005085
2868.000000	0.005081
2867.000000	0.005088
2866.000000	0.005103
2865.000000	0.005119
2864.000000	0.005132
2863.000000	0.005142
2862.000000	0.005152
2861.000000	0.005169
2860.000000	0.005195
2859.000000	0.005224
2858.000000	0.005242
2857.000000	0.005238
2856.000000	0.005207
2855.000000	0.005157
2854.000000	0.005097
2853.000000	0.005032
2852.000000	0.004963
2851.000000	0.004884
2850.000000	0.004792
2849.000000	0.004695
2848.000000	0.004606
2847.000000	0.004530
2846.000000	0.004462
2845.000000	0.004391
2844.000000	0.004313
2843.000000	0.004229
2842.000000	0.004145
2841.000000	0.004066
2840.000000	0.003996
2839.000000	0.003938
2838.000000	0.003891
2837.000000	0.003854
2836.000000	0.003827
2835.000000	0.003809
2834.000000	0.003802
2833.000000	0.003804
2832.000000	0.003807
2831.000000	0.003801
2830.000000	0.003783
2829.000000	0.003756
2828.000000	0.003729
2827.000000	0.003705
2826.000000	0.003684
2825.000000	0.003669
2824.000000	0.003661
2823.000000	0.003659
2822.000000	0.003661
2821.000000	0.003659
2820.000000	0.003649
2819.000000	0.003625
2818.000000	0.003588
2817.000000	0.003551
2816.000000	0.003530
2815.000000	0.003533
2814.000000	0.003543
2813.000000	0.003539
2812.000000	0.003515
2811.000000	0.003489
2810.000000	0.003478
2809.000000	0.003486
2808.000000	0.003499
2807.000000	0.003506
2806.000000	0.003504
2805.000000	0.003495
2804.000000	0.003480
2803.000000	0.003460
2802.000000	0.003439
2801.000000	0.003423
2800.000000	0.003414
2799.000000	0.003409
2798.000000	0.003407
2797.000000	0.003411
2796.000000	0.003419
2795.000000	0.003427
2794.000000	0.003429
2793.000000	0.003425
2792.000000	0.003424
2791.000000	0.003429
2790.000000	0.003439
2789.000000	0.003442
2788.000000	0.003433
2787.000000	0.003412
2786.000000	0.003385
2785.000000	0.003358
2784.000000	0.003338
2783.000000	0.003330
2782.000000	0.003335
2781.000000	0.003349
2780.000000	0.003360
2779.000000	0.003359
2778.000000	0.003346
2777.000000	0.003328
2776.000000	0.003316
2775.000000	0.003310
2774.000000	0.003303
2773.000000	0.003290
2772.000000	0.003274
2771.000000	0.003265
2770.000000	0.003269
2769.000000	0.003284
2768.000000	0.003299
2767.000000	0.003303
2766.000000	0.003292
2765.000000	0.003275
2764.000000	0.003260
2763.000000	0.003252
2762.000000	0.003252
2761.000000	0.003256
2760.000000	0.003264
2759.000000	0.003272
2758.000000	0.003280
2757.000000	0.003286
2756.000000	0.003290
2755.000000	0.003291
2754.000000	0.003287
2753.000000	0.003277
2752.000000	0.003260
2751.000000	0.003245
2750.000000	0.003236
2749.000000	0.003236
2748.000000	0.003241
2747.000000	0.003241
2746.000000	0.003230
2745.000000	0.003212
2744.000000	0.003197
2743.000000	0.003194
2742.000000	0.003199
2741.000000	0.003204
2740.000000	0.003200
2739.000000	0.003190
2738.000000	0.003181
2737.000000	0.003173
2736.000000	0.003163
2735.000000	0.003146
2734.000000	0.003126
2733.000000	0.003110
2732.000000	0.003105
2731.000000	0.003109
2730.000000	0.003119
2729.000000	0.003132
2728.000000	0.003146
2727.000000	0.003154
2726.000000	0.003150
2725.000000	0.003137
2724.000000	0.003124
2723.000000	0.003118
2722.000000	0.003120
2721.000000	0.003122
2720.000000	0.003125
2719.000000	0.003132
2718.000000	0.003144
2717.000000	0.003155
2716.000000	0.003158
2715.000000	0.003145
2714.000000	0.003123
2713.000000	0.003102
2712.000000	0.003087
2711.000000	0.003076
2710.000000	0.003068
2709.000000	0.003065
2708.000000	0.003073
2707.000000	0.003084
2706.000000	0.003089
2705.000000	0.003086
2704.000000	0.003086
2703.000000	0.003094
2702.000000	0.003105
2701.000000	0.003104
2700.000000	0.003091
2699.000000	0.003075
2698.000000	0.003068
2697.000000	0.003069
2696.000000	0.003066
2695.000000	0.003055
2694.000000	0.003041
2693.000000	0.003035
2692.000000	0.003040
2691.000000	0.003045
2690.000000	0.003039
2689.000000	0.003021
2688.000000	0.003004
2687.000000	0.002998
2686.000000	0.003003
2685.000000	0.003008
2684.000000	0.003009
2683.000000	0.003012
2682.000000	0.003024
2681.000000	0.003040
2680.000000	0.003047
2679.000000	0.003042
2678.000000	0.003033
2677.000000	0.003030
2676.000000	0.003039
2675.000000	0.003054
2674.000000	0.003062
2673.000000	0.003054
2672.000000	0.003035
2671.000000	0.003020
2670.000000	0.003022
2669.000000	0.003039
2668.000000	0.003060
2667.000000	0.003074
2666.000000	0.003083
2665.000000	0.003095
2664.000000	0.003110
2663.000000	0.003120
2662.000000	0.003118
2661.000000	0.003107
2660.000000	0.003098
2659.000000	0.003097
2658.000000	0.003105
2657.000000	0.003113
2656.000000	0.003119
2655.000000	0.003123
2654.000000	0.003128
2653.000000	0.003135
2652.000000	0.003139
2651.000000	0.003131
2650.000000	0.003108
2649.000000	0.003075
2648.000000	0.003043
2647.000000	0.003021
2646.000000	0.003014
2645.000000	0.003018
2644.000000	0.003032
2643.000000	0.003053
2642.000000	0.003075
2641.000000	0.003093
2640.000000	0.003101
2639.000000	0.003098
2638.000000	0.003083
2637.000000	0.003059
2636.000000	0.003031
2635.000000	0.003001
2634.000000	0.002972
2633.000000	0.002944
2632.000000	0.002919
2631.000000	0.002903
2630.000000	0.002901
2629.000000	0.002909
2628.000000	0.002921
2627.000000	0.002932
2626.000000	0.002935
2625.000000	0.002929
2624.000000	0.002918
2623.000000	0.002912
2622.000000	0.002918
2621.000000	0.002928
2620.000000	0.002930
2619.000000	0.002918
2618.000000	0.002897
2617.000000	0.002879
2616.000000	0.002874
2615.000000	0.002882
2614.000000	0.002900
2613.000000	0.002916
2612.000000	0.002924
2611.000000	0.002923
2610.000000	0.002917
2609.000000	0.002906
2608.000000	0.002888
2607.000000	0.002866
2606.000000	0.002842
2605.000000	0.002827
2604.000000	0.002826
2603.000000	0.002834
2602.000000	0.002840
2601.000000	0.002828
2600.000000	0.002799
2599.000000	0.002762
2598.000000	0.002730
2597.000000	0.002702
2596.000000	0.002674
2595.000000	0.002648
2594.000000	0.002631
2593.000000	0.002625
2592.000000	0.002629
2591.000000	0.002639
2590.000000	0.002654
2589.000000	0.002672
2588.000000	0.002687
2587.000000	0.002698
2586.000000	0.002703
2585.000000	0.002702
2584.000000	0.002697
2583.000000	0.002685
2582.000000	0.002667
2581.000000	0.002642
2580.000000	0.002617
2579.000000	0.002600
2578.000000	0.002593
2577.000000	0.002590
2576.000000	0.002588
2575.000000	0.002591
2574.000000	0.002606
2573.000000	0.002633
2572.000000	0.002662
2571.000000	0.002684
2570.000000	0.002697
2569.000000	0.002702
2568.000000	0.002698
2567.000000	0.002681
2566.000000	0.002654
2565.000000	0.002621
2564.000000	0.002590
2563.000000	0.002572
2562.000000	0.002574
2561.000000	0.002584
2560.000000	0.002582
2559.000000	0.002558
2558.000000	0.002526
2557.000000	0.002508
2556.000000	0.002511
2555.000000	0.002520
2554.000000	0.002521
2553.000000	0.002507
2552.000000	0.002484
2551.000000	0.002460
2550.000000	0.002442
2549.000000	0.002441
2548.000000	0.002468
2547.000000	0.002524
2546.000000	0.002593
2545.000000	0.002651
2544.000000	0.002683
2543.000000	0.002690
2542.000000	0.002680
2541.000000	0.002660
2540.000000	0.002638
2539.000000	0.002629
2538.000000	0.002642
2537.000000	0.002670
2536.000000	0.002695
2535.000000	0.002703
2534.000000	0.002692
2533.000000	0.002666
2532.000000	0.002631
2531.000000	0.002596
2530.000000	0.002572
2529.000000	0.002566
2528.000000	0.002568
2527.000000	0.002570
2526.000000	0.002569
2525.000000	0.002567
2524.000000	0.002565
2523.000000	0.002565
2522.000000	0.002572
2521.000000	0.002585
2520.000000	0.002596
2519.000000	0.002599
2518.000000	0.002599
2517.000000	0.002604
2516.000000	0.002619
2515.000000	0.002644
2514.000000	0.002678
2513.000000	0.002715
2512.000000	0.002740
2511.000000	0.002737
2510.000000	0.002711
2509.000000	0.002681
2508.000000	0.002660
2507.000000	0.002646
2506.000000	0.002627
2505.000000	0.002599
2504.000000	0.002569
2503.000000	0.002547
2502.000000	0.002541
2501.000000	0.002550
2500.000000	0.002562
2499.000000	0.002562
2498.000000	0.002544
2497.000000	0.002514
2496.000000	0.002488
2495.000000	0.002474
2494.000000	0.002469
2493.000000	0.002465
2492.000000	0.002457
2491.000000	0.002446
2490.000000	0.002437
2489.000000	0.002430
2488.000000	0.002431
2487.000000	0.002442
2486.000000	0.002464
2485.000000	0.002489
2484.000000	0.002502
2483.000000	0.002490
2482.000000	0.002447
2481.000000	0.002385
2480.000000	0.002330
2479.000000	0.002308
2478.000000	0.002322
2477.000000	0.002345
2476.000000	0.002343
2475.000000	0.002306
2474.000000	0.002262
2473.000000	0.002251
2472.000000	0.002285
2471.000000	0.002339
2470.000000	0.002377
2469.000000	0.002386
2468.000000	0.002384
2467.000000	0.002394
2466.000000	0.002414
2465.000000	0.002428
2464.000000	0.002427
2463.000000	0.002417
2462.000000	0.002401
2461.000000	0.002377
2460.000000	0.002352
2459.000000	0.002346
2458.000000	0.002376
2457.000000	0.002428
2456.000000	0.002477
2455.000000	0.002514
2454.000000	0.002543
2453.000000	0.002564
2452.000000	0.002567
2451.000000	0.002553
2450.000000	0.002531
2449.000000	0.002505
2448.000000	0.002474
2447.000000	0.002440
2446.000000	0.002422
2445.000000	0.002428
2444.000000	0.002443
2443.000000	0.002442
2442.000000	0.002409
2441.000000	0.002354
2440.000000	0.002296
2439.000000	0.002264
2438.000000	0.002278
2437.000000	0.002336
2436.000000	0.002410
2435.000000	0.002470
2434.000000	0.002500
2433.000000	0.002504
2432.000000	0.002490
2431.000000	0.002468
2430.000000	0.002449
2429.000000	0.002438
2428.000000	0.002430
2427.000000	0.002419
2426.000000	0.002411
2425.000000	0.002415
2424.000000	0.002427
2423.000000	0.002433
2422.000000	0.002424
2421.000000	0.002404
2420.000000	0.002380
2419.000000	0.002353
2418.000000	0.002326
2417.000000	0.002307
2416.000000	0.002299
2415.000000	0.002302
2414.000000	0.002314
2413.000000	0.002332
2412.000000	0.002343
2411.000000	0.002335
2410.000000	0.002308
2409.000000	0.002274
2408.000000	0.002247
2407.000000	0.002230
2406.000000	0.002222
2405.000000	0.002221
2404.000000	0.002227
2403.000000	0.002239
2402.000000	0.002257
2401.000000	0.002276
2400.000000	0.002288
2399.000000	0.002280
2398.000000	0.002256
2397.000000	0.002231
2396.000000	0.002222
2395.000000	0.002229
2394.000000	0.002241
2393.000000	0.002244
2392.000000	0.002239
2391.000000	0.002240
2390.000000	0.002257
2389.000000	0.002289
2388.000000	0.002320
2387.000000	0.002328
2386.000000	0.002308
2385.000000	0.002268
2384.000000	0.002231
2383.000000	0.002215
2382.000000	0.002227
2381.000000	0.002258
2380.000000	0.002287
2379.000000	0.002295
2378.000000	0.002275
2377.000000	0.002242
2376.000000	0.002220
2375.000000	0.002232
2374.000000	0.002273
2373.000000	0.002319
2372.000000	0.002342
2371.000000	0.002334
2370.000000	0.002307
2369.000000	0.002273
2368.000000	0.002230
2367.000000	0.002188
2366.000000	0.002170
2365.000000	0.002194
2364.000000	0.002250
2363.000000	0.002312
2362.000000	0.002374
2361.000000	0.002436
2360.000000	0.002490
2359.000000	0.002523
2358.000000	0.002529
2357.000000	0.002515
2356.000000	0.002488
2355.000000	0.002453
2354.000000	0.002418
2353.000000	0.002394
2352.000000	0.002390
2351.000000	0.002405
2350.000000	0.002433
2349.000000	0.002467
2348.000000	0.002497
2347.000000	0.002512
2346.000000	0.002510
2345.000000	0.002505
2344.000000	0.002514
2343.000000	0.002538
2342.000000	0.002570
2341.000000	0.002604
2340.000000	0.002635
2339.000000	0.002651
2338.000000	0.002642
2337.000000	0.002611
2336.000000	0.002571
2335.000000	0.002541
2334.000000	0.002534
2333.000000	0.002546
2332.000000	0.002565
2331.000000	0.002573
2330.000000	0.002565
2329.000000	0.002555
2328.000000	0.002573
2327.000000	0.002634
2326.000000	0.002729
2325.000000	0.002829
2324.000000	0.002897
2323.000000	0.002908
2322.000000	0.002864
2321.000000	0.002786
2320.000000	0.002709
2319.000000	0.002653
2318.000000	0.002624
2317.000000	0.002617
2316.000000	0.002618
2315.000000	0.002612
2314.000000	0.002591
2313.000000	0.002557
2312.000000	0.002522
2311.000000	0.002497
2310.000000	0.002491
2309.000000	0.002506
2308.000000	0.002533
2307.000000	0.002548
2306.000000	0.002526
2305.000000	0.002466
2304.000000	0.002387
2303.000000	0.002319
2302.000000	0.002291
2301.000000	0.002316
2300.000000	0.002387
2299.000000	0.002474
2298.000000	0.002540
2297.000000	0.002567
2296.000000	0.002559
2295.000000	0.002533
2294.000000	0.002497
2293.000000	0.002460
2292.000000	0.002441
2291.000000	0.002458
2290.000000	0.002507
2289.000000	0.002557
2288.000000	0.002579
2287.000000	0.002567
2286.000000	0.002541
2285.000000	0.002524
2284.000000	0.002524
2283.000000	0.002533
2282.000000	0.002533
2281.000000	0.002507
2280.000000	0.002457
2279.000000	0.002414
2278.000000	0.002406
2277.000000	0.002426
2276.000000	0.002429
2275.000000	0.002389
2274.000000	0.002326
2273.000000	0.002287
2272.000000	0.002284
2271.000000	0.002295
2270.000000	0.002298
2269.000000	0.002294
2268.000000	0.002291
2267.000000	0.002278
2266.000000	0.002241
2265.000000	0.002193
2264.000000	0.002171
2263.000000	0.002202
2262.000000	0.002282
2261.000000	0.002378
2260.000000	0.002459
2259.000000	0.002512
2258.000000	0.002533
2257.000000	0.002515
2256.000000	0.002447
2255.000000	0.002345
2254.000000	0.002259
2253.000000	0.002240
2252.000000	0.002286
2251.000000	0.002336
2250.000000	0.002323
2249.000000	0.002239
2248.000000	0.002149
2247.000000	0.002131
2246.000000	0.002206
2245.000000	0.002318
2244.000000	0.002389
2243.000000	0.002388
2242.000000	0.002345
2241.000000	0.002308
2240.000000	0.002299
2239.000000	0.002318
2238.000000	0.002352
2237.000000	0.002377
2236.000000	0.002363
2235.000000	0.002306
2234.000000	0.002257
2233.000000	0.002278
2232.000000	0.002380
2231.000000	0.002489
2230.000000	0.002498
2229.000000	0.002367
2228.000000	0.002166
2227.000000	0.002034
2226.000000	0.002060
2225.000000	0.002209
2224.000000	0.002352
2223.000000	0.002400
2222.000000	0.002366
2221.000000	0.002312
2220.000000	0.002254
2219.000000	0.002170
2218.000000	0.002075
2217.000000	0.002025
2216.000000	0.002043
2215.000000	0.002074
2214.000000	0.002044
2213.000000	0.001949
2212.000000	0.001843
2211.000000	0.001775
2210.000000	0.001753
2209.000000	0.001768
2208.000000	0.001824
2207.000000	0.001938
2206.000000	0.002094
2205.000000	0.002229
2204.000000	0.002273
2203.000000	0.002225
2202.000000	0.002154
2201.000000	0.002115
2200.000000	0.002089
2199.000000	0.002044
2198.000000	0.002024
2197.000000	0.002090
2196.000000	0.002198
2195.000000	0.002199
2194.000000	0.002018
2193.000000	0.001765
2192.000000	0.001625
2191.000000	0.001665
2190.000000	0.001817
2189.000000	0.001989
2188.000000	0.002135
2187.000000	0.002221
2186.000000	0.002221
2185.000000	0.002156
2184.000000	0.002103
2183.000000	0.002114
2182.000000	0.002154
2181.000000	0.002150
2180.000000	0.002071
2179.000000	0.001939
2178.000000	0.001794
2177.000000	0.001676
2176.000000	0.001611
2175.000000	0.001588
2174.000000	0.001559
2173.000000	0.001500
2172.000000	0.001460
2171.000000	0.001533
2170.000000	0.001752
2169.000000	0.002035
2168.000000	0.002238
2167.000000	0.002281
2166.000000	0.002212
2165.000000	0.002157
2164.000000	0.002207
2163.000000	0.002350
2162.000000	0.002472
2161.000000	0.002437
2160.000000	0.002179
2159.000000	0.001778
2158.000000	0.001413
2157.000000	0.001212
2156.000000	0.001152
2155.000000	0.001126
2154.000000	0.001071
2153.000000	0.001000
2152.000000	0.000957
2151.000000	0.000980
2150.000000	0.001084
2149.000000	0.001251
2148.000000	0.001422
2147.000000	0.001514
2146.000000	0.001490
2145.000000	0.001405
2144.000000	0.001380
2143.000000	0.001493
2142.000000	0.001704
2141.000000	0.001870
2140.000000	0.001870
2139.000000	0.001716
2138.000000	0.001537
2137.000000	0.001461
2136.000000	0.001505
2135.000000	0.001584
2134.000000	0.001610
2133.000000	0.001551
2132.000000	0.001435
2131.000000	0.001307
2130.000000	0.001220
2129.000000	0.001214
2128.000000	0.001296
2127.000000	0.001422
2126.000000	0.001533
2125.000000	0.001612
2124.000000	0.001700
2123.000000	0.001842
2122.000000	0.002019
2121.000000	0.002163
2120.000000	0.002216
2119.000000	0.002188
2118.000000	0.002134
2117.000000	0.002107
2116.000000	0.002127
2115.000000	0.002196
2114.000000	0.002289
2113.000000	0.002355
2112.000000	0.002349
2111.000000	0.002272
2110.000000	0.002182
2109.000000	0.002136
2108.000000	0.002135
2107.000000	0.002134
2106.000000	0.002093
2105.000000	0.002025
2104.000000	0.001987
2103.000000	0.002027
2102.000000	0.002131
2101.000000	0.002226
2100.000000	0.002253
2099.000000	0.002217
2098.000000	0.002157
2097.000000	0.002085
2096.000000	0.001990
2095.000000	0.001895
2094.000000	0.001861
2093.000000	0.001912
2092.000000	0.001994
2091.000000	0.002037
2090.000000	0.002031
2089.000000	0.002015
2088.000000	0.002026
2087.000000	0.002074
2086.000000	0.002151
2085.000000	0.002230
2084.000000	0.002281
2083.000000	0.002304
2082.000000	0.002332
2081.000000	0.002379
2080.000000	0.002413
2079.000000	0.002395
2078.000000	0.002341
2077.000000	0.002288
2076.000000	0.002241
2075.000000	0.002174
2074.000000	0.002093
2073.000000	0.002043
2072.000000	0.002048
2071.000000	0.002083
2070.000000	0.002119
2069.000000	0.002157
2068.000000	0.002210
2067.000000	0.002268
2066.000000	0.002297
2065.000000	0.002263
2064.000000	0.002147
2063.000000	0.001981
2062.000000	0.001836
2061.000000	0.001771
2060.000000	0.001782
2059.000000	0.001827
2058.000000	0.001875
2057.000000	0.001915
2056.000000	0.001928
2055.000000	0.001912
2054.000000	0.001929
2053.000000	0.002053
2052.000000	0.002264
2051.000000	0.002426
2050.000000	0.002410
2049.000000	0.002221
2048.000000	0.002002
2047.000000	0.001901
2046.000000	0.001971
2045.000000	0.002156
2044.000000	0.002342
2043.000000	0.002425
2042.000000	0.002355
2041.000000	0.002155
2040.000000	0.001916
2039.000000	0.001777
2038.000000	0.001855
2037.000000	0.002128
2036.000000	0.002391
2035.000000	0.002415
2034.000000	0.002163
2033.000000	0.001794
2032.000000	0.001462
2031.000000	0.001191
2030.000000	0.000969
2029.000000	0.000836
2028.000000	0.000837
2027.000000	0.000942
2026.000000	0.001079
2025.000000	0.001195
2024.000000	0.001262
2023.000000	0.001284
2022.000000	0.001312
2021.000000	0.001396
2020.000000	0.001489
2019.000000	0.001479
2018.000000	0.001346
2017.000000	0.001244
2016.000000	0.001336
2015.000000	0.001605
2014.000000	0.001872
2013.000000	0.001978
2012.000000	0.001891
2011.000000	0.001684
2010.000000	0.001447
2009.000000	0.001221
2008.000000	0.001024
2007.000000	0.000886
2006.000000	0.000836
2005.000000	0.000848
2004.000000	0.000850
2003.000000	0.000839
2002.000000	0.000905
2001.000000	0.001099
2000.000000	0.001323
1999.000000	0.001436
1998.000000	0.001447
1997.000000	0.001480
1996.000000	0.001583
1995.000000	0.001665
1994.000000	0.001651
1993.000000	0.001587
1992.000000	0.001549
1991.000000	0.001532
1990.000000	0.001503
1989.000000	0.001493
1988.000000	0.001532
1987.000000	0.001578
1986.000000	0.001563
1985.000000	0.001502
1984.000000	0.001465
1983.000000	0.001481
1982.000000	0.001530
1981.000000	0.001584
1980.000000	0.001609
1979.000000	0.001537
1978.000000	0.001341
1977.000000	0.001123
1976.000000	0.001026
1975.000000	0.001070
1974.000000	0.001149
1973.000000	0.001185
1972.000000	0.001186
1971.000000	0.001189
1970.000000	0.001224
1969.000000	0.001331
1968.000000	0.001526
1967.000000	0.001730
1966.000000	0.001795
1965.000000	0.001642
1964.000000	0.001344
1963.000000	0.001057
1962.000000	0.000892
1961.000000	0.000860
1960.000000	0.000894
1959.000000	0.000928
1958.000000	0.000953
1957.000000	0.001002
1956.000000	0.001090
1955.000000	0.001181
1954.000000	0.001219
1953.000000	0.001194
1952.000000	0.001148
1951.000000	0.001129
1950.000000	0.001143
1949.000000	0.001148
1948.000000	0.001113
1947.000000	0.001074
1946.000000	0.001110
1945.000000	0.001249
1944.000000	0.001413
1943.000000	0.001484
1942.000000	0.001435
1941.000000	0.001350
1940.000000	0.001302
1939.000000	0.001287
1938.000000	0.001281
1937.000000	0.001291
1936.000000	0.001337
1935.000000	0.001395
1934.000000	0.001417
1933.000000	0.001381
1932.000000	0.001305
1931.000000	0.001216
1930.000000	0.001137
1929.000000	0.001084
1928.000000	0.001072
1927.000000	0.001098
1926.000000	0.001145
1925.000000	0.001187
1924.000000	0.001202
1923.000000	0.001191
1922.000000	0.001192
1921.000000	0.001245
1920.000000	0.001339
1919.000000	0.001423
1918.000000	0.001456
1917.000000	0.001455
1916.000000	0.001470
1915.000000	0.001518
1914.000000	0.001581
1913.000000	0.001638
1912.000000	0.001674
1911.000000	0.001675
1910.000000	0.001634
1909.000000	0.001563
1908.000000	0.001492
1907.000000	0.001446
1906.000000	0.001435
1905.000000	0.001458
1904.000000	0.001490
1903.000000	0.001492
1902.000000	0.001457
1901.000000	0.001423
1900.000000	0.001431
1899.000000	0.001469
1898.000000	0.001480
1897.000000	0.001442
1896.000000	0.001391
1895.000000	0.001379
1894.000000	0.001404
1893.000000	0.001415
1892.000000	0.001372
1891.000000	0.001290
1890.000000	0.001226
1889.000000	0.001234
1888.000000	0.001301
1887.000000	0.001377
1886.000000	0.001429
1885.000000	0.001457
1884.000000	0.001469
1883.000000	0.001464
1882.000000	0.001442
1881.000000	0.001418
1880.000000	0.001412
1879.000000	0.001416
1878.000000	0.001397
1877.000000	0.001339
1876.000000	0.001258
1875.000000	0.001182
1874.000000	0.001132
1873.000000	0.001115
1872.000000	0.001129
1871.000000	0.001166
1870.000000	0.001211
1869.000000	0.001234
1868.000000	0.001219
1867.000000	0.001181
1866.000000	0.001158
1865.000000	0.001175
1864.000000	0.001220
1863.000000	0.001259
1862.000000	0.001260
1861.000000	0.001215
1860.000000	0.001137
1859.000000	0.001052
1858.000000	0.000991
1857.000000	0.000987
1856.000000	0.001051
1855.000000	0.001152
1854.000000	0.001246
1853.000000	0.001302
1852.000000	0.001318
1851.000000	0.001309
1850.000000	0.001271
1849.000000	0.001207
1848.000000	0.001139
1847.000000	0.001101
1846.000000	0.001104
1845.000000	0.001119
1844.000000	0.001111
1843.000000	0.001080
1842.000000	0.001049
1841.000000	0.001035
1840.000000	0.001040
1839.000000	0.001068
1838.000000	0.001113
1837.000000	0.001155
1836.000000	0.001162
1835.000000	0.001128
1834.000000	0.001082
1833.000000	0.001055
1832.000000	0.001054
1831.000000	0.001064
1830.000000	0.001062
1829.000000	0.001046
1828.000000	0.001036
1827.000000	0.001038
1826.000000	0.001044
1825.000000	0.001038
1824.000000	0.001020
1823.000000	0.001005
1822.000000	0.001003
1821.000000	0.001015
1820.000000	0.001038
1819.000000	0.001061
1818.000000	0.001077
1817.000000	0.001084
1816.000000	0.001074
1815.000000	0.001042
1814.000000	0.000990
1813.000000	0.000937
1812.000000	0.000911
1811.000000	0.000924
1810.000000	0.000966
1809.000000	0.001008
1808.000000	0.001030
1807.000000	0.001033
1806.000000	0.001031
1805.000000	0.001039
1804.000000	0.001057
1803.000000	0.001079
1802.000000	0.001095
1801.000000	0.001101
1800.000000	0.001101
1799.000000	0.001101
1798.000000	0.001108
1797.000000	0.001121
1796.000000	0.001135
1795.000000	0.001141
1794.000000	0.001127
1793.000000	0.001089
1792.000000	0.001044
1791.000000	0.001016
1790.000000	0.001008
1789.000000	0.001006
1788.000000	0.000996
1787.000000	0.000977
1786.000000	0.000958
1785.000000	0.000948
1784.000000	0.000950
1783.000000	0.000967
1782.000000	0.000997
1781.000000	0.001019
1780.000000	0.001028
1779.000000	0.001029
1778.000000	0.001030
1777.000000	0.001023
1776.000000	0.000997
1775.000000	0.000971
1774.000000	0.000963
1773.000000	0.000965
1772.000000	0.000958
1771.000000	0.000945
1770.000000	0.000952
1769.000000	0.000985
1768.000000	0.001020
1767.000000	0.001044
1766.000000	0.001072
1765.000000	0.001125
1764.000000	0.001196
1763.000000	0.001263
1762.000000	0.001313
1761.000000	0.001373
1760.000000	0.001470
1759.000000	0.001608
1758.000000	0.001778
1757.000000	0.001966
1756.000000	0.002168
1755.000000	0.002389
1754.000000	0.002642
1753.000000	0.002927
1752.000000	0.003225
1751.000000	0.003504
1750.000000	0.003761
1749.000000	0.004023
1748.000000	0.004288
1747.000000	0.004533
1746.000000	0.004748
1745.000000	0.004941
1744.000000	0.005109
1743.000000	0.005238
1742.000000	0.005331
1741.000000	0.005385
1740.000000	0.005367
1739.000000	0.005273
1738.000000	0.005187
1737.000000	0.005166
1736.000000	0.005162
1735.000000	0.005017
1734.000000	0.004650
1733.000000	0.004260
1732.000000	0.004032
1731.000000	0.003906
1730.000000	0.003772
1729.000000	0.003599
1728.000000	0.003402
1727.000000	0.003196
1726.000000	0.002990
1725.000000	0.002795
1724.000000	0.002618
1723.000000	0.002443
1722.000000	0.002269
1721.000000	0.002115
1720.000000	0.001978
1719.000000	0.001832
1718.000000	0.001675
1717.000000	0.001562
1716.000000	0.001520
1715.000000	0.001507
1714.000000	0.001495
1713.000000	0.001498
1712.000000	0.001525
1711.000000	0.001557
1710.000000	0.001576
1709.000000	0.001582
1708.000000	0.001586
1707.000000	0.001590
1706.000000	0.001586
1705.000000	0.001585
1704.000000	0.001608
1703.000000	0.001676
1702.000000	0.001798
1701.000000	0.001932
1700.000000	0.001989
1699.000000	0.001980
1698.000000	0.002021
1697.000000	0.002179
1696.000000	0.002399
1695.000000	0.002585
1694.000000	0.002730
1693.000000	0.002885
1692.000000	0.003051
1691.000000	0.003201
1690.000000	0.003324
1689.000000	0.003421
1688.000000	0.003491
1687.000000	0.003547
1686.000000	0.003622
1685.000000	0.003765
1684.000000	0.003967
1683.000000	0.004157
1682.000000	0.004332
1681.000000	0.004517
1680.000000	0.004678
1679.000000	0.004787
1678.000000	0.004873
1677.000000	0.004995
1676.000000	0.005169
1675.000000	0.005343
1674.000000	0.005474
1673.000000	0.005593
1672.000000	0.005742
1671.000000	0.005919
1670.000000	0.006114
1669.000000	0.006309
1668.000000	0.006481
1667.000000	0.006616
1666.000000	0.006723
1665.000000	0.006839
1664.000000	0.006989
1663.000000	0.007170
1662.000000	0.007361
1661.000000	0.007541
1660.000000	0.007702
1659.000000	0.007823
1658.000000	0.007889
1657.000000	0.007904
1656.000000	0.007913
1655.000000	0.007969
1654.000000	0.008136
1653.000000	0.008393
1652.000000	0.008571
1651.000000	0.008663
1650.000000	0.008762
1649.000000	0.008886
1648.000000	0.009055
1647.000000	0.009241
1646.000000	0.009367
1645.000000	0.009434
1644.000000	0.009503
1643.000000	0.009586
1642.000000	0.009665
1641.000000	0.009712
1640.000000	0.009713
1639.000000	0.009680
1638.000000	0.009658
1637.000000	0.009699
1636.000000	0.009802
1635.000000	0.009874
1634.000000	0.009873
1633.000000	0.009866
1632.000000	0.009871
1631.000000	0.009861
1630.000000	0.009818
1629.000000	0.009760
1628.000000	0.009706
1627.000000	0.009661
1626.000000	0.009618
1625.000000	0.009574
1624.000000	0.009516
1623.000000	0.009412
1622.000000	0.009257
1621.000000	0.009088
1620.000000	0.008940
1619.000000	0.008818
1618.000000	0.008705
1617.000000	0.008574
1616.000000	0.008411
1615.000000	0.008241
1614.000000	0.008085
1613.000000	0.007933
1612.000000	0.007768
1611.000000	0.007594
1610.000000	0.007430
1609.000000	0.007285
1608.000000	0.007145
1607.000000	0.006998
1606.000000	0.006849
1605.000000	0.006707
1604.000000	0.006582
1603.000000	0.006475
1602.000000	0.006373
1601.000000	0.006266
1600.000000	0.006152
1599.000000	0.006038
1598.000000	0.005930
1597.000000	0.005832
1596.000000	0.005744
1595.000000	0.005667
1594.000000	0.005601
1593.000000	0.005540
1592.000000	0.005482
1591.000000	0.005427
1590.000000	0.005380
1589.000000	0.005343
1588.000000	0.005319
1587.000000	0.005305
1586.000000	0.005301
1585.000000	0.005306
1584.000000	0.005317
1583.000000	0.005333
1582.000000	0.005335
1581.000000	0.005303
1580.000000	0.005247
1579.000000	0.005208
1578.000000	0.005219
1577.000000	0.005277
1576.000000	0.005335
1575.000000	0.005365
1574.000000	0.005400
1573.000000	0.005457
1572.000000	0.005527
1571.000000	0.005605
1570.000000	0.005684
1569.000000	0.005743
1568.000000	0.005778
1567.000000	0.005825
1566.000000	0.005905
1565.000000	0.005993
1564.000000	0.006046
1563.000000	0.006052
1562.000000	0.006042
1561.000000	0.006061
1560.000000	0.006153
1559.000000	0.006331
1558.000000	0.006478
1557.000000	0.006586
1556.000000	0.006747
1555.000000	0.006942
1554.000000	0.007124
1553.000000	0.007262
1552.000000	0.007383
1551.000000	0.007521
1550.000000	0.007678
1549.000000	0.007825
1548.000000	0.007938
1547.000000	0.008031
1546.000000	0.008120
1545.000000	0.008201
1544.000000	0.008258
1543.000000	0.008288
1542.000000	0.008322
1541.000000	0.008425
1540.000000	0.008595
1539.000000	0.008732
1538.000000	0.008804
1537.000000	0.008863
1536.000000	0.008928
1535.000000	0.009004
1534.000000	0.009093
1533.000000	0.009172
1532.000000	0.009219
1531.000000	0.009238
1530.000000	0.009242
1529.000000	0.009237
1528.000000	0.009228
1527.000000	0.009218
1526.000000	0.009197
1525.000000	0.009148
1524.000000	0.009085
1523.000000	0.009047
1522.000000	0.009073
1521.000000	0.009148
1520.000000	0.009216
1519.000000	0.009271
1518.000000	0.009326
1517.000000	0.009376
1516.000000	0.009400
1515.000000	0.009396
1514.000000	0.009377
1513.000000	0.009340
1512.000000	0.009267
1511.000000	0.009157
1510.000000	0.009028
1509.000000	0.008899
1508.000000	0.008785
1507.000000	0.008700
1506.000000	0.008638
1505.000000	0.008591
1504.000000	0.008570
1503.000000	0.008553
1502.000000	0.008521
1501.000000	0.008465
1500.000000	0.008384
1499.000000	0.008281
1498.000000	0.008177
1497.000000	0.008095
1496.000000	0.008024
1495.000000	0.007943
1494.000000	0.007860
1493.000000	0.007783
1492.000000	0.007703
1491.000000	0.007603
1490.000000	0.007496
1489.000000	0.007421
1488.000000	0.007381
1487.000000	0.007340
1486.000000	0.007286
1485.000000	0.007237
1484.000000	0.007206
1483.000000	0.007194
1482.000000	0.007192
1481.000000	0.007202
1480.000000	0.007225
1479.000000	0.007249
1478.000000	0.007268
1477.000000	0.007286
1476.000000	0.007323
1475.000000	0.007393
1474.000000	0.007503
1473.000000	0.007642
1472.000000	0.007783
1471.000000	0.007916
1470.000000	0.008060
1469.000000	0.008220
1468.000000	0.008374
1467.000000	0.008501
1466.000000	0.008595
1465.000000	0.008657
1464.000000	0.008693
1463.000000	0.008718
1462.000000	0.008745
1461.000000	0.008780
1460.000000	0.008821
1459.000000	0.008879
1458.000000	0.008973
1457.000000	0.009090
1456.000000	0.009190
1455.000000	0.009289
1454.000000	0.009411
1453.000000	0.009531
1452.000000	0.009617
1451.000000	0.009663
1450.000000	0.009689
1449.000000	0.009718
1448.000000	0.009747
1447.000000	0.009772
1446.000000	0.009804
1445.000000	0.009849
1444.000000	0.009902
1443.000000	0.009951
1442.000000	0.009996
1441.000000	0.010040
1440.000000	0.010082
1439.000000	0.010109
1438.000000	0.010115
1437.000000	0.010102
1436.000000	0.010092
1435.000000	0.010117
1434.000000	0.010180
1433.000000	0.010248
1432.000000	0.010281
1431.000000	0.010268
1430.000000	0.010242
1429.000000	0.010244
1428.000000	0.010279
1427.000000	0.010331
1426.000000	0.010394
1425.000000	0.010458
1424.000000	0.010501
1423.000000	0.010517
1422.000000	0.010530
1421.000000	0.010565
1420.000000	0.010607
1419.000000	0.010622
1418.000000	0.010617
1417.000000	0.010634
1416.000000	0.010678
1415.000000	0.010715
1414.000000	0.010728
1413.000000	0.010725
1412.000000	0.010717
1411.000000	0.010699
1410.000000	0.010667
1409.000000	0.010631
1408.000000	0.010591
1407.000000	0.010546
1406.000000	0.010500
1405.000000	0.010447
1404.000000	0.010384
1403.000000	0.010321
1402.000000	0.010283
1401.000000	0.010270
1400.000000	0.010247
1399.000000	0.010189
1398.000000	0.010125
1397.000000	0.010101
1396.000000	0.010116
1395.000000	0.010129
1394.000000	0.010116
1393.000000	0.010091
1392.000000	0.010072
1391.000000	0.010054
1390.000000	0.010029
1389.000000	0.009996
1388.000000	0.009948
1387.000000	0.009879
1386.000000	0.009808
1385.000000	0.009761
1384.000000	0.009726
1383.000000	0.009673
1382.000000	0.009590
1381.000000	0.009494
1380.000000	0.009400
1379.000000	0.009304
1378.000000	0.009200
1377.000000	0.009092
1376.000000	0.008978
1375.000000	0.008851
1374.000000	0.008711
1373.000000	0.008578
1372.000000	0.008470
1371.000000	0.008386
1370.000000	0.008312
1369.000000	0.008234
1368.000000	0.008145
1367.000000	0.008054
1366.000000	0.007974
1365.000000	0.007901
1364.000000	0.007813
1363.000000	0.007697
1362.000000	0.007564
1361.000000	0.007450
1360.000000	0.007374
1359.000000	0.007327
1358.000000	0.007295
1357.000000	0.007265
1356.000000	0.007231
1355.000000	0.007194
1354.000000	0.007159
1353.000000	0.007121
1352.000000	0.007068
1351.000000	0.006998
1350.000000	0.006926
1349.000000	0.006876
1348.000000	0.006854
1347.000000	0.006850
1346.000000	0.006854
1345.000000	0.006858
1344.000000	0.006857
1343.000000	0.006846
1342.000000	0.006830
1341.000000	0.006816
1340.000000	0.006806
1339.000000	0.006797
1338.000000	0.006790
1337.000000	0.006789
1336.000000	0.006792
1335.000000	0.006790
1334.000000	0.006775
1333.000000	0.006749
1332.000000	0.006716
1331.000000	0.006685
1330.000000	0.006658
1329.000000	0.006637
1328.000000	0.006614
1327.000000	0.006590
1326.000000	0.006572
1325.000000	0.006564
1324.000000	0.006555
1323.000000	0.006532
1322.000000	0.006496
1321.000000	0.006461
1320.000000	0.006439
1319.000000	0.006426
1318.000000	0.006421
1317.000000	0.006422
1316.000000	0.006418
1315.000000	0.006396
1314.000000	0.006354
1313.000000	0.006307
1312.000000	0.006268
1311.000000	0.006238
1310.000000	0.006209
1309.000000	0.006184
1308.000000	0.006170
1307.000000	0.006164
1306.000000	0.006148
1305.000000	0.006103
1304.000000	0.006031
1303.000000	0.005953
1302.000000	0.005888
1301.000000	0.005840
1300.000000	0.005796
1299.000000	0.005751
1298.000000	0.005708
1297.000000	0.005678
1296.000000	0.005657
1295.000000	0.005629
1294.000000	0.005586
1293.000000	0.005538
1292.000000	0.005502
1291.000000	0.005491
1290.000000	0.005495
1289.000000	0.005499
1288.000000	0.005490
1287.000000	0.005471
1286.000000	0.005456
1285.000000	0.005454
1284.000000	0.005460
1283.000000	0.005463
1282.000000	0.005452
1281.000000	0.005429
1280.000000	0.005405
1279.000000	0.005391
1278.000000	0.005392
1277.000000	0.005406
1276.000000	0.005423
1275.000000	0.005437
1274.000000	0.005448
1273.000000	0.005458
1272.000000	0.005476
1271.000000	0.005510
1270.000000	0.005569
1269.000000	0.005651
1268.000000	0.005745
1267.000000	0.005844
1266.000000	0.005947
1265.000000	0.006053
1264.000000	0.006146
1263.000000	0.006208
1262.000000	0.006247
1261.000000	0.006295
1260.000000	0.006372
1259.000000	0.006470
1258.000000	0.006567
1257.000000	0.006650
1256.000000	0.006714
1255.000000	0.006753
1254.000000	0.006769
1253.000000	0.006778
1252.000000	0.006803
1251.000000	0.006848
1250.000000	0.006900
1249.000000	0.006942
1248.000000	0.006969
1247.000000	0.006991
1246.000000	0.007014
1245.000000	0.007048
1244.000000	0.007092
1243.000000	0.007140
1242.000000	0.007175
1241.000000	0.007189
1240.000000	0.007186
1239.000000	0.007183
1238.000000	0.007196
1237.000000	0.007223
1236.000000	0.007250
1235.000000	0.007262
1234.000000	0.007250
1233.000000	0.007213
1232.000000	0.007156
1231.000000	0.007087
1230.000000	0.007016
1229.000000	0.006947
1228.000000	0.006872
1227.000000	0.006781
1226.000000	0.006673
1225.000000	0.006560
1224.000000	0.006451
1223.000000	0.006351
1222.000000	0.006262
1221.000000	0.006183
1220.000000	0.006105
1219.000000	0.006022
1218.000000	0.005932
1217.000000	0.005841
1216.000000	0.005756
1215.000000	0.005677
1214.000000	0.005600
1213.000000	0.005524
1212.000000	0.005449
1211.000000	0.005380
1210.000000	0.005328
1209.000000	0.005304
1208.000000	0.005302
1207.000000	0.005305
1206.000000	0.005302
1205.000000	0.005293
1204.000000	0.005283
1203.000000	0.005269
1202.000000	0.005249
1201.000000	0.005227
1200.000000	0.005212
1199.000000	0.005209
1198.000000	0.005213
1197.000000	0.005216
1196.000000	0.005220
1195.000000	0.005229
1194.000000	0.005248
1193.000000	0.005278
1192.000000	0.005312
1191.000000	0.005348
1190.000000	0.005387
1189.000000	0.005430
1188.000000	0.005481
1187.000000	0.005543
1186.000000	0.005614
1185.000000	0.005692
1184.000000	0.005765
1183.000000	0.005822
1182.000000	0.005863
1181.000000	0.005907
1180.000000	0.005981
1179.000000	0.006096
1178.000000	0.006239
1177.000000	0.006393
1176.000000	0.006544
1175.000000	0.006688
1174.000000	0.006822
1173.000000	0.006944
1172.000000	0.007053
1171.000000	0.007151
1170.000000	0.007241
1169.000000	0.007329
1168.000000	0.007422
1167.000000	0.007521
1166.000000	0.007619
1165.000000	0.007700
1164.000000	0.007761
1163.000000	0.007810
1162.000000	0.007857
1161.000000	0.007899
1160.000000	0.007923
1159.000000	0.007931
1158.000000	0.007934
1157.000000	0.007932
1156.000000	0.007912
1155.000000	0.007858
1154.000000	0.007776
1153.000000	0.007679
1152.000000	0.007573
1151.000000	0.007462
1150.000000	0.007355
1149.000000	0.007256
1148.000000	0.007156
1147.000000	0.007038
1146.000000	0.006903
1145.000000	0.006762
1144.000000	0.006623
1143.000000	0.006478
1142.000000	0.006317
1141.000000	0.006142
1140.000000	0.005972
1139.000000	0.005826
1138.000000	0.005712
1137.000000	0.005622
1136.000000	0.005544
1135.000000	0.005483
1134.000000	0.005444
1133.000000	0.005421
1132.000000	0.005392
1131.000000	0.005351
1130.000000	0.005315
1129.000000	0.005295
1128.000000	0.005276
1127.000000	0.005239
1126.000000	0.005196
1125.000000	0.005181
1124.000000	0.005209
1123.000000	0.005269
1122.000000	0.005343
1121.000000	0.005431
1120.000000	0.005533
1119.000000	0.005638
1118.000000	0.005729
1117.000000	0.005809
1116.000000	0.005897
1115.000000	0.006001
1114.000000	0.006113
1113.000000	0.006213
1112.000000	0.006293
1111.000000	0.006361
1110.000000	0.006432
1109.000000	0.006505
1108.000000	0.006561
1107.000000	0.006585
1106.000000	0.006584
1105.000000	0.006574
1104.000000	0.006562
1103.000000	0.006542
1102.000000	0.006517
1101.000000	0.006502
1100.000000	0.006505
1099.000000	0.006523
1098.000000	0.006552
1097.000000	0.006592
1096.000000	0.006637
1095.000000	0.006681
1094.000000	0.006727
1093.000000	0.006778
1092.000000	0.006830
1091.000000	0.006871
1090.000000	0.006897
1089.000000	0.006900
1088.000000	0.006865
1087.000000	0.006784
1086.000000	0.006678
1085.000000	0.006579
1084.000000	0.006500
1083.000000	0.006432
1082.000000	0.006373
1081.000000	0.006338
1080.000000	0.006338
1079.000000	0.006361
1078.000000	0.006381
1077.000000	0.006382
1076.000000	0.006361
1075.000000	0.006323
1074.000000	0.006278
1073.000000	0.006237
1072.000000	0.006198
1071.000000	0.006154
1070.000000	0.006113
1069.000000	0.006098
1068.000000	0.006122
1067.000000	0.006166
1066.000000	0.006205
1065.000000	0.006232
1064.000000	0.006250
1063.000000	0.006265
1062.000000	0.006278
1061.000000	0.006290
1060.000000	0.006299
1059.000000	0.006297
1058.000000	0.006285
1057.000000	0.006283
1056.000000	0.006301
1055.000000	0.006326
1054.000000	0.006330
1053.000000	0.006303
1052.000000	0.006259
1051.000000	0.006212
1050.000000	0.006157
1049.000000	0.006097
1048.000000	0.006050
1047.000000	0.006039
1046.000000	0.006065
1045.000000	0.006114
1044.000000	0.006167
1043.000000	0.006216
1042.000000	0.006250
1041.000000	0.006266
1040.000000	0.006269
1039.000000	0.006281
1038.000000	0.006312
1037.000000	0.006352
1036.000000	0.006382
1035.000000	0.006407
1034.000000	0.006447
1033.000000	0.006507
1032.000000	0.006563
1031.000000	0.006587
1030.000000	0.006583
1029.000000	0.006576
1028.000000	0.006588
1027.000000	0.006622
1026.000000	0.006662
1025.000000	0.006688
1024.000000	0.006681
1023.000000	0.006641
1022.000000	0.006588
1021.000000	0.006547
1020.000000	0.006519
1019.000000	0.006488
1018.000000	0.006448
1017.000000	0.006404
1016.000000	0.006354
1015.000000	0.006287
1014.000000	0.006208
1013.000000	0.006141
1012.000000	0.006097
1011.000000	0.006064
1010.000000	0.006021
1009.000000	0.005969
1008.000000	0.005922
1007.000000	0.005888
1006.000000	0.005859
1005.000000	0.005813
1004.000000	0.005737
1003.000000	0.005633
1002.000000	0.005532
1001.000000	0.005468
1000.000000	0.005450
999.000000	0.005448
998.000000	0.005417
997.000000	0.005343
996.000000	0.005246
995.000000	0.005159
994.000000	0.005098
993.000000	0.005058
992.000000	0.005028
991.000000	0.004995
990.000000	0.004960
989.000000	0.004929
988.000000	0.004905
987.000000	0.004887
986.000000	0.004867
985.000000	0.004850
984.000000	0.004840
983.000000	0.004832
982.000000	0.004810
981.000000	0.004766
980.000000	0.004704
979.000000	0.004637
978.000000	0.004576
977.000000	0.004525
976.000000	0.004486
975.000000	0.004460
974.000000	0.004445
973.000000	0.004437
972.000000	0.004430
971.000000	0.004417
970.000000	0.004395
969.000000	0.004361
968.000000	0.004315
967.000000	0.004260
966.000000	0.004205
965.000000	0.004160
964.000000	0.004125
963.000000	0.004087
962.000000	0.004032
961.000000	0.003949
960.000000	0.003846
959.000000	0.003734
958.000000	0.003626
957.000000	0.003527
956.000000	0.003443
955.000000	0.003382
954.000000	0.003337
953.000000	0.003284
952.000000	0.003204
951.000000	0.003111
950.000000	0.003045
949.000000	0.003033
948.000000	0.003049
947.000000	0.003050
946.000000	0.003014
945.000000	0.002959
944.000000	0.002909
943.000000	0.002868
942.000000	0.002831
941.000000	0.002789
940.000000	0.002740
939.000000	0.002681
938.000000	0.002610
937.000000	0.002538
936.000000	0.002480
935.000000	0.002441
934.000000	0.002408
933.000000	0.002370
932.000000	0.002321
931.000000	0.002268
930.000000	0.002217
929.000000	0.002169
928.000000	0.002124
927.000000	0.002089
926.000000	0.002070
925.000000	0.002067
924.000000	0.002068
923.000000	0.002063
922.000000	0.002044
921.000000	0.002012
920.000000	0.001971
919.000000	0.001935
918.000000	0.001915
917.000000	0.001905
916.000000	0.001887
915.000000	0.001844
914.000000	0.001782
913.000000	0.001722
912.000000	0.001677
911.000000	0.001639
910.000000	0.001591
909.000000	0.001523
908.000000	0.001437
907.000000	0.001346
906.000000	0.001271
905.000000	0.001221
904.000000	0.001191
903.000000	0.001169
902.000000	0.001148
901.000000	0.001131
900.000000	0.001116
899.000000	0.001095
898.000000	0.001073
897.000000	0.001067
896.000000	0.001082
895.000000	0.001096
894.000000	0.001083
893.000000	0.001046
892.000000	0.001016
891.000000	0.001017
890.000000	0.001043
889.000000	0.001083
888.000000	0.001153
887.000000	0.001279
886.000000	0.001468
885.000000	0.001692
884.000000	0.001916
883.000000	0.002122
882.000000	0.002324
881.000000	0.002548
880.000000	0.002825
879.000000	0.003170
878.000000	0.003571
877.000000	0.003988
876.000000	0.004370
875.000000	0.004662
874.000000	0.004817
873.000000	0.004803
872.000000	0.004626
871.000000	0.004335
870.000000	0.004001
869.000000	0.003679
868.000000	0.003382
867.000000	0.003088
866.000000	0.002788
865.000000	0.002501
864.000000	0.002271
863.000000	0.002118
862.000000	0.002015
861.000000	0.001907
860.000000	0.001770
859.000000	0.001629
858.000000	0.001515
857.000000	0.001434
856.000000	0.001375
855.000000	0.001338
854.000000	0.001327
853.000000	0.001320
852.000000	0.001290
851.000000	0.001245
850.000000	0.001232
849.000000	0.001280
848.000000	0.001356
847.000000	0.001395
846.000000	0.001352
845.000000	0.001232
844.000000	0.001080
843.000000	0.000958
842.000000	0.000920
841.000000	0.000964
840.000000	0.001028
839.000000	0.001046
838.000000	0.001013
837.000000	0.000981
836.000000	0.001000
835.000000	0.001065
834.000000	0.001128
833.000000	0.001147
832.000000	0.001120
831.000000	0.001073
830.000000	0.001040
829.000000	0.001036
828.000000	0.001055
827.000000	0.001078
826.000000	0.001080
825.000000	0.001053
824.000000	0.001010
823.000000	0.000991
822.000000	0.001020
821.000000	0.001073
820.000000	0.001097
819.000000	0.001074
818.000000	0.001042
817.000000	0.001051
816.000000	0.001098
815.000000	0.001139
814.000000	0.001142
813.000000	0.001110
812.000000	0.001068
811.000000	0.001024
810.000000	0.000971
809.000000	0.000907
808.000000	0.000848
807.000000	0.000827
806.000000	0.000862
805.000000	0.000935
804.000000	0.001009
803.000000	0.001064
802.000000	0.001105
801.000000	0.001136
800.000000	0.001151
799.000000	0.001152
798.000000	0.001158
797.000000	0.001187
796.000000	0.001226
795.000000	0.001248
794.000000	0.001246
793.000000	0.001230
792.000000	0.001205
791.000000	0.001170
790.000000	0.001136
789.000000	0.001113
788.000000	0.001102
787.000000	0.001094
786.000000	0.001092
785.000000	0.001113
784.000000	0.001164
783.000000	0.001237
782.000000	0.001307
781.000000	0.001342
780.000000	0.001319
779.000000	0.001248
778.000000	0.001175
777.000000	0.001135
776.000000	0.001118
775.000000	0.001082
774.000000	0.001022
773.000000	0.000968
772.000000	0.000950
771.000000	0.000963
770.000000	0.000983
769.000000	0.000990
768.000000	0.000978
767.000000	0.000949
766.000000	0.000923
765.000000	0.000921
764.000000	0.000952
763.000000	0.001005
762.000000	0.001072
761.000000	0.001146
760.000000	0.001205
759.000000	0.001214
758.000000	0.001167
757.000000	0.001109
756.000000	0.001090
755.000000	0.001116
754.000000	0.001152
753.000000	0.001156
752.000000	0.001120
751.000000	0.001068
750.000000	0.001041
749.000000	0.001058
748.000000	0.001104
747.000000	0.001150
746.000000	0.001187
745.000000	0.001229
744.000000	0.001275
743.000000	0.001296
742.000000	0.001270
741.000000	0.001223
740.000000	0.001196
739.000000	0.001194
738.000000	0.001182
737.000000	0.001135
736.000000	0.001082
735.000000	0.001071
734.000000	0.001115
733.000000	0.001178
732.000000	0.001216
731.000000	0.001210
730.000000	0.001174
729.000000	0.001125
728.000000	0.001070
727.000000	0.001016
726.000000	0.000975
725.000000	0.000947
724.000000	0.000916
723.000000	0.000874
722.000000	0.000845
721.000000	0.000868
720.000000	0.000953
719.000000	0.001068
718.000000	0.001185
717.000000	0.001315
716.000000	0.001498
715.000000	0.001757
714.000000	0.002066
713.000000	0.002343
712.000000	0.002489
711.000000	0.002450
710.000000	0.002270
709.000000	0.002056
708.000000	0.001903
707.000000	0.001844
706.000000	0.001852
705.000000	0.001879
704.000000	0.001881
703.000000	0.001846
702.000000	0.001813
701.000000	0.001835
700.000000	0.001928
699.000000	0.002043
698.000000	0.002118
697.000000	0.002126
696.000000	0.002081
695.000000	0.002015
694.000000	0.001958
693.000000	0.001930
692.000000	0.001932
691.000000	0.001936
690.000000	0.001907
689.000000	0.001835
688.000000	0.001759
687.000000	0.001739
686.000000	0.001803
685.000000	0.001916
684.000000	0.002000
683.000000	0.002012
682.000000	0.001977
681.000000	0.001943
680.000000	0.001924
679.000000	0.001902
678.000000	0.001879
677.000000	0.001888
676.000000	0.001947
675.000000	0.002029
674.000000	0.002089
673.000000	0.002103
672.000000	0.002071
671.000000	0.002013
670.000000	0.001952
669.000000	0.001919
668.000000	0.001954
667.000000	0.002015
666.000000	0.002015
665.000000	0.001992
664.000000	0.001975
663.000000	0.001941
662.000000	0.001878
661.000000	0.001819
660.000000	0.001780
659.000000	0.001726
658.000000	0.001630
657.000000	0.001527
656.000000	0.001476
655.000000	0.001495
654.000000	0.001559
653.000000	0.001641
652.000000	0.001727
651.000000	0.001808
650.000000	0.001885
649.000000	0.001969
648.000000	0.002045
647.000000	0.002077
646.000000	0.002052
645.000000	0.002007
644.000000	0.001985
643.000000	0.001987
642.000000	0.001979
641.000000	0.001943
640.000000	0.001890
639.000000	0.001849
638.000000	0.001847
637.000000	0.001885
636.000000	0.001928
635.000000	0.001937
634.000000	0.001925
633.000000	0.001948
632.000000	0.002035
631.000000	0.002152
630.000000	0.002241
629.000000	0.002274
628.000000	0.002252
627.000000	0.002183
626.000000	0.002088
625.000000	0.002003
624.000000	0.001945
623.000000	0.001901
622.000000	0.001850
621.000000	0.001800
620.000000	0.001769
619.000000	0.001772
618.000000	0.001830
617.000000	0.001969
616.000000	0.002169
615.000000	0.002356
614.000000	0.002452
613.000000	0.002440
612.000000	0.002372
611.000000	0.002324
610.000000	0.002346
609.000000	0.002431
608.000000	0.002518
607.000000	0.002547
606.000000	0.002526
605.000000	0.002498
604.000000	0.002471
603.000000	0.002402
602.000000	0.002275
601.000000	0.002136
600.000000	0.002033
599.000000	0.001977
598.000000	0.001955
597.000000	0.001970
596.000000	0.002006
595.000000	0.002020
594.000000	0.001977
593.000000	0.001889
592.000000	0.001795
591.000000	0.001727
590.000000	0.001705
589.000000	0.001724
588.000000	0.001743
587.000000	0.001722
586.000000	0.001685
585.000000	0.001701
584.000000	0.001780
583.000000	0.001840
582.000000	0.001810
581.000000	0.001719
580.000000	0.001631
579.000000	0.001567
578.000000	0.001521
577.000000	0.001517
576.000000	0.001564
575.000000	0.001604
574.000000	0.001572
573.000000	0.001493
572.000000	0.001451
571.000000	0.001484
570.000000	0.001555
569.000000	0.001610
568.000000	0.001616
567.000000	0.001561
566.000000	0.001453
565.000000	0.001327
564.000000	0.001224
563.000000	0.001166
562.000000	0.001170
561.000000	0.001238
560.000000	0.001335
559.000000	0.001402
558.000000	0.001422
557.000000	0.001432
556.000000	0.001456
555.000000	0.001466
554.000000	0.001452
553.000000	0.001485
552.000000	0.001627
551.000000	0.001818
550.000000	0.001940
549.000000	0.001965
548.000000	0.001964
547.000000	0.001975
546.000000	0.001933
545.000000	0.001779
544.000000	0.001562
543.000000	0.001413
542.000000	0.001422
541.000000	0.001563
540.000000	0.001722
539.000000	0.001809
538.000000	0.001830
537.000000	0.001847
536.000000	0.001860
535.000000	0.001794
534.000000	0.001624
533.000000	0.001449
532.000000	0.001387
531.000000	0.001428
530.000000	0.001449
529.000000	0.001368
528.000000	0.001227
527.000000	0.001129
526.000000	0.001130
525.000000	0.001199
524.000000	0.001269
523.000000	0.001328
522.000000	0.001411
521.000000	0.001517
520.000000	0.001567
519.000000	0.001491
518.000000	0.001367
517.000000	0.001361
516.000000	0.001507
515.000000	0.001664
514.000000	0.001691
513.000000	0.001583
512.000000	0.001411
511.000000	0.001240
510.000000	0.001141
509.000000	0.001187
508.000000	0.001365
507.000000	0.001534
506.000000	0.001551
505.000000	0.001426
504.000000	0.001272
503.000000	0.001172
502.000000	0.001145
501.000000	0.001174
500.000000	0.001215
499.000000	0.001220
498.000000	0.001199
497.000000	0.001216
496.000000	0.001290
495.000000	0.001356
494.000000	0.001354
493.000000	0.001303
492.000000	0.001249
491.000000	0.001204
490.000000	0.001186
489.000000	0.001254
488.000000	0.001397
487.000000	0.001493
486.000000	0.001440
485.000000	0.001299
484.000000	0.001212
483.000000	0.001218
482.000000	0.001270
481.000000	0.001358
480.000000	0.001487
479.000000	0.001583
478.000000	0.001543
477.000000	0.001364
476.000000	0.001135
475.000000	0.000910
474.000000	0.000736
473.000000	0.000735
472.000000	0.001000
471.000000	0.001394
470.000000	0.001675
469.000000	0.001739
468.000000	0.001612
467.000000	0.001325
466.000000	0.000967
465.000000	0.000718
464.000000	0.000681
463.000000	0.000748
462.000000	0.000715
461.000000	0.000579
460.000000	0.000540
459.000000	0.000732
458.000000	0.001069
457.000000	0.001387
456.000000	0.001617
455.000000	0.001738
454.000000	0.001681
453.000000	0.001439
452.000000	0.001153
451.000000	0.000969
450.000000	0.000873
