PE IR       SUBTECH     SPECTRUM    ASCII       PEDS        4.00        
   -1
P12-Rouge028_1.ASC
23/06/08
15:17:11.00
23/06/08
15:48:35.00
uco
Sample 028 By uco Date Thursday, June 08 2023
450.000000
#HDR
-1
-1
#GR
cm-1
A
1.0
0.0
4000.000000
-1.000000
3551
8
0.020345
0.002992
#DATA
4000.000000	0.003347
3999.000000	0.003368
3998.000000	0.003383
3997.000000	0.003380
3996.000000	0.003358
3995.000000	0.003330
3994.000000	0.003312
3993.000000	0.003314
3992.000000	0.003333
3991.000000	0.003363
3990.000000	0.003397
3989.000000	0.003429
3988.000000	0.003452
3987.000000	0.003458
3986.000000	0.003444
3985.000000	0.003418
3984.000000	0.003391
3983.000000	0.003376
3982.000000	0.003376
3981.000000	0.003389
3980.000000	0.003403
3979.000000	0.003411
3978.000000	0.003410
3977.000000	0.003405
3976.000000	0.003404
3975.000000	0.003410
3974.000000	0.003421
3973.000000	0.003428
3972.000000	0.003424
3971.000000	0.003412
3970.000000	0.003399
3969.000000	0.003393
3968.000000	0.003399
3967.000000	0.003414
3966.000000	0.003430
3965.000000	0.003440
3964.000000	0.003439
3963.000000	0.003429
3962.000000	0.003421
3961.000000	0.003425
3960.000000	0.003445
3959.000000	0.003469
3958.000000	0.003483
3957.000000	0.003476
3956.000000	0.003453
3955.000000	0.003424
3954.000000	0.003403
3953.000000	0.003398
3952.000000	0.003412
3951.000000	0.003439
3950.000000	0.003468
3949.000000	0.003489
3948.000000	0.003497
3947.000000	0.003493
3946.000000	0.003483
3945.000000	0.003472
3944.000000	0.003462
3943.000000	0.003458
3942.000000	0.003471
3941.000000	0.003505
3940.000000	0.003549
3939.000000	0.003579
3938.000000	0.003578
3937.000000	0.003551
3936.000000	0.003522
3935.000000	0.003509
3934.000000	0.003517
3933.000000	0.003531
3932.000000	0.003539
3931.000000	0.003535
3930.000000	0.003528
3929.000000	0.003525
3928.000000	0.003525
3927.000000	0.003524
3926.000000	0.003521
3925.000000	0.003515
3924.000000	0.003508
3923.000000	0.003508
3922.000000	0.003520
3921.000000	0.003543
3920.000000	0.003565
3919.000000	0.003573
3918.000000	0.003559
3917.000000	0.003527
3916.000000	0.003494
3915.000000	0.003473
3914.000000	0.003468
3913.000000	0.003474
3912.000000	0.003484
3911.000000	0.003498
3910.000000	0.003511
3909.000000	0.003520
3908.000000	0.003520
3907.000000	0.003514
3906.000000	0.003509
3905.000000	0.003514
3904.000000	0.003525
3903.000000	0.003533
3902.000000	0.003531
3901.000000	0.003524
3900.000000	0.003515
3899.000000	0.003510
3898.000000	0.003507
3897.000000	0.003508
3896.000000	0.003513
3895.000000	0.003524
3894.000000	0.003538
3893.000000	0.003551
3892.000000	0.003554
3891.000000	0.003544
3890.000000	0.003532
3889.000000	0.003532
3888.000000	0.003545
3887.000000	0.003564
3886.000000	0.003577
3885.000000	0.003574
3884.000000	0.003556
3883.000000	0.003526
3882.000000	0.003489
3881.000000	0.003452
3880.000000	0.003429
3879.000000	0.003430
3878.000000	0.003454
3877.000000	0.003481
3876.000000	0.003498
3875.000000	0.003502
3874.000000	0.003507
3873.000000	0.003524
3872.000000	0.003548
3871.000000	0.003561
3870.000000	0.003547
3869.000000	0.003516
3868.000000	0.003495
3867.000000	0.003488
3866.000000	0.003485
3865.000000	0.003480
3864.000000	0.003478
3863.000000	0.003484
3862.000000	0.003492
3861.000000	0.003498
3860.000000	0.003501
3859.000000	0.003504
3858.000000	0.003505
3857.000000	0.003500
3856.000000	0.003485
3855.000000	0.003470
3854.000000	0.003467
3853.000000	0.003464
3852.000000	0.003451
3851.000000	0.003444
3850.000000	0.003451
3849.000000	0.003464
3848.000000	0.003479
3847.000000	0.003492
3846.000000	0.003498
3845.000000	0.003494
3844.000000	0.003483
3843.000000	0.003474
3842.000000	0.003476
3841.000000	0.003487
3840.000000	0.003501
3839.000000	0.003511
3838.000000	0.003517
3837.000000	0.003523
3836.000000	0.003533
3835.000000	0.003543
3834.000000	0.003546
3833.000000	0.003539
3832.000000	0.003522
3831.000000	0.003507
3830.000000	0.003502
3829.000000	0.003505
3828.000000	0.003503
3827.000000	0.003488
3826.000000	0.003466
3825.000000	0.003449
3824.000000	0.003446
3823.000000	0.003453
3822.000000	0.003463
3821.000000	0.003471
3820.000000	0.003480
3819.000000	0.003496
3818.000000	0.003507
3817.000000	0.003496
3816.000000	0.003465
3815.000000	0.003436
3814.000000	0.003427
3813.000000	0.003431
3812.000000	0.003431
3811.000000	0.003423
3810.000000	0.003416
3809.000000	0.003419
3808.000000	0.003428
3807.000000	0.003436
3806.000000	0.003439
3805.000000	0.003442
3804.000000	0.003440
3803.000000	0.003420
3802.000000	0.003381
3801.000000	0.003339
3800.000000	0.003324
3799.000000	0.003339
3798.000000	0.003366
3797.000000	0.003389
3796.000000	0.003402
3795.000000	0.003411
3794.000000	0.003423
3793.000000	0.003438
3792.000000	0.003453
3791.000000	0.003462
3790.000000	0.003462
3789.000000	0.003456
3788.000000	0.003450
3787.000000	0.003454
3786.000000	0.003467
3785.000000	0.003479
3784.000000	0.003483
3783.000000	0.003480
3782.000000	0.003480
3781.000000	0.003486
3780.000000	0.003494
3779.000000	0.003496
3778.000000	0.003487
3777.000000	0.003469
3776.000000	0.003446
3775.000000	0.003421
3774.000000	0.003402
3773.000000	0.003398
3772.000000	0.003409
3771.000000	0.003420
3770.000000	0.003413
3769.000000	0.003390
3768.000000	0.003369
3767.000000	0.003369
3766.000000	0.003393
3765.000000	0.003427
3764.000000	0.003451
3763.000000	0.003450
3762.000000	0.003419
3761.000000	0.003370
3760.000000	0.003330
3759.000000	0.003324
3758.000000	0.003352
3757.000000	0.003401
3756.000000	0.003451
3755.000000	0.003489
3754.000000	0.003509
3753.000000	0.003514
3752.000000	0.003519
3751.000000	0.003526
3750.000000	0.003519
3749.000000	0.003493
3748.000000	0.003460
3747.000000	0.003431
3746.000000	0.003409
3745.000000	0.003394
3744.000000	0.003386
3743.000000	0.003388
3742.000000	0.003400
3741.000000	0.003413
3740.000000	0.003426
3739.000000	0.003445
3738.000000	0.003480
3737.000000	0.003526
3736.000000	0.003551
3735.000000	0.003527
3734.000000	0.003466
3733.000000	0.003407
3732.000000	0.003373
3731.000000	0.003363
3730.000000	0.003370
3729.000000	0.003391
3728.000000	0.003423
3727.000000	0.003464
3726.000000	0.003511
3725.000000	0.003555
3724.000000	0.003583
3723.000000	0.003585
3722.000000	0.003558
3721.000000	0.003510
3720.000000	0.003454
3719.000000	0.003405
3718.000000	0.003368
3717.000000	0.003345
3716.000000	0.003335
3715.000000	0.003333
3714.000000	0.003344
3713.000000	0.003379
3712.000000	0.003435
3711.000000	0.003479
3710.000000	0.003482
3709.000000	0.003446
3708.000000	0.003398
3707.000000	0.003360
3706.000000	0.003340
3705.000000	0.003334
3704.000000	0.003335
3703.000000	0.003336
3702.000000	0.003335
3701.000000	0.003336
3700.000000	0.003345
3699.000000	0.003366
3698.000000	0.003397
3697.000000	0.003427
3696.000000	0.003449
3695.000000	0.003460
3694.000000	0.003460
3693.000000	0.003451
3692.000000	0.003438
3691.000000	0.003426
3690.000000	0.003419
3689.000000	0.003420
3688.000000	0.003426
3687.000000	0.003430
3686.000000	0.003425
3685.000000	0.003409
3684.000000	0.003391
3683.000000	0.003389
3682.000000	0.003407
3681.000000	0.003441
3680.000000	0.003482
3679.000000	0.003521
3678.000000	0.003553
3677.000000	0.003564
3676.000000	0.003542
3675.000000	0.003496
3674.000000	0.003463
3673.000000	0.003457
3672.000000	0.003465
3671.000000	0.003475
3670.000000	0.003489
3669.000000	0.003507
3668.000000	0.003519
3667.000000	0.003518
3666.000000	0.003504
3665.000000	0.003494
3664.000000	0.003504
3663.000000	0.003534
3662.000000	0.003568
3661.000000	0.003584
3660.000000	0.003571
3659.000000	0.003541
3658.000000	0.003517
3657.000000	0.003517
3656.000000	0.003543
3655.000000	0.003581
3654.000000	0.003611
3653.000000	0.003624
3652.000000	0.003619
3651.000000	0.003618
3650.000000	0.003647
3649.000000	0.003704
3648.000000	0.003749
3647.000000	0.003758
3646.000000	0.003736
3645.000000	0.003703
3644.000000	0.003670
3643.000000	0.003648
3642.000000	0.003643
3641.000000	0.003660
3640.000000	0.003696
3639.000000	0.003739
3638.000000	0.003779
3637.000000	0.003810
3636.000000	0.003829
3635.000000	0.003840
3634.000000	0.003850
3633.000000	0.003866
3632.000000	0.003889
3631.000000	0.003909
3630.000000	0.003920
3629.000000	0.003929
3628.000000	0.003953
3627.000000	0.004000
3626.000000	0.004050
3625.000000	0.004073
3624.000000	0.004057
3623.000000	0.004009
3622.000000	0.003955
3621.000000	0.003921
3620.000000	0.003926
3619.000000	0.003962
3618.000000	0.004006
3617.000000	0.004050
3616.000000	0.004097
3615.000000	0.004150
3614.000000	0.004198
3613.000000	0.004227
3612.000000	0.004234
3611.000000	0.004237
3610.000000	0.004256
3609.000000	0.004298
3608.000000	0.004340
3607.000000	0.004364
3606.000000	0.004371
3605.000000	0.004378
3604.000000	0.004394
3603.000000	0.004416
3602.000000	0.004433
3601.000000	0.004442
3600.000000	0.004450
3599.000000	0.004462
3598.000000	0.004477
3597.000000	0.004494
3596.000000	0.004520
3595.000000	0.004562
3594.000000	0.004617
3593.000000	0.004671
3592.000000	0.004714
3591.000000	0.004744
3590.000000	0.004766
3589.000000	0.004783
3588.000000	0.004796
3587.000000	0.004807
3586.000000	0.004827
3585.000000	0.004865
3584.000000	0.004917
3583.000000	0.004966
3582.000000	0.005000
3581.000000	0.005015
3580.000000	0.005018
3579.000000	0.005022
3578.000000	0.005034
3577.000000	0.005058
3576.000000	0.005093
3575.000000	0.005140
3574.000000	0.005193
3573.000000	0.005253
3572.000000	0.005320
3571.000000	0.005400
3570.000000	0.005492
3569.000000	0.005588
3568.000000	0.005669
3567.000000	0.005718
3566.000000	0.005738
3565.000000	0.005754
3564.000000	0.005781
3563.000000	0.005817
3562.000000	0.005855
3561.000000	0.005895
3560.000000	0.005940
3559.000000	0.005990
3558.000000	0.006041
3557.000000	0.006089
3556.000000	0.006139
3555.000000	0.006202
3554.000000	0.006286
3553.000000	0.006385
3552.000000	0.006476
3551.000000	0.006544
3550.000000	0.006587
3549.000000	0.006617
3548.000000	0.006645
3547.000000	0.006671
3546.000000	0.006688
3545.000000	0.006698
3544.000000	0.006711
3543.000000	0.006735
3542.000000	0.006771
3541.000000	0.006811
3540.000000	0.006848
3539.000000	0.006879
3538.000000	0.006905
3537.000000	0.006928
3536.000000	0.006943
3535.000000	0.006948
3534.000000	0.006948
3533.000000	0.006949
3532.000000	0.006953
3531.000000	0.006956
3530.000000	0.006950
3529.000000	0.006935
3528.000000	0.006918
3527.000000	0.006904
3526.000000	0.006900
3525.000000	0.006905
3524.000000	0.006916
3523.000000	0.006924
3522.000000	0.006917
3521.000000	0.006889
3520.000000	0.006848
3519.000000	0.006807
3518.000000	0.006779
3517.000000	0.006766
3516.000000	0.006760
3515.000000	0.006751
3514.000000	0.006736
3513.000000	0.006721
3512.000000	0.006711
3511.000000	0.006703
3510.000000	0.006692
3509.000000	0.006677
3508.000000	0.006669
3507.000000	0.006677
3506.000000	0.006699
3505.000000	0.006722
3504.000000	0.006735
3503.000000	0.006736
3502.000000	0.006728
3501.000000	0.006715
3500.000000	0.006703
3499.000000	0.006694
3498.000000	0.006691
3497.000000	0.006694
3496.000000	0.006700
3495.000000	0.006703
3494.000000	0.006698
3493.000000	0.006689
3492.000000	0.006684
3491.000000	0.006688
3490.000000	0.006699
3489.000000	0.006710
3488.000000	0.006712
3487.000000	0.006710
3486.000000	0.006711
3485.000000	0.006725
3484.000000	0.006749
3483.000000	0.006770
3482.000000	0.006778
3481.000000	0.006769
3480.000000	0.006755
3479.000000	0.006748
3478.000000	0.006754
3477.000000	0.006767
3476.000000	0.006777
3475.000000	0.006784
3474.000000	0.006795
3473.000000	0.006817
3472.000000	0.006848
3471.000000	0.006873
3470.000000	0.006882
3469.000000	0.006877
3468.000000	0.006868
3467.000000	0.006864
3466.000000	0.006867
3465.000000	0.006874
3464.000000	0.006882
3463.000000	0.006889
3462.000000	0.006892
3461.000000	0.006891
3460.000000	0.006886
3459.000000	0.006885
3458.000000	0.006892
3457.000000	0.006911
3456.000000	0.006939
3455.000000	0.006968
3454.000000	0.006990
3453.000000	0.007008
3452.000000	0.007027
3451.000000	0.007054
3450.000000	0.007083
3449.000000	0.007105
3448.000000	0.007115
3447.000000	0.007119
3446.000000	0.007131
3445.000000	0.007159
3444.000000	0.007195
3443.000000	0.007224
3442.000000	0.007233
3441.000000	0.007227
3440.000000	0.007222
3439.000000	0.007236
3438.000000	0.007273
3437.000000	0.007321
3436.000000	0.007364
3435.000000	0.007395
3434.000000	0.007418
3433.000000	0.007448
3432.000000	0.007490
3431.000000	0.007538
3430.000000	0.007576
3429.000000	0.007599
3428.000000	0.007611
3427.000000	0.007625
3426.000000	0.007651
3425.000000	0.007693
3424.000000	0.007746
3423.000000	0.007807
3422.000000	0.007870
3421.000000	0.007928
3420.000000	0.007974
3419.000000	0.008005
3418.000000	0.008032
3417.000000	0.008069
3416.000000	0.008124
3415.000000	0.008188
3414.000000	0.008251
3413.000000	0.008309
3412.000000	0.008370
3411.000000	0.008441
3410.000000	0.008514
3409.000000	0.008568
3408.000000	0.008594
3407.000000	0.008597
3406.000000	0.008596
3405.000000	0.008605
3404.000000	0.008630
3403.000000	0.008669
3402.000000	0.008719
3401.000000	0.008772
3400.000000	0.008816
3399.000000	0.008838
3398.000000	0.008836
3397.000000	0.008823
3396.000000	0.008814
3395.000000	0.008814
3394.000000	0.008809
3393.000000	0.008787
3392.000000	0.008745
3391.000000	0.008697
3390.000000	0.008659
3389.000000	0.008640
3388.000000	0.008638
3387.000000	0.008647
3386.000000	0.008659
3385.000000	0.008672
3384.000000	0.008687
3383.000000	0.008701
3382.000000	0.008708
3381.000000	0.008704
3380.000000	0.008692
3379.000000	0.008675
3378.000000	0.008654
3377.000000	0.008631
3376.000000	0.008606
3375.000000	0.008578
3374.000000	0.008551
3373.000000	0.008528
3372.000000	0.008515
3371.000000	0.008517
3370.000000	0.008533
3369.000000	0.008554
3368.000000	0.008570
3367.000000	0.008574
3366.000000	0.008567
3365.000000	0.008554
3364.000000	0.008542
3363.000000	0.008538
3362.000000	0.008544
3361.000000	0.008554
3360.000000	0.008565
3359.000000	0.008581
3358.000000	0.008601
3357.000000	0.008622
3356.000000	0.008634
3355.000000	0.008637
3354.000000	0.008643
3353.000000	0.008659
3352.000000	0.008684
3351.000000	0.008705
3350.000000	0.008714
3349.000000	0.008711
3348.000000	0.008701
3347.000000	0.008696
3346.000000	0.008700
3345.000000	0.008712
3344.000000	0.008728
3343.000000	0.008742
3342.000000	0.008754
3341.000000	0.008769
3340.000000	0.008791
3339.000000	0.008820
3338.000000	0.008856
3337.000000	0.008892
3336.000000	0.008922
3335.000000	0.008942
3334.000000	0.008954
3333.000000	0.008967
3332.000000	0.008980
3331.000000	0.008992
3330.000000	0.009001
3329.000000	0.009011
3328.000000	0.009027
3327.000000	0.009048
3326.000000	0.009072
3325.000000	0.009093
3324.000000	0.009110
3323.000000	0.009121
3322.000000	0.009124
3321.000000	0.009124
3320.000000	0.009128
3319.000000	0.009145
3318.000000	0.009181
3317.000000	0.009234
3316.000000	0.009292
3315.000000	0.009336
3314.000000	0.009355
3313.000000	0.009355
3312.000000	0.009353
3311.000000	0.009363
3310.000000	0.009383
3309.000000	0.009402
3308.000000	0.009417
3307.000000	0.009433
3306.000000	0.009451
3305.000000	0.009468
3304.000000	0.009479
3303.000000	0.009486
3302.000000	0.009494
3301.000000	0.009504
3300.000000	0.009514
3299.000000	0.009524
3298.000000	0.009534
3297.000000	0.009547
3296.000000	0.009567
3295.000000	0.009597
3294.000000	0.009636
3293.000000	0.009675
3292.000000	0.009706
3291.000000	0.009727
3290.000000	0.009738
3289.000000	0.009740
3288.000000	0.009733
3287.000000	0.009724
3286.000000	0.009721
3285.000000	0.009726
3284.000000	0.009732
3283.000000	0.009735
3282.000000	0.009737
3281.000000	0.009739
3280.000000	0.009737
3279.000000	0.009728
3278.000000	0.009715
3277.000000	0.009707
3276.000000	0.009711
3275.000000	0.009721
3274.000000	0.009724
3273.000000	0.009709
3272.000000	0.009681
3271.000000	0.009658
3270.000000	0.009656
3269.000000	0.009681
3268.000000	0.009725
3267.000000	0.009773
3266.000000	0.009810
3265.000000	0.009830
3264.000000	0.009834
3263.000000	0.009826
3262.000000	0.009809
3261.000000	0.009782
3260.000000	0.009744
3259.000000	0.009701
3258.000000	0.009661
3257.000000	0.009631
3256.000000	0.009607
3255.000000	0.009584
3254.000000	0.009560
3253.000000	0.009538
3252.000000	0.009523
3251.000000	0.009513
3250.000000	0.009505
3249.000000	0.009496
3248.000000	0.009487
3247.000000	0.009477
3246.000000	0.009466
3245.000000	0.009450
3244.000000	0.009430
3243.000000	0.009407
3242.000000	0.009385
3241.000000	0.009367
3240.000000	0.009351
3239.000000	0.009337
3238.000000	0.009326
3237.000000	0.009317
3236.000000	0.009304
3235.000000	0.009282
3234.000000	0.009251
3233.000000	0.009219
3232.000000	0.009200
3231.000000	0.009192
3230.000000	0.009186
3229.000000	0.009172
3228.000000	0.009153
3227.000000	0.009138
3226.000000	0.009129
3225.000000	0.009125
3224.000000	0.009123
3223.000000	0.009123
3222.000000	0.009116
3221.000000	0.009095
3220.000000	0.009064
3219.000000	0.009038
3218.000000	0.009027
3217.000000	0.009027
3216.000000	0.009026
3215.000000	0.009015
3214.000000	0.009000
3213.000000	0.008988
3212.000000	0.008982
3211.000000	0.008979
3210.000000	0.008976
3209.000000	0.008974
3208.000000	0.008973
3207.000000	0.008975
3206.000000	0.008977
3205.000000	0.008972
3204.000000	0.008954
3203.000000	0.008921
3202.000000	0.008883
3201.000000	0.008847
3200.000000	0.008819
3199.000000	0.008801
3198.000000	0.008794
3197.000000	0.008793
3196.000000	0.008794
3195.000000	0.008785
3194.000000	0.008763
3193.000000	0.008732
3192.000000	0.008701
3191.000000	0.008680
3190.000000	0.008671
3189.000000	0.008673
3188.000000	0.008679
3187.000000	0.008682
3186.000000	0.008675
3185.000000	0.008660
3184.000000	0.008645
3183.000000	0.008637
3182.000000	0.008637
3181.000000	0.008637
3180.000000	0.008631
3179.000000	0.008617
3178.000000	0.008592
3177.000000	0.008558
3176.000000	0.008521
3175.000000	0.008485
3174.000000	0.008450
3173.000000	0.008415
3172.000000	0.008383
3171.000000	0.008362
3170.000000	0.008353
3169.000000	0.008344
3168.000000	0.008326
3167.000000	0.008301
3166.000000	0.008277
3165.000000	0.008257
3164.000000	0.008239
3163.000000	0.008218
3162.000000	0.008195
3161.000000	0.008173
3160.000000	0.008151
3159.000000	0.008127
3158.000000	0.008102
3157.000000	0.008082
3156.000000	0.008072
3155.000000	0.008079
3154.000000	0.008096
3153.000000	0.008107
3152.000000	0.008095
3151.000000	0.008061
3150.000000	0.008023
3149.000000	0.008000
3148.000000	0.007996
3147.000000	0.007999
3146.000000	0.007995
3145.000000	0.007984
3144.000000	0.007968
3143.000000	0.007952
3142.000000	0.007936
3141.000000	0.007918
3140.000000	0.007896
3139.000000	0.007876
3138.000000	0.007862
3137.000000	0.007853
3136.000000	0.007841
3135.000000	0.007821
3134.000000	0.007793
3133.000000	0.007766
3132.000000	0.007747
3131.000000	0.007738
3130.000000	0.007734
3129.000000	0.007728
3128.000000	0.007716
3127.000000	0.007697
3126.000000	0.007675
3125.000000	0.007653
3124.000000	0.007632
3123.000000	0.007613
3122.000000	0.007599
3121.000000	0.007593
3120.000000	0.007594
3119.000000	0.007599
3118.000000	0.007602
3117.000000	0.007597
3116.000000	0.007589
3115.000000	0.007582
3114.000000	0.007581
3113.000000	0.007583
3112.000000	0.007581
3111.000000	0.007572
3110.000000	0.007560
3109.000000	0.007547
3108.000000	0.007531
3107.000000	0.007516
3106.000000	0.007505
3105.000000	0.007505
3104.000000	0.007513
3103.000000	0.007520
3102.000000	0.007514
3101.000000	0.007492
3100.000000	0.007461
3099.000000	0.007432
3098.000000	0.007418
3097.000000	0.007421
3096.000000	0.007439
3095.000000	0.007465
3094.000000	0.007492
3093.000000	0.007516
3092.000000	0.007534
3091.000000	0.007540
3090.000000	0.007531
3089.000000	0.007514
3088.000000	0.007503
3087.000000	0.007511
3086.000000	0.007535
3085.000000	0.007560
3084.000000	0.007571
3083.000000	0.007563
3082.000000	0.007542
3081.000000	0.007520
3080.000000	0.007508
3079.000000	0.007513
3078.000000	0.007534
3077.000000	0.007559
3076.000000	0.007577
3075.000000	0.007580
3074.000000	0.007576
3073.000000	0.007569
3072.000000	0.007567
3071.000000	0.007570
3070.000000	0.007579
3069.000000	0.007591
3068.000000	0.007607
3067.000000	0.007624
3066.000000	0.007639
3065.000000	0.007648
3064.000000	0.007648
3063.000000	0.007643
3062.000000	0.007638
3061.000000	0.007637
3060.000000	0.007636
3059.000000	0.007631
3058.000000	0.007623
3057.000000	0.007615
3056.000000	0.007612
3055.000000	0.007611
3054.000000	0.007606
3053.000000	0.007590
3052.000000	0.007565
3051.000000	0.007542
3050.000000	0.007532
3049.000000	0.007530
3048.000000	0.007523
3047.000000	0.007505
3046.000000	0.007482
3045.000000	0.007461
3044.000000	0.007444
3043.000000	0.007431
3042.000000	0.007425
3041.000000	0.007428
3040.000000	0.007433
3039.000000	0.007425
3038.000000	0.007401
3037.000000	0.007369
3036.000000	0.007349
3035.000000	0.007356
3034.000000	0.007387
3033.000000	0.007424
3032.000000	0.007445
3031.000000	0.007444
3030.000000	0.007432
3029.000000	0.007418
3028.000000	0.007401
3027.000000	0.007378
3026.000000	0.007352
3025.000000	0.007334
3024.000000	0.007324
3023.000000	0.007316
3022.000000	0.007303
3021.000000	0.007294
3020.000000	0.007296
3019.000000	0.007306
3018.000000	0.007309
3017.000000	0.007298
3016.000000	0.007278
3015.000000	0.007262
3014.000000	0.007258
3013.000000	0.007263
3012.000000	0.007271
3011.000000	0.007280
3010.000000	0.007294
3009.000000	0.007312
3008.000000	0.007329
3007.000000	0.007340
3006.000000	0.007347
3005.000000	0.007355
3004.000000	0.007363
3003.000000	0.007370
3002.000000	0.007377
3001.000000	0.007388
3000.000000	0.007408
2999.000000	0.007438
2998.000000	0.007474
2997.000000	0.007511
2996.000000	0.007543
2995.000000	0.007567
2994.000000	0.007585
2993.000000	0.007607
2992.000000	0.007639
2991.000000	0.007688
2990.000000	0.007756
2989.000000	0.007834
2988.000000	0.007908
2987.000000	0.007963
2986.000000	0.008003
2985.000000	0.008041
2984.000000	0.008090
2983.000000	0.008151
2982.000000	0.008217
2981.000000	0.008287
2980.000000	0.008365
2979.000000	0.008451
2978.000000	0.008546
2977.000000	0.008649
2976.000000	0.008760
2975.000000	0.008879
2974.000000	0.009004
2973.000000	0.009128
2972.000000	0.009248
2971.000000	0.009370
2970.000000	0.009500
2969.000000	0.009640
2968.000000	0.009783
2967.000000	0.009912
2966.000000	0.010019
2965.000000	0.010107
2964.000000	0.010190
2963.000000	0.010280
2962.000000	0.010376
2961.000000	0.010468
2960.000000	0.010538
2959.000000	0.010575
2958.000000	0.010577
2957.000000	0.010553
2956.000000	0.010514
2955.000000	0.010465
2954.000000	0.010409
2953.000000	0.010344
2952.000000	0.010277
2951.000000	0.010215
2950.000000	0.010165
2949.000000	0.010134
2948.000000	0.010122
2947.000000	0.010128
2946.000000	0.010154
2945.000000	0.010202
2944.000000	0.010277
2943.000000	0.010377
2942.000000	0.010491
2941.000000	0.010605
2940.000000	0.010708
2939.000000	0.010797
2938.000000	0.010881
2937.000000	0.010971
2936.000000	0.011071
2935.000000	0.011175
2934.000000	0.011272
2933.000000	0.011353
2932.000000	0.011418
2931.000000	0.011470
2930.000000	0.011510
2929.000000	0.011530
2928.000000	0.011520
2927.000000	0.011480
2926.000000	0.011420
2925.000000	0.011356
2924.000000	0.011297
2923.000000	0.011242
2922.000000	0.011182
2921.000000	0.011109
2920.000000	0.011021
2919.000000	0.010923
2918.000000	0.010822
2917.000000	0.010723
2916.000000	0.010627
2915.000000	0.010530
2914.000000	0.010436
2913.000000	0.010350
2912.000000	0.010277
2911.000000	0.010214
2910.000000	0.010155
2909.000000	0.010091
2908.000000	0.010021
2907.000000	0.009947
2906.000000	0.009872
2905.000000	0.009799
2904.000000	0.009732
2903.000000	0.009669
2902.000000	0.009606
2901.000000	0.009538
2900.000000	0.009462
2899.000000	0.009381
2898.000000	0.009301
2897.000000	0.009222
2896.000000	0.009142
2895.000000	0.009064
2894.000000	0.008994
2893.000000	0.008934
2892.000000	0.008882
2891.000000	0.008830
2890.000000	0.008779
2889.000000	0.008733
2888.000000	0.008700
2887.000000	0.008685
2886.000000	0.008687
2885.000000	0.008703
2884.000000	0.008728
2883.000000	0.008760
2882.000000	0.008801
2881.000000	0.008857
2880.000000	0.008930
2879.000000	0.009014
2878.000000	0.009093
2877.000000	0.009153
2876.000000	0.009196
2875.000000	0.009237
2874.000000	0.009287
2873.000000	0.009337
2872.000000	0.009368
2871.000000	0.009370
2870.000000	0.009353
2869.000000	0.009338
2868.000000	0.009338
2867.000000	0.009349
2866.000000	0.009363
2865.000000	0.009379
2864.000000	0.009398
2863.000000	0.009418
2862.000000	0.009431
2861.000000	0.009434
2860.000000	0.009436
2859.000000	0.009444
2858.000000	0.009456
2857.000000	0.009459
2856.000000	0.009432
2855.000000	0.009370
2854.000000	0.009282
2853.000000	0.009177
2852.000000	0.009058
2851.000000	0.008922
2850.000000	0.008772
2849.000000	0.008622
2848.000000	0.008489
2847.000000	0.008378
2846.000000	0.008287
2845.000000	0.008205
2844.000000	0.008124
2843.000000	0.008040
2842.000000	0.007958
2841.000000	0.007882
2840.000000	0.007817
2839.000000	0.007760
2838.000000	0.007708
2837.000000	0.007658
2836.000000	0.007609
2835.000000	0.007560
2834.000000	0.007514
2833.000000	0.007475
2832.000000	0.007445
2831.000000	0.007423
2830.000000	0.007401
2829.000000	0.007375
2828.000000	0.007350
2827.000000	0.007330
2826.000000	0.007317
2825.000000	0.007312
2824.000000	0.007310
2823.000000	0.007310
2822.000000	0.007308
2821.000000	0.007299
2820.000000	0.007281
2819.000000	0.007252
2818.000000	0.007214
2817.000000	0.007179
2816.000000	0.007159
2815.000000	0.007157
2814.000000	0.007156
2813.000000	0.007139
2812.000000	0.007103
2811.000000	0.007066
2810.000000	0.007049
2809.000000	0.007056
2808.000000	0.007072
2807.000000	0.007081
2806.000000	0.007079
2805.000000	0.007066
2804.000000	0.007046
2803.000000	0.007019
2802.000000	0.006993
2801.000000	0.006976
2800.000000	0.006972
2799.000000	0.006977
2798.000000	0.006982
2797.000000	0.006984
2796.000000	0.006984
2795.000000	0.006984
2794.000000	0.006983
2793.000000	0.006979
2792.000000	0.006972
2791.000000	0.006967
2790.000000	0.006966
2789.000000	0.006963
2788.000000	0.006947
2787.000000	0.006916
2786.000000	0.006878
2785.000000	0.006844
2784.000000	0.006821
2783.000000	0.006812
2782.000000	0.006815
2781.000000	0.006823
2780.000000	0.006830
2779.000000	0.006832
2778.000000	0.006834
2777.000000	0.006839
2776.000000	0.006845
2775.000000	0.006846
2774.000000	0.006834
2773.000000	0.006811
2772.000000	0.006786
2771.000000	0.006770
2770.000000	0.006770
2769.000000	0.006782
2768.000000	0.006796
2767.000000	0.006802
2766.000000	0.006800
2765.000000	0.006793
2764.000000	0.006783
2763.000000	0.006770
2762.000000	0.006755
2761.000000	0.006743
2760.000000	0.006739
2759.000000	0.006747
2758.000000	0.006765
2757.000000	0.006784
2756.000000	0.006790
2755.000000	0.006776
2754.000000	0.006747
2753.000000	0.006719
2752.000000	0.006705
2751.000000	0.006709
2750.000000	0.006725
2749.000000	0.006744
2748.000000	0.006754
2747.000000	0.006744
2746.000000	0.006718
2745.000000	0.006689
2744.000000	0.006674
2743.000000	0.006676
2742.000000	0.006683
2741.000000	0.006680
2740.000000	0.006667
2739.000000	0.006653
2738.000000	0.006646
2737.000000	0.006645
2736.000000	0.006639
2735.000000	0.006625
2734.000000	0.006606
2733.000000	0.006594
2732.000000	0.006593
2731.000000	0.006598
2730.000000	0.006608
2729.000000	0.006623
2728.000000	0.006644
2727.000000	0.006663
2726.000000	0.006670
2725.000000	0.006662
2724.000000	0.006642
2723.000000	0.006619
2722.000000	0.006598
2721.000000	0.006585
2720.000000	0.006578
2719.000000	0.006577
2718.000000	0.006576
2717.000000	0.006569
2716.000000	0.006551
2715.000000	0.006529
2714.000000	0.006515
2713.000000	0.006517
2712.000000	0.006528
2711.000000	0.006532
2710.000000	0.006523
2709.000000	0.006511
2708.000000	0.006505
2707.000000	0.006503
2706.000000	0.006496
2705.000000	0.006482
2704.000000	0.006469
2703.000000	0.006466
2702.000000	0.006470
2701.000000	0.006475
2700.000000	0.006478
2699.000000	0.006482
2698.000000	0.006490
2697.000000	0.006500
2696.000000	0.006503
2695.000000	0.006490
2694.000000	0.006465
2693.000000	0.006440
2692.000000	0.006426
2691.000000	0.006424
2690.000000	0.006422
2689.000000	0.006417
2688.000000	0.006411
2687.000000	0.006409
2686.000000	0.006410
2685.000000	0.006413
2684.000000	0.006415
2683.000000	0.006415
2682.000000	0.006410
2681.000000	0.006399
2680.000000	0.006384
2679.000000	0.006374
2678.000000	0.006371
2677.000000	0.006375
2676.000000	0.006380
2675.000000	0.006383
2674.000000	0.006381
2673.000000	0.006376
2672.000000	0.006372
2671.000000	0.006371
2670.000000	0.006374
2669.000000	0.006375
2668.000000	0.006372
2667.000000	0.006368
2666.000000	0.006371
2665.000000	0.006387
2664.000000	0.006410
2663.000000	0.006430
2662.000000	0.006434
2661.000000	0.006420
2660.000000	0.006401
2659.000000	0.006391
2658.000000	0.006394
2657.000000	0.006406
2656.000000	0.006420
2655.000000	0.006434
2654.000000	0.006443
2653.000000	0.006443
2652.000000	0.006428
2651.000000	0.006401
2650.000000	0.006370
2649.000000	0.006343
2648.000000	0.006320
2647.000000	0.006298
2646.000000	0.006274
2645.000000	0.006252
2644.000000	0.006240
2643.000000	0.006244
2642.000000	0.006259
2641.000000	0.006271
2640.000000	0.006270
2639.000000	0.006252
2638.000000	0.006225
2637.000000	0.006199
2636.000000	0.006180
2635.000000	0.006168
2634.000000	0.006158
2633.000000	0.006148
2632.000000	0.006137
2631.000000	0.006127
2630.000000	0.006120
2629.000000	0.006115
2628.000000	0.006108
2627.000000	0.006101
2626.000000	0.006091
2625.000000	0.006076
2624.000000	0.006052
2623.000000	0.006023
2622.000000	0.005995
2621.000000	0.005977
2620.000000	0.005967
2619.000000	0.005966
2618.000000	0.005976
2617.000000	0.005996
2616.000000	0.006017
2615.000000	0.006028
2614.000000	0.006025
2613.000000	0.006018
2612.000000	0.006018
2611.000000	0.006029
2610.000000	0.006048
2609.000000	0.006064
2608.000000	0.006062
2607.000000	0.006036
2606.000000	0.005997
2605.000000	0.005960
2604.000000	0.005933
2603.000000	0.005914
2602.000000	0.005898
2601.000000	0.005884
2600.000000	0.005875
2599.000000	0.005870
2598.000000	0.005861
2597.000000	0.005844
2596.000000	0.005826
2595.000000	0.005818
2594.000000	0.005827
2593.000000	0.005843
2592.000000	0.005858
2591.000000	0.005868
2590.000000	0.005874
2589.000000	0.005871
2588.000000	0.005855
2587.000000	0.005829
2586.000000	0.005802
2585.000000	0.005781
2584.000000	0.005769
2583.000000	0.005761
2582.000000	0.005756
2581.000000	0.005744
2580.000000	0.005724
2579.000000	0.005703
2578.000000	0.005700
2577.000000	0.005722
2576.000000	0.005752
2575.000000	0.005772
2574.000000	0.005784
2573.000000	0.005800
2572.000000	0.005820
2571.000000	0.005830
2570.000000	0.005812
2569.000000	0.005774
2568.000000	0.005738
2567.000000	0.005722
2566.000000	0.005724
2565.000000	0.005721
2564.000000	0.005691
2563.000000	0.005638
2562.000000	0.005595
2561.000000	0.005588
2560.000000	0.005610
2559.000000	0.005627
2558.000000	0.005624
2557.000000	0.005615
2556.000000	0.005621
2555.000000	0.005637
2554.000000	0.005640
2553.000000	0.005618
2552.000000	0.005584
2551.000000	0.005560
2550.000000	0.005554
2549.000000	0.005570
2548.000000	0.005607
2547.000000	0.005663
2546.000000	0.005722
2545.000000	0.005762
2544.000000	0.005767
2543.000000	0.005744
2542.000000	0.005712
2541.000000	0.005688
2540.000000	0.005679
2539.000000	0.005684
2538.000000	0.005696
2537.000000	0.005706
2536.000000	0.005703
2535.000000	0.005684
2534.000000	0.005654
2533.000000	0.005622
2532.000000	0.005602
2531.000000	0.005604
2530.000000	0.005631
2529.000000	0.005674
2528.000000	0.005713
2527.000000	0.005729
2526.000000	0.005712
2525.000000	0.005674
2524.000000	0.005633
2523.000000	0.005614
2522.000000	0.005628
2521.000000	0.005663
2520.000000	0.005694
2519.000000	0.005706
2518.000000	0.005700
2517.000000	0.005692
2516.000000	0.005697
2515.000000	0.005718
2514.000000	0.005756
2513.000000	0.005798
2512.000000	0.005827
2511.000000	0.005829
2510.000000	0.005812
2509.000000	0.005792
2508.000000	0.005777
2507.000000	0.005760
2506.000000	0.005726
2505.000000	0.005675
2504.000000	0.005621
2503.000000	0.005585
2502.000000	0.005578
2501.000000	0.005596
2500.000000	0.005621
2499.000000	0.005639
2498.000000	0.005648
2497.000000	0.005651
2496.000000	0.005648
2495.000000	0.005632
2494.000000	0.005600
2493.000000	0.005560
2492.000000	0.005533
2491.000000	0.005532
2490.000000	0.005557
2489.000000	0.005586
2488.000000	0.005591
2487.000000	0.005560
2486.000000	0.005509
2485.000000	0.005469
2484.000000	0.005455
2483.000000	0.005462
2482.000000	0.005471
2481.000000	0.005464
2480.000000	0.005445
2479.000000	0.005430
2478.000000	0.005433
2477.000000	0.005447
2476.000000	0.005448
2475.000000	0.005431
2474.000000	0.005414
2473.000000	0.005422
2472.000000	0.005456
2471.000000	0.005496
2470.000000	0.005521
2469.000000	0.005523
2468.000000	0.005501
2467.000000	0.005459
2466.000000	0.005415
2465.000000	0.005393
2464.000000	0.005410
2463.000000	0.005458
2462.000000	0.005504
2461.000000	0.005518
2460.000000	0.005492
2459.000000	0.005448
2458.000000	0.005417
2457.000000	0.005413
2456.000000	0.005429
2455.000000	0.005454
2454.000000	0.005486
2453.000000	0.005525
2452.000000	0.005559
2451.000000	0.005572
2450.000000	0.005563
2449.000000	0.005543
2448.000000	0.005520
2447.000000	0.005490
2446.000000	0.005451
2445.000000	0.005409
2444.000000	0.005377
2443.000000	0.005361
2442.000000	0.005360
2441.000000	0.005363
2440.000000	0.005362
2439.000000	0.005357
2438.000000	0.005355
2437.000000	0.005360
2436.000000	0.005372
2435.000000	0.005393
2434.000000	0.005427
2433.000000	0.005473
2432.000000	0.005511
2431.000000	0.005521
2430.000000	0.005502
2429.000000	0.005469
2428.000000	0.005444
2427.000000	0.005437
2426.000000	0.005447
2425.000000	0.005463
2424.000000	0.005463
2423.000000	0.005440
2422.000000	0.005408
2421.000000	0.005390
2420.000000	0.005389
2419.000000	0.005385
2418.000000	0.005359
2417.000000	0.005314
2416.000000	0.005269
2415.000000	0.005246
2414.000000	0.005254
2413.000000	0.005288
2412.000000	0.005329
2411.000000	0.005358
2410.000000	0.005366
2409.000000	0.005358
2408.000000	0.005337
2407.000000	0.005304
2406.000000	0.005268
2405.000000	0.005246
2404.000000	0.005249
2403.000000	0.005273
2402.000000	0.005301
2401.000000	0.005317
2400.000000	0.005313
2399.000000	0.005293
2398.000000	0.005269
2397.000000	0.005252
2396.000000	0.005250
2395.000000	0.005265
2394.000000	0.005296
2393.000000	0.005330
2392.000000	0.005347
2391.000000	0.005334
2390.000000	0.005305
2389.000000	0.005283
2388.000000	0.005280
2387.000000	0.005282
2386.000000	0.005277
2385.000000	0.005264
2384.000000	0.005249
2383.000000	0.005236
2382.000000	0.005221
2381.000000	0.005198
2380.000000	0.005169
2379.000000	0.005146
2378.000000	0.005148
2377.000000	0.005181
2376.000000	0.005224
2375.000000	0.005249
2374.000000	0.005255
2373.000000	0.005255
2372.000000	0.005258
2371.000000	0.005260
2370.000000	0.005256
2369.000000	0.005241
2368.000000	0.005213
2367.000000	0.005174
2366.000000	0.005145
2365.000000	0.005147
2364.000000	0.005179
2363.000000	0.005231
2362.000000	0.005297
2361.000000	0.005364
2360.000000	0.005418
2359.000000	0.005445
2358.000000	0.005442
2357.000000	0.005410
2356.000000	0.005364
2355.000000	0.005329
2354.000000	0.005302
2353.000000	0.005267
2352.000000	0.005242
2351.000000	0.005268
2350.000000	0.005346
2349.000000	0.005440
2348.000000	0.005503
2347.000000	0.005501
2346.000000	0.005445
2345.000000	0.005390
2344.000000	0.005378
2343.000000	0.005403
2342.000000	0.005435
2341.000000	0.005452
2340.000000	0.005455
2339.000000	0.005458
2338.000000	0.005458
2337.000000	0.005448
2336.000000	0.005432
2335.000000	0.005423
2334.000000	0.005417
2333.000000	0.005402
2332.000000	0.005383
2331.000000	0.005368
2330.000000	0.005365
2329.000000	0.005380
2328.000000	0.005427
2327.000000	0.005515
2326.000000	0.005621
2325.000000	0.005713
2324.000000	0.005759
2323.000000	0.005747
2322.000000	0.005690
2321.000000	0.005631
2320.000000	0.005616
2319.000000	0.005653
2318.000000	0.005708
2317.000000	0.005733
2316.000000	0.005701
2315.000000	0.005622
2314.000000	0.005536
2313.000000	0.005485
2312.000000	0.005478
2311.000000	0.005483
2310.000000	0.005473
2309.000000	0.005457
2308.000000	0.005461
2307.000000	0.005482
2306.000000	0.005488
2305.000000	0.005459
2304.000000	0.005408
2303.000000	0.005357
2302.000000	0.005326
2301.000000	0.005322
2300.000000	0.005348
2299.000000	0.005387
2298.000000	0.005407
2297.000000	0.005392
2296.000000	0.005360
2295.000000	0.005335
2294.000000	0.005326
2293.000000	0.005320
2292.000000	0.005312
2291.000000	0.005311
2290.000000	0.005333
2289.000000	0.005378
2288.000000	0.005433
2287.000000	0.005475
2286.000000	0.005489
2285.000000	0.005479
2284.000000	0.005460
2283.000000	0.005436
2282.000000	0.005391
2281.000000	0.005322
2280.000000	0.005251
2279.000000	0.005214
2278.000000	0.005221
2277.000000	0.005236
2276.000000	0.005208
2275.000000	0.005124
2274.000000	0.005017
2273.000000	0.004943
2272.000000	0.004922
2271.000000	0.004938
2270.000000	0.004964
2269.000000	0.004985
2268.000000	0.004989
2267.000000	0.004959
2266.000000	0.004890
2265.000000	0.004810
2264.000000	0.004761
2263.000000	0.004763
2262.000000	0.004807
2261.000000	0.004878
2260.000000	0.004958
2259.000000	0.005021
2258.000000	0.005045
2257.000000	0.005034
2256.000000	0.005009
2255.000000	0.004985
2254.000000	0.004958
2253.000000	0.004923
2252.000000	0.004886
2251.000000	0.004852
2250.000000	0.004814
2249.000000	0.004770
2248.000000	0.004744
2247.000000	0.004764
2246.000000	0.004831
2245.000000	0.004907
2244.000000	0.004942
2243.000000	0.004917
2242.000000	0.004856
2241.000000	0.004810
2240.000000	0.004817
2239.000000	0.004865
2238.000000	0.004903
2237.000000	0.004876
2236.000000	0.004776
2235.000000	0.004655
2234.000000	0.004588
2233.000000	0.004615
2232.000000	0.004715
2231.000000	0.004825
2230.000000	0.004885
2229.000000	0.004856
2228.000000	0.004744
2227.000000	0.004603
2226.000000	0.004520
2225.000000	0.004545
2224.000000	0.004649
2223.000000	0.004750
2222.000000	0.004801
2221.000000	0.004813
2220.000000	0.004809
2219.000000	0.004779
2218.000000	0.004708
2217.000000	0.004622
2216.000000	0.004563
2215.000000	0.004543
2214.000000	0.004529
2213.000000	0.004491
2212.000000	0.004422
2211.000000	0.004338
2210.000000	0.004265
2209.000000	0.004236
2208.000000	0.004280
2207.000000	0.004385
2206.000000	0.004490
2205.000000	0.004523
2204.000000	0.004466
2203.000000	0.004381
2202.000000	0.004353
2201.000000	0.004413
2200.000000	0.004517
2199.000000	0.004602
2198.000000	0.004655
2197.000000	0.004690
2196.000000	0.004692
2195.000000	0.004626
2194.000000	0.004515
2193.000000	0.004463
2192.000000	0.004550
2191.000000	0.004741
2190.000000	0.004913
2189.000000	0.004973
2188.000000	0.004910
2187.000000	0.004777
2186.000000	0.004639
2185.000000	0.004545
2184.000000	0.004492
2183.000000	0.004420
2182.000000	0.004284
2181.000000	0.004125
2180.000000	0.004046
2179.000000	0.004086
2178.000000	0.004177
2177.000000	0.004230
2176.000000	0.004226
2175.000000	0.004198
2174.000000	0.004173
2173.000000	0.004152
2172.000000	0.004152
2171.000000	0.004220
2170.000000	0.004378
2169.000000	0.004579
2168.000000	0.004730
2167.000000	0.004777
2166.000000	0.004747
2165.000000	0.004738
2164.000000	0.004827
2163.000000	0.005005
2162.000000	0.005166
2161.000000	0.005180
2160.000000	0.004977
2159.000000	0.004601
2158.000000	0.004160
2157.000000	0.003753
2156.000000	0.003442
2155.000000	0.003276
2154.000000	0.003300
2153.000000	0.003516
2152.000000	0.003846
2151.000000	0.004157
2150.000000	0.004328
2149.000000	0.004302
2148.000000	0.004120
2147.000000	0.003907
2146.000000	0.003794
2145.000000	0.003835
2144.000000	0.003996
2143.000000	0.004203
2142.000000	0.004392
2141.000000	0.004503
2140.000000	0.004504
2139.000000	0.004434
2138.000000	0.004402
2137.000000	0.004480
2136.000000	0.004615
2135.000000	0.004680
2134.000000	0.004619
2133.000000	0.004498
2132.000000	0.004405
2131.000000	0.004351
2130.000000	0.004308
2129.000000	0.004281
2128.000000	0.004310
2127.000000	0.004397
2126.000000	0.004481
2125.000000	0.004503
2124.000000	0.004477
2123.000000	0.004474
2122.000000	0.004544
2121.000000	0.004661
2120.000000	0.004763
2119.000000	0.004818
2118.000000	0.004850
2117.000000	0.004897
2116.000000	0.004966
2115.000000	0.005034
2114.000000	0.005070
2113.000000	0.005063
2112.000000	0.005019
2111.000000	0.004960
2110.000000	0.004915
2109.000000	0.004902
2108.000000	0.004917
2107.000000	0.004931
2106.000000	0.004918
2105.000000	0.004887
2104.000000	0.004882
2103.000000	0.004936
2102.000000	0.005030
2101.000000	0.005096
2100.000000	0.005092
2099.000000	0.005039
2098.000000	0.004984
2097.000000	0.004933
2096.000000	0.004855
2095.000000	0.004753
2094.000000	0.004684
2093.000000	0.004694
2092.000000	0.004758
2091.000000	0.004818
2090.000000	0.004849
2089.000000	0.004871
2088.000000	0.004901
2087.000000	0.004930
2086.000000	0.004941
2085.000000	0.004928
2084.000000	0.004903
2083.000000	0.004886
2082.000000	0.004898
2081.000000	0.004940
2080.000000	0.004987
2079.000000	0.005006
2078.000000	0.004990
2077.000000	0.004941
2076.000000	0.004866
2075.000000	0.004779
2074.000000	0.004719
2073.000000	0.004707
2072.000000	0.004709
2071.000000	0.004672
2070.000000	0.004595
2069.000000	0.004540
2068.000000	0.004555
2067.000000	0.004612
2066.000000	0.004650
2065.000000	0.004633
2064.000000	0.004575
2063.000000	0.004507
2062.000000	0.004446
2061.000000	0.004394
2060.000000	0.004351
2059.000000	0.004328
2058.000000	0.004346
2057.000000	0.004408
2056.000000	0.004492
2055.000000	0.004589
2054.000000	0.004720
2053.000000	0.004895
2052.000000	0.005057
2051.000000	0.005107
2050.000000	0.004979
2049.000000	0.004709
2048.000000	0.004424
2047.000000	0.004262
2046.000000	0.004283
2045.000000	0.004421
2044.000000	0.004525
2043.000000	0.004479
2042.000000	0.004293
2041.000000	0.004065
2040.000000	0.003894
2039.000000	0.003822
2038.000000	0.003844
2037.000000	0.003901
2036.000000	0.003887
2035.000000	0.003750
2034.000000	0.003571
2033.000000	0.003466
2032.000000	0.003442
2031.000000	0.003420
2030.000000	0.003390
2029.000000	0.003420
2028.000000	0.003498
2027.000000	0.003504
2026.000000	0.003361
2025.000000	0.003156
2024.000000	0.003058
2023.000000	0.003162
2022.000000	0.003425
2021.000000	0.003698
2020.000000	0.003811
2019.000000	0.003703
2018.000000	0.003491
2017.000000	0.003365
2016.000000	0.003406
2015.000000	0.003552
2014.000000	0.003724
2013.000000	0.003871
2012.000000	0.003940
2011.000000	0.003896
2010.000000	0.003795
2009.000000	0.003735
2008.000000	0.003734
2007.000000	0.003723
2006.000000	0.003687
2005.000000	0.003699
2004.000000	0.003799
2003.000000	0.003928
2002.000000	0.004015
2001.000000	0.004042
2000.000000	0.004007
1999.000000	0.003906
1998.000000	0.003784
1997.000000	0.003741
1996.000000	0.003827
1995.000000	0.003972
1994.000000	0.004077
1993.000000	0.004101
1992.000000	0.004051
1991.000000	0.003940
1990.000000	0.003808
1989.000000	0.003742
1988.000000	0.003806
1987.000000	0.003961
1986.000000	0.004096
1985.000000	0.004120
1984.000000	0.004013
1983.000000	0.003826
1982.000000	0.003648
1981.000000	0.003554
1980.000000	0.003518
1979.000000	0.003437
1978.000000	0.003267
1977.000000	0.003110
1976.000000	0.003094
1975.000000	0.003221
1974.000000	0.003398
1973.000000	0.003561
1972.000000	0.003693
1971.000000	0.003778
1970.000000	0.003812
1969.000000	0.003830
1968.000000	0.003876
1967.000000	0.003943
1966.000000	0.003971
1965.000000	0.003911
1964.000000	0.003760
1963.000000	0.003559
1962.000000	0.003371
1961.000000	0.003252
1960.000000	0.003209
1959.000000	0.003212
1958.000000	0.003242
1957.000000	0.003306
1956.000000	0.003407
1955.000000	0.003520
1954.000000	0.003610
1953.000000	0.003662
1952.000000	0.003695
1951.000000	0.003737
1950.000000	0.003800
1949.000000	0.003846
1948.000000	0.003820
1947.000000	0.003725
1946.000000	0.003645
1945.000000	0.003661
1944.000000	0.003748
1943.000000	0.003811
1942.000000	0.003802
1941.000000	0.003771
1940.000000	0.003773
1939.000000	0.003808
1938.000000	0.003865
1937.000000	0.003939
1936.000000	0.004000
1935.000000	0.003982
1934.000000	0.003861
1933.000000	0.003707
1932.000000	0.003626
1931.000000	0.003657
1930.000000	0.003750
1929.000000	0.003834
1928.000000	0.003874
1927.000000	0.003873
1926.000000	0.003840
1925.000000	0.003786
1924.000000	0.003739
1923.000000	0.003751
1922.000000	0.003853
1921.000000	0.004003
1920.000000	0.004108
1919.000000	0.004095
1918.000000	0.003974
1917.000000	0.003827
1916.000000	0.003725
1915.000000	0.003686
1914.000000	0.003697
1913.000000	0.003742
1912.000000	0.003780
1911.000000	0.003781
1910.000000	0.003759
1909.000000	0.003770
1908.000000	0.003825
1907.000000	0.003875
1906.000000	0.003875
1905.000000	0.003838
1904.000000	0.003803
1903.000000	0.003785
1902.000000	0.003780
1901.000000	0.003801
1900.000000	0.003865
1899.000000	0.003954
1898.000000	0.004024
1897.000000	0.004045
1896.000000	0.004032
1895.000000	0.004019
1894.000000	0.004026
1893.000000	0.004032
1892.000000	0.004006
1891.000000	0.003944
1890.000000	0.003888
1889.000000	0.003891
1888.000000	0.003943
1887.000000	0.003987
1886.000000	0.003985
1885.000000	0.003954
1884.000000	0.003930
1883.000000	0.003914
1882.000000	0.003884
1881.000000	0.003834
1880.000000	0.003789
1879.000000	0.003774
1878.000000	0.003790
1877.000000	0.003816
1876.000000	0.003825
1875.000000	0.003811
1874.000000	0.003787
1873.000000	0.003766
1872.000000	0.003737
1871.000000	0.003682
1870.000000	0.003613
1869.000000	0.003572
1868.000000	0.003575
1867.000000	0.003600
1866.000000	0.003626
1865.000000	0.003654
1864.000000	0.003682
1863.000000	0.003695
1862.000000	0.003682
1861.000000	0.003652
1860.000000	0.003621
1859.000000	0.003593
1858.000000	0.003571
1857.000000	0.003567
1856.000000	0.003593
1855.000000	0.003644
1854.000000	0.003702
1853.000000	0.003751
1852.000000	0.003768
1851.000000	0.003731
1850.000000	0.003648
1849.000000	0.003568
1848.000000	0.003536
1847.000000	0.003551
1846.000000	0.003573
1845.000000	0.003588
1844.000000	0.003608
1843.000000	0.003632
1842.000000	0.003636
1841.000000	0.003610
1840.000000	0.003563
1839.000000	0.003518
1838.000000	0.003501
1837.000000	0.003518
1836.000000	0.003547
1835.000000	0.003564
1834.000000	0.003566
1833.000000	0.003556
1832.000000	0.003523
1831.000000	0.003472
1830.000000	0.003441
1829.000000	0.003462
1828.000000	0.003509
1827.000000	0.003535
1826.000000	0.003518
1825.000000	0.003478
1824.000000	0.003444
1823.000000	0.003425
1822.000000	0.003422
1821.000000	0.003428
1820.000000	0.003430
1819.000000	0.003420
1818.000000	0.003406
1817.000000	0.003407
1816.000000	0.003414
1815.000000	0.003394
1814.000000	0.003341
1813.000000	0.003288
1812.000000	0.003276
1811.000000	0.003312
1810.000000	0.003362
1809.000000	0.003396
1808.000000	0.003415
1807.000000	0.003433
1806.000000	0.003458
1805.000000	0.003490
1804.000000	0.003527
1803.000000	0.003561
1802.000000	0.003594
1801.000000	0.003629
1800.000000	0.003661
1799.000000	0.003682
1798.000000	0.003686
1797.000000	0.003690
1796.000000	0.003709
1795.000000	0.003728
1794.000000	0.003710
1793.000000	0.003647
1792.000000	0.003573
1791.000000	0.003522
1790.000000	0.003501
1789.000000	0.003490
1788.000000	0.003470
1787.000000	0.003431
1786.000000	0.003379
1785.000000	0.003333
1784.000000	0.003304
1783.000000	0.003289
1782.000000	0.003286
1781.000000	0.003309
1780.000000	0.003355
1779.000000	0.003394
1778.000000	0.003402
1777.000000	0.003393
1776.000000	0.003390
1775.000000	0.003393
1774.000000	0.003382
1773.000000	0.003370
1772.000000	0.003377
1771.000000	0.003380
1770.000000	0.003363
1769.000000	0.003346
1768.000000	0.003346
1767.000000	0.003366
1766.000000	0.003404
1765.000000	0.003466
1764.000000	0.003550
1763.000000	0.003656
1762.000000	0.003783
1761.000000	0.003924
1760.000000	0.004073
1759.000000	0.004237
1758.000000	0.004441
1757.000000	0.004724
1756.000000	0.005073
1755.000000	0.005432
1754.000000	0.005780
1753.000000	0.006145
1752.000000	0.006565
1751.000000	0.007034
1750.000000	0.007511
1749.000000	0.007977
1748.000000	0.008414
1747.000000	0.008768
1746.000000	0.009024
1745.000000	0.009224
1744.000000	0.009403
1743.000000	0.009542
1742.000000	0.009624
1741.000000	0.009667
1740.000000	0.009695
1739.000000	0.009689
1738.000000	0.009629
1737.000000	0.009530
1736.000000	0.009376
1735.000000	0.009160
1734.000000	0.008918
1733.000000	0.008642
1732.000000	0.008308
1731.000000	0.007942
1730.000000	0.007581
1729.000000	0.007258
1728.000000	0.006970
1727.000000	0.006694
1726.000000	0.006418
1725.000000	0.006158
1724.000000	0.005926
1723.000000	0.005717
1722.000000	0.005536
1721.000000	0.005389
1720.000000	0.005254
1719.000000	0.005107
1718.000000	0.004983
1717.000000	0.004908
1716.000000	0.004845
1715.000000	0.004760
1714.000000	0.004670
1713.000000	0.004603
1712.000000	0.004564
1711.000000	0.004539
1710.000000	0.004519
1709.000000	0.004510
1708.000000	0.004502
1707.000000	0.004483
1706.000000	0.004474
1705.000000	0.004527
1704.000000	0.004664
1703.000000	0.004853
1702.000000	0.005015
1701.000000	0.005144
1700.000000	0.005304
1699.000000	0.005482
1698.000000	0.005674
1697.000000	0.005915
1696.000000	0.006183
1695.000000	0.006417
1694.000000	0.006598
1693.000000	0.006786
1692.000000	0.007010
1691.000000	0.007252
1690.000000	0.007511
1689.000000	0.007813
1688.000000	0.008158
1687.000000	0.008492
1686.000000	0.008742
1685.000000	0.008943
1684.000000	0.009179
1683.000000	0.009384
1682.000000	0.009552
1681.000000	0.009754
1680.000000	0.009983
1679.000000	0.010213
1678.000000	0.010436
1677.000000	0.010658
1676.000000	0.010873
1675.000000	0.011073
1674.000000	0.011270
1673.000000	0.011499
1672.000000	0.011763
1671.000000	0.012025
1670.000000	0.012279
1669.000000	0.012549
1668.000000	0.012829
1667.000000	0.013091
1666.000000	0.013343
1665.000000	0.013604
1664.000000	0.013882
1663.000000	0.014166
1662.000000	0.014445
1661.000000	0.014732
1660.000000	0.015033
1659.000000	0.015323
1658.000000	0.015600
1657.000000	0.015928
1656.000000	0.016334
1655.000000	0.016718
1654.000000	0.016936
1653.000000	0.016986
1652.000000	0.017001
1651.000000	0.017083
1650.000000	0.017252
1649.000000	0.017479
1648.000000	0.017713
1647.000000	0.017873
1646.000000	0.017942
1645.000000	0.018007
1644.000000	0.018135
1643.000000	0.018296
1642.000000	0.018443
1641.000000	0.018554
1640.000000	0.018657
1639.000000	0.018789
1638.000000	0.018930
1637.000000	0.019010
1636.000000	0.018963
1635.000000	0.018819
1634.000000	0.018714
1633.000000	0.018723
1632.000000	0.018799
1631.000000	0.018859
1630.000000	0.018845
1629.000000	0.018773
1628.000000	0.018704
1627.000000	0.018681
1626.000000	0.018700
1625.000000	0.018718
1624.000000	0.018682
1623.000000	0.018571
1622.000000	0.018436
1621.000000	0.018366
1620.000000	0.018375
1619.000000	0.018370
1618.000000	0.018203
1617.000000	0.017795
1616.000000	0.017262
1615.000000	0.016794
1614.000000	0.016458
1613.000000	0.016200
1612.000000	0.015942
1611.000000	0.015642
1610.000000	0.015313
1609.000000	0.014990
1608.000000	0.014685
1607.000000	0.014393
1606.000000	0.014110
1605.000000	0.013845
1604.000000	0.013595
1603.000000	0.013347
1602.000000	0.013095
1601.000000	0.012846
1600.000000	0.012616
1599.000000	0.012412
1598.000000	0.012234
1597.000000	0.012068
1596.000000	0.011901
1595.000000	0.011733
1594.000000	0.011579
1593.000000	0.011444
1592.000000	0.011318
1591.000000	0.011196
1590.000000	0.011079
1589.000000	0.010971
1588.000000	0.010868
1587.000000	0.010772
1586.000000	0.010692
1585.000000	0.010629
1584.000000	0.010566
1583.000000	0.010492
1582.000000	0.010411
1581.000000	0.010347
1580.000000	0.010338
1579.000000	0.010402
1578.000000	0.010503
1577.000000	0.010558
1576.000000	0.010505
1575.000000	0.010396
1574.000000	0.010363
1573.000000	0.010444
1572.000000	0.010566
1571.000000	0.010648
1570.000000	0.010681
1569.000000	0.010710
1568.000000	0.010762
1567.000000	0.010848
1566.000000	0.010969
1565.000000	0.011124
1564.000000	0.011309
1563.000000	0.011539
1562.000000	0.011811
1561.000000	0.012024
1560.000000	0.012115
1559.000000	0.012181
1558.000000	0.012272
1557.000000	0.012437
1556.000000	0.012682
1555.000000	0.012934
1554.000000	0.013190
1553.000000	0.013440
1552.000000	0.013689
1551.000000	0.013941
1550.000000	0.014213
1549.000000	0.014497
1548.000000	0.014767
1547.000000	0.015010
1546.000000	0.015242
1545.000000	0.015500
1544.000000	0.015794
1543.000000	0.016099
1542.000000	0.016386
1541.000000	0.016615
1540.000000	0.016723
1539.000000	0.016740
1538.000000	0.016807
1537.000000	0.016974
1536.000000	0.017184
1535.000000	0.017356
1534.000000	0.017453
1533.000000	0.017518
1532.000000	0.017611
1531.000000	0.017744
1530.000000	0.017883
1529.000000	0.017998
1528.000000	0.018084
1527.000000	0.018151
1526.000000	0.018216
1525.000000	0.018300
1524.000000	0.018394
1523.000000	0.018453
1522.000000	0.018439
1521.000000	0.018376
1520.000000	0.018347
1519.000000	0.018391
1518.000000	0.018486
1517.000000	0.018583
1516.000000	0.018654
1515.000000	0.018710
1514.000000	0.018768
1513.000000	0.018801
1512.000000	0.018792
1511.000000	0.018774
1510.000000	0.018794
1509.000000	0.018834
1508.000000	0.018799
1507.000000	0.018591
1506.000000	0.018268
1505.000000	0.018014
1504.000000	0.017865
1503.000000	0.017768
1502.000000	0.017701
1501.000000	0.017629
1500.000000	0.017534
1499.000000	0.017410
1498.000000	0.017259
1497.000000	0.017082
1496.000000	0.016881
1495.000000	0.016680
1494.000000	0.016498
1493.000000	0.016320
1492.000000	0.016108
1491.000000	0.015851
1490.000000	0.015597
1489.000000	0.015383
1488.000000	0.015209
1487.000000	0.015060
1486.000000	0.014930
1485.000000	0.014820
1484.000000	0.014722
1483.000000	0.014621
1482.000000	0.014524
1481.000000	0.014459
1480.000000	0.014426
1479.000000	0.014399
1478.000000	0.014376
1477.000000	0.014395
1476.000000	0.014490
1475.000000	0.014639
1474.000000	0.014811
1473.000000	0.015012
1472.000000	0.015218
1471.000000	0.015387
1470.000000	0.015532
1469.000000	0.015681
1468.000000	0.015829
1467.000000	0.015955
1466.000000	0.016057
1465.000000	0.016151
1464.000000	0.016235
1463.000000	0.016291
1462.000000	0.016331
1461.000000	0.016381
1460.000000	0.016463
1459.000000	0.016597
1458.000000	0.016843
1457.000000	0.017200
1456.000000	0.017467
1455.000000	0.017548
1454.000000	0.017561
1453.000000	0.017592
1452.000000	0.017647
1451.000000	0.017694
1450.000000	0.017727
1449.000000	0.017769
1448.000000	0.017836
1447.000000	0.017921
1446.000000	0.018005
1445.000000	0.018079
1444.000000	0.018134
1443.000000	0.018167
1442.000000	0.018188
1441.000000	0.018212
1440.000000	0.018234
1439.000000	0.018240
1438.000000	0.018243
1437.000000	0.018297
1436.000000	0.018383
1435.000000	0.018417
1434.000000	0.018387
1433.000000	0.018332
1432.000000	0.018276
1431.000000	0.018232
1430.000000	0.018228
1429.000000	0.018273
1428.000000	0.018336
1427.000000	0.018378
1426.000000	0.018398
1425.000000	0.018422
1424.000000	0.018454
1423.000000	0.018468
1422.000000	0.018455
1421.000000	0.018441
1420.000000	0.018474
1419.000000	0.018580
1418.000000	0.018685
1417.000000	0.018712
1416.000000	0.018673
1415.000000	0.018601
1414.000000	0.018528
1413.000000	0.018481
1412.000000	0.018460
1411.000000	0.018438
1410.000000	0.018390
1409.000000	0.018307
1408.000000	0.018192
1407.000000	0.018066
1406.000000	0.017965
1405.000000	0.017912
1404.000000	0.017894
1403.000000	0.017881
1402.000000	0.017870
1401.000000	0.017875
1400.000000	0.017902
1399.000000	0.017937
1398.000000	0.017956
1397.000000	0.017962
1396.000000	0.017978
1395.000000	0.018011
1394.000000	0.018050
1393.000000	0.018070
1392.000000	0.018053
1391.000000	0.017999
1390.000000	0.017931
1389.000000	0.017874
1388.000000	0.017838
1387.000000	0.017808
1386.000000	0.017760
1385.000000	0.017685
1384.000000	0.017584
1383.000000	0.017458
1382.000000	0.017321
1381.000000	0.017190
1380.000000	0.017063
1379.000000	0.016924
1378.000000	0.016760
1377.000000	0.016569
1376.000000	0.016358
1375.000000	0.016145
1374.000000	0.015956
1373.000000	0.015803
1372.000000	0.015669
1371.000000	0.015531
1370.000000	0.015386
1369.000000	0.015247
1368.000000	0.015122
1367.000000	0.014997
1366.000000	0.014859
1365.000000	0.014700
1364.000000	0.014526
1363.000000	0.014357
1362.000000	0.014209
1361.000000	0.014090
1360.000000	0.013995
1359.000000	0.013914
1358.000000	0.013842
1357.000000	0.013773
1356.000000	0.013708
1355.000000	0.013647
1354.000000	0.013589
1353.000000	0.013526
1352.000000	0.013448
1351.000000	0.013355
1350.000000	0.013262
1349.000000	0.013183
1348.000000	0.013124
1347.000000	0.013081
1346.000000	0.013054
1345.000000	0.013038
1344.000000	0.013021
1343.000000	0.012988
1342.000000	0.012944
1341.000000	0.012910
1340.000000	0.012911
1339.000000	0.012942
1338.000000	0.012979
1337.000000	0.013001
1336.000000	0.012994
1335.000000	0.012954
1334.000000	0.012888
1333.000000	0.012808
1332.000000	0.012730
1331.000000	0.012665
1330.000000	0.012612
1329.000000	0.012565
1328.000000	0.012518
1327.000000	0.012474
1326.000000	0.012437
1325.000000	0.012407
1324.000000	0.012377
1323.000000	0.012342
1322.000000	0.012305
1321.000000	0.012273
1320.000000	0.012252
1319.000000	0.012241
1318.000000	0.012232
1317.000000	0.012212
1316.000000	0.012175
1315.000000	0.012122
1314.000000	0.012069
1313.000000	0.012031
1312.000000	0.012005
1311.000000	0.011980
1310.000000	0.011949
1309.000000	0.011916
1308.000000	0.011885
1307.000000	0.011854
1306.000000	0.011815
1305.000000	0.011762
1304.000000	0.011695
1303.000000	0.011615
1302.000000	0.011529
1301.000000	0.011446
1300.000000	0.011372
1299.000000	0.011306
1298.000000	0.011241
1297.000000	0.011173
1296.000000	0.011101
1295.000000	0.011033
1294.000000	0.010981
1293.000000	0.010946
1292.000000	0.010931
1291.000000	0.010932
1290.000000	0.010939
1289.000000	0.010933
1288.000000	0.010903
1287.000000	0.010861
1286.000000	0.010830
1285.000000	0.010823
1284.000000	0.010823
1283.000000	0.010811
1282.000000	0.010786
1281.000000	0.010758
1280.000000	0.010736
1279.000000	0.010722
1278.000000	0.010720
1277.000000	0.010731
1276.000000	0.010752
1275.000000	0.010778
1274.000000	0.010811
1273.000000	0.010862
1272.000000	0.010935
1271.000000	0.011024
1270.000000	0.011119
1269.000000	0.011222
1268.000000	0.011335
1267.000000	0.011458
1266.000000	0.011590
1265.000000	0.011721
1264.000000	0.011834
1263.000000	0.011923
1262.000000	0.012002
1261.000000	0.012097
1260.000000	0.012223
1259.000000	0.012366
1258.000000	0.012505
1257.000000	0.012630
1256.000000	0.012736
1255.000000	0.012815
1254.000000	0.012866
1253.000000	0.012904
1252.000000	0.012949
1251.000000	0.013003
1250.000000	0.013055
1249.000000	0.013097
1248.000000	0.013130
1247.000000	0.013160
1246.000000	0.013193
1245.000000	0.013235
1244.000000	0.013287
1243.000000	0.013336
1242.000000	0.013367
1241.000000	0.013378
1240.000000	0.013381
1239.000000	0.013388
1238.000000	0.013398
1237.000000	0.013395
1236.000000	0.013370
1235.000000	0.013327
1234.000000	0.013275
1233.000000	0.013217
1232.000000	0.013149
1231.000000	0.013071
1230.000000	0.012991
1229.000000	0.012910
1228.000000	0.012813
1227.000000	0.012685
1226.000000	0.012527
1225.000000	0.012353
1224.000000	0.012178
1223.000000	0.012004
1222.000000	0.011826
1221.000000	0.011641
1220.000000	0.011453
1219.000000	0.011274
1218.000000	0.011115
1217.000000	0.010977
1216.000000	0.010851
1215.000000	0.010719
1214.000000	0.010574
1213.000000	0.010422
1212.000000	0.010280
1211.000000	0.010167
1210.000000	0.010088
1209.000000	0.010034
1208.000000	0.009991
1207.000000	0.009953
1206.000000	0.009927
1205.000000	0.009917
1204.000000	0.009917
1203.000000	0.009915
1202.000000	0.009908
1201.000000	0.009901
1200.000000	0.009904
1199.000000	0.009921
1198.000000	0.009952
1197.000000	0.009994
1196.000000	0.010046
1195.000000	0.010108
1194.000000	0.010182
1193.000000	0.010274
1192.000000	0.010388
1191.000000	0.010532
1190.000000	0.010703
1189.000000	0.010889
1188.000000	0.011074
1187.000000	0.011256
1186.000000	0.011453
1185.000000	0.011681
1184.000000	0.011938
1183.000000	0.012209
1182.000000	0.012489
1181.000000	0.012789
1180.000000	0.013124
1179.000000	0.013492
1178.000000	0.013880
1177.000000	0.014274
1176.000000	0.014667
1175.000000	0.015053
1174.000000	0.015430
1173.000000	0.015799
1172.000000	0.016158
1171.000000	0.016502
1170.000000	0.016838
1169.000000	0.017174
1168.000000	0.017510
1167.000000	0.017831
1166.000000	0.018121
1165.000000	0.018375
1164.000000	0.018595
1163.000000	0.018787
1162.000000	0.018961
1161.000000	0.019121
1160.000000	0.019265
1159.000000	0.019393
1158.000000	0.019509
1157.000000	0.019618
1156.000000	0.019709
1155.000000	0.019766
1154.000000	0.019791
1153.000000	0.019802
1152.000000	0.019809
1151.000000	0.019801
1150.000000	0.019767
1149.000000	0.019705
1148.000000	0.019615
1147.000000	0.019496
1146.000000	0.019349
1145.000000	0.019182
1144.000000	0.019003
1143.000000	0.018812
1142.000000	0.018614
1141.000000	0.018417
1140.000000	0.018229
1139.000000	0.018059
1138.000000	0.017911
1137.000000	0.017775
1136.000000	0.017628
1135.000000	0.017466
1134.000000	0.017312
1133.000000	0.017195
1132.000000	0.017123
1131.000000	0.017081
1130.000000	0.017058
1129.000000	0.017052
1128.000000	0.017056
1127.000000	0.017069
1126.000000	0.017106
1125.000000	0.017190
1124.000000	0.017319
1123.000000	0.017474
1122.000000	0.017648
1121.000000	0.017855
1120.000000	0.018100
1119.000000	0.018362
1118.000000	0.018620
1117.000000	0.018883
1116.000000	0.019169
1115.000000	0.019473
1114.000000	0.019764
1113.000000	0.020010
1112.000000	0.020194
1111.000000	0.020308
1110.000000	0.020345
1109.000000	0.020304
1108.000000	0.020193
1107.000000	0.020032
1106.000000	0.019851
1105.000000	0.019671
1104.000000	0.019493
1103.000000	0.019304
1102.000000	0.019108
1101.000000	0.018928
1100.000000	0.018776
1099.000000	0.018655
1098.000000	0.018553
1097.000000	0.018463
1096.000000	0.018374
1095.000000	0.018278
1094.000000	0.018175
1093.000000	0.018065
1092.000000	0.017947
1091.000000	0.017816
1090.000000	0.017672
1089.000000	0.017514
1088.000000	0.017339
1087.000000	0.017148
1086.000000	0.016950
1085.000000	0.016757
1084.000000	0.016571
1083.000000	0.016387
1082.000000	0.016213
1081.000000	0.016056
1080.000000	0.015913
1079.000000	0.015780
1078.000000	0.015667
1077.000000	0.015582
1076.000000	0.015509
1075.000000	0.015421
1074.000000	0.015308
1073.000000	0.015183
1072.000000	0.015057
1071.000000	0.014936
1070.000000	0.014826
1069.000000	0.014740
1068.000000	0.014683
1067.000000	0.014640
1066.000000	0.014597
1065.000000	0.014546
1064.000000	0.014493
1063.000000	0.014447
1062.000000	0.014413
1061.000000	0.014381
1060.000000	0.014332
1059.000000	0.014255
1058.000000	0.014163
1057.000000	0.014069
1056.000000	0.013968
1055.000000	0.013847
1054.000000	0.013726
1053.000000	0.013643
1052.000000	0.013612
1051.000000	0.013601
1050.000000	0.013573
1049.000000	0.013526
1048.000000	0.013487
1047.000000	0.013473
1046.000000	0.013482
1045.000000	0.013509
1044.000000	0.013554
1043.000000	0.013606
1042.000000	0.013643
1041.000000	0.013649
1040.000000	0.013633
1039.000000	0.013613
1038.000000	0.013593
1037.000000	0.013556
1036.000000	0.013492
1035.000000	0.013422
1034.000000	0.013375
1033.000000	0.013353
1032.000000	0.013332
1031.000000	0.013299
1030.000000	0.013277
1029.000000	0.013288
1028.000000	0.013319
1027.000000	0.013328
1026.000000	0.013296
1025.000000	0.013237
1024.000000	0.013173
1023.000000	0.013114
1022.000000	0.013050
1021.000000	0.012968
1020.000000	0.012865
1019.000000	0.012756
1018.000000	0.012659
1017.000000	0.012573
1016.000000	0.012478
1015.000000	0.012360
1014.000000	0.012241
1013.000000	0.012145
1012.000000	0.012069
1011.000000	0.011985
1010.000000	0.011883
1009.000000	0.011779
1008.000000	0.011688
1007.000000	0.011605
1006.000000	0.011512
1005.000000	0.011393
1004.000000	0.011238
1003.000000	0.011054
1002.000000	0.010867
1001.000000	0.010710
1000.000000	0.010586
999.000000	0.010470
998.000000	0.010334
997.000000	0.010184
996.000000	0.010047
995.000000	0.009939
994.000000	0.009852
993.000000	0.009762
992.000000	0.009655
991.000000	0.009539
990.000000	0.009437
989.000000	0.009355
988.000000	0.009282
987.000000	0.009199
986.000000	0.009102
985.000000	0.009008
984.000000	0.008928
983.000000	0.008857
982.000000	0.008776
981.000000	0.008683
980.000000	0.008587
979.000000	0.008500
978.000000	0.008423
977.000000	0.008349
976.000000	0.008276
975.000000	0.008204
974.000000	0.008137
973.000000	0.008072
972.000000	0.008013
971.000000	0.007971
970.000000	0.007956
969.000000	0.007963
968.000000	0.007965
967.000000	0.007932
966.000000	0.007862
965.000000	0.007772
964.000000	0.007685
963.000000	0.007604
962.000000	0.007523
961.000000	0.007432
960.000000	0.007331
959.000000	0.007225
958.000000	0.007115
957.000000	0.006998
956.000000	0.006878
955.000000	0.006771
954.000000	0.006685
953.000000	0.006603
952.000000	0.006500
951.000000	0.006385
950.000000	0.006301
949.000000	0.006280
948.000000	0.006294
947.000000	0.006282
946.000000	0.006213
945.000000	0.006107
944.000000	0.006003
943.000000	0.005917
942.000000	0.005842
941.000000	0.005771
940.000000	0.005706
939.000000	0.005648
938.000000	0.005593
937.000000	0.005540
936.000000	0.005488
935.000000	0.005442
934.000000	0.005408
933.000000	0.005386
932.000000	0.005368
931.000000	0.005342
930.000000	0.005302
929.000000	0.005252
928.000000	0.005203
927.000000	0.005156
926.000000	0.005107
925.000000	0.005049
924.000000	0.004982
923.000000	0.004916
922.000000	0.004863
921.000000	0.004824
920.000000	0.004786
919.000000	0.004736
918.000000	0.004677
917.000000	0.004624
916.000000	0.004582
915.000000	0.004538
914.000000	0.004480
913.000000	0.004420
912.000000	0.004376
911.000000	0.004350
910.000000	0.004319
909.000000	0.004259
908.000000	0.004178
907.000000	0.004103
906.000000	0.004044
905.000000	0.003992
904.000000	0.003933
903.000000	0.003871
902.000000	0.003821
901.000000	0.003789
900.000000	0.003762
899.000000	0.003737
898.000000	0.003722
897.000000	0.003723
896.000000	0.003725
895.000000	0.003707
894.000000	0.003662
893.000000	0.003606
892.000000	0.003563
891.000000	0.003539
890.000000	0.003533
889.000000	0.003558
888.000000	0.003657
887.000000	0.003879
886.000000	0.004234
885.000000	0.004667
884.000000	0.005096
883.000000	0.005471
882.000000	0.005810
881.000000	0.006176
880.000000	0.006621
879.000000	0.007136
878.000000	0.007672
877.000000	0.008176
876.000000	0.008613
875.000000	0.008952
874.000000	0.009141
873.000000	0.009120
872.000000	0.008868
871.000000	0.008435
870.000000	0.007918
869.000000	0.007405
868.000000	0.006938
867.000000	0.006517
866.000000	0.006132
865.000000	0.005781
864.000000	0.005478
863.000000	0.005230
862.000000	0.005027
861.000000	0.004834
860.000000	0.004623
859.000000	0.004388
858.000000	0.004151
857.000000	0.003935
856.000000	0.003763
855.000000	0.003652
854.000000	0.003605
853.000000	0.003600
852.000000	0.003608
851.000000	0.003630
850.000000	0.003685
849.000000	0.003769
848.000000	0.003833
847.000000	0.003827
846.000000	0.003743
845.000000	0.003613
844.000000	0.003472
843.000000	0.003357
842.000000	0.003302
841.000000	0.003316
840.000000	0.003357
839.000000	0.003373
838.000000	0.003356
837.000000	0.003352
836.000000	0.003397
835.000000	0.003483
834.000000	0.003573
833.000000	0.003636
832.000000	0.003662
831.000000	0.003652
830.000000	0.003614
829.000000	0.003568
828.000000	0.003530
827.000000	0.003497
826.000000	0.003453
825.000000	0.003395
824.000000	0.003342
823.000000	0.003317
822.000000	0.003328
821.000000	0.003357
820.000000	0.003372
819.000000	0.003360
818.000000	0.003335
817.000000	0.003322
816.000000	0.003328
815.000000	0.003340
814.000000	0.003347
813.000000	0.003354
812.000000	0.003357
811.000000	0.003342
810.000000	0.003306
809.000000	0.003269
808.000000	0.003254
807.000000	0.003266
806.000000	0.003293
805.000000	0.003329
804.000000	0.003373
803.000000	0.003425
802.000000	0.003482
801.000000	0.003540
800.000000	0.003587
799.000000	0.003602
798.000000	0.003573
797.000000	0.003509
796.000000	0.003437
795.000000	0.003376
794.000000	0.003331
793.000000	0.003302
792.000000	0.003296
791.000000	0.003316
790.000000	0.003353
789.000000	0.003390
788.000000	0.003406
787.000000	0.003397
786.000000	0.003384
785.000000	0.003401
784.000000	0.003458
783.000000	0.003526
782.000000	0.003562
781.000000	0.003547
780.000000	0.003507
779.000000	0.003479
778.000000	0.003475
777.000000	0.003473
776.000000	0.003447
775.000000	0.003396
774.000000	0.003347
773.000000	0.003327
772.000000	0.003335
771.000000	0.003349
770.000000	0.003351
769.000000	0.003342
768.000000	0.003331
767.000000	0.003322
766.000000	0.003315
765.000000	0.003312
764.000000	0.003313
763.000000	0.003318
762.000000	0.003331
761.000000	0.003363
760.000000	0.003410
759.000000	0.003447
758.000000	0.003453
757.000000	0.003436
756.000000	0.003435
755.000000	0.003473
754.000000	0.003536
753.000000	0.003590
752.000000	0.003610
751.000000	0.003595
750.000000	0.003569
749.000000	0.003559
748.000000	0.003582
747.000000	0.003634
746.000000	0.003694
745.000000	0.003740
744.000000	0.003766
743.000000	0.003778
742.000000	0.003782
741.000000	0.003782
740.000000	0.003765
739.000000	0.003716
738.000000	0.003637
737.000000	0.003561
736.000000	0.003518
735.000000	0.003511
734.000000	0.003514
733.000000	0.003512
732.000000	0.003516
731.000000	0.003534
730.000000	0.003547
729.000000	0.003523
728.000000	0.003457
727.000000	0.003380
726.000000	0.003323
725.000000	0.003297
724.000000	0.003287
723.000000	0.003271
722.000000	0.003256
721.000000	0.003268
720.000000	0.003328
719.000000	0.003433
718.000000	0.003584
717.000000	0.003808
716.000000	0.004142
715.000000	0.004583
714.000000	0.005057
713.000000	0.005435
712.000000	0.005605
711.000000	0.005530
710.000000	0.005283
709.000000	0.005008
708.000000	0.004835
707.000000	0.004795
706.000000	0.004834
705.000000	0.004894
704.000000	0.004954
703.000000	0.005015
702.000000	0.005072
701.000000	0.005127
700.000000	0.005195
699.000000	0.005277
698.000000	0.005347
697.000000	0.005383
696.000000	0.005384
695.000000	0.005357
694.000000	0.005287
693.000000	0.005164
692.000000	0.005027
691.000000	0.004936
690.000000	0.004897
689.000000	0.004871
688.000000	0.004845
687.000000	0.004859
686.000000	0.004936
685.000000	0.005027
684.000000	0.005085
683.000000	0.005134
682.000000	0.005235
681.000000	0.005400
680.000000	0.005595
679.000000	0.005799
678.000000	0.006025
677.000000	0.006307
676.000000	0.006651
675.000000	0.007019
674.000000	0.007359
673.000000	0.007621
672.000000	0.007765
671.000000	0.007743
670.000000	0.007512
669.000000	0.007066
668.000000	0.006613
667.000000	0.006453
666.000000	0.006444
665.000000	0.006428
664.000000	0.006325
663.000000	0.006080
662.000000	0.005738
661.000000	0.005409
660.000000	0.005164
659.000000	0.004986
658.000000	0.004833
657.000000	0.004720
656.000000	0.004676
655.000000	0.004695
654.000000	0.004764
653.000000	0.004875
652.000000	0.004987
651.000000	0.005039
650.000000	0.005031
649.000000	0.005028
648.000000	0.005058
647.000000	0.005072
646.000000	0.005037
645.000000	0.004990
644.000000	0.004967
643.000000	0.004963
642.000000	0.004971
641.000000	0.005011
640.000000	0.005088
639.000000	0.005159
638.000000	0.005190
637.000000	0.005196
636.000000	0.005192
635.000000	0.005169
634.000000	0.005145
633.000000	0.005177
632.000000	0.005295
631.000000	0.005457
630.000000	0.005595
629.000000	0.005683
628.000000	0.005726
627.000000	0.005740
626.000000	0.005765
625.000000	0.005830
624.000000	0.005908
623.000000	0.005933
622.000000	0.005889
621.000000	0.005825
620.000000	0.005788
619.000000	0.005788
618.000000	0.005845
617.000000	0.005989
616.000000	0.006198
615.000000	0.006395
614.000000	0.006537
613.000000	0.006665
612.000000	0.006833
611.000000	0.007041
610.000000	0.007269
609.000000	0.007526
608.000000	0.007822
607.000000	0.008136
606.000000	0.008459
605.000000	0.008793
604.000000	0.009097
603.000000	0.009285
602.000000	0.009306
601.000000	0.009201
600.000000	0.009023
599.000000	0.008792
598.000000	0.008535
597.000000	0.008306
596.000000	0.008104
595.000000	0.007852
594.000000	0.007510
593.000000	0.007165
592.000000	0.006936
591.000000	0.006841
590.000000	0.006782
589.000000	0.006673
588.000000	0.006496
587.000000	0.006291
586.000000	0.006125
585.000000	0.006051
584.000000	0.006047
583.000000	0.006044
582.000000	0.006016
581.000000	0.006007
580.000000	0.006032
579.000000	0.006008
578.000000	0.005855
577.000000	0.005609
576.000000	0.005385
575.000000	0.005246
574.000000	0.005177
573.000000	0.005134
572.000000	0.005088
571.000000	0.005019
570.000000	0.004936
569.000000	0.004883
568.000000	0.004884
567.000000	0.004899
566.000000	0.004870
565.000000	0.004779
564.000000	0.004644
563.000000	0.004500
562.000000	0.004411
561.000000	0.004435
560.000000	0.004543
559.000000	0.004624
558.000000	0.004597
557.000000	0.004482
556.000000	0.004329
555.000000	0.004170
554.000000	0.004067
553.000000	0.004101
552.000000	0.004260
551.000000	0.004393
550.000000	0.004385
549.000000	0.004292
548.000000	0.004229
547.000000	0.004196
546.000000	0.004109
545.000000	0.003968
544.000000	0.003862
543.000000	0.003847
542.000000	0.003899
541.000000	0.003982
540.000000	0.004076
539.000000	0.004155
538.000000	0.004197
537.000000	0.004216
536.000000	0.004224
535.000000	0.004197
534.000000	0.004115
533.000000	0.004019
532.000000	0.003965
531.000000	0.003948
530.000000	0.003915
529.000000	0.003840
528.000000	0.003735
527.000000	0.003625
526.000000	0.003541
525.000000	0.003510
524.000000	0.003519
523.000000	0.003532
522.000000	0.003555
521.000000	0.003619
520.000000	0.003687
519.000000	0.003669
518.000000	0.003564
517.000000	0.003502
516.000000	0.003557
515.000000	0.003639
514.000000	0.003633
513.000000	0.003542
512.000000	0.003438
511.000000	0.003357
510.000000	0.003312
509.000000	0.003334
508.000000	0.003421
507.000000	0.003491
506.000000	0.003478
505.000000	0.003432
504.000000	0.003441
503.000000	0.003512
502.000000	0.003597
501.000000	0.003661
500.000000	0.003686
499.000000	0.003651
498.000000	0.003597
497.000000	0.003622
496.000000	0.003741
495.000000	0.003826
494.000000	0.003776
493.000000	0.003665
492.000000	0.003622
491.000000	0.003644
490.000000	0.003655
489.000000	0.003667
488.000000	0.003723
487.000000	0.003755
486.000000	0.003659
485.000000	0.003472
484.000000	0.003349
483.000000	0.003384
482.000000	0.003564
481.000000	0.003850
480.000000	0.004165
479.000000	0.004338
478.000000	0.004256
477.000000	0.004030
476.000000	0.003869
475.000000	0.003828
474.000000	0.003812
473.000000	0.003778
472.000000	0.003756
471.000000	0.003741
470.000000	0.003741
469.000000	0.003835
468.000000	0.004029
467.000000	0.004139
466.000000	0.004023
465.000000	0.003836
464.000000	0.003818
463.000000	0.003933
462.000000	0.003924
461.000000	0.003694
460.000000	0.003391
459.000000	0.003144
458.000000	0.002992
457.000000	0.003018
456.000000	0.003261
455.000000	0.003531
454.000000	0.003598
453.000000	0.003439
452.000000	0.003306
451.000000	0.003353
450.000000	0.003185
