PE IR       SUBTECH     SPECTRUM    ASCII       PEDS        4.00        
   -1
P12-Rouge048_1.ASC
23/06/08
15:38:59.00
23/06/08
15:48:35.00
uco
Sample 048 By uco Date Thursday, June 08 2023
450.000000
#HDR
-1
-1
#GR
cm-1
A
1.0
0.0
4000.000000
-1.000000
3551
8
0.017319
0.000008
#DATA
4000.000000	0.000379
3999.000000	0.000402
3998.000000	0.000422
3997.000000	0.000426
3996.000000	0.000414
3995.000000	0.000396
3994.000000	0.000386
3993.000000	0.000390
3992.000000	0.000409
3991.000000	0.000437
3990.000000	0.000464
3989.000000	0.000486
3988.000000	0.000497
3987.000000	0.000496
3986.000000	0.000485
3985.000000	0.000466
3984.000000	0.000447
3983.000000	0.000438
3982.000000	0.000446
3981.000000	0.000467
3980.000000	0.000488
3979.000000	0.000496
3978.000000	0.000488
3977.000000	0.000474
3976.000000	0.000465
3975.000000	0.000467
3974.000000	0.000477
3973.000000	0.000486
3972.000000	0.000485
3971.000000	0.000473
3970.000000	0.000455
3969.000000	0.000443
3968.000000	0.000441
3967.000000	0.000450
3966.000000	0.000463
3965.000000	0.000474
3964.000000	0.000478
3963.000000	0.000475
3962.000000	0.000469
3961.000000	0.000467
3960.000000	0.000474
3959.000000	0.000483
3958.000000	0.000485
3957.000000	0.000474
3956.000000	0.000449
3955.000000	0.000420
3954.000000	0.000401
3953.000000	0.000400
3952.000000	0.000425
3951.000000	0.000471
3950.000000	0.000524
3949.000000	0.000565
3948.000000	0.000581
3947.000000	0.000573
3946.000000	0.000552
3945.000000	0.000533
3944.000000	0.000524
3943.000000	0.000531
3942.000000	0.000555
3941.000000	0.000588
3940.000000	0.000617
3939.000000	0.000628
3938.000000	0.000618
3937.000000	0.000594
3936.000000	0.000574
3935.000000	0.000567
3934.000000	0.000570
3933.000000	0.000572
3932.000000	0.000564
3931.000000	0.000550
3930.000000	0.000542
3929.000000	0.000545
3928.000000	0.000554
3927.000000	0.000564
3926.000000	0.000571
3925.000000	0.000574
3924.000000	0.000571
3923.000000	0.000563
3922.000000	0.000558
3921.000000	0.000558
3920.000000	0.000561
3919.000000	0.000558
3918.000000	0.000544
3917.000000	0.000526
3916.000000	0.000514
3915.000000	0.000513
3914.000000	0.000515
3913.000000	0.000510
3912.000000	0.000497
3911.000000	0.000482
3910.000000	0.000474
3909.000000	0.000473
3908.000000	0.000476
3907.000000	0.000481
3906.000000	0.000491
3905.000000	0.000513
3904.000000	0.000543
3903.000000	0.000569
3902.000000	0.000585
3901.000000	0.000596
3900.000000	0.000604
3899.000000	0.000606
3898.000000	0.000597
3897.000000	0.000578
3896.000000	0.000555
3895.000000	0.000536
3894.000000	0.000528
3893.000000	0.000534
3892.000000	0.000551
3891.000000	0.000567
3890.000000	0.000574
3889.000000	0.000573
3888.000000	0.000566
3887.000000	0.000558
3886.000000	0.000553
3885.000000	0.000548
3884.000000	0.000542
3883.000000	0.000525
3882.000000	0.000496
3881.000000	0.000464
3880.000000	0.000446
3879.000000	0.000455
3878.000000	0.000482
3877.000000	0.000506
3876.000000	0.000509
3875.000000	0.000490
3874.000000	0.000467
3873.000000	0.000461
3872.000000	0.000485
3871.000000	0.000530
3870.000000	0.000571
3869.000000	0.000591
3868.000000	0.000588
3867.000000	0.000572
3866.000000	0.000548
3865.000000	0.000523
3864.000000	0.000514
3863.000000	0.000529
3862.000000	0.000558
3861.000000	0.000584
3860.000000	0.000592
3859.000000	0.000580
3858.000000	0.000557
3857.000000	0.000535
3856.000000	0.000526
3855.000000	0.000530
3854.000000	0.000540
3853.000000	0.000531
3852.000000	0.000501
3851.000000	0.000476
3850.000000	0.000472
3849.000000	0.000484
3848.000000	0.000508
3847.000000	0.000532
3846.000000	0.000547
3845.000000	0.000542
3844.000000	0.000521
3843.000000	0.000496
3842.000000	0.000487
3841.000000	0.000498
3840.000000	0.000520
3839.000000	0.000539
3838.000000	0.000551
3837.000000	0.000564
3836.000000	0.000583
3835.000000	0.000608
3834.000000	0.000628
3833.000000	0.000632
3832.000000	0.000616
3831.000000	0.000590
3830.000000	0.000568
3829.000000	0.000554
3828.000000	0.000544
3827.000000	0.000531
3826.000000	0.000514
3825.000000	0.000499
3824.000000	0.000492
3823.000000	0.000489
3822.000000	0.000486
3821.000000	0.000482
3820.000000	0.000483
3819.000000	0.000495
3818.000000	0.000513
3817.000000	0.000525
3816.000000	0.000526
3815.000000	0.000523
3814.000000	0.000524
3813.000000	0.000527
3812.000000	0.000522
3811.000000	0.000504
3810.000000	0.000483
3809.000000	0.000466
3808.000000	0.000453
3807.000000	0.000440
3806.000000	0.000431
3805.000000	0.000435
3804.000000	0.000453
3803.000000	0.000468
3802.000000	0.000457
3801.000000	0.000419
3800.000000	0.000383
3799.000000	0.000375
3798.000000	0.000395
3797.000000	0.000423
3796.000000	0.000443
3795.000000	0.000448
3794.000000	0.000445
3793.000000	0.000444
3792.000000	0.000453
3791.000000	0.000475
3790.000000	0.000504
3789.000000	0.000528
3788.000000	0.000538
3787.000000	0.000531
3786.000000	0.000512
3785.000000	0.000490
3784.000000	0.000471
3783.000000	0.000462
3782.000000	0.000466
3781.000000	0.000478
3780.000000	0.000485
3779.000000	0.000476
3778.000000	0.000447
3777.000000	0.000414
3776.000000	0.000390
3775.000000	0.000382
3774.000000	0.000387
3773.000000	0.000400
3772.000000	0.000410
3771.000000	0.000409
3770.000000	0.000394
3769.000000	0.000376
3768.000000	0.000365
3767.000000	0.000370
3766.000000	0.000390
3765.000000	0.000418
3764.000000	0.000443
3763.000000	0.000454
3762.000000	0.000447
3761.000000	0.000428
3760.000000	0.000412
3759.000000	0.000411
3758.000000	0.000429
3757.000000	0.000457
3756.000000	0.000490
3755.000000	0.000520
3754.000000	0.000546
3753.000000	0.000573
3752.000000	0.000608
3751.000000	0.000653
3750.000000	0.000688
3749.000000	0.000695
3748.000000	0.000674
3747.000000	0.000634
3746.000000	0.000579
3745.000000	0.000521
3744.000000	0.000477
3743.000000	0.000458
3742.000000	0.000453
3741.000000	0.000446
3740.000000	0.000430
3739.000000	0.000416
3738.000000	0.000419
3737.000000	0.000440
3736.000000	0.000452
3735.000000	0.000431
3734.000000	0.000394
3733.000000	0.000380
3732.000000	0.000395
3731.000000	0.000424
3730.000000	0.000452
3729.000000	0.000482
3728.000000	0.000512
3727.000000	0.000535
3726.000000	0.000548
3725.000000	0.000555
3724.000000	0.000565
3723.000000	0.000578
3722.000000	0.000587
3721.000000	0.000581
3720.000000	0.000559
3719.000000	0.000525
3718.000000	0.000485
3717.000000	0.000445
3716.000000	0.000412
3715.000000	0.000395
3714.000000	0.000413
3713.000000	0.000477
3712.000000	0.000568
3711.000000	0.000637
3710.000000	0.000646
3709.000000	0.000604
3708.000000	0.000540
3707.000000	0.000476
3706.000000	0.000428
3705.000000	0.000398
3704.000000	0.000379
3703.000000	0.000366
3702.000000	0.000355
3701.000000	0.000352
3700.000000	0.000365
3699.000000	0.000395
3698.000000	0.000437
3697.000000	0.000477
3696.000000	0.000506
3695.000000	0.000519
3694.000000	0.000515
3693.000000	0.000494
3692.000000	0.000458
3691.000000	0.000414
3690.000000	0.000385
3689.000000	0.000390
3688.000000	0.000426
3687.000000	0.000468
3686.000000	0.000491
3685.000000	0.000490
3684.000000	0.000471
3683.000000	0.000445
3682.000000	0.000421
3681.000000	0.000410
3680.000000	0.000420
3679.000000	0.000451
3678.000000	0.000495
3677.000000	0.000524
3676.000000	0.000516
3675.000000	0.000478
3674.000000	0.000450
3673.000000	0.000454
3672.000000	0.000481
3671.000000	0.000513
3670.000000	0.000540
3669.000000	0.000558
3668.000000	0.000562
3667.000000	0.000549
3666.000000	0.000521
3665.000000	0.000490
3664.000000	0.000472
3663.000000	0.000474
3662.000000	0.000487
3661.000000	0.000496
3660.000000	0.000497
3659.000000	0.000497
3658.000000	0.000512
3657.000000	0.000545
3656.000000	0.000581
3655.000000	0.000603
3654.000000	0.000610
3653.000000	0.000613
3652.000000	0.000622
3651.000000	0.000647
3650.000000	0.000687
3649.000000	0.000718
3648.000000	0.000717
3647.000000	0.000691
3646.000000	0.000655
3645.000000	0.000620
3644.000000	0.000589
3643.000000	0.000565
3642.000000	0.000553
3641.000000	0.000553
3640.000000	0.000561
3639.000000	0.000569
3638.000000	0.000573
3637.000000	0.000576
3636.000000	0.000586
3635.000000	0.000608
3634.000000	0.000639
3633.000000	0.000671
3632.000000	0.000695
3631.000000	0.000711
3630.000000	0.000724
3629.000000	0.000735
3628.000000	0.000743
3627.000000	0.000753
3626.000000	0.000766
3625.000000	0.000772
3624.000000	0.000760
3623.000000	0.000729
3622.000000	0.000686
3621.000000	0.000643
3620.000000	0.000617
3619.000000	0.000620
3618.000000	0.000648
3617.000000	0.000693
3616.000000	0.000740
3615.000000	0.000781
3614.000000	0.000815
3613.000000	0.000845
3612.000000	0.000872
3611.000000	0.000897
3610.000000	0.000916
3609.000000	0.000922
3608.000000	0.000909
3607.000000	0.000883
3606.000000	0.000865
3605.000000	0.000865
3604.000000	0.000880
3603.000000	0.000901
3602.000000	0.000917
3601.000000	0.000922
3600.000000	0.000912
3599.000000	0.000890
3598.000000	0.000865
3597.000000	0.000854
3596.000000	0.000872
3595.000000	0.000920
3594.000000	0.000982
3593.000000	0.001035
3592.000000	0.001068
3591.000000	0.001081
3590.000000	0.001079
3589.000000	0.001067
3588.000000	0.001047
3587.000000	0.001026
3586.000000	0.001026
3585.000000	0.001061
3584.000000	0.001120
3583.000000	0.001177
3582.000000	0.001212
3581.000000	0.001221
3580.000000	0.001213
3579.000000	0.001204
3578.000000	0.001202
3577.000000	0.001209
3576.000000	0.001225
3575.000000	0.001246
3574.000000	0.001267
3573.000000	0.001284
3572.000000	0.001300
3571.000000	0.001327
3570.000000	0.001376
3569.000000	0.001451
3568.000000	0.001533
3567.000000	0.001585
3566.000000	0.001596
3565.000000	0.001591
3564.000000	0.001592
3563.000000	0.001596
3562.000000	0.001595
3561.000000	0.001592
3560.000000	0.001601
3559.000000	0.001629
3558.000000	0.001666
3557.000000	0.001699
3556.000000	0.001724
3555.000000	0.001753
3554.000000	0.001800
3553.000000	0.001869
3552.000000	0.001944
3551.000000	0.002006
3550.000000	0.002045
3549.000000	0.002063
3548.000000	0.002064
3547.000000	0.002051
3546.000000	0.002028
3545.000000	0.002005
3544.000000	0.001991
3543.000000	0.001990
3542.000000	0.001996
3541.000000	0.002003
3540.000000	0.002013
3539.000000	0.002032
3538.000000	0.002061
3537.000000	0.002094
3536.000000	0.002120
3535.000000	0.002135
3534.000000	0.002139
3533.000000	0.002135
3532.000000	0.002120
3531.000000	0.002097
3530.000000	0.002078
3529.000000	0.002075
3528.000000	0.002095
3527.000000	0.002132
3526.000000	0.002168
3525.000000	0.002187
3524.000000	0.002184
3523.000000	0.002163
3522.000000	0.002134
3521.000000	0.002106
3520.000000	0.002085
3519.000000	0.002068
3518.000000	0.002054
3517.000000	0.002040
3516.000000	0.002027
3515.000000	0.002015
3514.000000	0.002007
3513.000000	0.002005
3512.000000	0.002009
3511.000000	0.002015
3510.000000	0.002018
3509.000000	0.002019
3508.000000	0.002026
3507.000000	0.002043
3506.000000	0.002065
3505.000000	0.002071
3504.000000	0.002048
3503.000000	0.001995
3502.000000	0.001933
3501.000000	0.001886
3500.000000	0.001869
3499.000000	0.001877
3498.000000	0.001902
3497.000000	0.001931
3496.000000	0.001952
3495.000000	0.001957
3494.000000	0.001943
3493.000000	0.001916
3492.000000	0.001887
3491.000000	0.001870
3490.000000	0.001870
3489.000000	0.001881
3488.000000	0.001896
3487.000000	0.001906
3486.000000	0.001914
3485.000000	0.001925
3484.000000	0.001941
3483.000000	0.001955
3482.000000	0.001957
3481.000000	0.001944
3480.000000	0.001924
3479.000000	0.001908
3478.000000	0.001900
3477.000000	0.001894
3476.000000	0.001888
3475.000000	0.001889
3474.000000	0.001905
3473.000000	0.001929
3472.000000	0.001944
3471.000000	0.001937
3470.000000	0.001911
3469.000000	0.001881
3468.000000	0.001864
3467.000000	0.001867
3466.000000	0.001888
3465.000000	0.001919
3464.000000	0.001947
3463.000000	0.001958
3462.000000	0.001945
3461.000000	0.001913
3460.000000	0.001881
3459.000000	0.001864
3458.000000	0.001868
3457.000000	0.001883
3456.000000	0.001898
3455.000000	0.001908
3454.000000	0.001915
3453.000000	0.001924
3452.000000	0.001936
3451.000000	0.001952
3450.000000	0.001970
3449.000000	0.001983
3448.000000	0.001988
3447.000000	0.001984
3446.000000	0.001982
3445.000000	0.001991
3444.000000	0.002007
3443.000000	0.002021
3442.000000	0.002026
3441.000000	0.002025
3440.000000	0.002025
3439.000000	0.002029
3438.000000	0.002033
3437.000000	0.002033
3436.000000	0.002036
3435.000000	0.002053
3434.000000	0.002086
3433.000000	0.002125
3432.000000	0.002154
3431.000000	0.002162
3430.000000	0.002153
3429.000000	0.002139
3428.000000	0.002129
3427.000000	0.002129
3426.000000	0.002144
3425.000000	0.002176
3424.000000	0.002220
3423.000000	0.002262
3422.000000	0.002293
3421.000000	0.002315
3420.000000	0.002340
3419.000000	0.002371
3418.000000	0.002404
3417.000000	0.002433
3416.000000	0.002460
3415.000000	0.002492
3414.000000	0.002528
3413.000000	0.002561
3412.000000	0.002587
3411.000000	0.002607
3410.000000	0.002626
3409.000000	0.002639
3408.000000	0.002644
3407.000000	0.002642
3406.000000	0.002636
3405.000000	0.002629
3404.000000	0.002622
3403.000000	0.002622
3402.000000	0.002636
3401.000000	0.002666
3400.000000	0.002703
3399.000000	0.002735
3398.000000	0.002755
3397.000000	0.002767
3396.000000	0.002777
3395.000000	0.002787
3394.000000	0.002792
3393.000000	0.002779
3392.000000	0.002744
3391.000000	0.002695
3390.000000	0.002648
3389.000000	0.002614
3388.000000	0.002593
3387.000000	0.002581
3386.000000	0.002576
3385.000000	0.002578
3384.000000	0.002590
3383.000000	0.002608
3382.000000	0.002623
3381.000000	0.002621
3380.000000	0.002600
3379.000000	0.002568
3378.000000	0.002537
3377.000000	0.002515
3376.000000	0.002506
3375.000000	0.002507
3374.000000	0.002514
3373.000000	0.002523
3372.000000	0.002528
3371.000000	0.002531
3370.000000	0.002538
3369.000000	0.002551
3368.000000	0.002565
3367.000000	0.002573
3366.000000	0.002572
3365.000000	0.002564
3364.000000	0.002552
3363.000000	0.002536
3362.000000	0.002516
3361.000000	0.002493
3360.000000	0.002471
3359.000000	0.002456
3358.000000	0.002450
3357.000000	0.002446
3356.000000	0.002440
3355.000000	0.002432
3354.000000	0.002432
3353.000000	0.002447
3352.000000	0.002473
3351.000000	0.002493
3350.000000	0.002492
3349.000000	0.002462
3348.000000	0.002412
3347.000000	0.002362
3346.000000	0.002332
3345.000000	0.002327
3344.000000	0.002340
3343.000000	0.002359
3342.000000	0.002379
3341.000000	0.002398
3340.000000	0.002418
3339.000000	0.002439
3338.000000	0.002465
3337.000000	0.002491
3336.000000	0.002511
3335.000000	0.002517
3334.000000	0.002514
3333.000000	0.002512
3332.000000	0.002518
3331.000000	0.002521
3330.000000	0.002513
3329.000000	0.002494
3328.000000	0.002471
3327.000000	0.002452
3326.000000	0.002440
3325.000000	0.002432
3324.000000	0.002427
3323.000000	0.002426
3322.000000	0.002426
3321.000000	0.002427
3320.000000	0.002431
3319.000000	0.002442
3318.000000	0.002460
3317.000000	0.002481
3316.000000	0.002498
3315.000000	0.002508
3314.000000	0.002514
3313.000000	0.002524
3312.000000	0.002542
3311.000000	0.002564
3310.000000	0.002581
3309.000000	0.002587
3308.000000	0.002582
3307.000000	0.002573
3306.000000	0.002565
3305.000000	0.002561
3304.000000	0.002562
3303.000000	0.002563
3302.000000	0.002557
3301.000000	0.002538
3300.000000	0.002512
3299.000000	0.002493
3298.000000	0.002494
3297.000000	0.002513
3296.000000	0.002538
3295.000000	0.002556
3294.000000	0.002561
3293.000000	0.002551
3292.000000	0.002533
3291.000000	0.002516
3290.000000	0.002506
3289.000000	0.002500
3288.000000	0.002492
3287.000000	0.002483
3286.000000	0.002475
3285.000000	0.002463
3284.000000	0.002443
3283.000000	0.002415
3282.000000	0.002391
3281.000000	0.002379
3280.000000	0.002377
3279.000000	0.002379
3278.000000	0.002385
3277.000000	0.002396
3276.000000	0.002416
3275.000000	0.002437
3274.000000	0.002450
3273.000000	0.002445
3272.000000	0.002423
3271.000000	0.002399
3270.000000	0.002390
3269.000000	0.002405
3268.000000	0.002429
3267.000000	0.002444
3266.000000	0.002442
3265.000000	0.002434
3264.000000	0.002428
3263.000000	0.002425
3262.000000	0.002419
3261.000000	0.002406
3260.000000	0.002390
3259.000000	0.002381
3258.000000	0.002388
3257.000000	0.002407
3256.000000	0.002423
3255.000000	0.002421
3254.000000	0.002402
3253.000000	0.002377
3252.000000	0.002357
3251.000000	0.002344
3250.000000	0.002338
3249.000000	0.002335
3248.000000	0.002338
3247.000000	0.002349
3246.000000	0.002363
3245.000000	0.002376
3244.000000	0.002379
3243.000000	0.002372
3242.000000	0.002363
3241.000000	0.002356
3240.000000	0.002347
3239.000000	0.002325
3238.000000	0.002286
3237.000000	0.002240
3236.000000	0.002201
3235.000000	0.002178
3234.000000	0.002172
3233.000000	0.002177
3232.000000	0.002187
3231.000000	0.002197
3230.000000	0.002198
3229.000000	0.002185
3228.000000	0.002159
3227.000000	0.002125
3226.000000	0.002095
3225.000000	0.002084
3224.000000	0.002102
3223.000000	0.002145
3222.000000	0.002194
3221.000000	0.002231
3220.000000	0.002246
3219.000000	0.002247
3218.000000	0.002243
3217.000000	0.002234
3216.000000	0.002214
3215.000000	0.002182
3214.000000	0.002148
3213.000000	0.002125
3212.000000	0.002119
3211.000000	0.002120
3210.000000	0.002118
3209.000000	0.002109
3208.000000	0.002097
3207.000000	0.002089
3206.000000	0.002093
3205.000000	0.002109
3204.000000	0.002132
3203.000000	0.002152
3202.000000	0.002165
3201.000000	0.002165
3200.000000	0.002153
3199.000000	0.002127
3198.000000	0.002097
3197.000000	0.002072
3196.000000	0.002059
3195.000000	0.002055
3194.000000	0.002050
3193.000000	0.002040
3192.000000	0.002032
3191.000000	0.002035
3190.000000	0.002051
3189.000000	0.002071
3188.000000	0.002084
3187.000000	0.002081
3186.000000	0.002063
3185.000000	0.002043
3184.000000	0.002031
3183.000000	0.002030
3182.000000	0.002037
3181.000000	0.002045
3180.000000	0.002048
3179.000000	0.002043
3178.000000	0.002023
3177.000000	0.001992
3176.000000	0.001956
3175.000000	0.001929
3174.000000	0.001918
3173.000000	0.001921
3172.000000	0.001934
3171.000000	0.001956
3170.000000	0.001980
3169.000000	0.001995
3168.000000	0.001988
3167.000000	0.001957
3166.000000	0.001916
3165.000000	0.001882
3164.000000	0.001865
3163.000000	0.001858
3162.000000	0.001853
3161.000000	0.001842
3160.000000	0.001827
3159.000000	0.001815
3158.000000	0.001812
3157.000000	0.001820
3156.000000	0.001839
3155.000000	0.001869
3154.000000	0.001901
3153.000000	0.001920
3152.000000	0.001915
3151.000000	0.001886
3150.000000	0.001849
3149.000000	0.001821
3148.000000	0.001810
3147.000000	0.001818
3146.000000	0.001839
3145.000000	0.001862
3144.000000	0.001875
3143.000000	0.001874
3142.000000	0.001861
3141.000000	0.001841
3140.000000	0.001813
3139.000000	0.001782
3138.000000	0.001757
3137.000000	0.001746
3136.000000	0.001746
3135.000000	0.001751
3134.000000	0.001757
3133.000000	0.001766
3132.000000	0.001776
3131.000000	0.001781
3130.000000	0.001776
3129.000000	0.001768
3128.000000	0.001766
3127.000000	0.001776
3126.000000	0.001793
3125.000000	0.001804
3124.000000	0.001805
3123.000000	0.001799
3122.000000	0.001795
3121.000000	0.001798
3120.000000	0.001806
3119.000000	0.001809
3118.000000	0.001805
3117.000000	0.001799
3116.000000	0.001795
3115.000000	0.001797
3114.000000	0.001797
3113.000000	0.001790
3112.000000	0.001778
3111.000000	0.001768
3110.000000	0.001764
3109.000000	0.001760
3108.000000	0.001748
3107.000000	0.001727
3106.000000	0.001706
3105.000000	0.001692
3104.000000	0.001685
3103.000000	0.001682
3102.000000	0.001684
3101.000000	0.001692
3100.000000	0.001702
3099.000000	0.001710
3098.000000	0.001714
3097.000000	0.001717
3096.000000	0.001719
3095.000000	0.001714
3094.000000	0.001702
3093.000000	0.001687
3092.000000	0.001679
3091.000000	0.001675
3090.000000	0.001668
3089.000000	0.001658
3088.000000	0.001649
3087.000000	0.001649
3086.000000	0.001654
3085.000000	0.001658
3084.000000	0.001655
3083.000000	0.001651
3082.000000	0.001652
3081.000000	0.001665
3080.000000	0.001687
3079.000000	0.001711
3078.000000	0.001728
3077.000000	0.001732
3076.000000	0.001722
3075.000000	0.001708
3074.000000	0.001696
3073.000000	0.001686
3072.000000	0.001675
3071.000000	0.001659
3070.000000	0.001644
3069.000000	0.001637
3068.000000	0.001643
3067.000000	0.001659
3066.000000	0.001676
3065.000000	0.001682
3064.000000	0.001673
3063.000000	0.001660
3062.000000	0.001657
3061.000000	0.001667
3060.000000	0.001683
3059.000000	0.001692
3058.000000	0.001688
3057.000000	0.001672
3056.000000	0.001657
3055.000000	0.001653
3054.000000	0.001659
3053.000000	0.001662
3052.000000	0.001648
3051.000000	0.001621
3050.000000	0.001597
3049.000000	0.001589
3048.000000	0.001595
3047.000000	0.001604
3046.000000	0.001610
3045.000000	0.001615
3044.000000	0.001626
3043.000000	0.001644
3042.000000	0.001668
3041.000000	0.001689
3040.000000	0.001694
3039.000000	0.001672
3038.000000	0.001631
3037.000000	0.001591
3036.000000	0.001575
3035.000000	0.001589
3034.000000	0.001623
3033.000000	0.001656
3032.000000	0.001670
3031.000000	0.001658
3030.000000	0.001635
3029.000000	0.001616
3028.000000	0.001610
3027.000000	0.001616
3026.000000	0.001626
3025.000000	0.001635
3024.000000	0.001638
3023.000000	0.001635
3022.000000	0.001633
3021.000000	0.001639
3020.000000	0.001654
3019.000000	0.001671
3018.000000	0.001681
3017.000000	0.001683
3016.000000	0.001679
3015.000000	0.001670
3014.000000	0.001657
3013.000000	0.001643
3012.000000	0.001637
3011.000000	0.001648
3010.000000	0.001677
3009.000000	0.001712
3008.000000	0.001741
3007.000000	0.001757
3006.000000	0.001770
3005.000000	0.001787
3004.000000	0.001807
3003.000000	0.001823
3002.000000	0.001832
3001.000000	0.001842
3000.000000	0.001859
2999.000000	0.001886
2998.000000	0.001920
2997.000000	0.001956
2996.000000	0.001987
2995.000000	0.002012
2994.000000	0.002035
2993.000000	0.002063
2992.000000	0.002092
2991.000000	0.002120
2990.000000	0.002148
2989.000000	0.002183
2988.000000	0.002229
2987.000000	0.002280
2986.000000	0.002329
2985.000000	0.002376
2984.000000	0.002425
2983.000000	0.002478
2982.000000	0.002533
2981.000000	0.002589
2980.000000	0.002643
2979.000000	0.002700
2978.000000	0.002765
2977.000000	0.002842
2976.000000	0.002932
2975.000000	0.003032
2974.000000	0.003138
2973.000000	0.003246
2972.000000	0.003350
2971.000000	0.003445
2970.000000	0.003532
2969.000000	0.003617
2968.000000	0.003705
2967.000000	0.003795
2966.000000	0.003881
2965.000000	0.003965
2964.000000	0.004048
2963.000000	0.004127
2962.000000	0.004197
2961.000000	0.004252
2960.000000	0.004284
2959.000000	0.004288
2958.000000	0.004268
2957.000000	0.004238
2956.000000	0.004209
2955.000000	0.004183
2954.000000	0.004154
2953.000000	0.004116
2952.000000	0.004069
2951.000000	0.004017
2950.000000	0.003970
2949.000000	0.003939
2948.000000	0.003933
2947.000000	0.003952
2946.000000	0.003987
2945.000000	0.004034
2944.000000	0.004094
2943.000000	0.004163
2942.000000	0.004235
2941.000000	0.004307
2940.000000	0.004383
2939.000000	0.004468
2938.000000	0.004563
2937.000000	0.004664
2936.000000	0.004765
2935.000000	0.004861
2934.000000	0.004943
2933.000000	0.005006
2932.000000	0.005051
2931.000000	0.005085
2930.000000	0.005104
2929.000000	0.005100
2928.000000	0.005067
2927.000000	0.005017
2926.000000	0.004969
2925.000000	0.004935
2924.000000	0.004906
2923.000000	0.004865
2922.000000	0.004803
2921.000000	0.004723
2920.000000	0.004637
2919.000000	0.004552
2918.000000	0.004476
2917.000000	0.004416
2916.000000	0.004373
2915.000000	0.004336
2914.000000	0.004296
2913.000000	0.004249
2912.000000	0.004204
2911.000000	0.004171
2910.000000	0.004148
2909.000000	0.004124
2908.000000	0.004091
2907.000000	0.004048
2906.000000	0.004000
2905.000000	0.003947
2904.000000	0.003889
2903.000000	0.003821
2902.000000	0.003747
2901.000000	0.003670
2900.000000	0.003593
2899.000000	0.003515
2898.000000	0.003438
2897.000000	0.003366
2896.000000	0.003307
2895.000000	0.003263
2894.000000	0.003229
2893.000000	0.003193
2892.000000	0.003144
2891.000000	0.003080
2890.000000	0.003012
2889.000000	0.002955
2888.000000	0.002922
2887.000000	0.002916
2886.000000	0.002931
2885.000000	0.002959
2884.000000	0.002991
2883.000000	0.003022
2882.000000	0.003053
2881.000000	0.003091
2880.000000	0.003140
2879.000000	0.003198
2878.000000	0.003255
2877.000000	0.003304
2876.000000	0.003351
2875.000000	0.003402
2874.000000	0.003455
2873.000000	0.003500
2872.000000	0.003525
2871.000000	0.003529
2870.000000	0.003528
2869.000000	0.003534
2868.000000	0.003547
2867.000000	0.003561
2866.000000	0.003574
2865.000000	0.003588
2864.000000	0.003611
2863.000000	0.003645
2862.000000	0.003689
2861.000000	0.003734
2860.000000	0.003773
2859.000000	0.003800
2858.000000	0.003807
2857.000000	0.003786
2856.000000	0.003737
2855.000000	0.003667
2854.000000	0.003589
2853.000000	0.003508
2852.000000	0.003418
2851.000000	0.003310
2850.000000	0.003190
2849.000000	0.003075
2848.000000	0.002984
2847.000000	0.002922
2846.000000	0.002880
2845.000000	0.002843
2844.000000	0.002796
2843.000000	0.002737
2842.000000	0.002671
2841.000000	0.002609
2840.000000	0.002554
2839.000000	0.002507
2838.000000	0.002464
2837.000000	0.002426
2836.000000	0.002397
2835.000000	0.002376
2834.000000	0.002359
2833.000000	0.002343
2832.000000	0.002323
2831.000000	0.002305
2830.000000	0.002292
2829.000000	0.002287
2828.000000	0.002284
2827.000000	0.002276
2826.000000	0.002259
2825.000000	0.002237
2824.000000	0.002217
2823.000000	0.002206
2822.000000	0.002204
2821.000000	0.002207
2820.000000	0.002204
2819.000000	0.002188
2818.000000	0.002162
2817.000000	0.002137
2816.000000	0.002121
2815.000000	0.002115
2814.000000	0.002111
2813.000000	0.002099
2812.000000	0.002080
2811.000000	0.002063
2810.000000	0.002057
2809.000000	0.002062
2808.000000	0.002075
2807.000000	0.002091
2806.000000	0.002107
2805.000000	0.002115
2804.000000	0.002102
2803.000000	0.002067
2802.000000	0.002025
2801.000000	0.001996
2800.000000	0.001988
2799.000000	0.001990
2798.000000	0.001990
2797.000000	0.001988
2796.000000	0.001989
2795.000000	0.001995
2794.000000	0.002003
2793.000000	0.002009
2792.000000	0.002012
2791.000000	0.002016
2790.000000	0.002021
2789.000000	0.002023
2788.000000	0.002018
2787.000000	0.002005
2786.000000	0.001992
2785.000000	0.001984
2784.000000	0.001983
2783.000000	0.001984
2782.000000	0.001981
2781.000000	0.001970
2780.000000	0.001950
2779.000000	0.001927
2778.000000	0.001912
2777.000000	0.001912
2776.000000	0.001921
2775.000000	0.001930
2774.000000	0.001930
2773.000000	0.001922
2772.000000	0.001914
2771.000000	0.001913
2770.000000	0.001926
2769.000000	0.001946
2768.000000	0.001962
2767.000000	0.001964
2766.000000	0.001955
2765.000000	0.001946
2764.000000	0.001940
2763.000000	0.001937
2762.000000	0.001937
2761.000000	0.001941
2760.000000	0.001951
2759.000000	0.001969
2758.000000	0.001989
2757.000000	0.002004
2756.000000	0.002005
2755.000000	0.001989
2754.000000	0.001963
2753.000000	0.001940
2752.000000	0.001925
2751.000000	0.001922
2750.000000	0.001930
2749.000000	0.001946
2748.000000	0.001959
2747.000000	0.001956
2746.000000	0.001937
2745.000000	0.001917
2744.000000	0.001911
2743.000000	0.001922
2742.000000	0.001938
2741.000000	0.001944
2740.000000	0.001935
2739.000000	0.001916
2738.000000	0.001900
2737.000000	0.001899
2736.000000	0.001909
2735.000000	0.001914
2734.000000	0.001903
2733.000000	0.001880
2732.000000	0.001860
2731.000000	0.001848
2730.000000	0.001846
2729.000000	0.001854
2728.000000	0.001869
2727.000000	0.001883
2726.000000	0.001891
2725.000000	0.001900
2724.000000	0.001917
2723.000000	0.001939
2722.000000	0.001955
2721.000000	0.001955
2720.000000	0.001945
2719.000000	0.001933
2718.000000	0.001924
2717.000000	0.001911
2716.000000	0.001893
2715.000000	0.001873
2714.000000	0.001864
2713.000000	0.001873
2712.000000	0.001892
2711.000000	0.001907
2710.000000	0.001909
2709.000000	0.001905
2708.000000	0.001905
2707.000000	0.001910
2706.000000	0.001912
2705.000000	0.001907
2704.000000	0.001897
2703.000000	0.001892
2702.000000	0.001901
2701.000000	0.001924
2700.000000	0.001951
2699.000000	0.001971
2698.000000	0.001978
2697.000000	0.001973
2696.000000	0.001958
2695.000000	0.001933
2694.000000	0.001903
2693.000000	0.001881
2692.000000	0.001879
2691.000000	0.001889
2690.000000	0.001892
2689.000000	0.001879
2688.000000	0.001861
2687.000000	0.001855
2686.000000	0.001863
2685.000000	0.001874
2684.000000	0.001877
2683.000000	0.001873
2682.000000	0.001866
2681.000000	0.001861
2680.000000	0.001862
2679.000000	0.001871
2678.000000	0.001887
2677.000000	0.001907
2676.000000	0.001925
2675.000000	0.001931
2674.000000	0.001920
2673.000000	0.001897
2672.000000	0.001871
2671.000000	0.001854
2670.000000	0.001850
2669.000000	0.001854
2668.000000	0.001862
2667.000000	0.001873
2666.000000	0.001889
2665.000000	0.001917
2664.000000	0.001954
2663.000000	0.001987
2662.000000	0.002003
2661.000000	0.001997
2660.000000	0.001980
2659.000000	0.001965
2658.000000	0.001959
2657.000000	0.001960
2656.000000	0.001966
2655.000000	0.001973
2654.000000	0.001980
2653.000000	0.001982
2652.000000	0.001977
2651.000000	0.001963
2650.000000	0.001946
2649.000000	0.001934
2648.000000	0.001931
2647.000000	0.001933
2646.000000	0.001928
2645.000000	0.001913
2644.000000	0.001897
2643.000000	0.001893
2642.000000	0.001906
2641.000000	0.001925
2640.000000	0.001933
2639.000000	0.001921
2638.000000	0.001895
2637.000000	0.001870
2636.000000	0.001858
2635.000000	0.001857
2634.000000	0.001859
2633.000000	0.001849
2632.000000	0.001825
2631.000000	0.001795
2630.000000	0.001769
2629.000000	0.001759
2628.000000	0.001767
2627.000000	0.001785
2626.000000	0.001802
2625.000000	0.001807
2624.000000	0.001798
2623.000000	0.001780
2622.000000	0.001762
2621.000000	0.001750
2620.000000	0.001745
2619.000000	0.001741
2618.000000	0.001733
2617.000000	0.001723
2616.000000	0.001717
2615.000000	0.001722
2614.000000	0.001734
2613.000000	0.001750
2612.000000	0.001765
2611.000000	0.001782
2610.000000	0.001799
2609.000000	0.001812
2608.000000	0.001816
2607.000000	0.001807
2606.000000	0.001788
2605.000000	0.001764
2604.000000	0.001742
2603.000000	0.001726
2602.000000	0.001718
2601.000000	0.001716
2600.000000	0.001716
2599.000000	0.001716
2598.000000	0.001711
2597.000000	0.001702
2596.000000	0.001695
2595.000000	0.001692
2594.000000	0.001693
2593.000000	0.001693
2592.000000	0.001689
2591.000000	0.001683
2590.000000	0.001676
2589.000000	0.001669
2588.000000	0.001666
2587.000000	0.001680
2586.000000	0.001713
2585.000000	0.001752
2584.000000	0.001771
2583.000000	0.001758
2582.000000	0.001726
2581.000000	0.001691
2580.000000	0.001662
2579.000000	0.001643
2578.000000	0.001636
2577.000000	0.001640
2576.000000	0.001646
2575.000000	0.001641
2574.000000	0.001633
2573.000000	0.001635
2572.000000	0.001652
2571.000000	0.001666
2570.000000	0.001663
2569.000000	0.001650
2568.000000	0.001646
2567.000000	0.001657
2566.000000	0.001667
2565.000000	0.001655
2564.000000	0.001622
2563.000000	0.001588
2562.000000	0.001576
2561.000000	0.001588
2560.000000	0.001604
2559.000000	0.001606
2558.000000	0.001591
2557.000000	0.001575
2556.000000	0.001571
2555.000000	0.001575
2554.000000	0.001574
2553.000000	0.001561
2552.000000	0.001543
2551.000000	0.001529
2550.000000	0.001528
2549.000000	0.001548
2548.000000	0.001593
2547.000000	0.001656
2546.000000	0.001710
2545.000000	0.001734
2544.000000	0.001721
2543.000000	0.001694
2542.000000	0.001676
2541.000000	0.001674
2540.000000	0.001677
2539.000000	0.001676
2538.000000	0.001679
2537.000000	0.001697
2536.000000	0.001732
2535.000000	0.001770
2534.000000	0.001795
2533.000000	0.001796
2532.000000	0.001776
2531.000000	0.001745
2530.000000	0.001723
2529.000000	0.001722
2528.000000	0.001736
2527.000000	0.001742
2526.000000	0.001725
2525.000000	0.001684
2524.000000	0.001640
2523.000000	0.001621
2522.000000	0.001646
2521.000000	0.001710
2520.000000	0.001780
2519.000000	0.001824
2518.000000	0.001836
2517.000000	0.001838
2516.000000	0.001850
2515.000000	0.001868
2514.000000	0.001878
2513.000000	0.001872
2512.000000	0.001857
2511.000000	0.001846
2510.000000	0.001844
2509.000000	0.001846
2508.000000	0.001840
2507.000000	0.001818
2506.000000	0.001781
2505.000000	0.001744
2504.000000	0.001716
2503.000000	0.001700
2502.000000	0.001693
2501.000000	0.001694
2500.000000	0.001696
2499.000000	0.001688
2498.000000	0.001666
2497.000000	0.001642
2496.000000	0.001635
2495.000000	0.001646
2494.000000	0.001664
2493.000000	0.001676
2492.000000	0.001676
2491.000000	0.001664
2490.000000	0.001640
2489.000000	0.001603
2488.000000	0.001560
2487.000000	0.001519
2486.000000	0.001489
2485.000000	0.001472
2484.000000	0.001472
2483.000000	0.001486
2482.000000	0.001506
2481.000000	0.001525
2480.000000	0.001544
2479.000000	0.001564
2478.000000	0.001584
2477.000000	0.001591
2476.000000	0.001569
2475.000000	0.001523
2474.000000	0.001480
2473.000000	0.001471
2472.000000	0.001502
2471.000000	0.001546
2470.000000	0.001571
2469.000000	0.001568
2468.000000	0.001556
2467.000000	0.001552
2466.000000	0.001557
2465.000000	0.001560
2464.000000	0.001558
2463.000000	0.001555
2462.000000	0.001558
2461.000000	0.001562
2460.000000	0.001554
2459.000000	0.001531
2458.000000	0.001505
2457.000000	0.001498
2456.000000	0.001517
2455.000000	0.001555
2454.000000	0.001594
2453.000000	0.001622
2452.000000	0.001633
2451.000000	0.001633
2450.000000	0.001626
2449.000000	0.001613
2448.000000	0.001595
2447.000000	0.001577
2446.000000	0.001568
2445.000000	0.001572
2444.000000	0.001584
2443.000000	0.001593
2442.000000	0.001586
2441.000000	0.001555
2440.000000	0.001501
2439.000000	0.001447
2438.000000	0.001420
2437.000000	0.001435
2436.000000	0.001477
2435.000000	0.001523
2434.000000	0.001560
2433.000000	0.001588
2432.000000	0.001608
2431.000000	0.001616
2430.000000	0.001609
2429.000000	0.001597
2428.000000	0.001597
2427.000000	0.001614
2426.000000	0.001646
2425.000000	0.001681
2424.000000	0.001699
2423.000000	0.001685
2422.000000	0.001644
2421.000000	0.001598
2420.000000	0.001571
2419.000000	0.001559
2418.000000	0.001547
2417.000000	0.001524
2416.000000	0.001497
2415.000000	0.001476
2414.000000	0.001464
2413.000000	0.001457
2412.000000	0.001455
2411.000000	0.001461
2410.000000	0.001476
2409.000000	0.001494
2408.000000	0.001512
2407.000000	0.001527
2406.000000	0.001536
2405.000000	0.001535
2404.000000	0.001522
2403.000000	0.001502
2402.000000	0.001486
2401.000000	0.001478
2400.000000	0.001475
2399.000000	0.001467
2398.000000	0.001451
2397.000000	0.001437
2396.000000	0.001438
2395.000000	0.001461
2394.000000	0.001496
2393.000000	0.001521
2392.000000	0.001521
2391.000000	0.001501
2390.000000	0.001478
2389.000000	0.001455
2388.000000	0.001428
2387.000000	0.001396
2386.000000	0.001368
2385.000000	0.001350
2384.000000	0.001330
2383.000000	0.001295
2382.000000	0.001249
2381.000000	0.001208
2380.000000	0.001184
2379.000000	0.001182
2378.000000	0.001213
2377.000000	0.001277
2376.000000	0.001350
2375.000000	0.001391
2374.000000	0.001373
2373.000000	0.001309
2372.000000	0.001232
2371.000000	0.001182
2370.000000	0.001178
2369.000000	0.001206
2368.000000	0.001233
2367.000000	0.001245
2366.000000	0.001256
2365.000000	0.001273
2364.000000	0.001286
2363.000000	0.001295
2362.000000	0.001327
2361.000000	0.001389
2360.000000	0.001459
2359.000000	0.001502
2358.000000	0.001498
2357.000000	0.001453
2356.000000	0.001397
2355.000000	0.001369
2354.000000	0.001356
2353.000000	0.001312
2352.000000	0.001250
2351.000000	0.001233
2350.000000	0.001295
2349.000000	0.001405
2348.000000	0.001507
2347.000000	0.001543
2346.000000	0.001502
2345.000000	0.001444
2344.000000	0.001433
2343.000000	0.001471
2342.000000	0.001503
2341.000000	0.001493
2340.000000	0.001470
2339.000000	0.001483
2338.000000	0.001533
2337.000000	0.001578
2336.000000	0.001588
2335.000000	0.001567
2334.000000	0.001520
2333.000000	0.001453
2332.000000	0.001391
2331.000000	0.001369
2330.000000	0.001399
2329.000000	0.001469
2328.000000	0.001571
2327.000000	0.001692
2326.000000	0.001801
2325.000000	0.001866
2324.000000	0.001874
2323.000000	0.001843
2322.000000	0.001796
2321.000000	0.001767
2320.000000	0.001785
2319.000000	0.001855
2318.000000	0.001940
2317.000000	0.001988
2316.000000	0.001972
2315.000000	0.001903
2314.000000	0.001823
2313.000000	0.001773
2312.000000	0.001759
2311.000000	0.001755
2310.000000	0.001737
2309.000000	0.001714
2308.000000	0.001705
2307.000000	0.001706
2306.000000	0.001695
2305.000000	0.001664
2304.000000	0.001634
2303.000000	0.001624
2302.000000	0.001629
2301.000000	0.001637
2300.000000	0.001647
2299.000000	0.001665
2298.000000	0.001694
2297.000000	0.001729
2296.000000	0.001764
2295.000000	0.001791
2294.000000	0.001805
2293.000000	0.001815
2292.000000	0.001837
2291.000000	0.001880
2290.000000	0.001937
2289.000000	0.001988
2288.000000	0.002023
2287.000000	0.002039
2286.000000	0.002034
2285.000000	0.002012
2284.000000	0.001985
2283.000000	0.001957
2282.000000	0.001918
2281.000000	0.001860
2280.000000	0.001793
2279.000000	0.001742
2278.000000	0.001713
2277.000000	0.001681
2276.000000	0.001613
2275.000000	0.001516
2274.000000	0.001437
2273.000000	0.001428
2272.000000	0.001491
2271.000000	0.001577
2270.000000	0.001636
2269.000000	0.001656
2268.000000	0.001643
2267.000000	0.001594
2266.000000	0.001512
2265.000000	0.001431
2264.000000	0.001407
2263.000000	0.001467
2262.000000	0.001587
2261.000000	0.001719
2260.000000	0.001827
2259.000000	0.001896
2258.000000	0.001916
2257.000000	0.001893
2256.000000	0.001847
2255.000000	0.001806
2254.000000	0.001783
2253.000000	0.001777
2252.000000	0.001769
2251.000000	0.001729
2250.000000	0.001641
2249.000000	0.001528
2248.000000	0.001441
2247.000000	0.001418
2246.000000	0.001457
2245.000000	0.001531
2244.000000	0.001611
2243.000000	0.001672
2242.000000	0.001706
2241.000000	0.001730
2240.000000	0.001761
2239.000000	0.001785
2238.000000	0.001762
2237.000000	0.001684
2236.000000	0.001602
2235.000000	0.001574
2234.000000	0.001609
2233.000000	0.001681
2232.000000	0.001769
2231.000000	0.001854
2230.000000	0.001893
2229.000000	0.001830
2228.000000	0.001666
2227.000000	0.001485
2226.000000	0.001390
2225.000000	0.001421
2224.000000	0.001530
2223.000000	0.001640
2222.000000	0.001708
2221.000000	0.001738
2220.000000	0.001742
2219.000000	0.001720
2218.000000	0.001674
2217.000000	0.001625
2216.000000	0.001590
2215.000000	0.001557
2214.000000	0.001506
2213.000000	0.001451
2212.000000	0.001423
2211.000000	0.001422
2210.000000	0.001424
2209.000000	0.001426
2208.000000	0.001462
2207.000000	0.001535
2206.000000	0.001586
2205.000000	0.001561
2204.000000	0.001482
2203.000000	0.001415
2202.000000	0.001382
2201.000000	0.001350
2200.000000	0.001296
2199.000000	0.001258
2198.000000	0.001292
2197.000000	0.001392
2196.000000	0.001478
2195.000000	0.001472
2194.000000	0.001381
2193.000000	0.001305
2192.000000	0.001343
2191.000000	0.001498
2190.000000	0.001681
2189.000000	0.001814
2188.000000	0.001894
2187.000000	0.001944
2186.000000	0.001961
2185.000000	0.001929
2184.000000	0.001853
2183.000000	0.001747
2182.000000	0.001589
2181.000000	0.001353
2180.000000	0.001089
2179.000000	0.000904
2178.000000	0.000871
2177.000000	0.000974
2176.000000	0.001149
2175.000000	0.001328
2174.000000	0.001456
2173.000000	0.001493
2172.000000	0.001457
2171.000000	0.001425
2170.000000	0.001479
2169.000000	0.001614
2168.000000	0.001736
2167.000000	0.001748
2166.000000	0.001655
2165.000000	0.001580
2164.000000	0.001658
2163.000000	0.001894
2162.000000	0.002124
2161.000000	0.002138
2160.000000	0.001841
2159.000000	0.001324
2158.000000	0.000772
2157.000000	0.000334
2156.000000	0.000077
2155.000000	0.000008
2154.000000	0.000100
2153.000000	0.000289
2152.000000	0.000491
2151.000000	0.000634
2150.000000	0.000676
2149.000000	0.000617
2148.000000	0.000504
2147.000000	0.000416
2146.000000	0.000417
2145.000000	0.000525
2144.000000	0.000713
2143.000000	0.000935
2142.000000	0.001142
2141.000000	0.001286
2140.000000	0.001333
2139.000000	0.001290
2138.000000	0.001200
2137.000000	0.001115
2136.000000	0.001054
2135.000000	0.001010
2134.000000	0.000979
2133.000000	0.000973
2132.000000	0.000995
2131.000000	0.001022
2130.000000	0.001028
2129.000000	0.001019
2128.000000	0.001031
2127.000000	0.001082
2126.000000	0.001151
2125.000000	0.001212
2124.000000	0.001271
2123.000000	0.001345
2122.000000	0.001418
2121.000000	0.001448
2120.000000	0.001419
2119.000000	0.001373
2118.000000	0.001365
2117.000000	0.001413
2116.000000	0.001493
2115.000000	0.001573
2114.000000	0.001630
2113.000000	0.001645
2112.000000	0.001609
2111.000000	0.001527
2110.000000	0.001431
2109.000000	0.001363
2108.000000	0.001348
2107.000000	0.001382
2106.000000	0.001434
2105.000000	0.001474
2104.000000	0.001503
2103.000000	0.001536
2102.000000	0.001564
2101.000000	0.001550
2100.000000	0.001474
2099.000000	0.001373
2098.000000	0.001311
2097.000000	0.001313
2096.000000	0.001353
2095.000000	0.001392
2094.000000	0.001414
2093.000000	0.001411
2092.000000	0.001387
2091.000000	0.001356
2090.000000	0.001343
2089.000000	0.001352
2088.000000	0.001363
2087.000000	0.001366
2086.000000	0.001375
2085.000000	0.001409
2084.000000	0.001463
2083.000000	0.001519
2082.000000	0.001564
2081.000000	0.001595
2080.000000	0.001618
2079.000000	0.001649
2078.000000	0.001698
2077.000000	0.001746
2076.000000	0.001741
2075.000000	0.001649
2074.000000	0.001498
2073.000000	0.001358
2072.000000	0.001282
2071.000000	0.001276
2070.000000	0.001313
2069.000000	0.001360
2068.000000	0.001397
2067.000000	0.001437
2066.000000	0.001503
2065.000000	0.001594
2064.000000	0.001667
2063.000000	0.001668
2062.000000	0.001595
2061.000000	0.001488
2060.000000	0.001398
2059.000000	0.001361
2058.000000	0.001386
2057.000000	0.001456
2056.000000	0.001532
2055.000000	0.001591
2054.000000	0.001654
2053.000000	0.001749
2052.000000	0.001848
2051.000000	0.001871
2050.000000	0.001751
2049.000000	0.001510
2048.000000	0.001268
2047.000000	0.001158
2046.000000	0.001219
2045.000000	0.001353
2044.000000	0.001414
2043.000000	0.001334
2042.000000	0.001164
2041.000000	0.000995
2040.000000	0.000885
2039.000000	0.000864
2038.000000	0.000953
2037.000000	0.001103
2036.000000	0.001157
2035.000000	0.000982
2034.000000	0.000634
2033.000000	0.000304
2032.000000	0.000129
2031.000000	0.000107
2030.000000	0.000203
2029.000000	0.000403
2028.000000	0.000643
2027.000000	0.000792
2026.000000	0.000768
2025.000000	0.000605
2024.000000	0.000406
2023.000000	0.000262
2022.000000	0.000243
2021.000000	0.000362
2020.000000	0.000523
2019.000000	0.000581
2018.000000	0.000501
2017.000000	0.000398
2016.000000	0.000387
2015.000000	0.000449
2014.000000	0.000507
2013.000000	0.000534
2012.000000	0.000552
2011.000000	0.000551
2010.000000	0.000507
2009.000000	0.000440
2008.000000	0.000409
2007.000000	0.000448
2006.000000	0.000542
2005.000000	0.000650
2004.000000	0.000720
2003.000000	0.000724
2002.000000	0.000690
2001.000000	0.000681
2000.000000	0.000721
1999.000000	0.000761
1998.000000	0.000743
1997.000000	0.000682
1996.000000	0.000646
1995.000000	0.000687
1994.000000	0.000800
1993.000000	0.000941
1992.000000	0.001036
1991.000000	0.001034
1990.000000	0.000970
1989.000000	0.000943
1988.000000	0.001011
1987.000000	0.001124
1986.000000	0.001180
1985.000000	0.001134
1984.000000	0.001034
1983.000000	0.000969
1982.000000	0.000992
1981.000000	0.001078
1980.000000	0.001118
1979.000000	0.000987
1978.000000	0.000689
1977.000000	0.000403
1976.000000	0.000318
1975.000000	0.000452
1974.000000	0.000687
1973.000000	0.000917
1972.000000	0.001078
1971.000000	0.001119
1970.000000	0.001041
1969.000000	0.000950
1968.000000	0.000975
1967.000000	0.001116
1966.000000	0.001227
1965.000000	0.001181
1964.000000	0.000990
1963.000000	0.000756
1962.000000	0.000557
1961.000000	0.000415
1960.000000	0.000319
1959.000000	0.000262
1958.000000	0.000240
1957.000000	0.000262
1956.000000	0.000332
1955.000000	0.000434
1954.000000	0.000538
1953.000000	0.000613
1952.000000	0.000654
1951.000000	0.000667
1950.000000	0.000653
1949.000000	0.000599
1948.000000	0.000518
1947.000000	0.000450
1946.000000	0.000436
1945.000000	0.000469
1944.000000	0.000507
1943.000000	0.000522
1942.000000	0.000530
1941.000000	0.000553
1940.000000	0.000581
1939.000000	0.000600
1938.000000	0.000629
1937.000000	0.000691
1936.000000	0.000760
1935.000000	0.000782
1934.000000	0.000748
1933.000000	0.000704
1932.000000	0.000692
1931.000000	0.000696
1930.000000	0.000684
1929.000000	0.000659
1928.000000	0.000653
1927.000000	0.000666
1926.000000	0.000658
1925.000000	0.000604
1924.000000	0.000540
1923.000000	0.000537
1922.000000	0.000627
1921.000000	0.000769
1920.000000	0.000888
1919.000000	0.000933
1918.000000	0.000889
1917.000000	0.000798
1916.000000	0.000731
1915.000000	0.000733
1914.000000	0.000791
1913.000000	0.000851
1912.000000	0.000863
1911.000000	0.000827
1910.000000	0.000785
1909.000000	0.000776
1908.000000	0.000790
1907.000000	0.000800
1906.000000	0.000801
1905.000000	0.000810
1904.000000	0.000826
1903.000000	0.000821
1902.000000	0.000789
1901.000000	0.000776
1900.000000	0.000824
1899.000000	0.000911
1898.000000	0.000967
1897.000000	0.000953
1896.000000	0.000895
1895.000000	0.000844
1894.000000	0.000812
1893.000000	0.000775
1892.000000	0.000719
1891.000000	0.000673
1890.000000	0.000682
1889.000000	0.000751
1888.000000	0.000833
1887.000000	0.000880
1886.000000	0.000880
1885.000000	0.000853
1884.000000	0.000821
1883.000000	0.000788
1882.000000	0.000758
1881.000000	0.000749
1880.000000	0.000777
1879.000000	0.000829
1878.000000	0.000870
1877.000000	0.000873
1876.000000	0.000840
1875.000000	0.000786
1874.000000	0.000719
1873.000000	0.000641
1872.000000	0.000559
1871.000000	0.000495
1870.000000	0.000486
1869.000000	0.000551
1868.000000	0.000656
1867.000000	0.000743
1866.000000	0.000788
1865.000000	0.000798
1864.000000	0.000787
1863.000000	0.000755
1862.000000	0.000701
1861.000000	0.000640
1860.000000	0.000592
1859.000000	0.000568
1858.000000	0.000567
1857.000000	0.000587
1856.000000	0.000617
1855.000000	0.000642
1854.000000	0.000655
1853.000000	0.000669
1852.000000	0.000692
1851.000000	0.000697
1850.000000	0.000658
1849.000000	0.000587
1848.000000	0.000527
1847.000000	0.000506
1846.000000	0.000526
1845.000000	0.000579
1844.000000	0.000643
1843.000000	0.000679
1842.000000	0.000670
1841.000000	0.000637
1840.000000	0.000615
1839.000000	0.000617
1838.000000	0.000630
1837.000000	0.000635
1836.000000	0.000623
1835.000000	0.000595
1834.000000	0.000555
1833.000000	0.000502
1832.000000	0.000435
1831.000000	0.000368
1830.000000	0.000338
1829.000000	0.000356
1828.000000	0.000385
1827.000000	0.000391
1826.000000	0.000386
1825.000000	0.000411
1824.000000	0.000476
1823.000000	0.000549
1822.000000	0.000596
1821.000000	0.000610
1820.000000	0.000599
1819.000000	0.000578
1818.000000	0.000564
1817.000000	0.000561
1816.000000	0.000556
1815.000000	0.000518
1814.000000	0.000436
1813.000000	0.000341
1812.000000	0.000291
1811.000000	0.000312
1810.000000	0.000369
1809.000000	0.000405
1808.000000	0.000417
1807.000000	0.000439
1806.000000	0.000488
1805.000000	0.000542
1804.000000	0.000577
1803.000000	0.000602
1802.000000	0.000649
1801.000000	0.000734
1800.000000	0.000838
1799.000000	0.000923
1798.000000	0.000961
1797.000000	0.000957
1796.000000	0.000937
1795.000000	0.000915
1794.000000	0.000877
1793.000000	0.000821
1792.000000	0.000774
1791.000000	0.000762
1790.000000	0.000761
1789.000000	0.000727
1788.000000	0.000646
1787.000000	0.000547
1786.000000	0.000475
1785.000000	0.000451
1784.000000	0.000459
1783.000000	0.000466
1782.000000	0.000464
1781.000000	0.000471
1780.000000	0.000500
1779.000000	0.000530
1778.000000	0.000532
1777.000000	0.000503
1776.000000	0.000468
1775.000000	0.000448
1774.000000	0.000459
1773.000000	0.000515
1772.000000	0.000582
1771.000000	0.000598
1770.000000	0.000558
1769.000000	0.000522
1768.000000	0.000542
1767.000000	0.000615
1766.000000	0.000689
1765.000000	0.000726
1764.000000	0.000740
1763.000000	0.000779
1762.000000	0.000891
1761.000000	0.001064
1760.000000	0.001245
1759.000000	0.001412
1758.000000	0.001605
1757.000000	0.001888
1756.000000	0.002256
1755.000000	0.002626
1754.000000	0.002953
1753.000000	0.003282
1752.000000	0.003688
1751.000000	0.004183
1750.000000	0.004709
1749.000000	0.005226
1748.000000	0.005716
1747.000000	0.006131
1746.000000	0.006447
1745.000000	0.006698
1744.000000	0.006921
1743.000000	0.007125
1742.000000	0.007304
1741.000000	0.007460
1740.000000	0.007587
1739.000000	0.007648
1738.000000	0.007614
1737.000000	0.007493
1736.000000	0.007312
1735.000000	0.007110
1734.000000	0.006918
1733.000000	0.006709
1732.000000	0.006433
1731.000000	0.006082
1730.000000	0.005695
1729.000000	0.005321
1728.000000	0.004970
1727.000000	0.004618
1726.000000	0.004260
1725.000000	0.003918
1724.000000	0.003606
1723.000000	0.003321
1722.000000	0.003054
1721.000000	0.002796
1720.000000	0.002540
1719.000000	0.002306
1718.000000	0.002148
1717.000000	0.002062
1716.000000	0.001992
1715.000000	0.001916
1714.000000	0.001841
1713.000000	0.001771
1712.000000	0.001704
1711.000000	0.001631
1710.000000	0.001553
1709.000000	0.001477
1708.000000	0.001399
1707.000000	0.001328
1706.000000	0.001301
1705.000000	0.001331
1704.000000	0.001380
1703.000000	0.001413
1702.000000	0.001446
1701.000000	0.001535
1700.000000	0.001678
1699.000000	0.001769
1698.000000	0.001752
1697.000000	0.001676
1696.000000	0.001628
1695.000000	0.001659
1694.000000	0.001728
1693.000000	0.001778
1692.000000	0.001803
1691.000000	0.001824
1690.000000	0.001864
1689.000000	0.001938
1688.000000	0.002026
1687.000000	0.002098
1686.000000	0.002134
1685.000000	0.002165
1684.000000	0.002232
1683.000000	0.002300
1682.000000	0.002335
1681.000000	0.002355
1680.000000	0.002374
1679.000000	0.002398
1678.000000	0.002424
1677.000000	0.002461
1676.000000	0.002510
1675.000000	0.002555
1674.000000	0.002586
1673.000000	0.002613
1672.000000	0.002643
1671.000000	0.002673
1670.000000	0.002703
1669.000000	0.002750
1668.000000	0.002821
1667.000000	0.002896
1666.000000	0.002963
1665.000000	0.003022
1664.000000	0.003071
1663.000000	0.003105
1662.000000	0.003128
1661.000000	0.003156
1660.000000	0.003190
1659.000000	0.003217
1658.000000	0.003237
1657.000000	0.003280
1656.000000	0.003352
1655.000000	0.003444
1654.000000	0.003509
1653.000000	0.003516
1652.000000	0.003529
1651.000000	0.003555
1650.000000	0.003569
1649.000000	0.003582
1648.000000	0.003607
1647.000000	0.003618
1646.000000	0.003600
1645.000000	0.003585
1644.000000	0.003592
1643.000000	0.003607
1642.000000	0.003625
1641.000000	0.003634
1640.000000	0.003632
1639.000000	0.003630
1638.000000	0.003641
1637.000000	0.003670
1636.000000	0.003684
1635.000000	0.003649
1634.000000	0.003597
1633.000000	0.003569
1632.000000	0.003567
1631.000000	0.003573
1630.000000	0.003557
1629.000000	0.003520
1628.000000	0.003497
1627.000000	0.003511
1626.000000	0.003559
1625.000000	0.003619
1624.000000	0.003667
1623.000000	0.003685
1622.000000	0.003682
1621.000000	0.003692
1620.000000	0.003727
1619.000000	0.003765
1618.000000	0.003764
1617.000000	0.003679
1616.000000	0.003519
1615.000000	0.003344
1614.000000	0.003197
1613.000000	0.003086
1612.000000	0.002998
1611.000000	0.002909
1610.000000	0.002809
1609.000000	0.002711
1608.000000	0.002618
1607.000000	0.002522
1606.000000	0.002427
1605.000000	0.002353
1604.000000	0.002302
1603.000000	0.002259
1602.000000	0.002212
1601.000000	0.002166
1600.000000	0.002127
1599.000000	0.002087
1598.000000	0.002046
1597.000000	0.002008
1596.000000	0.001974
1595.000000	0.001950
1594.000000	0.001940
1593.000000	0.001944
1592.000000	0.001941
1591.000000	0.001910
1590.000000	0.001859
1589.000000	0.001819
1588.000000	0.001804
1587.000000	0.001799
1586.000000	0.001789
1585.000000	0.001783
1584.000000	0.001785
1583.000000	0.001777
1582.000000	0.001746
1581.000000	0.001706
1580.000000	0.001685
1579.000000	0.001701
1578.000000	0.001756
1577.000000	0.001828
1576.000000	0.001864
1575.000000	0.001841
1574.000000	0.001808
1573.000000	0.001810
1572.000000	0.001839
1571.000000	0.001859
1570.000000	0.001861
1569.000000	0.001875
1568.000000	0.001917
1567.000000	0.001961
1566.000000	0.001996
1565.000000	0.002033
1564.000000	0.002073
1563.000000	0.002103
1562.000000	0.002120
1561.000000	0.002132
1560.000000	0.002163
1559.000000	0.002209
1558.000000	0.002222
1557.000000	0.002241
1556.000000	0.002280
1555.000000	0.002319
1554.000000	0.002391
1553.000000	0.002465
1552.000000	0.002515
1551.000000	0.002546
1550.000000	0.002607
1549.000000	0.002709
1548.000000	0.002805
1547.000000	0.002853
1546.000000	0.002873
1545.000000	0.002935
1544.000000	0.003067
1543.000000	0.003237
1542.000000	0.003417
1541.000000	0.003588
1540.000000	0.003716
1539.000000	0.003778
1538.000000	0.003814
1537.000000	0.003855
1536.000000	0.003908
1535.000000	0.003977
1534.000000	0.004067
1533.000000	0.004177
1532.000000	0.004285
1531.000000	0.004380
1530.000000	0.004446
1529.000000	0.004480
1528.000000	0.004508
1527.000000	0.004567
1526.000000	0.004668
1525.000000	0.004777
1524.000000	0.004843
1523.000000	0.004848
1522.000000	0.004837
1521.000000	0.004873
1520.000000	0.004963
1519.000000	0.005056
1518.000000	0.005131
1517.000000	0.005198
1516.000000	0.005270
1515.000000	0.005349
1514.000000	0.005433
1513.000000	0.005516
1512.000000	0.005587
1511.000000	0.005635
1510.000000	0.005666
1509.000000	0.005712
1508.000000	0.005817
1507.000000	0.005973
1506.000000	0.006126
1505.000000	0.006246
1504.000000	0.006306
1503.000000	0.006325
1502.000000	0.006362
1501.000000	0.006433
1500.000000	0.006516
1499.000000	0.006584
1498.000000	0.006666
1497.000000	0.006791
1496.000000	0.006933
1495.000000	0.007042
1494.000000	0.007105
1493.000000	0.007127
1492.000000	0.007122
1491.000000	0.007132
1490.000000	0.007218
1489.000000	0.007386
1488.000000	0.007581
1487.000000	0.007760
1486.000000	0.007902
1485.000000	0.008016
1484.000000	0.008119
1483.000000	0.008227
1482.000000	0.008361
1481.000000	0.008524
1480.000000	0.008676
1479.000000	0.008780
1478.000000	0.008856
1477.000000	0.008953
1476.000000	0.009100
1475.000000	0.009293
1474.000000	0.009542
1473.000000	0.009860
1472.000000	0.010186
1471.000000	0.010448
1470.000000	0.010656
1469.000000	0.010838
1468.000000	0.011006
1467.000000	0.011169
1466.000000	0.011347
1465.000000	0.011543
1464.000000	0.011715
1463.000000	0.011827
1462.000000	0.011897
1461.000000	0.011944
1460.000000	0.011979
1459.000000	0.012032
1458.000000	0.012206
1457.000000	0.012545
1456.000000	0.012871
1455.000000	0.013046
1454.000000	0.013132
1453.000000	0.013210
1452.000000	0.013307
1451.000000	0.013407
1450.000000	0.013509
1449.000000	0.013624
1448.000000	0.013760
1447.000000	0.013907
1446.000000	0.014060
1445.000000	0.014211
1444.000000	0.014339
1443.000000	0.014442
1442.000000	0.014546
1441.000000	0.014658
1440.000000	0.014750
1439.000000	0.014806
1438.000000	0.014887
1437.000000	0.015085
1436.000000	0.015362
1435.000000	0.015589
1434.000000	0.015738
1433.000000	0.015855
1432.000000	0.015968
1431.000000	0.016084
1430.000000	0.016224
1429.000000	0.016402
1428.000000	0.016579
1427.000000	0.016706
1426.000000	0.016793
1425.000000	0.016891
1424.000000	0.016998
1423.000000	0.017061
1422.000000	0.017070
1421.000000	0.017069
1420.000000	0.017098
1419.000000	0.017166
1418.000000	0.017243
1417.000000	0.017302
1416.000000	0.017319
1415.000000	0.017282
1414.000000	0.017208
1413.000000	0.017116
1412.000000	0.016998
1411.000000	0.016840
1410.000000	0.016653
1409.000000	0.016453
1408.000000	0.016227
1407.000000	0.015972
1406.000000	0.015725
1405.000000	0.015530
1404.000000	0.015375
1403.000000	0.015229
1402.000000	0.015086
1401.000000	0.014961
1400.000000	0.014865
1399.000000	0.014791
1398.000000	0.014715
1397.000000	0.014619
1396.000000	0.014506
1395.000000	0.014398
1394.000000	0.014330
1393.000000	0.014295
1392.000000	0.014238
1391.000000	0.014123
1390.000000	0.013962
1389.000000	0.013791
1388.000000	0.013632
1387.000000	0.013492
1386.000000	0.013372
1385.000000	0.013258
1384.000000	0.013129
1383.000000	0.012983
1382.000000	0.012839
1381.000000	0.012702
1380.000000	0.012557
1379.000000	0.012392
1378.000000	0.012211
1377.000000	0.012015
1376.000000	0.011799
1375.000000	0.011573
1374.000000	0.011370
1373.000000	0.011204
1372.000000	0.011055
1371.000000	0.010897
1370.000000	0.010734
1369.000000	0.010585
1368.000000	0.010457
1367.000000	0.010331
1366.000000	0.010188
1365.000000	0.010017
1364.000000	0.009829
1363.000000	0.009662
1362.000000	0.009550
1361.000000	0.009498
1360.000000	0.009477
1359.000000	0.009455
1358.000000	0.009419
1357.000000	0.009365
1356.000000	0.009295
1355.000000	0.009225
1354.000000	0.009167
1353.000000	0.009112
1352.000000	0.009037
1351.000000	0.008937
1350.000000	0.008829
1349.000000	0.008733
1348.000000	0.008658
1347.000000	0.008602
1346.000000	0.008560
1345.000000	0.008525
1344.000000	0.008479
1343.000000	0.008410
1342.000000	0.008324
1341.000000	0.008249
1340.000000	0.008218
1339.000000	0.008246
1338.000000	0.008311
1337.000000	0.008379
1336.000000	0.008419
1335.000000	0.008423
1334.000000	0.008404
1333.000000	0.008371
1332.000000	0.008327
1331.000000	0.008271
1330.000000	0.008203
1329.000000	0.008121
1328.000000	0.008025
1327.000000	0.007922
1326.000000	0.007827
1325.000000	0.007752
1324.000000	0.007690
1323.000000	0.007628
1322.000000	0.007556
1321.000000	0.007475
1320.000000	0.007391
1319.000000	0.007314
1318.000000	0.007243
1317.000000	0.007167
1316.000000	0.007073
1315.000000	0.006965
1314.000000	0.006868
1313.000000	0.006799
1312.000000	0.006751
1311.000000	0.006701
1310.000000	0.006638
1309.000000	0.006567
1308.000000	0.006502
1307.000000	0.006447
1306.000000	0.006392
1305.000000	0.006324
1304.000000	0.006237
1303.000000	0.006142
1302.000000	0.006058
1301.000000	0.005990
1300.000000	0.005924
1299.000000	0.005842
1298.000000	0.005745
1297.000000	0.005648
1296.000000	0.005565
1295.000000	0.005499
1294.000000	0.005442
1293.000000	0.005392
1292.000000	0.005351
1291.000000	0.005326
1290.000000	0.005308
1289.000000	0.005279
1288.000000	0.005228
1287.000000	0.005168
1286.000000	0.005117
1285.000000	0.005080
1284.000000	0.005046
1283.000000	0.005007
1282.000000	0.004963
1281.000000	0.004921
1280.000000	0.004887
1279.000000	0.004869
1278.000000	0.004876
1277.000000	0.004905
1276.000000	0.004949
1275.000000	0.005001
1274.000000	0.005055
1273.000000	0.005109
1272.000000	0.005168
1271.000000	0.005247
1270.000000	0.005358
1269.000000	0.005501
1268.000000	0.005663
1267.000000	0.005834
1266.000000	0.006006
1265.000000	0.006163
1264.000000	0.006290
1263.000000	0.006390
1262.000000	0.006492
1261.000000	0.006619
1260.000000	0.006768
1259.000000	0.006920
1258.000000	0.007065
1257.000000	0.007202
1256.000000	0.007322
1255.000000	0.007410
1254.000000	0.007459
1253.000000	0.007481
1252.000000	0.007489
1251.000000	0.007494
1250.000000	0.007497
1249.000000	0.007493
1248.000000	0.007473
1247.000000	0.007437
1246.000000	0.007400
1245.000000	0.007382
1244.000000	0.007387
1243.000000	0.007400
1242.000000	0.007401
1241.000000	0.007376
1240.000000	0.007329
1239.000000	0.007270
1238.000000	0.007212
1237.000000	0.007159
1236.000000	0.007101
1235.000000	0.007030
1234.000000	0.006945
1233.000000	0.006848
1232.000000	0.006746
1231.000000	0.006641
1230.000000	0.006537
1229.000000	0.006428
1228.000000	0.006301
1227.000000	0.006146
1226.000000	0.005961
1225.000000	0.005754
1224.000000	0.005539
1223.000000	0.005329
1222.000000	0.005140
1221.000000	0.004978
1220.000000	0.004844
1219.000000	0.004730
1218.000000	0.004624
1217.000000	0.004514
1216.000000	0.004401
1215.000000	0.004294
1214.000000	0.004203
1213.000000	0.004130
1212.000000	0.004070
1211.000000	0.004025
1210.000000	0.004000
1209.000000	0.003992
1208.000000	0.003993
1207.000000	0.003996
1206.000000	0.004003
1205.000000	0.004014
1204.000000	0.004021
1203.000000	0.004022
1202.000000	0.004023
1201.000000	0.004040
1200.000000	0.004084
1199.000000	0.004154
1198.000000	0.004236
1197.000000	0.004317
1196.000000	0.004402
1195.000000	0.004505
1194.000000	0.004626
1193.000000	0.004755
1192.000000	0.004877
1191.000000	0.004994
1190.000000	0.005108
1189.000000	0.005216
1188.000000	0.005324
1187.000000	0.005451
1186.000000	0.005618
1185.000000	0.005821
1184.000000	0.006033
1183.000000	0.006231
1182.000000	0.006419
1181.000000	0.006615
1180.000000	0.006831
1179.000000	0.007065
1178.000000	0.007306
1177.000000	0.007544
1176.000000	0.007782
1175.000000	0.008024
1174.000000	0.008271
1173.000000	0.008512
1172.000000	0.008735
1171.000000	0.008939
1170.000000	0.009136
1169.000000	0.009340
1168.000000	0.009551
1167.000000	0.009758
1166.000000	0.009952
1165.000000	0.010121
1164.000000	0.010259
1163.000000	0.010367
1162.000000	0.010449
1161.000000	0.010503
1160.000000	0.010527
1159.000000	0.010530
1158.000000	0.010533
1157.000000	0.010540
1156.000000	0.010537
1155.000000	0.010505
1154.000000	0.010443
1153.000000	0.010356
1152.000000	0.010236
1151.000000	0.010081
1150.000000	0.009909
1149.000000	0.009745
1148.000000	0.009591
1147.000000	0.009423
1146.000000	0.009226
1145.000000	0.009015
1144.000000	0.008816
1143.000000	0.008641
1142.000000	0.008481
1141.000000	0.008323
1140.000000	0.008165
1139.000000	0.008013
1138.000000	0.007871
1137.000000	0.007732
1136.000000	0.007594
1135.000000	0.007464
1134.000000	0.007347
1133.000000	0.007241
1132.000000	0.007139
1131.000000	0.007038
1130.000000	0.006949
1129.000000	0.006881
1128.000000	0.006835
1127.000000	0.006816
1126.000000	0.006830
1125.000000	0.006878
1124.000000	0.006957
1123.000000	0.007060
1122.000000	0.007186
1121.000000	0.007322
1120.000000	0.007450
1119.000000	0.007562
1118.000000	0.007672
1117.000000	0.007811
1116.000000	0.007998
1115.000000	0.008229
1114.000000	0.008471
1113.000000	0.008692
1112.000000	0.008877
1111.000000	0.009036
1110.000000	0.009180
1109.000000	0.009302
1108.000000	0.009390
1107.000000	0.009439
1106.000000	0.009461
1105.000000	0.009463
1104.000000	0.009440
1103.000000	0.009393
1102.000000	0.009339
1101.000000	0.009302
1100.000000	0.009299
1099.000000	0.009330
1098.000000	0.009384
1097.000000	0.009438
1096.000000	0.009475
1095.000000	0.009496
1094.000000	0.009512
1093.000000	0.009527
1092.000000	0.009521
1091.000000	0.009473
1090.000000	0.009380
1089.000000	0.009244
1088.000000	0.009065
1087.000000	0.008850
1086.000000	0.008618
1085.000000	0.008388
1084.000000	0.008168
1083.000000	0.007959
1082.000000	0.007766
1081.000000	0.007597
1080.000000	0.007454
1079.000000	0.007338
1078.000000	0.007242
1077.000000	0.007146
1076.000000	0.007026
1075.000000	0.006884
1074.000000	0.006745
1073.000000	0.006631
1072.000000	0.006534
1071.000000	0.006432
1070.000000	0.006327
1069.000000	0.006242
1068.000000	0.006200
1067.000000	0.006195
1066.000000	0.006199
1065.000000	0.006187
1064.000000	0.006157
1063.000000	0.006127
1062.000000	0.006115
1061.000000	0.006114
1060.000000	0.006094
1059.000000	0.006030
1058.000000	0.005919
1057.000000	0.005784
1056.000000	0.005653
1055.000000	0.005540
1054.000000	0.005449
1053.000000	0.005376
1052.000000	0.005327
1051.000000	0.005304
1050.000000	0.005296
1049.000000	0.005280
1048.000000	0.005248
1047.000000	0.005220
1046.000000	0.005219
1045.000000	0.005249
1044.000000	0.005297
1043.000000	0.005347
1042.000000	0.005384
1041.000000	0.005395
1040.000000	0.005387
1039.000000	0.005388
1038.000000	0.005414
1037.000000	0.005446
1036.000000	0.005454
1035.000000	0.005437
1034.000000	0.005423
1033.000000	0.005419
1032.000000	0.005399
1031.000000	0.005346
1030.000000	0.005282
1029.000000	0.005244
1028.000000	0.005248
1027.000000	0.005282
1026.000000	0.005326
1025.000000	0.005360
1024.000000	0.005376
1023.000000	0.005379
1022.000000	0.005386
1021.000000	0.005400
1020.000000	0.005406
1019.000000	0.005389
1018.000000	0.005360
1017.000000	0.005336
1016.000000	0.005321
1015.000000	0.005302
1014.000000	0.005273
1013.000000	0.005234
1012.000000	0.005184
1011.000000	0.005123
1010.000000	0.005055
1009.000000	0.004990
1008.000000	0.004930
1007.000000	0.004878
1006.000000	0.004834
1005.000000	0.004789
1004.000000	0.004723
1003.000000	0.004621
1002.000000	0.004500
1001.000000	0.004395
1000.000000	0.004323
999.000000	0.004274
998.000000	0.004231
997.000000	0.004186
996.000000	0.004144
995.000000	0.004102
994.000000	0.004055
993.000000	0.004003
992.000000	0.003959
991.000000	0.003933
990.000000	0.003919
989.000000	0.003900
988.000000	0.003864
987.000000	0.003823
986.000000	0.003799
985.000000	0.003799
984.000000	0.003807
983.000000	0.003799
982.000000	0.003770
981.000000	0.003733
980.000000	0.003699
979.000000	0.003670
978.000000	0.003646
977.000000	0.003638
976.000000	0.003655
975.000000	0.003698
974.000000	0.003753
973.000000	0.003805
972.000000	0.003850
971.000000	0.003889
970.000000	0.003916
969.000000	0.003923
968.000000	0.003911
967.000000	0.003895
966.000000	0.003888
965.000000	0.003890
964.000000	0.003889
963.000000	0.003869
962.000000	0.003817
961.000000	0.003737
960.000000	0.003659
959.000000	0.003606
958.000000	0.003571
957.000000	0.003517
956.000000	0.003428
955.000000	0.003330
954.000000	0.003258
953.000000	0.003201
952.000000	0.003124
951.000000	0.003021
950.000000	0.002936
949.000000	0.002907
948.000000	0.002915
947.000000	0.002903
946.000000	0.002838
945.000000	0.002735
944.000000	0.002630
943.000000	0.002544
942.000000	0.002483
941.000000	0.002445
940.000000	0.002425
939.000000	0.002405
938.000000	0.002368
937.000000	0.002314
936.000000	0.002258
935.000000	0.002209
934.000000	0.002157
933.000000	0.002095
932.000000	0.002039
931.000000	0.002016
930.000000	0.002031
929.000000	0.002053
928.000000	0.002043
927.000000	0.001990
926.000000	0.001915
925.000000	0.001846
924.000000	0.001798
923.000000	0.001770
922.000000	0.001747
921.000000	0.001714
920.000000	0.001666
919.000000	0.001614
918.000000	0.001569
917.000000	0.001529
916.000000	0.001491
915.000000	0.001457
914.000000	0.001427
913.000000	0.001401
912.000000	0.001373
911.000000	0.001342
910.000000	0.001303
909.000000	0.001251
908.000000	0.001186
907.000000	0.001122
906.000000	0.001063
905.000000	0.000995
904.000000	0.000910
903.000000	0.000824
902.000000	0.000763
901.000000	0.000733
900.000000	0.000719
899.000000	0.000708
898.000000	0.000703
897.000000	0.000706
896.000000	0.000704
895.000000	0.000690
894.000000	0.000673
893.000000	0.000674
892.000000	0.000704
891.000000	0.000759
890.000000	0.000839
889.000000	0.000973
888.000000	0.001222
887.000000	0.001647
886.000000	0.002253
885.000000	0.002973
884.000000	0.003712
883.000000	0.004416
882.000000	0.005107
881.000000	0.005854
880.000000	0.006719
879.000000	0.007700
878.000000	0.008722
877.000000	0.009672
876.000000	0.010445
875.000000	0.010972
874.000000	0.011201
873.000000	0.011099
872.000000	0.010656
871.000000	0.009919
870.000000	0.008992
869.000000	0.007994
868.000000	0.007031
867.000000	0.006171
866.000000	0.005445
865.000000	0.004852
864.000000	0.004370
863.000000	0.003973
862.000000	0.003628
861.000000	0.003296
860.000000	0.002958
859.000000	0.002627
858.000000	0.002334
857.000000	0.002092
856.000000	0.001904
855.000000	0.001776
854.000000	0.001710
853.000000	0.001685
852.000000	0.001673
851.000000	0.001685
850.000000	0.001751
849.000000	0.001865
848.000000	0.001954
847.000000	0.001938
846.000000	0.001801
845.000000	0.001594
844.000000	0.001382
843.000000	0.001209
842.000000	0.001095
841.000000	0.001044
840.000000	0.001037
839.000000	0.001045
838.000000	0.001059
837.000000	0.001093
836.000000	0.001149
835.000000	0.001200
834.000000	0.001201
833.000000	0.001143
832.000000	0.001060
831.000000	0.000993
830.000000	0.000954
829.000000	0.000928
828.000000	0.000910
827.000000	0.000910
826.000000	0.000923
825.000000	0.000921
824.000000	0.000872
823.000000	0.000784
822.000000	0.000695
821.000000	0.000637
820.000000	0.000608
819.000000	0.000582
818.000000	0.000548
817.000000	0.000519
816.000000	0.000510
815.000000	0.000514
814.000000	0.000499
813.000000	0.000448
812.000000	0.000382
811.000000	0.000341
810.000000	0.000331
809.000000	0.000332
808.000000	0.000326
807.000000	0.000326
806.000000	0.000346
805.000000	0.000382
804.000000	0.000420
803.000000	0.000456
802.000000	0.000494
801.000000	0.000528
800.000000	0.000546
799.000000	0.000539
798.000000	0.000508
797.000000	0.000462
796.000000	0.000424
795.000000	0.000418
794.000000	0.000450
793.000000	0.000499
792.000000	0.000538
791.000000	0.000559
790.000000	0.000557
789.000000	0.000528
788.000000	0.000470
787.000000	0.000410
786.000000	0.000389
785.000000	0.000429
784.000000	0.000514
783.000000	0.000598
782.000000	0.000633
781.000000	0.000605
780.000000	0.000548
779.000000	0.000518
778.000000	0.000540
777.000000	0.000582
776.000000	0.000595
775.000000	0.000557
774.000000	0.000485
773.000000	0.000410
772.000000	0.000365
771.000000	0.000373
770.000000	0.000442
769.000000	0.000544
768.000000	0.000633
767.000000	0.000683
766.000000	0.000692
765.000000	0.000667
764.000000	0.000615
763.000000	0.000560
762.000000	0.000547
761.000000	0.000609
760.000000	0.000718
759.000000	0.000800
758.000000	0.000801
757.000000	0.000748
756.000000	0.000713
755.000000	0.000728
754.000000	0.000751
753.000000	0.000732
752.000000	0.000680
751.000000	0.000644
750.000000	0.000646
749.000000	0.000667
748.000000	0.000682
747.000000	0.000691
746.000000	0.000704
745.000000	0.000714
744.000000	0.000719
743.000000	0.000722
742.000000	0.000720
741.000000	0.000704
740.000000	0.000678
739.000000	0.000648
738.000000	0.000613
737.000000	0.000567
736.000000	0.000541
735.000000	0.000588
734.000000	0.000709
733.000000	0.000835
732.000000	0.000887
731.000000	0.000857
730.000000	0.000792
729.000000	0.000739
728.000000	0.000716
727.000000	0.000716
726.000000	0.000732
725.000000	0.000754
724.000000	0.000770
723.000000	0.000770
722.000000	0.000748
721.000000	0.000712
720.000000	0.000702
719.000000	0.000789
718.000000	0.001046
717.000000	0.001511
716.000000	0.002183
715.000000	0.002994
714.000000	0.003784
713.000000	0.004330
712.000000	0.004466
711.000000	0.004200
710.000000	0.003705
709.000000	0.003199
708.000000	0.002819
707.000000	0.002583
706.000000	0.002440
705.000000	0.002339
704.000000	0.002249
703.000000	0.002165
702.000000	0.002098
701.000000	0.002075
700.000000	0.002117
699.000000	0.002211
698.000000	0.002308
697.000000	0.002362
696.000000	0.002365
695.000000	0.002345
694.000000	0.002319
693.000000	0.002276
692.000000	0.002215
691.000000	0.002148
690.000000	0.002086
689.000000	0.002038
688.000000	0.002019
687.000000	0.002037
686.000000	0.002066
685.000000	0.002065
684.000000	0.002050
683.000000	0.002077
682.000000	0.002154
681.000000	0.002234
680.000000	0.002305
679.000000	0.002411
678.000000	0.002569
677.000000	0.002757
676.000000	0.002942
675.000000	0.003096
674.000000	0.003181
673.000000	0.003155
672.000000	0.003012
671.000000	0.002749
670.000000	0.002341
669.000000	0.001820
668.000000	0.001550
667.000000	0.001828
666.000000	0.002190
665.000000	0.002378
664.000000	0.002403
663.000000	0.002277
662.000000	0.002059
661.000000	0.001808
660.000000	0.001550
659.000000	0.001281
658.000000	0.001015
657.000000	0.000813
656.000000	0.000717
655.000000	0.000721
654.000000	0.000812
653.000000	0.000981
652.000000	0.001178
651.000000	0.001336
650.000000	0.001446
649.000000	0.001563
648.000000	0.001715
647.000000	0.001870
646.000000	0.001995
645.000000	0.002086
644.000000	0.002132
643.000000	0.002136
642.000000	0.002143
641.000000	0.002208
640.000000	0.002318
639.000000	0.002403
638.000000	0.002425
637.000000	0.002426
636.000000	0.002439
635.000000	0.002453
634.000000	0.002454
633.000000	0.002460
632.000000	0.002492
631.000000	0.002548
630.000000	0.002621
629.000000	0.002705
628.000000	0.002779
627.000000	0.002823
626.000000	0.002843
625.000000	0.002855
624.000000	0.002851
623.000000	0.002823
622.000000	0.002800
621.000000	0.002810
620.000000	0.002831
619.000000	0.002832
618.000000	0.002838
617.000000	0.002898
616.000000	0.003011
615.000000	0.003134
614.000000	0.003261
613.000000	0.003434
612.000000	0.003659
611.000000	0.003888
610.000000	0.004080
609.000000	0.004245
608.000000	0.004396
607.000000	0.004532
606.000000	0.004658
605.000000	0.004776
604.000000	0.004845
603.000000	0.004822
602.000000	0.004725
601.000000	0.004625
600.000000	0.004558
599.000000	0.004497
598.000000	0.004408
597.000000	0.004295
596.000000	0.004159
595.000000	0.003982
594.000000	0.003762
593.000000	0.003527
592.000000	0.003308
591.000000	0.003123
590.000000	0.002987
589.000000	0.002896
588.000000	0.002807
587.000000	0.002685
586.000000	0.002562
585.000000	0.002494
584.000000	0.002468
583.000000	0.002408
582.000000	0.002309
581.000000	0.002263
580.000000	0.002320
579.000000	0.002392
578.000000	0.002353
577.000000	0.002192
576.000000	0.002001
575.000000	0.001862
574.000000	0.001776
573.000000	0.001695
572.000000	0.001585
571.000000	0.001454
570.000000	0.001347
569.000000	0.001302
568.000000	0.001290
567.000000	0.001261
566.000000	0.001215
565.000000	0.001194
564.000000	0.001203
563.000000	0.001202
562.000000	0.001202
561.000000	0.001265
560.000000	0.001394
559.000000	0.001487
558.000000	0.001452
557.000000	0.001297
556.000000	0.001097
555.000000	0.000897
554.000000	0.000735
553.000000	0.000670
552.000000	0.000731
551.000000	0.000868
550.000000	0.000998
549.000000	0.001082
548.000000	0.001114
547.000000	0.001074
546.000000	0.000955
545.000000	0.000812
544.000000	0.000716
543.000000	0.000675
542.000000	0.000650
541.000000	0.000625
540.000000	0.000613
539.000000	0.000626
538.000000	0.000669
537.000000	0.000748
536.000000	0.000825
535.000000	0.000809
534.000000	0.000665
533.000000	0.000504
532.000000	0.000499
531.000000	0.000687
530.000000	0.000906
529.000000	0.000969
528.000000	0.000843
527.000000	0.000637
526.000000	0.000463
525.000000	0.000360
524.000000	0.000319
523.000000	0.000346
522.000000	0.000439
521.000000	0.000530
520.000000	0.000527
519.000000	0.000420
518.000000	0.000333
517.000000	0.000395
516.000000	0.000584
515.000000	0.000760
514.000000	0.000832
513.000000	0.000809
512.000000	0.000740
511.000000	0.000666
510.000000	0.000632
509.000000	0.000692
508.000000	0.000863
507.000000	0.001074
506.000000	0.001208
505.000000	0.001204
504.000000	0.001101
503.000000	0.001005
502.000000	0.001016
501.000000	0.001126
500.000000	0.001205
499.000000	0.001121
498.000000	0.000891
497.000000	0.000660
496.000000	0.000552
495.000000	0.000555
494.000000	0.000595
493.000000	0.000659
492.000000	0.000780
491.000000	0.000935
490.000000	0.001038
489.000000	0.001029
488.000000	0.000923
487.000000	0.000778
486.000000	0.000662
485.000000	0.000632
484.000000	0.000696
483.000000	0.000791
482.000000	0.000857
481.000000	0.000917
480.000000	0.001016
479.000000	0.001124
478.000000	0.001169
477.000000	0.001142
476.000000	0.001087
475.000000	0.001011
474.000000	0.000890
473.000000	0.000753
472.000000	0.000684
471.000000	0.000718
470.000000	0.000823
469.000000	0.000990
468.000000	0.001226
467.000000	0.001470
466.000000	0.001628
465.000000	0.001663
464.000000	0.001587
463.000000	0.001391
462.000000	0.001061
461.000000	0.000662
460.000000	0.000300
459.000000	0.000063
458.000000	0.000030
457.000000	0.000243
456.000000	0.000594
455.000000	0.000863
454.000000	0.000883
453.000000	0.000672
452.000000	0.000440
451.000000	0.000352
450.000000	0.000341
