PE IR       SUBTECH     SPECTRUM    ASCII       PEDS        4.00        
   -1
P12-Rouge049_1.ASC
23/06/08
15:40:34.00
23/06/08
15:48:35.00
uco
Sample 049 By uco Date Thursday, June 08 2023
450.000000
#HDR
-1
-1
#GR
cm-1
A
1.0
0.0
4000.000000
-1.000000
3551
8
0.014432
-0.000063
#DATA
4000.000000	0.000140
3999.000000	0.000162
3998.000000	0.000183
3997.000000	0.000197
3996.000000	0.000202
3995.000000	0.000201
3994.000000	0.000199
3993.000000	0.000203
3992.000000	0.000214
3991.000000	0.000232
3990.000000	0.000254
3989.000000	0.000277
3988.000000	0.000294
3987.000000	0.000298
3986.000000	0.000282
3985.000000	0.000249
3984.000000	0.000213
3983.000000	0.000192
3982.000000	0.000197
3981.000000	0.000223
3980.000000	0.000254
3979.000000	0.000276
3978.000000	0.000284
3977.000000	0.000281
3976.000000	0.000275
3975.000000	0.000265
3974.000000	0.000251
3973.000000	0.000231
3972.000000	0.000205
3971.000000	0.000177
3970.000000	0.000153
3969.000000	0.000139
3968.000000	0.000140
3967.000000	0.000156
3966.000000	0.000181
3965.000000	0.000208
3964.000000	0.000228
3963.000000	0.000236
3962.000000	0.000235
3961.000000	0.000229
3960.000000	0.000225
3959.000000	0.000224
3958.000000	0.000222
3957.000000	0.000217
3956.000000	0.000210
3955.000000	0.000205
3954.000000	0.000206
3953.000000	0.000215
3952.000000	0.000231
3951.000000	0.000252
3950.000000	0.000273
3949.000000	0.000290
3948.000000	0.000297
3947.000000	0.000293
3946.000000	0.000280
3945.000000	0.000261
3944.000000	0.000243
3943.000000	0.000237
3942.000000	0.000251
3941.000000	0.000284
3940.000000	0.000327
3939.000000	0.000363
3938.000000	0.000378
3937.000000	0.000371
3936.000000	0.000355
3935.000000	0.000342
3934.000000	0.000332
3933.000000	0.000317
3932.000000	0.000290
3931.000000	0.000258
3930.000000	0.000240
3929.000000	0.000244
3928.000000	0.000263
3927.000000	0.000285
3926.000000	0.000298
3925.000000	0.000296
3924.000000	0.000281
3923.000000	0.000265
3922.000000	0.000260
3921.000000	0.000269
3920.000000	0.000287
3919.000000	0.000300
3918.000000	0.000297
3917.000000	0.000279
3916.000000	0.000260
3915.000000	0.000253
3914.000000	0.000261
3913.000000	0.000272
3912.000000	0.000278
3911.000000	0.000277
3910.000000	0.000275
3909.000000	0.000273
3908.000000	0.000271
3907.000000	0.000268
3906.000000	0.000274
3905.000000	0.000296
3904.000000	0.000336
3903.000000	0.000377
3902.000000	0.000400
3901.000000	0.000395
3900.000000	0.000367
3899.000000	0.000330
3898.000000	0.000296
3897.000000	0.000273
3896.000000	0.000259
3895.000000	0.000252
3894.000000	0.000251
3893.000000	0.000255
3892.000000	0.000260
3891.000000	0.000255
3890.000000	0.000240
3889.000000	0.000221
3888.000000	0.000209
3887.000000	0.000210
3886.000000	0.000221
3885.000000	0.000233
3884.000000	0.000238
3883.000000	0.000231
3882.000000	0.000211
3881.000000	0.000188
3880.000000	0.000181
3879.000000	0.000201
3878.000000	0.000239
3877.000000	0.000272
3876.000000	0.000282
3875.000000	0.000267
3874.000000	0.000242
3873.000000	0.000235
3872.000000	0.000258
3871.000000	0.000299
3870.000000	0.000328
3869.000000	0.000337
3868.000000	0.000336
3867.000000	0.000332
3866.000000	0.000317
3865.000000	0.000284
3864.000000	0.000249
3863.000000	0.000234
3862.000000	0.000244
3861.000000	0.000266
3860.000000	0.000282
3859.000000	0.000285
3858.000000	0.000275
3857.000000	0.000263
3856.000000	0.000265
3855.000000	0.000282
3854.000000	0.000300
3853.000000	0.000292
3852.000000	0.000257
3851.000000	0.000224
3850.000000	0.000212
3849.000000	0.000218
3848.000000	0.000231
3847.000000	0.000244
3846.000000	0.000247
3845.000000	0.000236
3844.000000	0.000212
3843.000000	0.000183
3842.000000	0.000159
3841.000000	0.000148
3840.000000	0.000151
3839.000000	0.000165
3838.000000	0.000188
3837.000000	0.000213
3836.000000	0.000235
3835.000000	0.000251
3834.000000	0.000264
3833.000000	0.000274
3832.000000	0.000280
3831.000000	0.000282
3830.000000	0.000284
3829.000000	0.000289
3828.000000	0.000293
3827.000000	0.000290
3826.000000	0.000277
3825.000000	0.000262
3824.000000	0.000249
3823.000000	0.000237
3822.000000	0.000218
3821.000000	0.000198
3820.000000	0.000195
3819.000000	0.000215
3818.000000	0.000244
3817.000000	0.000258
3816.000000	0.000243
3815.000000	0.000219
3814.000000	0.000216
3813.000000	0.000234
3812.000000	0.000254
3811.000000	0.000256
3810.000000	0.000243
3809.000000	0.000227
3808.000000	0.000217
3807.000000	0.000211
3806.000000	0.000207
3805.000000	0.000209
3804.000000	0.000216
3803.000000	0.000214
3802.000000	0.000187
3801.000000	0.000146
3800.000000	0.000126
3799.000000	0.000142
3798.000000	0.000185
3797.000000	0.000227
3796.000000	0.000251
3795.000000	0.000256
3794.000000	0.000257
3793.000000	0.000270
3792.000000	0.000297
3791.000000	0.000330
3790.000000	0.000359
3789.000000	0.000376
3788.000000	0.000382
3787.000000	0.000378
3786.000000	0.000365
3785.000000	0.000342
3784.000000	0.000313
3783.000000	0.000284
3782.000000	0.000263
3781.000000	0.000253
3780.000000	0.000253
3779.000000	0.000261
3778.000000	0.000269
3777.000000	0.000273
3776.000000	0.000268
3775.000000	0.000255
3774.000000	0.000239
3773.000000	0.000229
3772.000000	0.000226
3771.000000	0.000220
3770.000000	0.000204
3769.000000	0.000185
3768.000000	0.000175
3767.000000	0.000181
3766.000000	0.000199
3765.000000	0.000221
3764.000000	0.000240
3763.000000	0.000252
3762.000000	0.000254
3761.000000	0.000239
3760.000000	0.000212
3759.000000	0.000182
3758.000000	0.000158
3757.000000	0.000138
3756.000000	0.000123
3755.000000	0.000116
3754.000000	0.000125
3753.000000	0.000150
3752.000000	0.000191
3751.000000	0.000238
3750.000000	0.000271
3749.000000	0.000279
3748.000000	0.000270
3747.000000	0.000261
3746.000000	0.000258
3745.000000	0.000248
3744.000000	0.000229
3743.000000	0.000219
3742.000000	0.000232
3741.000000	0.000256
3740.000000	0.000276
3739.000000	0.000285
3738.000000	0.000284
3737.000000	0.000274
3736.000000	0.000237
3735.000000	0.000172
3734.000000	0.000113
3733.000000	0.000092
3732.000000	0.000106
3731.000000	0.000131
3730.000000	0.000159
3729.000000	0.000200
3728.000000	0.000260
3727.000000	0.000328
3726.000000	0.000384
3725.000000	0.000414
3724.000000	0.000412
3723.000000	0.000375
3722.000000	0.000317
3721.000000	0.000255
3720.000000	0.000205
3719.000000	0.000172
3718.000000	0.000152
3717.000000	0.000140
3716.000000	0.000132
3715.000000	0.000132
3714.000000	0.000144
3713.000000	0.000175
3712.000000	0.000227
3711.000000	0.000280
3710.000000	0.000306
3709.000000	0.000298
3708.000000	0.000266
3707.000000	0.000230
3706.000000	0.000207
3705.000000	0.000202
3704.000000	0.000205
3703.000000	0.000205
3702.000000	0.000199
3701.000000	0.000193
3700.000000	0.000194
3699.000000	0.000203
3698.000000	0.000219
3697.000000	0.000241
3696.000000	0.000272
3695.000000	0.000310
3694.000000	0.000342
3693.000000	0.000349
3692.000000	0.000323
3691.000000	0.000274
3690.000000	0.000227
3689.000000	0.000202
3688.000000	0.000194
3687.000000	0.000188
3686.000000	0.000174
3685.000000	0.000155
3684.000000	0.000140
3683.000000	0.000130
3682.000000	0.000129
3681.000000	0.000139
3680.000000	0.000158
3679.000000	0.000187
3678.000000	0.000223
3677.000000	0.000253
3676.000000	0.000257
3675.000000	0.000240
3674.000000	0.000223
3673.000000	0.000215
3672.000000	0.000210
3671.000000	0.000198
3670.000000	0.000183
3669.000000	0.000180
3668.000000	0.000190
3667.000000	0.000199
3666.000000	0.000202
3665.000000	0.000206
3664.000000	0.000221
3663.000000	0.000247
3662.000000	0.000270
3661.000000	0.000274
3660.000000	0.000258
3659.000000	0.000238
3658.000000	0.000232
3657.000000	0.000247
3656.000000	0.000269
3655.000000	0.000284
3654.000000	0.000286
3653.000000	0.000281
3652.000000	0.000273
3651.000000	0.000267
3650.000000	0.000268
3649.000000	0.000282
3648.000000	0.000295
3647.000000	0.000296
3646.000000	0.000278
3645.000000	0.000249
3644.000000	0.000223
3643.000000	0.000211
3642.000000	0.000215
3641.000000	0.000220
3640.000000	0.000216
3639.000000	0.000201
3638.000000	0.000191
3637.000000	0.000198
3636.000000	0.000223
3635.000000	0.000251
3634.000000	0.000271
3633.000000	0.000287
3632.000000	0.000310
3631.000000	0.000343
3630.000000	0.000371
3629.000000	0.000374
3628.000000	0.000361
3627.000000	0.000361
3626.000000	0.000376
3625.000000	0.000389
3624.000000	0.000381
3623.000000	0.000343
3622.000000	0.000279
3621.000000	0.000203
3620.000000	0.000134
3619.000000	0.000101
3618.000000	0.000115
3617.000000	0.000162
3616.000000	0.000220
3615.000000	0.000272
3614.000000	0.000311
3613.000000	0.000339
3612.000000	0.000361
3611.000000	0.000384
3610.000000	0.000407
3609.000000	0.000418
3608.000000	0.000406
3607.000000	0.000376
3606.000000	0.000350
3605.000000	0.000346
3604.000000	0.000358
3603.000000	0.000370
3602.000000	0.000369
3601.000000	0.000356
3600.000000	0.000344
3599.000000	0.000347
3598.000000	0.000363
3597.000000	0.000385
3596.000000	0.000409
3595.000000	0.000434
3594.000000	0.000460
3593.000000	0.000482
3592.000000	0.000499
3591.000000	0.000510
3590.000000	0.000512
3589.000000	0.000500
3588.000000	0.000470
3587.000000	0.000430
3586.000000	0.000404
3585.000000	0.000404
3584.000000	0.000423
3583.000000	0.000443
3582.000000	0.000452
3581.000000	0.000447
3580.000000	0.000432
3579.000000	0.000416
3578.000000	0.000402
3577.000000	0.000394
3576.000000	0.000398
3575.000000	0.000414
3574.000000	0.000438
3573.000000	0.000464
3572.000000	0.000489
3571.000000	0.000516
3570.000000	0.000550
3569.000000	0.000592
3568.000000	0.000628
3567.000000	0.000639
3566.000000	0.000626
3565.000000	0.000608
3564.000000	0.000600
3563.000000	0.000595
3562.000000	0.000586
3561.000000	0.000577
3560.000000	0.000574
3559.000000	0.000580
3558.000000	0.000585
3557.000000	0.000584
3556.000000	0.000580
3555.000000	0.000586
3554.000000	0.000608
3553.000000	0.000639
3552.000000	0.000666
3551.000000	0.000682
3550.000000	0.000691
3549.000000	0.000697
3548.000000	0.000700
3547.000000	0.000695
3546.000000	0.000677
3545.000000	0.000652
3544.000000	0.000633
3543.000000	0.000628
3542.000000	0.000636
3541.000000	0.000649
3540.000000	0.000661
3539.000000	0.000669
3538.000000	0.000673
3537.000000	0.000674
3536.000000	0.000674
3535.000000	0.000679
3534.000000	0.000692
3533.000000	0.000704
3532.000000	0.000705
3531.000000	0.000692
3530.000000	0.000675
3529.000000	0.000670
3528.000000	0.000683
3527.000000	0.000706
3526.000000	0.000727
3525.000000	0.000738
3524.000000	0.000736
3523.000000	0.000719
3522.000000	0.000689
3521.000000	0.000654
3520.000000	0.000628
3519.000000	0.000622
3518.000000	0.000635
3517.000000	0.000656
3516.000000	0.000673
3515.000000	0.000677
3514.000000	0.000670
3513.000000	0.000662
3512.000000	0.000662
3511.000000	0.000670
3510.000000	0.000679
3509.000000	0.000686
3508.000000	0.000694
3507.000000	0.000711
3506.000000	0.000733
3505.000000	0.000747
3504.000000	0.000746
3503.000000	0.000733
3502.000000	0.000715
3501.000000	0.000697
3500.000000	0.000680
3499.000000	0.000665
3498.000000	0.000656
3497.000000	0.000654
3496.000000	0.000660
3495.000000	0.000669
3494.000000	0.000677
3493.000000	0.000681
3492.000000	0.000682
3491.000000	0.000683
3490.000000	0.000682
3489.000000	0.000673
3488.000000	0.000658
3487.000000	0.000645
3486.000000	0.000645
3485.000000	0.000661
3484.000000	0.000683
3483.000000	0.000698
3482.000000	0.000695
3481.000000	0.000673
3480.000000	0.000642
3479.000000	0.000613
3478.000000	0.000596
3477.000000	0.000591
3476.000000	0.000596
3475.000000	0.000615
3474.000000	0.000647
3473.000000	0.000686
3472.000000	0.000718
3471.000000	0.000735
3470.000000	0.000738
3469.000000	0.000737
3468.000000	0.000737
3467.000000	0.000734
3466.000000	0.000719
3465.000000	0.000691
3464.000000	0.000661
3463.000000	0.000640
3462.000000	0.000634
3461.000000	0.000641
3460.000000	0.000653
3459.000000	0.000667
3458.000000	0.000681
3457.000000	0.000692
3456.000000	0.000694
3455.000000	0.000687
3454.000000	0.000675
3453.000000	0.000666
3452.000000	0.000671
3451.000000	0.000690
3450.000000	0.000715
3449.000000	0.000728
3448.000000	0.000724
3447.000000	0.000714
3446.000000	0.000712
3445.000000	0.000724
3444.000000	0.000739
3443.000000	0.000745
3442.000000	0.000741
3441.000000	0.000738
3440.000000	0.000742
3439.000000	0.000752
3438.000000	0.000759
3437.000000	0.000757
3436.000000	0.000749
3435.000000	0.000744
3434.000000	0.000748
3433.000000	0.000755
3432.000000	0.000756
3431.000000	0.000747
3430.000000	0.000730
3429.000000	0.000714
3428.000000	0.000704
3427.000000	0.000704
3426.000000	0.000716
3425.000000	0.000737
3424.000000	0.000763
3423.000000	0.000784
3422.000000	0.000789
3421.000000	0.000776
3420.000000	0.000757
3419.000000	0.000747
3418.000000	0.000756
3417.000000	0.000780
3416.000000	0.000808
3415.000000	0.000832
3414.000000	0.000848
3413.000000	0.000857
3412.000000	0.000868
3411.000000	0.000886
3410.000000	0.000906
3409.000000	0.000916
3408.000000	0.000905
3407.000000	0.000877
3406.000000	0.000847
3405.000000	0.000831
3404.000000	0.000834
3403.000000	0.000848
3402.000000	0.000862
3401.000000	0.000870
3400.000000	0.000870
3399.000000	0.000866
3398.000000	0.000862
3397.000000	0.000863
3396.000000	0.000875
3395.000000	0.000896
3394.000000	0.000914
3393.000000	0.000910
3392.000000	0.000882
3391.000000	0.000843
3390.000000	0.000815
3389.000000	0.000810
3388.000000	0.000819
3387.000000	0.000831
3386.000000	0.000836
3385.000000	0.000839
3384.000000	0.000847
3383.000000	0.000861
3382.000000	0.000874
3381.000000	0.000878
3380.000000	0.000870
3379.000000	0.000856
3378.000000	0.000847
3377.000000	0.000850
3376.000000	0.000865
3375.000000	0.000885
3374.000000	0.000900
3373.000000	0.000903
3372.000000	0.000893
3371.000000	0.000884
3370.000000	0.000886
3369.000000	0.000902
3368.000000	0.000926
3367.000000	0.000948
3366.000000	0.000960
3365.000000	0.000955
3364.000000	0.000930
3363.000000	0.000893
3362.000000	0.000857
3361.000000	0.000832
3360.000000	0.000823
3359.000000	0.000833
3358.000000	0.000859
3357.000000	0.000887
3356.000000	0.000905
3355.000000	0.000908
3354.000000	0.000901
3353.000000	0.000892
3352.000000	0.000881
3351.000000	0.000870
3350.000000	0.000867
3349.000000	0.000872
3348.000000	0.000879
3347.000000	0.000876
3346.000000	0.000865
3345.000000	0.000853
3344.000000	0.000848
3343.000000	0.000849
3342.000000	0.000854
3341.000000	0.000866
3340.000000	0.000886
3339.000000	0.000911
3338.000000	0.000936
3337.000000	0.000953
3336.000000	0.000960
3335.000000	0.000956
3334.000000	0.000945
3333.000000	0.000931
3332.000000	0.000918
3331.000000	0.000903
3330.000000	0.000887
3329.000000	0.000873
3328.000000	0.000866
3327.000000	0.000869
3326.000000	0.000881
3325.000000	0.000894
3324.000000	0.000902
3323.000000	0.000901
3322.000000	0.000895
3321.000000	0.000890
3320.000000	0.000890
3319.000000	0.000898
3318.000000	0.000915
3317.000000	0.000936
3316.000000	0.000952
3315.000000	0.000951
3314.000000	0.000930
3313.000000	0.000897
3312.000000	0.000871
3311.000000	0.000865
3310.000000	0.000885
3309.000000	0.000922
3308.000000	0.000962
3307.000000	0.000991
3306.000000	0.001004
3305.000000	0.001006
3304.000000	0.001003
3303.000000	0.000995
3302.000000	0.000973
3301.000000	0.000935
3300.000000	0.000894
3299.000000	0.000868
3298.000000	0.000866
3297.000000	0.000883
3296.000000	0.000905
3295.000000	0.000924
3294.000000	0.000937
3293.000000	0.000945
3292.000000	0.000944
3291.000000	0.000937
3290.000000	0.000929
3289.000000	0.000922
3288.000000	0.000918
3287.000000	0.000912
3286.000000	0.000903
3285.000000	0.000892
3284.000000	0.000884
3283.000000	0.000878
3282.000000	0.000875
3281.000000	0.000874
3280.000000	0.000873
3279.000000	0.000868
3278.000000	0.000862
3277.000000	0.000858
3276.000000	0.000856
3275.000000	0.000855
3274.000000	0.000856
3273.000000	0.000859
3272.000000	0.000867
3271.000000	0.000874
3270.000000	0.000876
3269.000000	0.000876
3268.000000	0.000880
3267.000000	0.000890
3266.000000	0.000904
3265.000000	0.000920
3264.000000	0.000939
3263.000000	0.000958
3262.000000	0.000970
3261.000000	0.000969
3260.000000	0.000956
3259.000000	0.000939
3258.000000	0.000926
3257.000000	0.000918
3256.000000	0.000914
3255.000000	0.000912
3254.000000	0.000913
3253.000000	0.000915
3252.000000	0.000914
3251.000000	0.000904
3250.000000	0.000888
3249.000000	0.000874
3248.000000	0.000873
3247.000000	0.000887
3246.000000	0.000912
3245.000000	0.000939
3244.000000	0.000963
3243.000000	0.000981
3242.000000	0.000988
3241.000000	0.000975
3240.000000	0.000944
3239.000000	0.000904
3238.000000	0.000871
3237.000000	0.000851
3236.000000	0.000844
3235.000000	0.000836
3234.000000	0.000821
3233.000000	0.000802
3232.000000	0.000788
3231.000000	0.000780
3230.000000	0.000771
3229.000000	0.000759
3228.000000	0.000749
3227.000000	0.000751
3226.000000	0.000768
3225.000000	0.000795
3224.000000	0.000823
3223.000000	0.000849
3222.000000	0.000869
3221.000000	0.000875
3220.000000	0.000869
3219.000000	0.000855
3218.000000	0.000838
3217.000000	0.000819
3216.000000	0.000798
3215.000000	0.000784
3214.000000	0.000789
3213.000000	0.000814
3212.000000	0.000843
3211.000000	0.000854
3210.000000	0.000841
3209.000000	0.000818
3208.000000	0.000808
3207.000000	0.000819
3206.000000	0.000838
3205.000000	0.000845
3204.000000	0.000831
3203.000000	0.000807
3202.000000	0.000787
3201.000000	0.000775
3200.000000	0.000764
3199.000000	0.000749
3198.000000	0.000739
3197.000000	0.000747
3196.000000	0.000772
3195.000000	0.000802
3194.000000	0.000822
3193.000000	0.000822
3192.000000	0.000806
3191.000000	0.000784
3190.000000	0.000768
3189.000000	0.000766
3188.000000	0.000782
3187.000000	0.000805
3186.000000	0.000823
3185.000000	0.000825
3184.000000	0.000809
3183.000000	0.000784
3182.000000	0.000764
3181.000000	0.000758
3180.000000	0.000768
3179.000000	0.000785
3178.000000	0.000794
3177.000000	0.000791
3176.000000	0.000781
3175.000000	0.000772
3174.000000	0.000765
3173.000000	0.000754
3172.000000	0.000738
3171.000000	0.000726
3170.000000	0.000726
3169.000000	0.000733
3168.000000	0.000735
3167.000000	0.000725
3166.000000	0.000711
3165.000000	0.000704
3164.000000	0.000707
3163.000000	0.000710
3162.000000	0.000703
3161.000000	0.000690
3160.000000	0.000684
3159.000000	0.000699
3158.000000	0.000731
3157.000000	0.000768
3156.000000	0.000798
3155.000000	0.000823
3154.000000	0.000845
3153.000000	0.000853
3152.000000	0.000837
3151.000000	0.000796
3150.000000	0.000753
3149.000000	0.000734
3148.000000	0.000744
3147.000000	0.000770
3146.000000	0.000791
3145.000000	0.000794
3144.000000	0.000780
3143.000000	0.000757
3142.000000	0.000733
3141.000000	0.000717
3140.000000	0.000713
3139.000000	0.000720
3138.000000	0.000732
3137.000000	0.000740
3136.000000	0.000734
3135.000000	0.000718
3134.000000	0.000702
3133.000000	0.000700
3132.000000	0.000714
3131.000000	0.000735
3130.000000	0.000753
3129.000000	0.000762
3128.000000	0.000761
3127.000000	0.000750
3126.000000	0.000733
3125.000000	0.000713
3124.000000	0.000696
3123.000000	0.000687
3122.000000	0.000690
3121.000000	0.000700
3120.000000	0.000712
3119.000000	0.000723
3118.000000	0.000736
3117.000000	0.000750
3116.000000	0.000759
3115.000000	0.000761
3114.000000	0.000758
3113.000000	0.000759
3112.000000	0.000770
3111.000000	0.000784
3110.000000	0.000789
3109.000000	0.000773
3108.000000	0.000735
3107.000000	0.000688
3106.000000	0.000648
3105.000000	0.000622
3104.000000	0.000610
3103.000000	0.000610
3102.000000	0.000619
3101.000000	0.000633
3100.000000	0.000643
3099.000000	0.000646
3098.000000	0.000647
3097.000000	0.000656
3096.000000	0.000674
3095.000000	0.000694
3094.000000	0.000709
3093.000000	0.000722
3092.000000	0.000734
3091.000000	0.000740
3090.000000	0.000732
3089.000000	0.000706
3088.000000	0.000675
3087.000000	0.000656
3086.000000	0.000657
3085.000000	0.000670
3084.000000	0.000678
3083.000000	0.000670
3082.000000	0.000649
3081.000000	0.000629
3080.000000	0.000622
3079.000000	0.000631
3078.000000	0.000644
3077.000000	0.000645
3076.000000	0.000623
3075.000000	0.000585
3074.000000	0.000553
3073.000000	0.000545
3072.000000	0.000562
3071.000000	0.000594
3070.000000	0.000626
3069.000000	0.000648
3068.000000	0.000659
3067.000000	0.000662
3066.000000	0.000659
3065.000000	0.000653
3064.000000	0.000648
3063.000000	0.000643
3062.000000	0.000641
3061.000000	0.000641
3060.000000	0.000643
3059.000000	0.000646
3058.000000	0.000650
3057.000000	0.000652
3056.000000	0.000649
3055.000000	0.000638
3054.000000	0.000621
3053.000000	0.000602
3052.000000	0.000586
3051.000000	0.000578
3050.000000	0.000578
3049.000000	0.000582
3048.000000	0.000586
3047.000000	0.000586
3046.000000	0.000588
3045.000000	0.000595
3044.000000	0.000602
3043.000000	0.000607
3042.000000	0.000610
3041.000000	0.000614
3040.000000	0.000616
3039.000000	0.000605
3038.000000	0.000576
3037.000000	0.000539
3036.000000	0.000514
3035.000000	0.000518
3034.000000	0.000547
3033.000000	0.000586
3032.000000	0.000614
3031.000000	0.000619
3030.000000	0.000604
3029.000000	0.000584
3028.000000	0.000573
3027.000000	0.000577
3026.000000	0.000596
3025.000000	0.000625
3024.000000	0.000655
3023.000000	0.000676
3022.000000	0.000682
3021.000000	0.000674
3020.000000	0.000664
3019.000000	0.000658
3018.000000	0.000656
3017.000000	0.000653
3016.000000	0.000652
3015.000000	0.000651
3014.000000	0.000653
3013.000000	0.000654
3012.000000	0.000655
3011.000000	0.000657
3010.000000	0.000664
3009.000000	0.000679
3008.000000	0.000698
3007.000000	0.000715
3006.000000	0.000725
3005.000000	0.000727
3004.000000	0.000724
3003.000000	0.000725
3002.000000	0.000736
3001.000000	0.000758
3000.000000	0.000786
2999.000000	0.000812
2998.000000	0.000826
2997.000000	0.000829
2996.000000	0.000833
2995.000000	0.000849
2994.000000	0.000887
2993.000000	0.000938
2992.000000	0.000986
2991.000000	0.001021
2990.000000	0.001044
2989.000000	0.001063
2988.000000	0.001083
2987.000000	0.001105
2986.000000	0.001129
2985.000000	0.001160
2984.000000	0.001200
2983.000000	0.001244
2982.000000	0.001291
2981.000000	0.001341
2980.000000	0.001392
2979.000000	0.001440
2978.000000	0.001486
2977.000000	0.001534
2976.000000	0.001587
2975.000000	0.001641
2974.000000	0.001689
2973.000000	0.001735
2972.000000	0.001791
2971.000000	0.001865
2970.000000	0.001952
2969.000000	0.002038
2968.000000	0.002109
2967.000000	0.002161
2966.000000	0.002202
2965.000000	0.002240
2964.000000	0.002283
2963.000000	0.002332
2962.000000	0.002386
2961.000000	0.002435
2960.000000	0.002467
2959.000000	0.002475
2958.000000	0.002465
2957.000000	0.002448
2956.000000	0.002429
2955.000000	0.002404
2954.000000	0.002367
2953.000000	0.002324
2952.000000	0.002289
2951.000000	0.002269
2950.000000	0.002263
2949.000000	0.002263
2948.000000	0.002267
2947.000000	0.002277
2946.000000	0.002295
2945.000000	0.002327
2944.000000	0.002373
2943.000000	0.002430
2942.000000	0.002489
2941.000000	0.002547
2940.000000	0.002604
2939.000000	0.002662
2938.000000	0.002721
2937.000000	0.002781
2936.000000	0.002844
2935.000000	0.002907
2934.000000	0.002966
2933.000000	0.003010
2932.000000	0.003031
2931.000000	0.003034
2930.000000	0.003025
2929.000000	0.003011
2928.000000	0.002992
2927.000000	0.002965
2926.000000	0.002933
2925.000000	0.002903
2924.000000	0.002873
2923.000000	0.002837
2922.000000	0.002785
2921.000000	0.002719
2920.000000	0.002647
2919.000000	0.002580
2918.000000	0.002524
2917.000000	0.002480
2916.000000	0.002449
2915.000000	0.002424
2914.000000	0.002402
2913.000000	0.002385
2912.000000	0.002384
2911.000000	0.002402
2910.000000	0.002426
2909.000000	0.002435
2908.000000	0.002422
2907.000000	0.002395
2906.000000	0.002369
2905.000000	0.002347
2904.000000	0.002319
2903.000000	0.002276
2902.000000	0.002215
2901.000000	0.002148
2900.000000	0.002083
2899.000000	0.002026
2898.000000	0.001976
2897.000000	0.001937
2896.000000	0.001911
2895.000000	0.001893
2894.000000	0.001870
2893.000000	0.001829
2892.000000	0.001771
2891.000000	0.001713
2890.000000	0.001669
2889.000000	0.001646
2888.000000	0.001640
2887.000000	0.001642
2886.000000	0.001650
2885.000000	0.001661
2884.000000	0.001673
2883.000000	0.001684
2882.000000	0.001696
2881.000000	0.001712
2880.000000	0.001740
2879.000000	0.001777
2878.000000	0.001811
2877.000000	0.001838
2876.000000	0.001866
2875.000000	0.001904
2874.000000	0.001951
2873.000000	0.001989
2872.000000	0.002002
2871.000000	0.001991
2870.000000	0.001975
2869.000000	0.001970
2868.000000	0.001981
2867.000000	0.002004
2866.000000	0.002032
2865.000000	0.002057
2864.000000	0.002076
2863.000000	0.002091
2862.000000	0.002108
2861.000000	0.002133
2860.000000	0.002163
2859.000000	0.002192
2858.000000	0.002209
2857.000000	0.002208
2856.000000	0.002188
2855.000000	0.002155
2854.000000	0.002111
2853.000000	0.002052
2852.000000	0.001970
2851.000000	0.001867
2850.000000	0.001764
2849.000000	0.001683
2848.000000	0.001634
2847.000000	0.001607
2846.000000	0.001591
2845.000000	0.001578
2844.000000	0.001565
2843.000000	0.001549
2842.000000	0.001525
2841.000000	0.001493
2840.000000	0.001458
2839.000000	0.001422
2838.000000	0.001386
2837.000000	0.001354
2836.000000	0.001329
2835.000000	0.001312
2834.000000	0.001304
2833.000000	0.001303
2832.000000	0.001306
2831.000000	0.001307
2830.000000	0.001302
2829.000000	0.001294
2828.000000	0.001290
2827.000000	0.001289
2826.000000	0.001284
2825.000000	0.001275
2824.000000	0.001269
2823.000000	0.001270
2822.000000	0.001277
2821.000000	0.001280
2820.000000	0.001272
2819.000000	0.001255
2818.000000	0.001232
2817.000000	0.001207
2816.000000	0.001189
2815.000000	0.001177
2814.000000	0.001166
2813.000000	0.001144
2812.000000	0.001113
2811.000000	0.001087
2810.000000	0.001082
2809.000000	0.001097
2808.000000	0.001120
2807.000000	0.001138
2806.000000	0.001146
2805.000000	0.001145
2804.000000	0.001137
2803.000000	0.001124
2802.000000	0.001107
2801.000000	0.001093
2800.000000	0.001086
2799.000000	0.001086
2798.000000	0.001089
2797.000000	0.001092
2796.000000	0.001094
2795.000000	0.001099
2794.000000	0.001110
2793.000000	0.001126
2792.000000	0.001147
2791.000000	0.001166
2790.000000	0.001178
2789.000000	0.001177
2788.000000	0.001160
2787.000000	0.001137
2786.000000	0.001114
2785.000000	0.001097
2784.000000	0.001086
2783.000000	0.001080
2782.000000	0.001079
2781.000000	0.001078
2780.000000	0.001075
2779.000000	0.001074
2778.000000	0.001081
2777.000000	0.001096
2776.000000	0.001110
2775.000000	0.001115
2774.000000	0.001110
2773.000000	0.001099
2772.000000	0.001090
2771.000000	0.001083
2770.000000	0.001078
2769.000000	0.001075
2768.000000	0.001072
2767.000000	0.001072
2766.000000	0.001074
2765.000000	0.001075
2764.000000	0.001072
2763.000000	0.001065
2762.000000	0.001057
2761.000000	0.001055
2760.000000	0.001063
2759.000000	0.001077
2758.000000	0.001092
2757.000000	0.001102
2756.000000	0.001102
2755.000000	0.001093
2754.000000	0.001083
2753.000000	0.001074
2752.000000	0.001067
2751.000000	0.001057
2750.000000	0.001050
2749.000000	0.001050
2748.000000	0.001060
2747.000000	0.001072
2746.000000	0.001080
2745.000000	0.001086
2744.000000	0.001096
2743.000000	0.001109
2742.000000	0.001115
2741.000000	0.001106
2740.000000	0.001084
2739.000000	0.001059
2738.000000	0.001044
2737.000000	0.001041
2736.000000	0.001043
2735.000000	0.001045
2734.000000	0.001039
2733.000000	0.001027
2732.000000	0.001013
2731.000000	0.001007
2730.000000	0.001015
2729.000000	0.001036
2728.000000	0.001059
2727.000000	0.001070
2726.000000	0.001067
2725.000000	0.001060
2724.000000	0.001061
2723.000000	0.001072
2722.000000	0.001088
2721.000000	0.001098
2720.000000	0.001094
2719.000000	0.001081
2718.000000	0.001067
2717.000000	0.001060
2716.000000	0.001059
2715.000000	0.001055
2714.000000	0.001041
2713.000000	0.001018
2712.000000	0.000996
2711.000000	0.000986
2710.000000	0.000990
2709.000000	0.001007
2708.000000	0.001029
2707.000000	0.001047
2706.000000	0.001054
2705.000000	0.001055
2704.000000	0.001059
2703.000000	0.001070
2702.000000	0.001085
2701.000000	0.001096
2700.000000	0.001101
2699.000000	0.001106
2698.000000	0.001118
2697.000000	0.001133
2696.000000	0.001140
2695.000000	0.001127
2694.000000	0.001097
2693.000000	0.001066
2692.000000	0.001045
2691.000000	0.001037
2690.000000	0.001032
2689.000000	0.001024
2688.000000	0.001014
2687.000000	0.001010
2686.000000	0.001016
2685.000000	0.001032
2684.000000	0.001049
2683.000000	0.001058
2682.000000	0.001054
2681.000000	0.001038
2680.000000	0.001017
2679.000000	0.001000
2678.000000	0.000992
2677.000000	0.000997
2676.000000	0.001010
2675.000000	0.001027
2674.000000	0.001036
2673.000000	0.001038
2672.000000	0.001038
2671.000000	0.001042
2670.000000	0.001050
2669.000000	0.001051
2668.000000	0.001044
2667.000000	0.001036
2666.000000	0.001039
2665.000000	0.001056
2664.000000	0.001081
2663.000000	0.001098
2662.000000	0.001101
2661.000000	0.001091
2660.000000	0.001078
2659.000000	0.001068
2658.000000	0.001066
2657.000000	0.001072
2656.000000	0.001080
2655.000000	0.001088
2654.000000	0.001095
2653.000000	0.001101
2652.000000	0.001107
2651.000000	0.001108
2650.000000	0.001102
2649.000000	0.001091
2648.000000	0.001082
2647.000000	0.001076
2646.000000	0.001067
2645.000000	0.001052
2644.000000	0.001036
2643.000000	0.001029
2642.000000	0.001037
2641.000000	0.001049
2640.000000	0.001053
2639.000000	0.001043
2638.000000	0.001022
2637.000000	0.001004
2636.000000	0.000996
2635.000000	0.001000
2634.000000	0.001008
2633.000000	0.001011
2632.000000	0.001006
2631.000000	0.000994
2630.000000	0.000980
2629.000000	0.000973
2628.000000	0.000975
2627.000000	0.000984
2626.000000	0.000987
2625.000000	0.000975
2624.000000	0.000956
2623.000000	0.000940
2622.000000	0.000934
2621.000000	0.000936
2620.000000	0.000940
2619.000000	0.000945
2618.000000	0.000950
2617.000000	0.000950
2616.000000	0.000941
2615.000000	0.000928
2614.000000	0.000918
2613.000000	0.000917
2612.000000	0.000926
2611.000000	0.000944
2610.000000	0.000972
2609.000000	0.001001
2608.000000	0.001021
2607.000000	0.001021
2606.000000	0.001003
2605.000000	0.000979
2604.000000	0.000960
2603.000000	0.000947
2602.000000	0.000937
2601.000000	0.000923
2600.000000	0.000910
2599.000000	0.000904
2598.000000	0.000910
2597.000000	0.000921
2596.000000	0.000924
2595.000000	0.000911
2594.000000	0.000887
2593.000000	0.000867
2592.000000	0.000859
2591.000000	0.000858
2590.000000	0.000858
2589.000000	0.000858
2588.000000	0.000866
2587.000000	0.000882
2586.000000	0.000902
2585.000000	0.000918
2584.000000	0.000928
2583.000000	0.000932
2582.000000	0.000931
2581.000000	0.000922
2580.000000	0.000904
2579.000000	0.000880
2578.000000	0.000856
2577.000000	0.000842
2576.000000	0.000846
2575.000000	0.000864
2574.000000	0.000881
2573.000000	0.000886
2572.000000	0.000878
2571.000000	0.000865
2570.000000	0.000848
2569.000000	0.000825
2568.000000	0.000799
2567.000000	0.000779
2566.000000	0.000769
2565.000000	0.000763
2564.000000	0.000762
2563.000000	0.000776
2562.000000	0.000813
2561.000000	0.000860
2560.000000	0.000887
2559.000000	0.000881
2558.000000	0.000854
2557.000000	0.000831
2556.000000	0.000823
2555.000000	0.000822
2554.000000	0.000817
2553.000000	0.000803
2552.000000	0.000787
2551.000000	0.000778
2550.000000	0.000787
2549.000000	0.000815
2548.000000	0.000857
2547.000000	0.000903
2546.000000	0.000942
2545.000000	0.000965
2544.000000	0.000971
2543.000000	0.000964
2542.000000	0.000948
2541.000000	0.000926
2540.000000	0.000902
2539.000000	0.000888
2538.000000	0.000893
2537.000000	0.000914
2536.000000	0.000936
2535.000000	0.000949
2534.000000	0.000950
2533.000000	0.000936
2532.000000	0.000903
2531.000000	0.000862
2530.000000	0.000842
2529.000000	0.000862
2528.000000	0.000909
2527.000000	0.000946
2526.000000	0.000945
2525.000000	0.000903
2524.000000	0.000842
2523.000000	0.000799
2522.000000	0.000804
2521.000000	0.000858
2520.000000	0.000935
2519.000000	0.000997
2518.000000	0.001029
2517.000000	0.001041
2516.000000	0.001044
2515.000000	0.001042
2514.000000	0.001039
2513.000000	0.001038
2512.000000	0.001041
2511.000000	0.001045
2510.000000	0.001045
2509.000000	0.001044
2508.000000	0.001036
2507.000000	0.001012
2506.000000	0.000974
2505.000000	0.000936
2504.000000	0.000918
2503.000000	0.000919
2502.000000	0.000931
2501.000000	0.000942
2500.000000	0.000944
2499.000000	0.000927
2498.000000	0.000887
2497.000000	0.000840
2496.000000	0.000809
2495.000000	0.000809
2494.000000	0.000830
2493.000000	0.000855
2492.000000	0.000868
2491.000000	0.000864
2490.000000	0.000837
2489.000000	0.000794
2488.000000	0.000749
2487.000000	0.000722
2486.000000	0.000720
2485.000000	0.000739
2484.000000	0.000771
2483.000000	0.000803
2482.000000	0.000825
2481.000000	0.000829
2480.000000	0.000815
2479.000000	0.000794
2478.000000	0.000781
2477.000000	0.000781
2476.000000	0.000780
2475.000000	0.000765
2474.000000	0.000737
2473.000000	0.000719
2472.000000	0.000730
2471.000000	0.000766
2470.000000	0.000807
2469.000000	0.000839
2468.000000	0.000856
2467.000000	0.000855
2466.000000	0.000833
2465.000000	0.000800
2464.000000	0.000785
2463.000000	0.000807
2462.000000	0.000856
2461.000000	0.000901
2460.000000	0.000918
2459.000000	0.000901
2458.000000	0.000857
2457.000000	0.000804
2456.000000	0.000766
2455.000000	0.000767
2454.000000	0.000810
2453.000000	0.000869
2452.000000	0.000912
2451.000000	0.000922
2450.000000	0.000905
2449.000000	0.000874
2448.000000	0.000836
2447.000000	0.000798
2446.000000	0.000771
2445.000000	0.000763
2444.000000	0.000772
2443.000000	0.000788
2442.000000	0.000794
2441.000000	0.000780
2440.000000	0.000750
2439.000000	0.000724
2438.000000	0.000725
2437.000000	0.000761
2436.000000	0.000821
2435.000000	0.000884
2434.000000	0.000932
2433.000000	0.000955
2432.000000	0.000951
2431.000000	0.000925
2430.000000	0.000887
2429.000000	0.000856
2428.000000	0.000845
2427.000000	0.000862
2426.000000	0.000895
2425.000000	0.000925
2424.000000	0.000934
2423.000000	0.000917
2422.000000	0.000876
2421.000000	0.000821
2420.000000	0.000763
2419.000000	0.000718
2418.000000	0.000693
2417.000000	0.000687
2416.000000	0.000687
2415.000000	0.000683
2414.000000	0.000678
2413.000000	0.000684
2412.000000	0.000711
2411.000000	0.000757
2410.000000	0.000807
2409.000000	0.000840
2408.000000	0.000846
2407.000000	0.000831
2406.000000	0.000812
2405.000000	0.000796
2404.000000	0.000786
2403.000000	0.000784
2402.000000	0.000790
2401.000000	0.000795
2400.000000	0.000784
2399.000000	0.000754
2398.000000	0.000719
2397.000000	0.000703
2396.000000	0.000711
2395.000000	0.000735
2394.000000	0.000760
2393.000000	0.000779
2392.000000	0.000789
2391.000000	0.000797
2390.000000	0.000807
2389.000000	0.000817
2388.000000	0.000812
2387.000000	0.000786
2386.000000	0.000748
2385.000000	0.000713
2384.000000	0.000691
2383.000000	0.000674
2382.000000	0.000652
2381.000000	0.000622
2380.000000	0.000589
2379.000000	0.000567
2378.000000	0.000570
2377.000000	0.000600
2376.000000	0.000639
2375.000000	0.000673
2374.000000	0.000694
2373.000000	0.000697
2372.000000	0.000678
2371.000000	0.000650
2370.000000	0.000634
2369.000000	0.000634
2368.000000	0.000628
2367.000000	0.000613
2366.000000	0.000617
2365.000000	0.000660
2364.000000	0.000723
2363.000000	0.000786
2362.000000	0.000847
2361.000000	0.000896
2360.000000	0.000910
2359.000000	0.000877
2358.000000	0.000819
2357.000000	0.000769
2356.000000	0.000751
2355.000000	0.000768
2354.000000	0.000770
2353.000000	0.000709
2352.000000	0.000619
2351.000000	0.000588
2350.000000	0.000641
2349.000000	0.000733
2348.000000	0.000808
2347.000000	0.000834
2346.000000	0.000825
2345.000000	0.000839
2344.000000	0.000905
2343.000000	0.000992
2342.000000	0.001042
2341.000000	0.001020
2340.000000	0.000956
2339.000000	0.000904
2338.000000	0.000885
2337.000000	0.000886
2336.000000	0.000895
2335.000000	0.000908
2334.000000	0.000903
2333.000000	0.000854
2332.000000	0.000788
2331.000000	0.000753
2330.000000	0.000783
2329.000000	0.000858
2328.000000	0.000959
2327.000000	0.001058
2326.000000	0.001128
2325.000000	0.001144
2324.000000	0.001110
2323.000000	0.001048
2322.000000	0.000990
2321.000000	0.000967
2320.000000	0.000999
2319.000000	0.001076
2318.000000	0.001163
2317.000000	0.001221
2316.000000	0.001232
2315.000000	0.001190
2314.000000	0.001112
2313.000000	0.001025
2312.000000	0.000961
2311.000000	0.000926
2310.000000	0.000916
2309.000000	0.000930
2308.000000	0.000971
2307.000000	0.001014
2306.000000	0.001019
2305.000000	0.000972
2304.000000	0.000909
2303.000000	0.000874
2302.000000	0.000875
2301.000000	0.000884
2300.000000	0.000887
2299.000000	0.000890
2298.000000	0.000908
2297.000000	0.000944
2296.000000	0.000992
2295.000000	0.001033
2294.000000	0.001052
2293.000000	0.001043
2292.000000	0.001022
2291.000000	0.001005
2290.000000	0.001000
2289.000000	0.001006
2288.000000	0.001029
2287.000000	0.001073
2286.000000	0.001126
2285.000000	0.001169
2284.000000	0.001199
2283.000000	0.001212
2282.000000	0.001192
2281.000000	0.001126
2280.000000	0.001029
2279.000000	0.000943
2278.000000	0.000888
2277.000000	0.000851
2276.000000	0.000818
2275.000000	0.000802
2274.000000	0.000824
2273.000000	0.000870
2272.000000	0.000907
2271.000000	0.000920
2270.000000	0.000931
2269.000000	0.000957
2268.000000	0.000984
2267.000000	0.000976
2266.000000	0.000920
2265.000000	0.000849
2264.000000	0.000819
2263.000000	0.000859
2262.000000	0.000946
2261.000000	0.001029
2260.000000	0.001079
2259.000000	0.001093
2258.000000	0.001086
2257.000000	0.001064
2256.000000	0.001036
2255.000000	0.001015
2254.000000	0.001006
2253.000000	0.000997
2252.000000	0.000978
2251.000000	0.000949
2250.000000	0.000916
2249.000000	0.000877
2248.000000	0.000825
2247.000000	0.000771
2246.000000	0.000742
2245.000000	0.000770
2244.000000	0.000868
2243.000000	0.001008
2242.000000	0.001131
2241.000000	0.001187
2240.000000	0.001169
2239.000000	0.001111
2238.000000	0.001041
2237.000000	0.000958
2236.000000	0.000860
2235.000000	0.000779
2234.000000	0.000752
2233.000000	0.000781
2232.000000	0.000827
2231.000000	0.000858
2230.000000	0.000871
2229.000000	0.000863
2228.000000	0.000824
2227.000000	0.000772
2226.000000	0.000766
2225.000000	0.000845
2224.000000	0.000959
2223.000000	0.001010
2222.000000	0.000966
2221.000000	0.000893
2220.000000	0.000860
2219.000000	0.000853
2218.000000	0.000808
2217.000000	0.000714
2216.000000	0.000634
2215.000000	0.000617
2214.000000	0.000642
2213.000000	0.000648
2212.000000	0.000605
2211.000000	0.000544
2210.000000	0.000523
2209.000000	0.000572
2208.000000	0.000665
2207.000000	0.000740
2206.000000	0.000749
2205.000000	0.000694
2204.000000	0.000629
2203.000000	0.000605
2202.000000	0.000624
2201.000000	0.000640
2200.000000	0.000607
2199.000000	0.000528
2198.000000	0.000468
2197.000000	0.000496
2196.000000	0.000598
2195.000000	0.000687
2194.000000	0.000708
2193.000000	0.000699
2192.000000	0.000729
2191.000000	0.000783
2190.000000	0.000788
2189.000000	0.000732
2188.000000	0.000698
2187.000000	0.000758
2186.000000	0.000883
2185.000000	0.001005
2184.000000	0.001103
2183.000000	0.001184
2182.000000	0.001203
2181.000000	0.001097
2180.000000	0.000890
2179.000000	0.000695
2178.000000	0.000607
2177.000000	0.000625
2176.000000	0.000683
2175.000000	0.000720
2174.000000	0.000698
2173.000000	0.000595
2172.000000	0.000437
2171.000000	0.000313
2170.000000	0.000332
2169.000000	0.000533
2168.000000	0.000829
2167.000000	0.001059
2166.000000	0.001128
2165.000000	0.001099
2164.000000	0.001137
2163.000000	0.001318
2162.000000	0.001526
2161.000000	0.001578
2160.000000	0.001414
2159.000000	0.001141
2158.000000	0.000876
2157.000000	0.000639
2156.000000	0.000411
2155.000000	0.000227
2154.000000	0.000148
2153.000000	0.000198
2152.000000	0.000343
2151.000000	0.000500
2150.000000	0.000572
2149.000000	0.000503
2148.000000	0.000336
2147.000000	0.000188
2146.000000	0.000157
2145.000000	0.000250
2144.000000	0.000404
2143.000000	0.000555
2142.000000	0.000663
2141.000000	0.000705
2140.000000	0.000670
2139.000000	0.000585
2138.000000	0.000508
2137.000000	0.000484
2136.000000	0.000502
2135.000000	0.000520
2134.000000	0.000518
2133.000000	0.000517
2132.000000	0.000534
2131.000000	0.000538
2130.000000	0.000486
2129.000000	0.000394
2128.000000	0.000341
2127.000000	0.000380
2126.000000	0.000480
2125.000000	0.000565
2124.000000	0.000612
2123.000000	0.000659
2122.000000	0.000727
2121.000000	0.000783
2120.000000	0.000786
2119.000000	0.000743
2118.000000	0.000697
2117.000000	0.000677
2116.000000	0.000695
2115.000000	0.000753
2114.000000	0.000832
2113.000000	0.000887
2112.000000	0.000872
2111.000000	0.000800
2110.000000	0.000743
2109.000000	0.000758
2108.000000	0.000835
2107.000000	0.000899
2106.000000	0.000887
2105.000000	0.000804
2104.000000	0.000720
2103.000000	0.000697
2102.000000	0.000732
2101.000000	0.000769
2100.000000	0.000772
2099.000000	0.000757
2098.000000	0.000753
2097.000000	0.000752
2096.000000	0.000730
2095.000000	0.000701
2094.000000	0.000709
2093.000000	0.000772
2092.000000	0.000859
2091.000000	0.000920
2090.000000	0.000927
2089.000000	0.000888
2088.000000	0.000838
2087.000000	0.000815
2086.000000	0.000828
2085.000000	0.000853
2084.000000	0.000876
2083.000000	0.000918
2082.000000	0.001000
2081.000000	0.001086
2080.000000	0.001115
2079.000000	0.001086
2078.000000	0.001070
2077.000000	0.001109
2076.000000	0.001157
2075.000000	0.001135
2074.000000	0.001037
2073.000000	0.000932
2072.000000	0.000883
2071.000000	0.000895
2070.000000	0.000936
2069.000000	0.000974
2068.000000	0.000993
2067.000000	0.000994
2066.000000	0.000989
2065.000000	0.000980
2064.000000	0.000948
2063.000000	0.000880
2062.000000	0.000790
2061.000000	0.000715
2060.000000	0.000681
2059.000000	0.000687
2058.000000	0.000713
2057.000000	0.000743
2056.000000	0.000768
2055.000000	0.000806
2054.000000	0.000890
2053.000000	0.001027
2052.000000	0.001162
2051.000000	0.001208
2050.000000	0.001122
2049.000000	0.000950
2048.000000	0.000817
2047.000000	0.000843
2046.000000	0.001052
2045.000000	0.001337
2044.000000	0.001529
2043.000000	0.001509
2042.000000	0.001264
2041.000000	0.000865
2040.000000	0.000444
2039.000000	0.000177
2038.000000	0.000201
2037.000000	0.000485
2036.000000	0.000802
2035.000000	0.000921
2034.000000	0.000808
2033.000000	0.000591
2032.000000	0.000368
2031.000000	0.000156
2030.000000	-0.000015
2029.000000	-0.000063
2028.000000	0.000029
2027.000000	0.000182
2026.000000	0.000301
2025.000000	0.000344
2024.000000	0.000285
2023.000000	0.000128
2022.000000	-0.000030
2021.000000	-0.000035
2020.000000	0.000141
2019.000000	0.000340
2018.000000	0.000391
2017.000000	0.000291
2016.000000	0.000189
2015.000000	0.000186
2014.000000	0.000269
2013.000000	0.000387
2012.000000	0.000524
2011.000000	0.000686
2010.000000	0.000860
2009.000000	0.001002
2008.000000	0.001068
2007.000000	0.001059
2006.000000	0.001036
2005.000000	0.001048
2004.000000	0.001063
2003.000000	0.001005
2002.000000	0.000863
2001.000000	0.000728
2000.000000	0.000694
1999.000000	0.000754
1998.000000	0.000823
1997.000000	0.000842
1996.000000	0.000814
1995.000000	0.000769
1994.000000	0.000733
1993.000000	0.000715
1992.000000	0.000694
1991.000000	0.000635
1990.000000	0.000560
1989.000000	0.000566
1988.000000	0.000730
1987.000000	0.001002
1986.000000	0.001231
1985.000000	0.001298
1984.000000	0.001203
1983.000000	0.001028
1982.000000	0.000855
1981.000000	0.000732
1980.000000	0.000661
1979.000000	0.000589
1978.000000	0.000448
1977.000000	0.000258
1976.000000	0.000151
1975.000000	0.000257
1974.000000	0.000564
1973.000000	0.000922
1972.000000	0.001165
1971.000000	0.001250
1970.000000	0.001260
1969.000000	0.001288
1968.000000	0.001338
1967.000000	0.001336
1966.000000	0.001231
1965.000000	0.001038
1964.000000	0.000795
1963.000000	0.000523
1962.000000	0.000255
1961.000000	0.000056
1960.000000	-0.000036
1959.000000	-0.000051
1958.000000	-0.000032
1957.000000	0.000031
1956.000000	0.000167
1955.000000	0.000354
1954.000000	0.000514
1953.000000	0.000585
1952.000000	0.000575
1951.000000	0.000541
1950.000000	0.000532
1949.000000	0.000559
1948.000000	0.000621
1947.000000	0.000716
1946.000000	0.000826
1945.000000	0.000913
1944.000000	0.000932
1943.000000	0.000874
1942.000000	0.000788
1941.000000	0.000728
1940.000000	0.000696
1939.000000	0.000657
1938.000000	0.000608
1937.000000	0.000592
1936.000000	0.000631
1935.000000	0.000681
1934.000000	0.000681
1933.000000	0.000623
1932.000000	0.000563
1931.000000	0.000551
1930.000000	0.000580
1929.000000	0.000607
1928.000000	0.000608
1927.000000	0.000589
1926.000000	0.000570
1925.000000	0.000565
1924.000000	0.000576
1923.000000	0.000599
1922.000000	0.000625
1921.000000	0.000647
1920.000000	0.000669
1919.000000	0.000689
1918.000000	0.000695
1917.000000	0.000669
1916.000000	0.000619
1915.000000	0.000578
1914.000000	0.000576
1913.000000	0.000618
1912.000000	0.000673
1911.000000	0.000711
1910.000000	0.000722
1909.000000	0.000715
1908.000000	0.000694
1907.000000	0.000661
1906.000000	0.000636
1905.000000	0.000652
1904.000000	0.000715
1903.000000	0.000778
1902.000000	0.000789
1901.000000	0.000759
1900.000000	0.000742
1899.000000	0.000759
1898.000000	0.000775
1897.000000	0.000754
1896.000000	0.000716
1895.000000	0.000706
1894.000000	0.000728
1893.000000	0.000742
1892.000000	0.000713
1891.000000	0.000648
1890.000000	0.000588
1889.000000	0.000569
1888.000000	0.000593
1887.000000	0.000631
1886.000000	0.000658
1885.000000	0.000676
1884.000000	0.000702
1883.000000	0.000731
1882.000000	0.000732
1881.000000	0.000691
1880.000000	0.000634
1879.000000	0.000595
1878.000000	0.000581
1877.000000	0.000567
1876.000000	0.000537
1875.000000	0.000500
1874.000000	0.000478
1873.000000	0.000476
1872.000000	0.000486
1871.000000	0.000492
1870.000000	0.000497
1869.000000	0.000513
1868.000000	0.000546
1867.000000	0.000581
1866.000000	0.000594
1865.000000	0.000587
1864.000000	0.000580
1863.000000	0.000581
1862.000000	0.000574
1861.000000	0.000542
1860.000000	0.000499
1859.000000	0.000476
1858.000000	0.000482
1857.000000	0.000509
1856.000000	0.000546
1855.000000	0.000588
1854.000000	0.000631
1853.000000	0.000673
1852.000000	0.000716
1851.000000	0.000742
1850.000000	0.000718
1849.000000	0.000633
1848.000000	0.000523
1847.000000	0.000444
1846.000000	0.000421
1845.000000	0.000449
1844.000000	0.000505
1843.000000	0.000559
1842.000000	0.000584
1841.000000	0.000573
1840.000000	0.000543
1839.000000	0.000523
1838.000000	0.000520
1837.000000	0.000508
1836.000000	0.000467
1835.000000	0.000416
1834.000000	0.000392
1833.000000	0.000411
1832.000000	0.000454
1831.000000	0.000499
1830.000000	0.000536
1829.000000	0.000560
1828.000000	0.000559
1827.000000	0.000528
1826.000000	0.000482
1825.000000	0.000453
1824.000000	0.000461
1823.000000	0.000495
1822.000000	0.000527
1821.000000	0.000533
1820.000000	0.000510
1819.000000	0.000483
1818.000000	0.000476
1817.000000	0.000491
1816.000000	0.000508
1815.000000	0.000508
1814.000000	0.000482
1813.000000	0.000438
1812.000000	0.000396
1811.000000	0.000380
1810.000000	0.000398
1809.000000	0.000428
1808.000000	0.000455
1807.000000	0.000487
1806.000000	0.000534
1805.000000	0.000589
1804.000000	0.000638
1803.000000	0.000681
1802.000000	0.000725
1801.000000	0.000764
1800.000000	0.000788
1799.000000	0.000806
1798.000000	0.000829
1797.000000	0.000860
1796.000000	0.000891
1795.000000	0.000914
1794.000000	0.000912
1793.000000	0.000873
1792.000000	0.000813
1791.000000	0.000764
1790.000000	0.000735
1789.000000	0.000698
1788.000000	0.000637
1787.000000	0.000563
1786.000000	0.000503
1785.000000	0.000475
1784.000000	0.000475
1783.000000	0.000488
1782.000000	0.000503
1781.000000	0.000521
1780.000000	0.000543
1779.000000	0.000565
1778.000000	0.000579
1777.000000	0.000582
1776.000000	0.000578
1775.000000	0.000577
1774.000000	0.000589
1773.000000	0.000628
1772.000000	0.000673
1771.000000	0.000682
1770.000000	0.000648
1769.000000	0.000599
1768.000000	0.000567
1767.000000	0.000565
1766.000000	0.000591
1765.000000	0.000629
1764.000000	0.000676
1763.000000	0.000740
1762.000000	0.000839
1761.000000	0.000968
1760.000000	0.001095
1759.000000	0.001212
1758.000000	0.001345
1757.000000	0.001542
1756.000000	0.001807
1755.000000	0.002090
1754.000000	0.002368
1753.000000	0.002666
1752.000000	0.003018
1751.000000	0.003408
1750.000000	0.003793
1749.000000	0.004163
1748.000000	0.004511
1747.000000	0.004803
1746.000000	0.005031
1745.000000	0.005227
1744.000000	0.005417
1743.000000	0.005593
1742.000000	0.005737
1741.000000	0.005853
1740.000000	0.005945
1739.000000	0.006004
1738.000000	0.006017
1737.000000	0.005985
1736.000000	0.005906
1735.000000	0.005778
1734.000000	0.005614
1733.000000	0.005430
1732.000000	0.005216
1731.000000	0.004953
1730.000000	0.004656
1729.000000	0.004357
1728.000000	0.004071
1727.000000	0.003787
1726.000000	0.003506
1725.000000	0.003247
1724.000000	0.003019
1723.000000	0.002816
1722.000000	0.002627
1721.000000	0.002445
1720.000000	0.002258
1719.000000	0.002070
1718.000000	0.001924
1717.000000	0.001833
1716.000000	0.001752
1715.000000	0.001658
1714.000000	0.001565
1713.000000	0.001491
1712.000000	0.001440
1711.000000	0.001398
1710.000000	0.001356
1709.000000	0.001309
1708.000000	0.001249
1707.000000	0.001169
1706.000000	0.001095
1705.000000	0.001062
1704.000000	0.001076
1703.000000	0.001115
1702.000000	0.001150
1701.000000	0.001171
1700.000000	0.001188
1699.000000	0.001210
1698.000000	0.001214
1697.000000	0.001192
1696.000000	0.001167
1695.000000	0.001184
1694.000000	0.001234
1693.000000	0.001275
1692.000000	0.001293
1691.000000	0.001297
1690.000000	0.001298
1689.000000	0.001309
1688.000000	0.001327
1687.000000	0.001343
1686.000000	0.001343
1685.000000	0.001321
1684.000000	0.001295
1683.000000	0.001292
1682.000000	0.001307
1681.000000	0.001325
1680.000000	0.001339
1679.000000	0.001349
1678.000000	0.001360
1677.000000	0.001375
1676.000000	0.001384
1675.000000	0.001376
1674.000000	0.001363
1673.000000	0.001362
1672.000000	0.001369
1671.000000	0.001380
1670.000000	0.001400
1669.000000	0.001436
1668.000000	0.001477
1667.000000	0.001497
1666.000000	0.001500
1665.000000	0.001502
1664.000000	0.001509
1663.000000	0.001518
1662.000000	0.001531
1661.000000	0.001556
1660.000000	0.001584
1659.000000	0.001598
1658.000000	0.001593
1657.000000	0.001583
1656.000000	0.001589
1655.000000	0.001600
1654.000000	0.001597
1653.000000	0.001575
1652.000000	0.001588
1651.000000	0.001596
1650.000000	0.001593
1649.000000	0.001597
1648.000000	0.001616
1647.000000	0.001629
1646.000000	0.001629
1645.000000	0.001631
1644.000000	0.001633
1643.000000	0.001631
1642.000000	0.001621
1641.000000	0.001606
1640.000000	0.001587
1639.000000	0.001567
1638.000000	0.001552
1637.000000	0.001535
1636.000000	0.001506
1635.000000	0.001467
1634.000000	0.001444
1633.000000	0.001440
1632.000000	0.001442
1631.000000	0.001432
1630.000000	0.001395
1629.000000	0.001341
1628.000000	0.001304
1627.000000	0.001304
1626.000000	0.001326
1625.000000	0.001349
1624.000000	0.001352
1623.000000	0.001322
1622.000000	0.001273
1621.000000	0.001238
1620.000000	0.001229
1619.000000	0.001234
1618.000000	0.001234
1617.000000	0.001215
1616.000000	0.001177
1615.000000	0.001128
1614.000000	0.001076
1613.000000	0.001036
1612.000000	0.001011
1611.000000	0.000992
1610.000000	0.000977
1609.000000	0.000971
1608.000000	0.000967
1607.000000	0.000942
1606.000000	0.000896
1605.000000	0.000856
1604.000000	0.000841
1603.000000	0.000838
1602.000000	0.000828
1601.000000	0.000808
1600.000000	0.000787
1599.000000	0.000767
1598.000000	0.000749
1597.000000	0.000742
1596.000000	0.000753
1595.000000	0.000774
1594.000000	0.000795
1593.000000	0.000811
1592.000000	0.000818
1591.000000	0.000808
1590.000000	0.000779
1589.000000	0.000750
1588.000000	0.000740
1587.000000	0.000745
1586.000000	0.000757
1585.000000	0.000769
1584.000000	0.000779
1583.000000	0.000771
1582.000000	0.000741
1581.000000	0.000705
1580.000000	0.000689
1579.000000	0.000700
1578.000000	0.000727
1577.000000	0.000758
1576.000000	0.000782
1575.000000	0.000796
1574.000000	0.000808
1573.000000	0.000828
1572.000000	0.000853
1571.000000	0.000865
1570.000000	0.000864
1569.000000	0.000878
1568.000000	0.000914
1567.000000	0.000946
1566.000000	0.000964
1565.000000	0.000975
1564.000000	0.000985
1563.000000	0.000995
1562.000000	0.001009
1561.000000	0.001037
1560.000000	0.001083
1559.000000	0.001122
1558.000000	0.001102
1557.000000	0.001102
1556.000000	0.001122
1555.000000	0.001145
1554.000000	0.001172
1553.000000	0.001205
1552.000000	0.001233
1551.000000	0.001255
1550.000000	0.001285
1549.000000	0.001327
1548.000000	0.001367
1547.000000	0.001388
1546.000000	0.001405
1545.000000	0.001456
1544.000000	0.001548
1543.000000	0.001657
1542.000000	0.001768
1541.000000	0.001871
1540.000000	0.001938
1539.000000	0.001969
1538.000000	0.001998
1537.000000	0.002040
1536.000000	0.002097
1535.000000	0.002166
1534.000000	0.002250
1533.000000	0.002342
1532.000000	0.002420
1531.000000	0.002474
1530.000000	0.002504
1529.000000	0.002519
1528.000000	0.002543
1527.000000	0.002602
1526.000000	0.002697
1525.000000	0.002799
1524.000000	0.002880
1523.000000	0.002937
1522.000000	0.002991
1521.000000	0.003046
1520.000000	0.003086
1519.000000	0.003114
1518.000000	0.003157
1517.000000	0.003235
1516.000000	0.003333
1515.000000	0.003420
1514.000000	0.003493
1513.000000	0.003566
1512.000000	0.003644
1511.000000	0.003722
1510.000000	0.003801
1509.000000	0.003894
1508.000000	0.004008
1507.000000	0.004117
1506.000000	0.004216
1505.000000	0.004322
1504.000000	0.004386
1503.000000	0.004419
1502.000000	0.004460
1501.000000	0.004526
1500.000000	0.004597
1499.000000	0.004657
1498.000000	0.004733
1497.000000	0.004860
1496.000000	0.005011
1495.000000	0.005140
1494.000000	0.005244
1493.000000	0.005339
1492.000000	0.005434
1491.000000	0.005541
1490.000000	0.005679
1489.000000	0.005832
1488.000000	0.005967
1487.000000	0.006084
1486.000000	0.006192
1485.000000	0.006300
1484.000000	0.006406
1483.000000	0.006511
1482.000000	0.006638
1481.000000	0.006799
1480.000000	0.006969
1479.000000	0.007108
1478.000000	0.007218
1477.000000	0.007327
1476.000000	0.007454
1475.000000	0.007605
1474.000000	0.007798
1473.000000	0.008042
1472.000000	0.008281
1471.000000	0.008471
1470.000000	0.008630
1469.000000	0.008779
1468.000000	0.008914
1467.000000	0.009038
1466.000000	0.009172
1465.000000	0.009336
1464.000000	0.009498
1463.000000	0.009616
1462.000000	0.009696
1461.000000	0.009764
1460.000000	0.009832
1459.000000	0.009926
1458.000000	0.010117
1457.000000	0.010420
1456.000000	0.010671
1455.000000	0.010773
1454.000000	0.010796
1453.000000	0.010821
1452.000000	0.010871
1451.000000	0.010934
1450.000000	0.011010
1449.000000	0.011113
1448.000000	0.011235
1447.000000	0.011355
1446.000000	0.011467
1445.000000	0.011577
1444.000000	0.011679
1443.000000	0.011771
1442.000000	0.011866
1441.000000	0.011977
1440.000000	0.012093
1439.000000	0.012203
1438.000000	0.012342
1437.000000	0.012556
1436.000000	0.012790
1435.000000	0.012947
1434.000000	0.013033
1433.000000	0.013102
1432.000000	0.013178
1431.000000	0.013265
1430.000000	0.013381
1429.000000	0.013546
1428.000000	0.013729
1427.000000	0.013882
1426.000000	0.014003
1425.000000	0.014117
1424.000000	0.014210
1423.000000	0.014242
1422.000000	0.014226
1421.000000	0.014224
1420.000000	0.014278
1419.000000	0.014366
1418.000000	0.014426
1417.000000	0.014432
1416.000000	0.014390
1415.000000	0.014313
1414.000000	0.014226
1413.000000	0.014147
1412.000000	0.014060
1411.000000	0.013936
1410.000000	0.013768
1409.000000	0.013566
1408.000000	0.013328
1407.000000	0.013065
1406.000000	0.012813
1405.000000	0.012612
1404.000000	0.012461
1403.000000	0.012338
1402.000000	0.012234
1401.000000	0.012151
1400.000000	0.012084
1399.000000	0.012019
1398.000000	0.011948
1397.000000	0.011868
1396.000000	0.011772
1395.000000	0.011658
1394.000000	0.011552
1393.000000	0.011477
1392.000000	0.011408
1391.000000	0.011316
1390.000000	0.011200
1389.000000	0.011071
1388.000000	0.010938
1387.000000	0.010803
1386.000000	0.010673
1385.000000	0.010551
1384.000000	0.010425
1383.000000	0.010293
1382.000000	0.010165
1381.000000	0.010045
1380.000000	0.009917
1379.000000	0.009774
1378.000000	0.009623
1377.000000	0.009477
1376.000000	0.009332
1375.000000	0.009181
1374.000000	0.009023
1373.000000	0.008866
1372.000000	0.008716
1371.000000	0.008571
1370.000000	0.008432
1369.000000	0.008310
1368.000000	0.008208
1367.000000	0.008120
1366.000000	0.008034
1365.000000	0.007942
1364.000000	0.007838
1363.000000	0.007724
1362.000000	0.007609
1361.000000	0.007508
1360.000000	0.007439
1359.000000	0.007404
1358.000000	0.007391
1357.000000	0.007375
1356.000000	0.007341
1355.000000	0.007292
1354.000000	0.007240
1353.000000	0.007185
1352.000000	0.007117
1351.000000	0.007034
1350.000000	0.006944
1349.000000	0.006854
1348.000000	0.006776
1347.000000	0.006715
1346.000000	0.006673
1345.000000	0.006644
1344.000000	0.006617
1343.000000	0.006585
1342.000000	0.006549
1341.000000	0.006518
1340.000000	0.006509
1339.000000	0.006528
1338.000000	0.006569
1337.000000	0.006615
1336.000000	0.006650
1335.000000	0.006666
1334.000000	0.006654
1333.000000	0.006607
1332.000000	0.006536
1331.000000	0.006465
1330.000000	0.006412
1329.000000	0.006369
1328.000000	0.006318
1327.000000	0.006257
1326.000000	0.006193
1325.000000	0.006133
1324.000000	0.006072
1323.000000	0.006009
1322.000000	0.005946
1321.000000	0.005884
1320.000000	0.005818
1319.000000	0.005743
1318.000000	0.005661
1317.000000	0.005581
1316.000000	0.005505
1315.000000	0.005434
1314.000000	0.005368
1313.000000	0.005308
1312.000000	0.005247
1311.000000	0.005184
1310.000000	0.005119
1309.000000	0.005061
1308.000000	0.005017
1307.000000	0.004984
1306.000000	0.004948
1305.000000	0.004890
1304.000000	0.004807
1303.000000	0.004712
1302.000000	0.004626
1301.000000	0.004554
1300.000000	0.004489
1299.000000	0.004424
1298.000000	0.004360
1297.000000	0.004298
1296.000000	0.004236
1295.000000	0.004172
1294.000000	0.004113
1293.000000	0.004067
1292.000000	0.004042
1291.000000	0.004040
1290.000000	0.004043
1289.000000	0.004031
1288.000000	0.003992
1287.000000	0.003937
1286.000000	0.003884
1285.000000	0.003836
1284.000000	0.003786
1283.000000	0.003735
1282.000000	0.003692
1281.000000	0.003664
1280.000000	0.003655
1279.000000	0.003665
1278.000000	0.003689
1277.000000	0.003712
1276.000000	0.003729
1275.000000	0.003751
1274.000000	0.003794
1273.000000	0.003864
1272.000000	0.003951
1271.000000	0.004053
1270.000000	0.004170
1269.000000	0.004301
1268.000000	0.004432
1267.000000	0.004551
1266.000000	0.004661
1265.000000	0.004766
1264.000000	0.004859
1263.000000	0.004938
1262.000000	0.005013
1261.000000	0.005108
1260.000000	0.005230
1259.000000	0.005369
1258.000000	0.005505
1257.000000	0.005624
1256.000000	0.005716
1255.000000	0.005774
1254.000000	0.005799
1253.000000	0.005807
1252.000000	0.005812
1251.000000	0.005817
1250.000000	0.005812
1249.000000	0.005788
1248.000000	0.005748
1247.000000	0.005703
1246.000000	0.005666
1245.000000	0.005646
1244.000000	0.005645
1243.000000	0.005651
1242.000000	0.005641
1241.000000	0.005602
1240.000000	0.005541
1239.000000	0.005477
1238.000000	0.005421
1237.000000	0.005363
1236.000000	0.005292
1235.000000	0.005210
1234.000000	0.005128
1233.000000	0.005055
1232.000000	0.004988
1231.000000	0.004924
1230.000000	0.004860
1229.000000	0.004782
1228.000000	0.004672
1227.000000	0.004525
1226.000000	0.004356
1225.000000	0.004184
1224.000000	0.004016
1223.000000	0.003851
1222.000000	0.003689
1221.000000	0.003537
1220.000000	0.003406
1219.000000	0.003301
1218.000000	0.003222
1217.000000	0.003158
1216.000000	0.003100
1215.000000	0.003040
1214.000000	0.002975
1213.000000	0.002903
1212.000000	0.002832
1211.000000	0.002783
1210.000000	0.002768
1209.000000	0.002783
1208.000000	0.002802
1207.000000	0.002810
1206.000000	0.002808
1205.000000	0.002809
1204.000000	0.002827
1203.000000	0.002856
1202.000000	0.002882
1201.000000	0.002891
1200.000000	0.002884
1199.000000	0.002882
1198.000000	0.002908
1197.000000	0.002973
1196.000000	0.003065
1195.000000	0.003167
1194.000000	0.003267
1193.000000	0.003361
1192.000000	0.003450
1191.000000	0.003537
1190.000000	0.003625
1189.000000	0.003712
1188.000000	0.003799
1187.000000	0.003890
1186.000000	0.003992
1185.000000	0.004105
1184.000000	0.004224
1183.000000	0.004341
1182.000000	0.004457
1181.000000	0.004584
1180.000000	0.004732
1179.000000	0.004903
1178.000000	0.005083
1177.000000	0.005260
1176.000000	0.005429
1175.000000	0.005590
1174.000000	0.005741
1173.000000	0.005884
1172.000000	0.006024
1171.000000	0.006167
1170.000000	0.006312
1169.000000	0.006454
1168.000000	0.006588
1167.000000	0.006715
1166.000000	0.006828
1165.000000	0.006913
1164.000000	0.006959
1163.000000	0.006967
1162.000000	0.006955
1161.000000	0.006934
1160.000000	0.006904
1159.000000	0.006869
1158.000000	0.006833
1157.000000	0.006795
1156.000000	0.006743
1155.000000	0.006664
1154.000000	0.006559
1153.000000	0.006439
1152.000000	0.006311
1151.000000	0.006172
1150.000000	0.006020
1149.000000	0.005852
1148.000000	0.005669
1147.000000	0.005472
1146.000000	0.005263
1145.000000	0.005043
1144.000000	0.004823
1143.000000	0.004619
1142.000000	0.004436
1141.000000	0.004275
1140.000000	0.004130
1139.000000	0.004000
1138.000000	0.003881
1137.000000	0.003759
1136.000000	0.003625
1135.000000	0.003484
1134.000000	0.003353
1133.000000	0.003242
1132.000000	0.003153
1131.000000	0.003086
1130.000000	0.003038
1129.000000	0.002992
1128.000000	0.002934
1127.000000	0.002871
1126.000000	0.002824
1125.000000	0.002811
1124.000000	0.002832
1123.000000	0.002875
1122.000000	0.002935
1121.000000	0.003010
1120.000000	0.003098
1119.000000	0.003197
1118.000000	0.003309
1117.000000	0.003439
1116.000000	0.003588
1115.000000	0.003748
1114.000000	0.003905
1113.000000	0.004053
1112.000000	0.004195
1111.000000	0.004331
1110.000000	0.004440
1109.000000	0.004496
1108.000000	0.004491
1107.000000	0.004457
1106.000000	0.004432
1105.000000	0.004425
1104.000000	0.004415
1103.000000	0.004387
1102.000000	0.004357
1101.000000	0.004352
1100.000000	0.004382
1099.000000	0.004445
1098.000000	0.004520
1097.000000	0.004584
1096.000000	0.004625
1095.000000	0.004653
1094.000000	0.004690
1093.000000	0.004736
1092.000000	0.004763
1091.000000	0.004744
1090.000000	0.004686
1089.000000	0.004607
1088.000000	0.004516
1087.000000	0.004408
1086.000000	0.004276
1085.000000	0.004126
1084.000000	0.003962
1083.000000	0.003792
1082.000000	0.003628
1081.000000	0.003482
1080.000000	0.003359
1079.000000	0.003260
1078.000000	0.003184
1077.000000	0.003128
1076.000000	0.003081
1075.000000	0.003031
1074.000000	0.002972
1073.000000	0.002909
1072.000000	0.002847
1071.000000	0.002788
1070.000000	0.002726
1069.000000	0.002667
1068.000000	0.002625
1067.000000	0.002614
1066.000000	0.002630
1065.000000	0.002655
1064.000000	0.002667
1063.000000	0.002663
1062.000000	0.002657
1061.000000	0.002657
1060.000000	0.002656
1059.000000	0.002641
1058.000000	0.002603
1057.000000	0.002536
1056.000000	0.002437
1055.000000	0.002315
1054.000000	0.002199
1053.000000	0.002127
1052.000000	0.002115
1051.000000	0.002138
1050.000000	0.002153
1049.000000	0.002140
1048.000000	0.002116
1047.000000	0.002117
1046.000000	0.002159
1045.000000	0.002233
1044.000000	0.002320
1043.000000	0.002396
1042.000000	0.002439
1041.000000	0.002450
1040.000000	0.002458
1039.000000	0.002493
1038.000000	0.002550
1037.000000	0.002587
1036.000000	0.002575
1035.000000	0.002525
1034.000000	0.002474
1033.000000	0.002435
1032.000000	0.002391
1031.000000	0.002329
1030.000000	0.002263
1029.000000	0.002227
1028.000000	0.002237
1027.000000	0.002281
1026.000000	0.002332
1025.000000	0.002371
1024.000000	0.002407
1023.000000	0.002455
1022.000000	0.002520
1021.000000	0.002586
1020.000000	0.002628
1019.000000	0.002643
1018.000000	0.002637
1017.000000	0.002623
1016.000000	0.002604
1015.000000	0.002580
1014.000000	0.002553
1013.000000	0.002525
1012.000000	0.002495
1011.000000	0.002460
1010.000000	0.002423
1009.000000	0.002397
1008.000000	0.002392
1007.000000	0.002397
1006.000000	0.002381
1005.000000	0.002320
1004.000000	0.002222
1003.000000	0.002127
1002.000000	0.002069
1001.000000	0.002057
1000.000000	0.002072
999.000000	0.002088
998.000000	0.002081
997.000000	0.002046
996.000000	0.002003
995.000000	0.001978
994.000000	0.001974
993.000000	0.001968
992.000000	0.001941
991.000000	0.001904
990.000000	0.001886
989.000000	0.001890
988.000000	0.001898
987.000000	0.001897
986.000000	0.001894
985.000000	0.001906
984.000000	0.001933
983.000000	0.001958
982.000000	0.001959
981.000000	0.001937
980.000000	0.001916
979.000000	0.001919
978.000000	0.001954
977.000000	0.002005
976.000000	0.002056
975.000000	0.002095
974.000000	0.002117
973.000000	0.002127
972.000000	0.002140
971.000000	0.002168
970.000000	0.002208
969.000000	0.002239
968.000000	0.002245
967.000000	0.002230
966.000000	0.002212
965.000000	0.002201
964.000000	0.002197
963.000000	0.002189
962.000000	0.002168
961.000000	0.002129
960.000000	0.002082
959.000000	0.002039
958.000000	0.001999
957.000000	0.001950
956.000000	0.001895
955.000000	0.001850
954.000000	0.001825
953.000000	0.001801
952.000000	0.001759
951.000000	0.001710
950.000000	0.001683
949.000000	0.001685
948.000000	0.001683
947.000000	0.001644
946.000000	0.001570
945.000000	0.001497
944.000000	0.001454
943.000000	0.001435
942.000000	0.001417
941.000000	0.001385
940.000000	0.001348
939.000000	0.001316
938.000000	0.001286
937.000000	0.001245
936.000000	0.001197
935.000000	0.001162
934.000000	0.001149
933.000000	0.001145
932.000000	0.001140
931.000000	0.001137
930.000000	0.001142
929.000000	0.001142
928.000000	0.001120
927.000000	0.001078
926.000000	0.001032
925.000000	0.001003
924.000000	0.000995
923.000000	0.001001
922.000000	0.001001
921.000000	0.000977
920.000000	0.000924
919.000000	0.000860
918.000000	0.000806
917.000000	0.000770
916.000000	0.000749
915.000000	0.000736
914.000000	0.000726
913.000000	0.000715
912.000000	0.000703
911.000000	0.000685
910.000000	0.000653
909.000000	0.000597
908.000000	0.000528
907.000000	0.000470
906.000000	0.000438
905.000000	0.000415
904.000000	0.000382
903.000000	0.000336
902.000000	0.000291
901.000000	0.000253
900.000000	0.000221
899.000000	0.000204
898.000000	0.000218
897.000000	0.000263
896.000000	0.000309
895.000000	0.000318
894.000000	0.000276
893.000000	0.000210
892.000000	0.000168
891.000000	0.000183
890.000000	0.000263
889.000000	0.000417
888.000000	0.000685
887.000000	0.001112
886.000000	0.001694
885.000000	0.002365
884.000000	0.003039
883.000000	0.003672
882.000000	0.004279
881.000000	0.004916
880.000000	0.005635
879.000000	0.006450
878.000000	0.007307
877.000000	0.008106
876.000000	0.008754
875.000000	0.009188
874.000000	0.009360
873.000000	0.009226
872.000000	0.008772
871.000000	0.008055
870.000000	0.007191
869.000000	0.006294
868.000000	0.005445
867.000000	0.004686
866.000000	0.004035
865.000000	0.003492
864.000000	0.003050
863.000000	0.002700
862.000000	0.002424
861.000000	0.002194
860.000000	0.001983
859.000000	0.001782
858.000000	0.001583
857.000000	0.001380
856.000000	0.001188
855.000000	0.001049
854.000000	0.000989
853.000000	0.000990
852.000000	0.001013
851.000000	0.001058
850.000000	0.001143
849.000000	0.001244
848.000000	0.001294
847.000000	0.001241
846.000000	0.001100
845.000000	0.000927
844.000000	0.000776
843.000000	0.000677
842.000000	0.000646
841.000000	0.000668
840.000000	0.000703
839.000000	0.000713
838.000000	0.000699
837.000000	0.000697
836.000000	0.000734
835.000000	0.000791
834.000000	0.000821
833.000000	0.000790
832.000000	0.000714
831.000000	0.000637
830.000000	0.000583
829.000000	0.000551
828.000000	0.000533
827.000000	0.000530
826.000000	0.000529
825.000000	0.000496
824.000000	0.000413
823.000000	0.000318
822.000000	0.000258
821.000000	0.000240
820.000000	0.000231
819.000000	0.000212
818.000000	0.000208
817.000000	0.000246
816.000000	0.000318
815.000000	0.000386
814.000000	0.000401
813.000000	0.000340
812.000000	0.000224
811.000000	0.000103
810.000000	0.000027
809.000000	0.000012
808.000000	0.000052
807.000000	0.000133
806.000000	0.000226
805.000000	0.000292
804.000000	0.000308
803.000000	0.000299
802.000000	0.000306
801.000000	0.000337
800.000000	0.000358
799.000000	0.000346
798.000000	0.000312
797.000000	0.000280
796.000000	0.000258
795.000000	0.000246
794.000000	0.000257
793.000000	0.000298
792.000000	0.000358
791.000000	0.000407
790.000000	0.000426
789.000000	0.000421
788.000000	0.000404
787.000000	0.000389
786.000000	0.000389
785.000000	0.000424
784.000000	0.000501
783.000000	0.000596
782.000000	0.000661
781.000000	0.000668
780.000000	0.000633
779.000000	0.000598
778.000000	0.000583
777.000000	0.000565
776.000000	0.000518
775.000000	0.000454
774.000000	0.000405
773.000000	0.000396
772.000000	0.000431
771.000000	0.000500
770.000000	0.000590
769.000000	0.000679
768.000000	0.000743
767.000000	0.000775
766.000000	0.000783
765.000000	0.000777
764.000000	0.000758
763.000000	0.000733
762.000000	0.000726
761.000000	0.000757
760.000000	0.000825
759.000000	0.000900
758.000000	0.000948
757.000000	0.000962
756.000000	0.000963
755.000000	0.000971
754.000000	0.000979
753.000000	0.000969
752.000000	0.000934
751.000000	0.000892
750.000000	0.000864
749.000000	0.000868
748.000000	0.000901
747.000000	0.000942
746.000000	0.000958
745.000000	0.000939
744.000000	0.000905
743.000000	0.000892
742.000000	0.000903
741.000000	0.000917
740.000000	0.000918
739.000000	0.000903
738.000000	0.000875
737.000000	0.000841
736.000000	0.000835
735.000000	0.000896
734.000000	0.001013
733.000000	0.001136
732.000000	0.001221
731.000000	0.001267
730.000000	0.001280
729.000000	0.001258
728.000000	0.001212
727.000000	0.001177
726.000000	0.001188
725.000000	0.001242
724.000000	0.001300
723.000000	0.001327
722.000000	0.001318
721.000000	0.001301
720.000000	0.001327
719.000000	0.001442
718.000000	0.001677
717.000000	0.002052
716.000000	0.002587
715.000000	0.003255
714.000000	0.003923
713.000000	0.004392
712.000000	0.004513
711.000000	0.004287
710.000000	0.003845
709.000000	0.003367
708.000000	0.003007
707.000000	0.002818
706.000000	0.002744
705.000000	0.002684
704.000000	0.002594
703.000000	0.002508
702.000000	0.002472
701.000000	0.002479
700.000000	0.002514
699.000000	0.002576
698.000000	0.002658
697.000000	0.002721
696.000000	0.002728
695.000000	0.002695
694.000000	0.002663
693.000000	0.002643
692.000000	0.002625
691.000000	0.002602
690.000000	0.002564
689.000000	0.002504
688.000000	0.002444
687.000000	0.002431
686.000000	0.002462
685.000000	0.002471
684.000000	0.002434
683.000000	0.002414
682.000000	0.002462
681.000000	0.002533
680.000000	0.002555
679.000000	0.002525
678.000000	0.002477
677.000000	0.002442
676.000000	0.002432
675.000000	0.002444
674.000000	0.002440
673.000000	0.002359
672.000000	0.002150
671.000000	0.001780
670.000000	0.001231
669.000000	0.000573
668.000000	0.000196
667.000000	0.000482
666.000000	0.000968
665.000000	0.001330
664.000000	0.001526
663.000000	0.001555
662.000000	0.001482
661.000000	0.001383
660.000000	0.001267
659.000000	0.001099
658.000000	0.000901
657.000000	0.000785
656.000000	0.000818
655.000000	0.000949
654.000000	0.001105
653.000000	0.001268
652.000000	0.001426
651.000000	0.001555
650.000000	0.001672
649.000000	0.001831
648.000000	0.002022
647.000000	0.002160
646.000000	0.002216
645.000000	0.002245
644.000000	0.002290
643.000000	0.002333
642.000000	0.002368
641.000000	0.002437
640.000000	0.002563
639.000000	0.002697
638.000000	0.002783
637.000000	0.002817
636.000000	0.002808
635.000000	0.002757
634.000000	0.002692
633.000000	0.002677
632.000000	0.002743
631.000000	0.002852
630.000000	0.002948
629.000000	0.003015
628.000000	0.003050
627.000000	0.003040
626.000000	0.002984
625.000000	0.002905
624.000000	0.002821
623.000000	0.002743
622.000000	0.002687
621.000000	0.002664
620.000000	0.002664
619.000000	0.002680
618.000000	0.002738
617.000000	0.002867
616.000000	0.003038
615.000000	0.003181
614.000000	0.003269
613.000000	0.003342
612.000000	0.003438
611.000000	0.003548
610.000000	0.003647
609.000000	0.003722
608.000000	0.003749
607.000000	0.003700
606.000000	0.003602
605.000000	0.003528
604.000000	0.003514
603.000000	0.003513
602.000000	0.003448
601.000000	0.003292
600.000000	0.003087
599.000000	0.002918
598.000000	0.002841
597.000000	0.002834
596.000000	0.002799
595.000000	0.002654
594.000000	0.002413
593.000000	0.002164
592.000000	0.001975
591.000000	0.001845
590.000000	0.001747
589.000000	0.001681
588.000000	0.001664
587.000000	0.001705
586.000000	0.001799
585.000000	0.001907
584.000000	0.001960
583.000000	0.001907
582.000000	0.001778
581.000000	0.001668
580.000000	0.001638
579.000000	0.001658
578.000000	0.001662
577.000000	0.001628
576.000000	0.001581
575.000000	0.001553
574.000000	0.001551
573.000000	0.001542
572.000000	0.001481
571.000000	0.001352
570.000000	0.001210
569.000000	0.001134
568.000000	0.001143
567.000000	0.001193
566.000000	0.001226
565.000000	0.001203
564.000000	0.001093
563.000000	0.000903
562.000000	0.000727
561.000000	0.000686
560.000000	0.000802
559.000000	0.000967
558.000000	0.001055
557.000000	0.001024
556.000000	0.000920
555.000000	0.000822
554.000000	0.000804
553.000000	0.000897
552.000000	0.001056
551.000000	0.001198
550.000000	0.001289
549.000000	0.001363
548.000000	0.001434
547.000000	0.001446
546.000000	0.001334
545.000000	0.001113
544.000000	0.000856
543.000000	0.000636
542.000000	0.000513
541.000000	0.000528
540.000000	0.000665
539.000000	0.000840
538.000000	0.000964
537.000000	0.001010
536.000000	0.001009
535.000000	0.000985
534.000000	0.000957
533.000000	0.000960
532.000000	0.001029
531.000000	0.001146
530.000000	0.001220
529.000000	0.001165
528.000000	0.000990
527.000000	0.000801
526.000000	0.000710
525.000000	0.000728
524.000000	0.000781
523.000000	0.000817
522.000000	0.000848
521.000000	0.000883
520.000000	0.000886
519.000000	0.000850
518.000000	0.000853
517.000000	0.000971
516.000000	0.001150
515.000000	0.001265
514.000000	0.001266
513.000000	0.001193
512.000000	0.001091
511.000000	0.000972
510.000000	0.000851
509.000000	0.000777
508.000000	0.000791
507.000000	0.000886
506.000000	0.001007
505.000000	0.001100
504.000000	0.001156
503.000000	0.001224
502.000000	0.001345
501.000000	0.001462
500.000000	0.001454
499.000000	0.001300
498.000000	0.001142
497.000000	0.001127
496.000000	0.001223
495.000000	0.001266
494.000000	0.001190
493.000000	0.001085
492.000000	0.001039
491.000000	0.001032
490.000000	0.001051
489.000000	0.001153
488.000000	0.001320
487.000000	0.001380
486.000000	0.001185
485.000000	0.000836
484.000000	0.000636
483.000000	0.000766
482.000000	0.001124
481.000000	0.001499
480.000000	0.001746
479.000000	0.001813
478.000000	0.001698
477.000000	0.001446
476.000000	0.001117
475.000000	0.000752
474.000000	0.000404
473.000000	0.000156
472.000000	0.000050
471.000000	0.000028
470.000000	0.000026
469.000000	0.000058
468.000000	0.000128
467.000000	0.000171
466.000000	0.000152
465.000000	0.000135
464.000000	0.000187
463.000000	0.000275
462.000000	0.000322
461.000000	0.000342
460.000000	0.000379
459.000000	0.000394
458.000000	0.000300
457.000000	0.000135
456.000000	0.000043
455.000000	0.000055
454.000000	0.000091
453.000000	0.000109
452.000000	0.000137
451.000000	0.000343
450.000000	0.000208
