PE IR       SUBTECH     SPECTRUM    ASCII       PEDS        4.00        
   -1
P12-Rouge024_1.ASC
23/06/08
15:12:44.00
23/06/08
15:48:35.00
uco
Sample 024 By uco Date Thursday, June 08 2023
450.000000
#HDR
-1
-1
#GR
cm-1
A
1.0
0.0
4000.000000
-1.000000
3551
8
0.003349
-0.000799
#DATA
4000.000000	-0.000309
3999.000000	-0.000275
3998.000000	-0.000239
3997.000000	-0.000214
3996.000000	-0.000201
3995.000000	-0.000201
3994.000000	-0.000228
3993.000000	-0.000238
3992.000000	-0.000245
3991.000000	-0.000244
3990.000000	-0.000238
3989.000000	-0.000228
3988.000000	-0.000220
3987.000000	-0.000213
3986.000000	-0.000211
3985.000000	-0.000215
3984.000000	-0.000225
3983.000000	-0.000238
3982.000000	-0.000245
3981.000000	-0.000241
3980.000000	-0.000225
3979.000000	-0.000205
3978.000000	-0.000197
3977.000000	-0.000208
3976.000000	-0.000235
3975.000000	-0.000265
3974.000000	-0.000283
3973.000000	-0.000286
3972.000000	-0.000280
3971.000000	-0.000275
3970.000000	-0.000274
3969.000000	-0.000276
3968.000000	-0.000278
3967.000000	-0.000276
3966.000000	-0.000271
3965.000000	-0.000265
3964.000000	-0.000263
3963.000000	-0.000267
3962.000000	-0.000274
3961.000000	-0.000275
3960.000000	-0.000265
3959.000000	-0.000245
3958.000000	-0.000225
3957.000000	-0.000216
3956.000000	-0.000219
3955.000000	-0.000228
3954.000000	-0.000231
3953.000000	-0.000220
3952.000000	-0.000197
3951.000000	-0.000173
3950.000000	-0.000162
3949.000000	-0.000170
3948.000000	-0.000191
3947.000000	-0.000212
3946.000000	-0.000222
3945.000000	-0.000220
3944.000000	-0.000209
3943.000000	-0.000194
3942.000000	-0.000173
3941.000000	-0.000143
3940.000000	-0.000108
3939.000000	-0.000086
3938.000000	-0.000093
3937.000000	-0.000126
3936.000000	-0.000163
3935.000000	-0.000178
3934.000000	-0.000169
3933.000000	-0.000156
3932.000000	-0.000160
3931.000000	-0.000183
3930.000000	-0.000208
3929.000000	-0.000221
3928.000000	-0.000218
3927.000000	-0.000203
3926.000000	-0.000182
3925.000000	-0.000164
3924.000000	-0.000154
3923.000000	-0.000145
3922.000000	-0.000132
3921.000000	-0.000115
3920.000000	-0.000105
3919.000000	-0.000110
3918.000000	-0.000133
3917.000000	-0.000171
3916.000000	-0.000209
3915.000000	-0.000230
3914.000000	-0.000227
3913.000000	-0.000209
3912.000000	-0.000189
3911.000000	-0.000176
3910.000000	-0.000170
3909.000000	-0.000168
3908.000000	-0.000170
3907.000000	-0.000174
3906.000000	-0.000179
3905.000000	-0.000185
3904.000000	-0.000195
3903.000000	-0.000204
3902.000000	-0.000206
3901.000000	-0.000198
3900.000000	-0.000191
3899.000000	-0.000197
3898.000000	-0.000214
3897.000000	-0.000229
3896.000000	-0.000237
3895.000000	-0.000236
3894.000000	-0.000226
3893.000000	-0.000204
3892.000000	-0.000179
3891.000000	-0.000174
3890.000000	-0.000196
3889.000000	-0.000229
3888.000000	-0.000245
3887.000000	-0.000237
3886.000000	-0.000220
3885.000000	-0.000213
3884.000000	-0.000214
3883.000000	-0.000214
3882.000000	-0.000214
3881.000000	-0.000224
3880.000000	-0.000240
3879.000000	-0.000242
3878.000000	-0.000219
3877.000000	-0.000180
3876.000000	-0.000152
3875.000000	-0.000156
3874.000000	-0.000186
3873.000000	-0.000203
3872.000000	-0.000171
3871.000000	-0.000108
3870.000000	-0.000074
3869.000000	-0.000105
3868.000000	-0.000164
3867.000000	-0.000205
3866.000000	-0.000221
3865.000000	-0.000231
3864.000000	-0.000236
3863.000000	-0.000226
3862.000000	-0.000196
3861.000000	-0.000165
3860.000000	-0.000150
3859.000000	-0.000159
3858.000000	-0.000188
3857.000000	-0.000224
3856.000000	-0.000251
3855.000000	-0.000259
3854.000000	-0.000258
3853.000000	-0.000278
3852.000000	-0.000314
3851.000000	-0.000327
3850.000000	-0.000306
3849.000000	-0.000267
3848.000000	-0.000224
3847.000000	-0.000182
3846.000000	-0.000149
3845.000000	-0.000135
3844.000000	-0.000146
3843.000000	-0.000179
3842.000000	-0.000217
3841.000000	-0.000238
3840.000000	-0.000237
3839.000000	-0.000226
3838.000000	-0.000219
3837.000000	-0.000218
3836.000000	-0.000215
3835.000000	-0.000202
3834.000000	-0.000179
3833.000000	-0.000160
3832.000000	-0.000159
3831.000000	-0.000176
3830.000000	-0.000191
3829.000000	-0.000189
3828.000000	-0.000170
3827.000000	-0.000153
3826.000000	-0.000162
3825.000000	-0.000196
3824.000000	-0.000231
3823.000000	-0.000250
3822.000000	-0.000258
3821.000000	-0.000279
3820.000000	-0.000310
3819.000000	-0.000313
3818.000000	-0.000269
3817.000000	-0.000205
3816.000000	-0.000163
3815.000000	-0.000152
3814.000000	-0.000146
3813.000000	-0.000130
3812.000000	-0.000122
3811.000000	-0.000137
3810.000000	-0.000168
3809.000000	-0.000192
3808.000000	-0.000203
3807.000000	-0.000224
3806.000000	-0.000260
3805.000000	-0.000287
3804.000000	-0.000278
3803.000000	-0.000247
3802.000000	-0.000247
3801.000000	-0.000303
3800.000000	-0.000362
3799.000000	-0.000359
3798.000000	-0.000291
3797.000000	-0.000203
3796.000000	-0.000144
3795.000000	-0.000122
3794.000000	-0.000112
3793.000000	-0.000091
3792.000000	-0.000060
3791.000000	-0.000030
3790.000000	-0.000015
3789.000000	-0.000021
3788.000000	-0.000046
3787.000000	-0.000076
3786.000000	-0.000099
3785.000000	-0.000114
3784.000000	-0.000127
3783.000000	-0.000139
3782.000000	-0.000145
3781.000000	-0.000148
3780.000000	-0.000157
3779.000000	-0.000177
3778.000000	-0.000199
3777.000000	-0.000208
3776.000000	-0.000206
3775.000000	-0.000206
3774.000000	-0.000213
3773.000000	-0.000218
3772.000000	-0.000209
3771.000000	-0.000193
3770.000000	-0.000191
3769.000000	-0.000205
3768.000000	-0.000218
3767.000000	-0.000217
3766.000000	-0.000205
3765.000000	-0.000194
3764.000000	-0.000186
3763.000000	-0.000176
3762.000000	-0.000164
3761.000000	-0.000159
3760.000000	-0.000162
3759.000000	-0.000164
3758.000000	-0.000158
3757.000000	-0.000153
3756.000000	-0.000155
3755.000000	-0.000165
3754.000000	-0.000179
3753.000000	-0.000194
3752.000000	-0.000202
3751.000000	-0.000196
3750.000000	-0.000193
3749.000000	-0.000213
3748.000000	-0.000251
3747.000000	-0.000280
3746.000000	-0.000290
3745.000000	-0.000299
3744.000000	-0.000318
3743.000000	-0.000321
3742.000000	-0.000291
3741.000000	-0.000249
3740.000000	-0.000223
3739.000000	-0.000215
3738.000000	-0.000199
3737.000000	-0.000162
3736.000000	-0.000130
3735.000000	-0.000133
3734.000000	-0.000156
3733.000000	-0.000171
3732.000000	-0.000180
3731.000000	-0.000195
3730.000000	-0.000206
3729.000000	-0.000193
3728.000000	-0.000153
3727.000000	-0.000112
3726.000000	-0.000095
3725.000000	-0.000092
3724.000000	-0.000080
3723.000000	-0.000051
3722.000000	-0.000025
3721.000000	-0.000025
3720.000000	-0.000055
3719.000000	-0.000098
3718.000000	-0.000138
3717.000000	-0.000170
3716.000000	-0.000201
3715.000000	-0.000231
3714.000000	-0.000256
3713.000000	-0.000263
3712.000000	-0.000248
3711.000000	-0.000217
3710.000000	-0.000185
3709.000000	-0.000157
3708.000000	-0.000134
3707.000000	-0.000122
3706.000000	-0.000120
3705.000000	-0.000127
3704.000000	-0.000138
3703.000000	-0.000156
3702.000000	-0.000186
3701.000000	-0.000222
3700.000000	-0.000245
3699.000000	-0.000234
3698.000000	-0.000193
3697.000000	-0.000145
3696.000000	-0.000116
3695.000000	-0.000110
3694.000000	-0.000122
3693.000000	-0.000146
3692.000000	-0.000184
3691.000000	-0.000232
3690.000000	-0.000276
3689.000000	-0.000299
3688.000000	-0.000296
3687.000000	-0.000281
3686.000000	-0.000263
3685.000000	-0.000239
3684.000000	-0.000208
3683.000000	-0.000174
3682.000000	-0.000142
3681.000000	-0.000115
3680.000000	-0.000098
3679.000000	-0.000088
3678.000000	-0.000075
3677.000000	-0.000072
3676.000000	-0.000124
3675.000000	-0.000243
3674.000000	-0.000355
3673.000000	-0.000394
3672.000000	-0.000363
3671.000000	-0.000304
3670.000000	-0.000259
3669.000000	-0.000233
3668.000000	-0.000209
3667.000000	-0.000181
3666.000000	-0.000158
3665.000000	-0.000143
3664.000000	-0.000125
3663.000000	-0.000098
3662.000000	-0.000075
3661.000000	-0.000073
3660.000000	-0.000097
3659.000000	-0.000131
3658.000000	-0.000148
3657.000000	-0.000141
3656.000000	-0.000125
3655.000000	-0.000117
3654.000000	-0.000115
3653.000000	-0.000110
3652.000000	-0.000101
3651.000000	-0.000089
3650.000000	-0.000079
3649.000000	-0.000082
3648.000000	-0.000106
3647.000000	-0.000148
3646.000000	-0.000188
3645.000000	-0.000213
3644.000000	-0.000215
3643.000000	-0.000197
3642.000000	-0.000165
3641.000000	-0.000125
3640.000000	-0.000082
3639.000000	-0.000043
3638.000000	-0.000020
3637.000000	-0.000016
3636.000000	-0.000025
3635.000000	-0.000038
3634.000000	-0.000056
3633.000000	-0.000076
3632.000000	-0.000090
3631.000000	-0.000097
3630.000000	-0.000114
3629.000000	-0.000159
3628.000000	-0.000208
3627.000000	-0.000211
3626.000000	-0.000171
3625.000000	-0.000129
3624.000000	-0.000119
3623.000000	-0.000139
3622.000000	-0.000161
3621.000000	-0.000161
3620.000000	-0.000135
3619.000000	-0.000106
3618.000000	-0.000089
3617.000000	-0.000080
3616.000000	-0.000067
3615.000000	-0.000049
3614.000000	-0.000030
3613.000000	-0.000019
3612.000000	-0.000008
3611.000000	0.000018
3610.000000	0.000060
3609.000000	0.000101
3608.000000	0.000112
3607.000000	0.000089
3606.000000	0.000053
3605.000000	0.000026
3604.000000	0.000012
3603.000000	0.000001
3602.000000	-0.000014
3601.000000	-0.000030
3600.000000	-0.000037
3599.000000	-0.000029
3598.000000	-0.000012
3597.000000	0.000005
3596.000000	0.000020
3595.000000	0.000038
3594.000000	0.000061
3593.000000	0.000082
3592.000000	0.000091
3591.000000	0.000089
3590.000000	0.000083
3589.000000	0.000082
3588.000000	0.000084
3587.000000	0.000079
3586.000000	0.000071
3585.000000	0.000076
3584.000000	0.000092
3583.000000	0.000108
3582.000000	0.000114
3581.000000	0.000111
3580.000000	0.000104
3579.000000	0.000098
3578.000000	0.000091
3577.000000	0.000082
3576.000000	0.000077
3575.000000	0.000082
3574.000000	0.000102
3573.000000	0.000134
3572.000000	0.000172
3571.000000	0.000212
3570.000000	0.000257
3569.000000	0.000310
3568.000000	0.000355
3567.000000	0.000365
3566.000000	0.000340
3565.000000	0.000314
3564.000000	0.000312
3563.000000	0.000329
3562.000000	0.000348
3561.000000	0.000352
3560.000000	0.000339
3559.000000	0.000314
3558.000000	0.000285
3557.000000	0.000257
3556.000000	0.000241
3555.000000	0.000249
3554.000000	0.000284
3553.000000	0.000334
3552.000000	0.000379
3551.000000	0.000401
3550.000000	0.000399
3549.000000	0.000383
3548.000000	0.000365
3547.000000	0.000351
3546.000000	0.000342
3545.000000	0.000336
3544.000000	0.000338
3543.000000	0.000352
3542.000000	0.000378
3541.000000	0.000407
3540.000000	0.000431
3539.000000	0.000448
3538.000000	0.000459
3537.000000	0.000465
3536.000000	0.000465
3535.000000	0.000458
3534.000000	0.000448
3533.000000	0.000443
3532.000000	0.000445
3531.000000	0.000447
3530.000000	0.000444
3529.000000	0.000440
3528.000000	0.000442
3527.000000	0.000455
3526.000000	0.000473
3525.000000	0.000484
3524.000000	0.000480
3523.000000	0.000462
3522.000000	0.000437
3521.000000	0.000414
3520.000000	0.000401
3519.000000	0.000400
3518.000000	0.000406
3517.000000	0.000412
3516.000000	0.000416
3515.000000	0.000417
3514.000000	0.000413
3513.000000	0.000412
3512.000000	0.000422
3511.000000	0.000448
3510.000000	0.000481
3509.000000	0.000507
3508.000000	0.000515
3507.000000	0.000507
3506.000000	0.000491
3505.000000	0.000477
3504.000000	0.000467
3503.000000	0.000460
3502.000000	0.000456
3501.000000	0.000456
3500.000000	0.000467
3499.000000	0.000488
3498.000000	0.000514
3497.000000	0.000533
3496.000000	0.000541
3495.000000	0.000537
3494.000000	0.000521
3493.000000	0.000499
3492.000000	0.000476
3491.000000	0.000461
3490.000000	0.000457
3489.000000	0.000458
3488.000000	0.000461
3487.000000	0.000467
3486.000000	0.000476
3485.000000	0.000487
3484.000000	0.000495
3483.000000	0.000497
3482.000000	0.000487
3481.000000	0.000467
3480.000000	0.000443
3479.000000	0.000426
3478.000000	0.000427
3477.000000	0.000446
3476.000000	0.000473
3475.000000	0.000495
3474.000000	0.000506
3473.000000	0.000506
3472.000000	0.000504
3471.000000	0.000508
3470.000000	0.000519
3469.000000	0.000531
3468.000000	0.000538
3467.000000	0.000535
3466.000000	0.000524
3465.000000	0.000511
3464.000000	0.000503
3463.000000	0.000504
3462.000000	0.000514
3461.000000	0.000529
3460.000000	0.000546
3459.000000	0.000562
3458.000000	0.000575
3457.000000	0.000583
3456.000000	0.000585
3455.000000	0.000584
3454.000000	0.000583
3453.000000	0.000585
3452.000000	0.000589
3451.000000	0.000597
3450.000000	0.000608
3449.000000	0.000618
3448.000000	0.000619
3447.000000	0.000609
3446.000000	0.000595
3445.000000	0.000589
3444.000000	0.000592
3443.000000	0.000597
3442.000000	0.000597
3441.000000	0.000594
3440.000000	0.000591
3439.000000	0.000592
3438.000000	0.000589
3437.000000	0.000583
3436.000000	0.000579
3435.000000	0.000590
3434.000000	0.000614
3433.000000	0.000636
3432.000000	0.000641
3431.000000	0.000629
3430.000000	0.000612
3429.000000	0.000605
3428.000000	0.000610
3427.000000	0.000620
3426.000000	0.000625
3425.000000	0.000624
3424.000000	0.000621
3423.000000	0.000622
3422.000000	0.000630
3421.000000	0.000643
3420.000000	0.000660
3419.000000	0.000681
3418.000000	0.000701
3417.000000	0.000717
3416.000000	0.000728
3415.000000	0.000734
3414.000000	0.000739
3413.000000	0.000749
3412.000000	0.000770
3411.000000	0.000802
3410.000000	0.000834
3409.000000	0.000850
3408.000000	0.000845
3407.000000	0.000829
3406.000000	0.000814
3405.000000	0.000807
3404.000000	0.000808
3403.000000	0.000812
3402.000000	0.000819
3401.000000	0.000831
3400.000000	0.000845
3399.000000	0.000856
3398.000000	0.000856
3397.000000	0.000848
3396.000000	0.000843
3395.000000	0.000850
3394.000000	0.000861
3393.000000	0.000856
3392.000000	0.000823
3391.000000	0.000770
3390.000000	0.000727
3389.000000	0.000717
3388.000000	0.000738
3387.000000	0.000771
3386.000000	0.000796
3385.000000	0.000811
3384.000000	0.000824
3383.000000	0.000840
3382.000000	0.000851
3381.000000	0.000849
3380.000000	0.000833
3379.000000	0.000818
3378.000000	0.000817
3377.000000	0.000832
3376.000000	0.000856
3375.000000	0.000874
3374.000000	0.000878
3373.000000	0.000868
3372.000000	0.000852
3371.000000	0.000839
3370.000000	0.000839
3369.000000	0.000853
3368.000000	0.000878
3367.000000	0.000904
3366.000000	0.000921
3365.000000	0.000925
3364.000000	0.000913
3363.000000	0.000891
3362.000000	0.000861
3361.000000	0.000828
3360.000000	0.000803
3359.000000	0.000794
3358.000000	0.000804
3357.000000	0.000824
3356.000000	0.000843
3355.000000	0.000856
3354.000000	0.000869
3353.000000	0.000887
3352.000000	0.000908
3351.000000	0.000924
3350.000000	0.000926
3349.000000	0.000911
3348.000000	0.000888
3347.000000	0.000865
3346.000000	0.000849
3345.000000	0.000839
3344.000000	0.000829
3343.000000	0.000819
3342.000000	0.000816
3341.000000	0.000827
3340.000000	0.000850
3339.000000	0.000878
3338.000000	0.000902
3337.000000	0.000919
3336.000000	0.000927
3335.000000	0.000926
3334.000000	0.000921
3333.000000	0.000919
3332.000000	0.000926
3331.000000	0.000934
3330.000000	0.000936
3329.000000	0.000929
3328.000000	0.000921
3327.000000	0.000918
3326.000000	0.000920
3325.000000	0.000924
3324.000000	0.000932
3323.000000	0.000943
3322.000000	0.000949
3321.000000	0.000942
3320.000000	0.000923
3319.000000	0.000909
3318.000000	0.000916
3317.000000	0.000948
3316.000000	0.000991
3315.000000	0.001022
3314.000000	0.001030
3313.000000	0.001019
3312.000000	0.001010
3311.000000	0.001016
3310.000000	0.001035
3309.000000	0.001050
3308.000000	0.001048
3307.000000	0.001029
3306.000000	0.001004
3305.000000	0.000986
3304.000000	0.000981
3303.000000	0.000985
3302.000000	0.000994
3301.000000	0.001004
3300.000000	0.001015
3299.000000	0.001029
3298.000000	0.001046
3297.000000	0.001064
3296.000000	0.001078
3295.000000	0.001084
3294.000000	0.001083
3293.000000	0.001079
3292.000000	0.001079
3291.000000	0.001087
3290.000000	0.001102
3289.000000	0.001117
3288.000000	0.001122
3287.000000	0.001113
3286.000000	0.001091
3285.000000	0.001063
3284.000000	0.001038
3283.000000	0.001024
3282.000000	0.001028
3281.000000	0.001045
3280.000000	0.001063
3279.000000	0.001071
3278.000000	0.001066
3277.000000	0.001052
3276.000000	0.001035
3275.000000	0.001019
3274.000000	0.001007
3273.000000	0.001001
3272.000000	0.000999
3271.000000	0.001001
3270.000000	0.001010
3269.000000	0.001032
3268.000000	0.001070
3267.000000	0.001115
3266.000000	0.001149
3265.000000	0.001160
3264.000000	0.001153
3263.000000	0.001138
3262.000000	0.001123
3261.000000	0.001111
3260.000000	0.001106
3259.000000	0.001112
3258.000000	0.001128
3257.000000	0.001142
3256.000000	0.001143
3255.000000	0.001129
3254.000000	0.001103
3253.000000	0.001072
3252.000000	0.001045
3251.000000	0.001027
3250.000000	0.001021
3249.000000	0.001029
3248.000000	0.001051
3247.000000	0.001081
3246.000000	0.001111
3245.000000	0.001131
3244.000000	0.001134
3243.000000	0.001124
3242.000000	0.001103
3241.000000	0.001075
3240.000000	0.001040
3239.000000	0.001002
3238.000000	0.000972
3237.000000	0.000956
3236.000000	0.000959
3235.000000	0.000972
3234.000000	0.000984
3233.000000	0.000990
3232.000000	0.000987
3231.000000	0.000976
3230.000000	0.000957
3229.000000	0.000935
3228.000000	0.000918
3227.000000	0.000912
3226.000000	0.000911
3225.000000	0.000907
3224.000000	0.000898
3223.000000	0.000892
3222.000000	0.000898
3221.000000	0.000915
3220.000000	0.000937
3219.000000	0.000957
3218.000000	0.000965
3217.000000	0.000961
3216.000000	0.000949
3215.000000	0.000944
3214.000000	0.000950
3213.000000	0.000960
3212.000000	0.000962
3211.000000	0.000953
3210.000000	0.000938
3209.000000	0.000926
3208.000000	0.000919
3207.000000	0.000921
3206.000000	0.000932
3205.000000	0.000953
3204.000000	0.000976
3203.000000	0.000992
3202.000000	0.000995
3201.000000	0.000987
3200.000000	0.000971
3199.000000	0.000953
3198.000000	0.000936
3197.000000	0.000924
3196.000000	0.000919
3195.000000	0.000921
3194.000000	0.000928
3193.000000	0.000935
3192.000000	0.000937
3191.000000	0.000936
3190.000000	0.000932
3189.000000	0.000926
3188.000000	0.000917
3187.000000	0.000906
3186.000000	0.000895
3185.000000	0.000887
3184.000000	0.000881
3183.000000	0.000875
3182.000000	0.000869
3181.000000	0.000868
3180.000000	0.000877
3179.000000	0.000893
3178.000000	0.000907
3177.000000	0.000911
3176.000000	0.000904
3175.000000	0.000889
3174.000000	0.000868
3173.000000	0.000844
3172.000000	0.000827
3171.000000	0.000824
3170.000000	0.000835
3169.000000	0.000848
3168.000000	0.000852
3167.000000	0.000849
3166.000000	0.000847
3165.000000	0.000849
3164.000000	0.000848
3163.000000	0.000836
3162.000000	0.000812
3161.000000	0.000786
3160.000000	0.000766
3159.000000	0.000756
3158.000000	0.000757
3157.000000	0.000770
3156.000000	0.000797
3155.000000	0.000835
3154.000000	0.000870
3153.000000	0.000881
3152.000000	0.000861
3151.000000	0.000825
3150.000000	0.000796
3149.000000	0.000786
3148.000000	0.000794
3147.000000	0.000811
3146.000000	0.000833
3145.000000	0.000855
3144.000000	0.000865
3143.000000	0.000855
3142.000000	0.000825
3141.000000	0.000788
3140.000000	0.000761
3139.000000	0.000751
3138.000000	0.000758
3137.000000	0.000772
3136.000000	0.000779
3135.000000	0.000773
3134.000000	0.000754
3133.000000	0.000729
3132.000000	0.000706
3131.000000	0.000696
3130.000000	0.000707
3129.000000	0.000734
3128.000000	0.000758
3127.000000	0.000762
3126.000000	0.000742
3125.000000	0.000716
3124.000000	0.000707
3123.000000	0.000721
3122.000000	0.000744
3121.000000	0.000758
3120.000000	0.000756
3119.000000	0.000743
3118.000000	0.000733
3117.000000	0.000735
3116.000000	0.000748
3115.000000	0.000763
3114.000000	0.000777
3113.000000	0.000791
3112.000000	0.000811
3111.000000	0.000834
3110.000000	0.000849
3109.000000	0.000841
3108.000000	0.000806
3107.000000	0.000757
3106.000000	0.000713
3105.000000	0.000688
3104.000000	0.000678
3103.000000	0.000672
3102.000000	0.000665
3101.000000	0.000660
3100.000000	0.000660
3099.000000	0.000662
3098.000000	0.000661
3097.000000	0.000659
3096.000000	0.000660
3095.000000	0.000668
3094.000000	0.000679
3093.000000	0.000690
3092.000000	0.000698
3091.000000	0.000702
3090.000000	0.000698
3089.000000	0.000688
3088.000000	0.000676
3087.000000	0.000670
3086.000000	0.000672
3085.000000	0.000681
3084.000000	0.000691
3083.000000	0.000697
3082.000000	0.000692
3081.000000	0.000674
3080.000000	0.000652
3079.000000	0.000640
3078.000000	0.000648
3077.000000	0.000669
3076.000000	0.000687
3075.000000	0.000690
3074.000000	0.000678
3073.000000	0.000661
3072.000000	0.000652
3071.000000	0.000657
3070.000000	0.000672
3069.000000	0.000685
3068.000000	0.000689
3067.000000	0.000683
3066.000000	0.000673
3065.000000	0.000665
3064.000000	0.000658
3063.000000	0.000651
3062.000000	0.000646
3061.000000	0.000644
3060.000000	0.000653
3059.000000	0.000674
3058.000000	0.000702
3057.000000	0.000722
3056.000000	0.000726
3055.000000	0.000718
3054.000000	0.000708
3053.000000	0.000700
3052.000000	0.000687
3051.000000	0.000667
3050.000000	0.000649
3049.000000	0.000643
3048.000000	0.000647
3047.000000	0.000649
3046.000000	0.000643
3045.000000	0.000635
3044.000000	0.000634
3043.000000	0.000639
3042.000000	0.000645
3041.000000	0.000648
3040.000000	0.000650
3039.000000	0.000649
3038.000000	0.000639
3037.000000	0.000621
3036.000000	0.000603
3035.000000	0.000597
3034.000000	0.000607
3033.000000	0.000624
3032.000000	0.000636
3031.000000	0.000637
3030.000000	0.000630
3029.000000	0.000624
3028.000000	0.000629
3027.000000	0.000648
3026.000000	0.000677
3025.000000	0.000703
3024.000000	0.000716
3023.000000	0.000714
3022.000000	0.000705
3021.000000	0.000702
3020.000000	0.000706
3019.000000	0.000712
3018.000000	0.000712
3017.000000	0.000708
3016.000000	0.000704
3015.000000	0.000702
3014.000000	0.000698
3013.000000	0.000688
3012.000000	0.000679
3011.000000	0.000681
3010.000000	0.000696
3009.000000	0.000717
3008.000000	0.000731
3007.000000	0.000737
3006.000000	0.000743
3005.000000	0.000755
3004.000000	0.000771
3003.000000	0.000779
3002.000000	0.000774
3001.000000	0.000762
3000.000000	0.000759
2999.000000	0.000776
2998.000000	0.000808
2997.000000	0.000837
2996.000000	0.000848
2995.000000	0.000841
2994.000000	0.000833
2993.000000	0.000842
2992.000000	0.000871
2991.000000	0.000911
2990.000000	0.000943
2989.000000	0.000960
2988.000000	0.000962
2987.000000	0.000954
2986.000000	0.000944
2985.000000	0.000935
2984.000000	0.000934
2983.000000	0.000945
2982.000000	0.000964
2981.000000	0.000980
2980.000000	0.000986
2979.000000	0.000986
2978.000000	0.000995
2977.000000	0.001021
2976.000000	0.001055
2975.000000	0.001081
2974.000000	0.001091
2973.000000	0.001090
2972.000000	0.001091
2971.000000	0.001105
2970.000000	0.001132
2969.000000	0.001166
2968.000000	0.001197
2967.000000	0.001214
2966.000000	0.001218
2965.000000	0.001215
2964.000000	0.001219
2963.000000	0.001237
2962.000000	0.001263
2961.000000	0.001285
2960.000000	0.001296
2959.000000	0.001295
2958.000000	0.001283
2957.000000	0.001260
2956.000000	0.001231
2955.000000	0.001204
2954.000000	0.001186
2953.000000	0.001177
2952.000000	0.001175
2951.000000	0.001177
2950.000000	0.001180
2949.000000	0.001180
2948.000000	0.001172
2947.000000	0.001158
2946.000000	0.001149
2945.000000	0.001158
2944.000000	0.001188
2943.000000	0.001231
2942.000000	0.001274
2941.000000	0.001310
2940.000000	0.001336
2939.000000	0.001351
2938.000000	0.001361
2937.000000	0.001369
2936.000000	0.001379
2935.000000	0.001393
2934.000000	0.001411
2933.000000	0.001434
2932.000000	0.001457
2931.000000	0.001473
2930.000000	0.001471
2929.000000	0.001443
2928.000000	0.001393
2927.000000	0.001344
2926.000000	0.001323
2925.000000	0.001338
2924.000000	0.001367
2923.000000	0.001380
2922.000000	0.001360
2921.000000	0.001319
2920.000000	0.001278
2919.000000	0.001249
2918.000000	0.001232
2917.000000	0.001222
2916.000000	0.001213
2915.000000	0.001202
2914.000000	0.001189
2913.000000	0.001179
2912.000000	0.001179
2911.000000	0.001185
2910.000000	0.001187
2909.000000	0.001180
2908.000000	0.001167
2907.000000	0.001161
2906.000000	0.001168
2905.000000	0.001182
2904.000000	0.001191
2903.000000	0.001191
2902.000000	0.001188
2901.000000	0.001185
2900.000000	0.001186
2899.000000	0.001187
2898.000000	0.001184
2897.000000	0.001176
2896.000000	0.001160
2895.000000	0.001140
2894.000000	0.001121
2893.000000	0.001104
2892.000000	0.001085
2891.000000	0.001059
2890.000000	0.001024
2889.000000	0.000989
2888.000000	0.000970
2887.000000	0.000976
2886.000000	0.001006
2885.000000	0.001048
2884.000000	0.001087
2883.000000	0.001111
2882.000000	0.001121
2881.000000	0.001125
2880.000000	0.001134
2879.000000	0.001148
2878.000000	0.001159
2877.000000	0.001159
2876.000000	0.001148
2875.000000	0.001140
2874.000000	0.001143
2873.000000	0.001154
2872.000000	0.001159
2871.000000	0.001153
2870.000000	0.001142
2869.000000	0.001133
2868.000000	0.001127
2867.000000	0.001124
2866.000000	0.001123
2865.000000	0.001126
2864.000000	0.001132
2863.000000	0.001135
2862.000000	0.001132
2861.000000	0.001126
2860.000000	0.001126
2859.000000	0.001137
2858.000000	0.001153
2857.000000	0.001161
2856.000000	0.001149
2855.000000	0.001119
2854.000000	0.001083
2853.000000	0.001052
2852.000000	0.001029
2851.000000	0.001004
2850.000000	0.000970
2849.000000	0.000931
2848.000000	0.000902
2847.000000	0.000891
2846.000000	0.000898
2845.000000	0.000912
2844.000000	0.000920
2843.000000	0.000918
2842.000000	0.000908
2841.000000	0.000895
2840.000000	0.000880
2839.000000	0.000860
2838.000000	0.000836
2837.000000	0.000811
2836.000000	0.000793
2835.000000	0.000788
2834.000000	0.000799
2833.000000	0.000819
2832.000000	0.000839
2831.000000	0.000851
2830.000000	0.000854
2829.000000	0.000853
2828.000000	0.000856
2827.000000	0.000861
2826.000000	0.000863
2825.000000	0.000861
2824.000000	0.000860
2823.000000	0.000863
2822.000000	0.000870
2821.000000	0.000872
2820.000000	0.000868
2819.000000	0.000858
2818.000000	0.000844
2817.000000	0.000830
2816.000000	0.000817
2815.000000	0.000809
2814.000000	0.000802
2813.000000	0.000791
2812.000000	0.000779
2811.000000	0.000773
2810.000000	0.000781
2809.000000	0.000796
2808.000000	0.000810
2807.000000	0.000816
2806.000000	0.000811
2805.000000	0.000798
2804.000000	0.000776
2803.000000	0.000754
2802.000000	0.000744
2801.000000	0.000755
2800.000000	0.000783
2799.000000	0.000812
2798.000000	0.000826
2797.000000	0.000822
2796.000000	0.000811
2795.000000	0.000807
2794.000000	0.000817
2793.000000	0.000832
2792.000000	0.000841
2791.000000	0.000841
2790.000000	0.000839
2789.000000	0.000840
2788.000000	0.000841
2787.000000	0.000835
2786.000000	0.000820
2785.000000	0.000800
2784.000000	0.000782
2783.000000	0.000774
2782.000000	0.000776
2781.000000	0.000782
2780.000000	0.000782
2779.000000	0.000778
2778.000000	0.000776
2777.000000	0.000780
2776.000000	0.000784
2775.000000	0.000784
2774.000000	0.000779
2773.000000	0.000772
2772.000000	0.000768
2771.000000	0.000770
2770.000000	0.000777
2769.000000	0.000786
2768.000000	0.000790
2767.000000	0.000791
2766.000000	0.000789
2765.000000	0.000787
2764.000000	0.000783
2763.000000	0.000774
2762.000000	0.000763
2761.000000	0.000756
2760.000000	0.000758
2759.000000	0.000772
2758.000000	0.000797
2757.000000	0.000822
2756.000000	0.000833
2755.000000	0.000824
2754.000000	0.000803
2753.000000	0.000782
2752.000000	0.000764
2751.000000	0.000749
2750.000000	0.000741
2749.000000	0.000743
2748.000000	0.000751
2747.000000	0.000759
2746.000000	0.000762
2745.000000	0.000765
2744.000000	0.000772
2743.000000	0.000785
2742.000000	0.000802
2741.000000	0.000813
2740.000000	0.000807
2739.000000	0.000786
2738.000000	0.000764
2737.000000	0.000758
2736.000000	0.000769
2735.000000	0.000784
2734.000000	0.000787
2733.000000	0.000778
2732.000000	0.000763
2731.000000	0.000749
2730.000000	0.000742
2729.000000	0.000742
2728.000000	0.000745
2727.000000	0.000744
2726.000000	0.000735
2725.000000	0.000728
2724.000000	0.000735
2723.000000	0.000757
2722.000000	0.000780
2721.000000	0.000789
2720.000000	0.000780
2719.000000	0.000761
2718.000000	0.000747
2717.000000	0.000747
2716.000000	0.000756
2715.000000	0.000764
2714.000000	0.000764
2713.000000	0.000758
2712.000000	0.000754
2711.000000	0.000758
2710.000000	0.000768
2709.000000	0.000780
2708.000000	0.000788
2707.000000	0.000787
2706.000000	0.000776
2705.000000	0.000758
2704.000000	0.000746
2703.000000	0.000747
2702.000000	0.000764
2701.000000	0.000785
2700.000000	0.000798
2699.000000	0.000800
2698.000000	0.000799
2697.000000	0.000803
2696.000000	0.000807
2695.000000	0.000799
2694.000000	0.000779
2693.000000	0.000758
2692.000000	0.000747
2691.000000	0.000743
2690.000000	0.000736
2689.000000	0.000722
2688.000000	0.000708
2687.000000	0.000705
2686.000000	0.000713
2685.000000	0.000727
2684.000000	0.000739
2683.000000	0.000743
2682.000000	0.000740
2681.000000	0.000730
2680.000000	0.000714
2679.000000	0.000696
2678.000000	0.000684
2677.000000	0.000684
2676.000000	0.000701
2675.000000	0.000728
2674.000000	0.000750
2673.000000	0.000757
2672.000000	0.000746
2671.000000	0.000725
2670.000000	0.000704
2669.000000	0.000691
2668.000000	0.000692
2667.000000	0.000710
2666.000000	0.000739
2665.000000	0.000770
2664.000000	0.000795
2663.000000	0.000811
2662.000000	0.000814
2661.000000	0.000806
2660.000000	0.000792
2659.000000	0.000777
2658.000000	0.000765
2657.000000	0.000757
2656.000000	0.000754
2655.000000	0.000759
2654.000000	0.000770
2653.000000	0.000783
2652.000000	0.000791
2651.000000	0.000788
2650.000000	0.000775
2649.000000	0.000759
2648.000000	0.000750
2647.000000	0.000754
2646.000000	0.000767
2645.000000	0.000780
2644.000000	0.000786
2643.000000	0.000784
2642.000000	0.000777
2641.000000	0.000767
2640.000000	0.000753
2639.000000	0.000736
2638.000000	0.000720
2637.000000	0.000711
2636.000000	0.000711
2635.000000	0.000718
2634.000000	0.000722
2633.000000	0.000720
2632.000000	0.000710
2631.000000	0.000699
2630.000000	0.000692
2629.000000	0.000696
2628.000000	0.000715
2627.000000	0.000746
2626.000000	0.000770
2625.000000	0.000773
2624.000000	0.000753
2623.000000	0.000723
2622.000000	0.000700
2621.000000	0.000691
2620.000000	0.000691
2619.000000	0.000691
2618.000000	0.000683
2617.000000	0.000670
2616.000000	0.000666
2615.000000	0.000686
2614.000000	0.000726
2613.000000	0.000763
2612.000000	0.000778
2611.000000	0.000776
2610.000000	0.000772
2609.000000	0.000774
2608.000000	0.000772
2607.000000	0.000753
2606.000000	0.000718
2605.000000	0.000679
2604.000000	0.000658
2603.000000	0.000666
2602.000000	0.000700
2601.000000	0.000738
2600.000000	0.000754
2599.000000	0.000740
2598.000000	0.000707
2597.000000	0.000671
2596.000000	0.000645
2595.000000	0.000628
2594.000000	0.000616
2593.000000	0.000607
2592.000000	0.000600
2591.000000	0.000595
2590.000000	0.000586
2589.000000	0.000572
2588.000000	0.000560
2587.000000	0.000564
2586.000000	0.000583
2585.000000	0.000600
2584.000000	0.000604
2583.000000	0.000606
2582.000000	0.000626
2581.000000	0.000655
2580.000000	0.000665
2579.000000	0.000638
2578.000000	0.000588
2577.000000	0.000543
2576.000000	0.000521
2575.000000	0.000525
2574.000000	0.000553
2573.000000	0.000589
2572.000000	0.000612
2571.000000	0.000611
2570.000000	0.000597
2569.000000	0.000591
2568.000000	0.000600
2567.000000	0.000612
2566.000000	0.000609
2565.000000	0.000583
2564.000000	0.000541
2563.000000	0.000507
2562.000000	0.000507
2561.000000	0.000536
2560.000000	0.000564
2559.000000	0.000559
2558.000000	0.000526
2557.000000	0.000497
2556.000000	0.000495
2555.000000	0.000516
2554.000000	0.000538
2553.000000	0.000546
2552.000000	0.000540
2551.000000	0.000533
2550.000000	0.000535
2549.000000	0.000546
2548.000000	0.000558
2547.000000	0.000567
2546.000000	0.000575
2545.000000	0.000583
2544.000000	0.000581
2543.000000	0.000560
2542.000000	0.000531
2541.000000	0.000518
2540.000000	0.000534
2539.000000	0.000570
2538.000000	0.000604
2537.000000	0.000625
2536.000000	0.000626
2535.000000	0.000609
2534.000000	0.000580
2533.000000	0.000552
2532.000000	0.000536
2531.000000	0.000535
2530.000000	0.000544
2529.000000	0.000555
2528.000000	0.000564
2527.000000	0.000574
2526.000000	0.000586
2525.000000	0.000598
2524.000000	0.000600
2523.000000	0.000586
2522.000000	0.000564
2521.000000	0.000547
2520.000000	0.000545
2519.000000	0.000556
2518.000000	0.000574
2517.000000	0.000594
2516.000000	0.000617
2515.000000	0.000650
2514.000000	0.000701
2513.000000	0.000766
2512.000000	0.000821
2511.000000	0.000838
2510.000000	0.000812
2509.000000	0.000760
2508.000000	0.000704
2507.000000	0.000652
2506.000000	0.000606
2505.000000	0.000571
2504.000000	0.000558
2503.000000	0.000570
2502.000000	0.000603
2501.000000	0.000644
2500.000000	0.000676
2499.000000	0.000685
2498.000000	0.000677
2497.000000	0.000671
2496.000000	0.000677
2495.000000	0.000675
2494.000000	0.000642
2493.000000	0.000582
2492.000000	0.000527
2491.000000	0.000501
2490.000000	0.000495
2489.000000	0.000483
2488.000000	0.000457
2487.000000	0.000434
2486.000000	0.000435
2485.000000	0.000459
2484.000000	0.000492
2483.000000	0.000527
2482.000000	0.000558
2481.000000	0.000579
2480.000000	0.000579
2479.000000	0.000564
2478.000000	0.000551
2477.000000	0.000541
2476.000000	0.000519
2475.000000	0.000471
2474.000000	0.000417
2473.000000	0.000395
2472.000000	0.000419
2471.000000	0.000471
2470.000000	0.000521
2469.000000	0.000549
2468.000000	0.000551
2467.000000	0.000526
2466.000000	0.000480
2465.000000	0.000436
2464.000000	0.000421
2463.000000	0.000443
2462.000000	0.000492
2461.000000	0.000542
2460.000000	0.000571
2459.000000	0.000571
2458.000000	0.000549
2457.000000	0.000526
2456.000000	0.000522
2455.000000	0.000544
2454.000000	0.000580
2453.000000	0.000611
2452.000000	0.000624
2451.000000	0.000620
2450.000000	0.000613
2449.000000	0.000610
2448.000000	0.000608
2447.000000	0.000595
2446.000000	0.000568
2445.000000	0.000540
2444.000000	0.000530
2443.000000	0.000535
2442.000000	0.000533
2441.000000	0.000501
2440.000000	0.000450
2439.000000	0.000417
2438.000000	0.000424
2437.000000	0.000464
2436.000000	0.000509
2435.000000	0.000542
2434.000000	0.000566
2433.000000	0.000587
2432.000000	0.000605
2431.000000	0.000619
2430.000000	0.000637
2429.000000	0.000666
2428.000000	0.000699
2427.000000	0.000716
2426.000000	0.000707
2425.000000	0.000672
2424.000000	0.000612
2423.000000	0.000531
2422.000000	0.000445
2421.000000	0.000376
2420.000000	0.000346
2419.000000	0.000358
2418.000000	0.000398
2417.000000	0.000445
2416.000000	0.000478
2415.000000	0.000492
2414.000000	0.000493
2413.000000	0.000493
2412.000000	0.000491
2411.000000	0.000482
2410.000000	0.000463
2409.000000	0.000445
2408.000000	0.000435
2407.000000	0.000434
2406.000000	0.000435
2405.000000	0.000433
2404.000000	0.000429
2403.000000	0.000422
2402.000000	0.000414
2401.000000	0.000408
2400.000000	0.000404
2399.000000	0.000398
2398.000000	0.000385
2397.000000	0.000374
2396.000000	0.000378
2395.000000	0.000410
2394.000000	0.000459
2393.000000	0.000503
2392.000000	0.000528
2391.000000	0.000541
2390.000000	0.000558
2389.000000	0.000590
2388.000000	0.000623
2387.000000	0.000632
2386.000000	0.000607
2385.000000	0.000557
2384.000000	0.000510
2383.000000	0.000486
2382.000000	0.000484
2381.000000	0.000488
2380.000000	0.000489
2379.000000	0.000490
2378.000000	0.000499
2377.000000	0.000516
2376.000000	0.000531
2375.000000	0.000536
2374.000000	0.000524
2373.000000	0.000489
2372.000000	0.000443
2371.000000	0.000422
2370.000000	0.000454
2369.000000	0.000514
2368.000000	0.000541
2367.000000	0.000507
2366.000000	0.000460
2365.000000	0.000464
2364.000000	0.000532
2363.000000	0.000623
2362.000000	0.000691
2361.000000	0.000703
2360.000000	0.000663
2359.000000	0.000599
2358.000000	0.000549
2357.000000	0.000540
2356.000000	0.000557
2355.000000	0.000585
2354.000000	0.000595
2353.000000	0.000566
2352.000000	0.000504
2351.000000	0.000457
2350.000000	0.000471
2349.000000	0.000543
2348.000000	0.000640
2347.000000	0.000712
2346.000000	0.000721
2345.000000	0.000677
2344.000000	0.000621
2343.000000	0.000595
2342.000000	0.000595
2341.000000	0.000602
2340.000000	0.000618
2339.000000	0.000654
2338.000000	0.000699
2337.000000	0.000722
2336.000000	0.000710
2335.000000	0.000675
2334.000000	0.000643
2333.000000	0.000620
2332.000000	0.000616
2331.000000	0.000622
2330.000000	0.000644
2329.000000	0.000668
2328.000000	0.000702
2327.000000	0.000747
2326.000000	0.000806
2325.000000	0.000864
2324.000000	0.000898
2323.000000	0.000900
2322.000000	0.000885
2321.000000	0.000878
2320.000000	0.000895
2319.000000	0.000912
2318.000000	0.000908
2317.000000	0.000872
2316.000000	0.000823
2315.000000	0.000771
2314.000000	0.000726
2313.000000	0.000691
2312.000000	0.000676
2311.000000	0.000679
2310.000000	0.000699
2309.000000	0.000727
2308.000000	0.000748
2307.000000	0.000739
2306.000000	0.000692
2305.000000	0.000627
2304.000000	0.000579
2303.000000	0.000559
2302.000000	0.000556
2301.000000	0.000557
2300.000000	0.000581
2299.000000	0.000640
2298.000000	0.000724
2297.000000	0.000792
2296.000000	0.000817
2295.000000	0.000797
2294.000000	0.000755
2293.000000	0.000710
2292.000000	0.000675
2291.000000	0.000662
2290.000000	0.000670
2289.000000	0.000690
2288.000000	0.000709
2287.000000	0.000726
2286.000000	0.000757
2285.000000	0.000808
2284.000000	0.000861
2283.000000	0.000890
2282.000000	0.000883
2281.000000	0.000855
2280.000000	0.000825
2279.000000	0.000803
2278.000000	0.000784
2277.000000	0.000752
2276.000000	0.000694
2275.000000	0.000618
2274.000000	0.000551
2273.000000	0.000524
2272.000000	0.000536
2271.000000	0.000560
2270.000000	0.000574
2269.000000	0.000580
2268.000000	0.000584
2267.000000	0.000583
2266.000000	0.000568
2265.000000	0.000544
2264.000000	0.000523
2263.000000	0.000511
2262.000000	0.000511
2261.000000	0.000528
2260.000000	0.000567
2259.000000	0.000614
2258.000000	0.000659
2257.000000	0.000708
2256.000000	0.000776
2255.000000	0.000856
2254.000000	0.000918
2253.000000	0.000941
2252.000000	0.000922
2251.000000	0.000863
2250.000000	0.000770
2249.000000	0.000669
2248.000000	0.000596
2247.000000	0.000564
2246.000000	0.000545
2245.000000	0.000504
2244.000000	0.000445
2243.000000	0.000405
2242.000000	0.000415
2241.000000	0.000471
2240.000000	0.000541
2239.000000	0.000585
2238.000000	0.000574
2237.000000	0.000514
2236.000000	0.000445
2235.000000	0.000414
2234.000000	0.000432
2233.000000	0.000473
2232.000000	0.000506
2231.000000	0.000531
2230.000000	0.000569
2229.000000	0.000609
2228.000000	0.000603
2227.000000	0.000522
2226.000000	0.000411
2225.000000	0.000365
2224.000000	0.000427
2223.000000	0.000553
2222.000000	0.000664
2221.000000	0.000727
2220.000000	0.000746
2219.000000	0.000724
2218.000000	0.000654
2217.000000	0.000557
2216.000000	0.000472
2215.000000	0.000413
2214.000000	0.000363
2213.000000	0.000311
2212.000000	0.000270
2211.000000	0.000247
2210.000000	0.000227
2209.000000	0.000206
2208.000000	0.000193
2207.000000	0.000193
2206.000000	0.000194
2205.000000	0.000185
2204.000000	0.000186
2203.000000	0.000218
2202.000000	0.000269
2201.000000	0.000310
2200.000000	0.000332
2199.000000	0.000364
2198.000000	0.000443
2197.000000	0.000569
2196.000000	0.000673
2195.000000	0.000664
2194.000000	0.000523
2193.000000	0.000354
2192.000000	0.000298
2191.000000	0.000389
2190.000000	0.000531
2189.000000	0.000609
2188.000000	0.000596
2187.000000	0.000526
2186.000000	0.000427
2185.000000	0.000320
2184.000000	0.000247
2183.000000	0.000238
2182.000000	0.000258
2181.000000	0.000240
2180.000000	0.000177
2179.000000	0.000131
2178.000000	0.000158
2177.000000	0.000236
2176.000000	0.000292
2175.000000	0.000247
2174.000000	0.000071
2173.000000	-0.000171
2172.000000	-0.000326
2171.000000	-0.000247
2170.000000	0.000091
2169.000000	0.000554
2168.000000	0.000940
2167.000000	0.001096
2166.000000	0.000990
2165.000000	0.000731
2164.000000	0.000522
2163.000000	0.000525
2162.000000	0.000708
2161.000000	0.000853
2160.000000	0.000744
2159.000000	0.000366
2158.000000	-0.000106
2157.000000	-0.000494
2156.000000	-0.000721
2155.000000	-0.000770
2154.000000	-0.000637
2153.000000	-0.000377
2152.000000	-0.000114
2151.000000	0.000034
2150.000000	0.000033
2149.000000	-0.000064
2148.000000	-0.000181
2147.000000	-0.000266
2146.000000	-0.000279
2145.000000	-0.000194
2144.000000	-0.000011
2143.000000	0.000211
2142.000000	0.000380
2141.000000	0.000429
2140.000000	0.000364
2139.000000	0.000257
2138.000000	0.000194
2137.000000	0.000209
2136.000000	0.000265
2135.000000	0.000291
2134.000000	0.000256
2133.000000	0.000190
2132.000000	0.000133
2131.000000	0.000086
2130.000000	0.000027
2129.000000	-0.000025
2128.000000	-0.000025
2127.000000	0.000029
2126.000000	0.000075
2125.000000	0.000067
2124.000000	0.000043
2123.000000	0.000084
2122.000000	0.000206
2121.000000	0.000341
2120.000000	0.000422
2119.000000	0.000455
2118.000000	0.000486
2117.000000	0.000539
2116.000000	0.000604
2115.000000	0.000659
2114.000000	0.000689
2113.000000	0.000690
2112.000000	0.000672
2111.000000	0.000651
2110.000000	0.000630
2109.000000	0.000592
2108.000000	0.000525
2107.000000	0.000443
2106.000000	0.000382
2105.000000	0.000384
2104.000000	0.000468
2103.000000	0.000615
2102.000000	0.000750
2101.000000	0.000796
2100.000000	0.000737
2099.000000	0.000641
2098.000000	0.000579
2097.000000	0.000559
2096.000000	0.000550
2095.000000	0.000541
2094.000000	0.000548
2093.000000	0.000578
2092.000000	0.000618
2091.000000	0.000659
2090.000000	0.000689
2089.000000	0.000691
2088.000000	0.000663
2087.000000	0.000643
2086.000000	0.000672
2085.000000	0.000736
2084.000000	0.000782
2083.000000	0.000783
2082.000000	0.000762
2081.000000	0.000737
2080.000000	0.000699
2079.000000	0.000651
2078.000000	0.000639
2077.000000	0.000689
2076.000000	0.000759
2075.000000	0.000779
2074.000000	0.000734
2073.000000	0.000668
2072.000000	0.000619
2071.000000	0.000578
2070.000000	0.000527
2069.000000	0.000476
2068.000000	0.000457
2067.000000	0.000482
2066.000000	0.000526
2065.000000	0.000537
2064.000000	0.000480
2063.000000	0.000368
2062.000000	0.000255
2061.000000	0.000192
2060.000000	0.000203
2059.000000	0.000286
2058.000000	0.000422
2057.000000	0.000567
2056.000000	0.000664
2055.000000	0.000700
2054.000000	0.000725
2053.000000	0.000796
2052.000000	0.000913
2051.000000	0.001023
2050.000000	0.001071
2049.000000	0.001026
2048.000000	0.000902
2047.000000	0.000766
2046.000000	0.000696
2045.000000	0.000711
2044.000000	0.000732
2043.000000	0.000672
2042.000000	0.000518
2041.000000	0.000321
2040.000000	0.000124
2039.000000	-0.000033
2038.000000	-0.000075
2037.000000	0.000057
2036.000000	0.000285
2035.000000	0.000416
2034.000000	0.000335
2033.000000	0.000112
2032.000000	-0.000101
2031.000000	-0.000228
2030.000000	-0.000285
2029.000000	-0.000293
2028.000000	-0.000257
2027.000000	-0.000205
2026.000000	-0.000178
2025.000000	-0.000212
2024.000000	-0.000308
2023.000000	-0.000417
2022.000000	-0.000456
2021.000000	-0.000368
2020.000000	-0.000205
2019.000000	-0.000083
2018.000000	-0.000054
2017.000000	-0.000050
2016.000000	0.000005
2015.000000	0.000090
2014.000000	0.000129
2013.000000	0.000106
2012.000000	0.000088
2011.000000	0.000132
2010.000000	0.000217
2009.000000	0.000265
2008.000000	0.000217
2007.000000	0.000079
2006.000000	-0.000097
2005.000000	-0.000267
2004.000000	-0.000410
2003.000000	-0.000498
2002.000000	-0.000472
2001.000000	-0.000294
2000.000000	-0.000027
1999.000000	0.000201
1998.000000	0.000305
1997.000000	0.000307
1996.000000	0.000289
1995.000000	0.000314
1994.000000	0.000396
1993.000000	0.000507
1992.000000	0.000578
1991.000000	0.000548
1990.000000	0.000436
1989.000000	0.000340
1988.000000	0.000344
1987.000000	0.000435
1986.000000	0.000538
1985.000000	0.000608
1984.000000	0.000654
1983.000000	0.000679
1982.000000	0.000657
1981.000000	0.000568
1980.000000	0.000430
1979.000000	0.000294
1978.000000	0.000214
1977.000000	0.000241
1976.000000	0.000381
1975.000000	0.000564
1974.000000	0.000682
1973.000000	0.000681
1972.000000	0.000587
1971.000000	0.000450
1970.000000	0.000303
1969.000000	0.000185
1968.000000	0.000153
1967.000000	0.000229
1966.000000	0.000332
1965.000000	0.000328
1964.000000	0.000153
1963.000000	-0.000120
1962.000000	-0.000354
1961.000000	-0.000464
1960.000000	-0.000495
1959.000000	-0.000555
1958.000000	-0.000684
1957.000000	-0.000799
1956.000000	-0.000783
1955.000000	-0.000607
1954.000000	-0.000360
1953.000000	-0.000165
1952.000000	-0.000069
1951.000000	-0.000028
1950.000000	0.000016
1949.000000	0.000083
1948.000000	0.000155
1947.000000	0.000221
1946.000000	0.000281
1945.000000	0.000320
1944.000000	0.000312
1943.000000	0.000249
1942.000000	0.000169
1941.000000	0.000116
1940.000000	0.000099
1939.000000	0.000096
1938.000000	0.000087
1937.000000	0.000065
1936.000000	0.000024
1935.000000	-0.000033
1934.000000	-0.000080
1933.000000	-0.000083
1932.000000	-0.000044
1931.000000	-0.000014
1930.000000	-0.000030
1929.000000	-0.000068
1928.000000	-0.000069
1927.000000	-0.000012
1926.000000	0.000056
1925.000000	0.000072
1924.000000	0.000027
1923.000000	-0.000016
1922.000000	0.000009
1921.000000	0.000102
1920.000000	0.000200
1919.000000	0.000240
1918.000000	0.000196
1917.000000	0.000105
1916.000000	0.000029
1915.000000	0.000009
1914.000000	0.000046
1913.000000	0.000122
1912.000000	0.000197
1911.000000	0.000228
1910.000000	0.000196
1909.000000	0.000110
1908.000000	0.000005
1907.000000	-0.000086
1906.000000	-0.000134
1905.000000	-0.000127
1904.000000	-0.000074
1903.000000	-0.000011
1902.000000	0.000028
1901.000000	0.000044
1900.000000	0.000053
1899.000000	0.000059
1898.000000	0.000046
1897.000000	0.000015
1896.000000	-0.000004
1895.000000	0.000014
1894.000000	0.000044
1893.000000	0.000044
1892.000000	-0.000005
1891.000000	-0.000079
1890.000000	-0.000145
1889.000000	-0.000172
1888.000000	-0.000154
1887.000000	-0.000108
1886.000000	-0.000061
1885.000000	-0.000027
1884.000000	-0.000001
1883.000000	0.000029
1882.000000	0.000057
1881.000000	0.000059
1880.000000	0.000024
1879.000000	-0.000030
1878.000000	-0.000081
1877.000000	-0.000121
1876.000000	-0.000147
1875.000000	-0.000154
1874.000000	-0.000141
1873.000000	-0.000116
1872.000000	-0.000085
1871.000000	-0.000043
1870.000000	0.000013
1869.000000	0.000057
1868.000000	0.000065
1867.000000	0.000053
1866.000000	0.000053
1865.000000	0.000070
1864.000000	0.000084
1863.000000	0.000078
1862.000000	0.000051
1861.000000	0.000017
1860.000000	-0.000015
1859.000000	-0.000045
1858.000000	-0.000074
1857.000000	-0.000096
1856.000000	-0.000099
1855.000000	-0.000082
1854.000000	-0.000051
1853.000000	-0.000021
1852.000000	-0.000010
1851.000000	-0.000022
1850.000000	-0.000053
1849.000000	-0.000096
1848.000000	-0.000150
1847.000000	-0.000205
1846.000000	-0.000250
1845.000000	-0.000273
1844.000000	-0.000273
1843.000000	-0.000254
1842.000000	-0.000225
1841.000000	-0.000194
1840.000000	-0.000161
1839.000000	-0.000124
1838.000000	-0.000088
1837.000000	-0.000074
1836.000000	-0.000091
1835.000000	-0.000128
1834.000000	-0.000156
1833.000000	-0.000159
1832.000000	-0.000152
1831.000000	-0.000152
1830.000000	-0.000162
1829.000000	-0.000166
1828.000000	-0.000166
1827.000000	-0.000186
1826.000000	-0.000234
1825.000000	-0.000284
1824.000000	-0.000297
1823.000000	-0.000262
1822.000000	-0.000201
1821.000000	-0.000147
1820.000000	-0.000116
1819.000000	-0.000108
1818.000000	-0.000106
1817.000000	-0.000103
1816.000000	-0.000110
1815.000000	-0.000144
1814.000000	-0.000204
1813.000000	-0.000270
1812.000000	-0.000312
1811.000000	-0.000312
1810.000000	-0.000279
1809.000000	-0.000244
1808.000000	-0.000230
1807.000000	-0.000231
1806.000000	-0.000223
1805.000000	-0.000195
1804.000000	-0.000151
1803.000000	-0.000112
1802.000000	-0.000093
1801.000000	-0.000103
1800.000000	-0.000132
1799.000000	-0.000158
1798.000000	-0.000165
1797.000000	-0.000153
1796.000000	-0.000138
1795.000000	-0.000134
1794.000000	-0.000150
1793.000000	-0.000187
1792.000000	-0.000229
1791.000000	-0.000250
1790.000000	-0.000244
1789.000000	-0.000229
1788.000000	-0.000221
1787.000000	-0.000226
1786.000000	-0.000237
1785.000000	-0.000246
1784.000000	-0.000246
1783.000000	-0.000238
1782.000000	-0.000224
1781.000000	-0.000217
1780.000000	-0.000221
1779.000000	-0.000229
1778.000000	-0.000232
1777.000000	-0.000229
1776.000000	-0.000231
1775.000000	-0.000243
1774.000000	-0.000256
1773.000000	-0.000267
1772.000000	-0.000282
1771.000000	-0.000300
1770.000000	-0.000310
1769.000000	-0.000308
1768.000000	-0.000293
1767.000000	-0.000269
1766.000000	-0.000241
1765.000000	-0.000217
1764.000000	-0.000202
1763.000000	-0.000194
1762.000000	-0.000182
1761.000000	-0.000158
1760.000000	-0.000127
1759.000000	-0.000110
1758.000000	-0.000104
1757.000000	-0.000086
1756.000000	-0.000033
1755.000000	0.000046
1754.000000	0.000136
1753.000000	0.000235
1752.000000	0.000353
1751.000000	0.000473
1750.000000	0.000570
1749.000000	0.000637
1748.000000	0.000685
1747.000000	0.000722
1746.000000	0.000759
1745.000000	0.000797
1744.000000	0.000829
1743.000000	0.000842
1742.000000	0.000849
1741.000000	0.000875
1740.000000	0.000913
1739.000000	0.000920
1738.000000	0.000862
1737.000000	0.000762
1736.000000	0.000669
1735.000000	0.000637
1734.000000	0.000664
1733.000000	0.000681
1732.000000	0.000653
1731.000000	0.000591
1730.000000	0.000519
1729.000000	0.000451
1728.000000	0.000385
1727.000000	0.000317
1726.000000	0.000258
1725.000000	0.000217
1724.000000	0.000182
1723.000000	0.000134
1722.000000	0.000069
1721.000000	0.000002
1720.000000	-0.000048
1719.000000	-0.000068
1718.000000	-0.000063
1717.000000	-0.000054
1716.000000	-0.000054
1715.000000	-0.000063
1714.000000	-0.000078
1713.000000	-0.000087
1712.000000	-0.000085
1711.000000	-0.000079
1710.000000	-0.000076
1709.000000	-0.000079
1708.000000	-0.000085
1707.000000	-0.000084
1706.000000	-0.000075
1705.000000	-0.000065
1704.000000	-0.000065
1703.000000	-0.000069
1702.000000	-0.000051
1701.000000	0.000006
1700.000000	0.000056
1699.000000	0.000063
1698.000000	0.000049
1697.000000	0.000042
1696.000000	0.000067
1695.000000	0.000137
1694.000000	0.000233
1693.000000	0.000322
1692.000000	0.000399
1691.000000	0.000473
1690.000000	0.000551
1689.000000	0.000623
1688.000000	0.000675
1687.000000	0.000708
1686.000000	0.000744
1685.000000	0.000793
1684.000000	0.000819
1683.000000	0.000836
1682.000000	0.000878
1681.000000	0.000926
1680.000000	0.000962
1679.000000	0.000986
1678.000000	0.001018
1677.000000	0.001080
1676.000000	0.001163
1675.000000	0.001224
1674.000000	0.001252
1673.000000	0.001284
1672.000000	0.001344
1671.000000	0.001426
1670.000000	0.001501
1669.000000	0.001550
1668.000000	0.001584
1667.000000	0.001615
1666.000000	0.001649
1665.000000	0.001697
1664.000000	0.001765
1663.000000	0.001838
1662.000000	0.001902
1661.000000	0.001959
1660.000000	0.002011
1659.000000	0.002049
1658.000000	0.002070
1657.000000	0.002076
1656.000000	0.002081
1655.000000	0.002109
1654.000000	0.002144
1653.000000	0.002134
1652.000000	0.002156
1651.000000	0.002235
1650.000000	0.002315
1649.000000	0.002391
1648.000000	0.002450
1647.000000	0.002467
1646.000000	0.002467
1645.000000	0.002510
1644.000000	0.002585
1643.000000	0.002650
1642.000000	0.002685
1641.000000	0.002687
1640.000000	0.002665
1639.000000	0.002635
1638.000000	0.002617
1637.000000	0.002625
1636.000000	0.002641
1635.000000	0.002640
1634.000000	0.002636
1633.000000	0.002640
1632.000000	0.002653
1631.000000	0.002667
1630.000000	0.002673
1629.000000	0.002670
1628.000000	0.002666
1627.000000	0.002672
1626.000000	0.002687
1625.000000	0.002695
1624.000000	0.002672
1623.000000	0.002607
1622.000000	0.002526
1621.000000	0.002461
1620.000000	0.002409
1619.000000	0.002363
1618.000000	0.002315
1617.000000	0.002251
1616.000000	0.002168
1615.000000	0.002090
1614.000000	0.002037
1613.000000	0.002007
1612.000000	0.001988
1611.000000	0.001961
1610.000000	0.001916
1609.000000	0.001856
1608.000000	0.001785
1607.000000	0.001702
1606.000000	0.001615
1605.000000	0.001543
1604.000000	0.001491
1603.000000	0.001450
1602.000000	0.001408
1601.000000	0.001366
1600.000000	0.001336
1599.000000	0.001321
1598.000000	0.001311
1597.000000	0.001290
1596.000000	0.001255
1595.000000	0.001214
1594.000000	0.001183
1593.000000	0.001170
1592.000000	0.001167
1591.000000	0.001158
1590.000000	0.001137
1589.000000	0.001109
1588.000000	0.001086
1587.000000	0.001070
1586.000000	0.001063
1585.000000	0.001062
1584.000000	0.001059
1583.000000	0.001046
1582.000000	0.001021
1581.000000	0.000986
1580.000000	0.000951
1579.000000	0.000931
1578.000000	0.000945
1577.000000	0.000990
1576.000000	0.001027
1575.000000	0.001032
1574.000000	0.001031
1573.000000	0.001047
1572.000000	0.001081
1571.000000	0.001120
1570.000000	0.001138
1569.000000	0.001133
1568.000000	0.001135
1567.000000	0.001154
1566.000000	0.001184
1565.000000	0.001215
1564.000000	0.001235
1563.000000	0.001238
1562.000000	0.001239
1561.000000	0.001276
1560.000000	0.001376
1559.000000	0.001429
1558.000000	0.001375
1557.000000	0.001369
1556.000000	0.001404
1555.000000	0.001450
1554.000000	0.001497
1553.000000	0.001539
1552.000000	0.001572
1551.000000	0.001603
1550.000000	0.001642
1549.000000	0.001690
1548.000000	0.001741
1547.000000	0.001787
1546.000000	0.001824
1545.000000	0.001846
1544.000000	0.001853
1543.000000	0.001862
1542.000000	0.001901
1541.000000	0.001960
1540.000000	0.001986
1539.000000	0.001988
1538.000000	0.002019
1537.000000	0.002070
1536.000000	0.002129
1535.000000	0.002196
1534.000000	0.002263
1533.000000	0.002306
1532.000000	0.002330
1531.000000	0.002351
1530.000000	0.002359
1529.000000	0.002346
1528.000000	0.002319
1527.000000	0.002302
1526.000000	0.002310
1525.000000	0.002330
1524.000000	0.002339
1523.000000	0.002332
1522.000000	0.002320
1521.000000	0.002316
1520.000000	0.002340
1519.000000	0.002389
1518.000000	0.002431
1517.000000	0.002435
1516.000000	0.002403
1515.000000	0.002378
1514.000000	0.002382
1513.000000	0.002401
1512.000000	0.002411
1511.000000	0.002401
1510.000000	0.002385
1509.000000	0.002380
1508.000000	0.002381
1507.000000	0.002338
1506.000000	0.002276
1505.000000	0.002270
1504.000000	0.002272
1503.000000	0.002257
1502.000000	0.002236
1501.000000	0.002216
1500.000000	0.002186
1499.000000	0.002137
1498.000000	0.002082
1497.000000	0.002044
1496.000000	0.002024
1495.000000	0.002012
1494.000000	0.001999
1493.000000	0.001985
1492.000000	0.001975
1491.000000	0.001971
1490.000000	0.001967
1489.000000	0.001951
1488.000000	0.001928
1487.000000	0.001910
1486.000000	0.001904
1485.000000	0.001905
1484.000000	0.001899
1483.000000	0.001881
1482.000000	0.001862
1481.000000	0.001859
1480.000000	0.001868
1479.000000	0.001872
1478.000000	0.001868
1477.000000	0.001863
1476.000000	0.001866
1475.000000	0.001883
1474.000000	0.001930
1473.000000	0.002005
1472.000000	0.002079
1471.000000	0.002135
1470.000000	0.002179
1469.000000	0.002213
1468.000000	0.002235
1467.000000	0.002251
1466.000000	0.002275
1465.000000	0.002314
1464.000000	0.002350
1463.000000	0.002365
1462.000000	0.002358
1461.000000	0.002337
1460.000000	0.002310
1459.000000	0.002304
1458.000000	0.002367
1457.000000	0.002511
1456.000000	0.002655
1455.000000	0.002733
1454.000000	0.002761
1453.000000	0.002774
1452.000000	0.002788
1451.000000	0.002800
1450.000000	0.002815
1449.000000	0.002845
1448.000000	0.002890
1447.000000	0.002936
1446.000000	0.002979
1445.000000	0.003019
1444.000000	0.003044
1443.000000	0.003050
1442.000000	0.003042
1441.000000	0.003034
1440.000000	0.003029
1439.000000	0.003028
1438.000000	0.003047
1437.000000	0.003101
1436.000000	0.003161
1435.000000	0.003189
1434.000000	0.003189
1433.000000	0.003183
1432.000000	0.003183
1431.000000	0.003188
1430.000000	0.003194
1429.000000	0.003209
1428.000000	0.003227
1427.000000	0.003232
1426.000000	0.003228
1425.000000	0.003237
1424.000000	0.003259
1423.000000	0.003264
1422.000000	0.003242
1421.000000	0.003226
1420.000000	0.003256
1419.000000	0.003317
1418.000000	0.003349
1417.000000	0.003337
1416.000000	0.003303
1415.000000	0.003265
1414.000000	0.003235
1413.000000	0.003213
1412.000000	0.003196
1411.000000	0.003175
1410.000000	0.003141
1409.000000	0.003093
1408.000000	0.003034
1407.000000	0.002969
1406.000000	0.002911
1405.000000	0.002870
1404.000000	0.002848
1403.000000	0.002833
1402.000000	0.002824
1401.000000	0.002829
1400.000000	0.002856
1399.000000	0.002887
1398.000000	0.002896
1397.000000	0.002885
1396.000000	0.002869
1395.000000	0.002854
1394.000000	0.002841
1393.000000	0.002831
1392.000000	0.002824
1391.000000	0.002818
1390.000000	0.002812
1389.000000	0.002806
1388.000000	0.002793
1387.000000	0.002765
1386.000000	0.002724
1385.000000	0.002679
1384.000000	0.002635
1383.000000	0.002592
1382.000000	0.002555
1381.000000	0.002526
1380.000000	0.002502
1379.000000	0.002475
1378.000000	0.002437
1377.000000	0.002389
1376.000000	0.002341
1375.000000	0.002296
1374.000000	0.002254
1373.000000	0.002208
1372.000000	0.002158
1371.000000	0.002110
1370.000000	0.002070
1369.000000	0.002040
1368.000000	0.002018
1367.000000	0.001997
1366.000000	0.001975
1365.000000	0.001948
1364.000000	0.001906
1363.000000	0.001843
1362.000000	0.001770
1361.000000	0.001709
1360.000000	0.001673
1359.000000	0.001655
1358.000000	0.001642
1357.000000	0.001630
1356.000000	0.001621
1355.000000	0.001619
1354.000000	0.001624
1353.000000	0.001629
1352.000000	0.001627
1351.000000	0.001612
1350.000000	0.001589
1349.000000	0.001571
1348.000000	0.001565
1347.000000	0.001570
1346.000000	0.001579
1345.000000	0.001582
1344.000000	0.001577
1343.000000	0.001565
1342.000000	0.001547
1341.000000	0.001529
1340.000000	0.001516
1339.000000	0.001509
1338.000000	0.001504
1337.000000	0.001495
1336.000000	0.001480
1335.000000	0.001463
1334.000000	0.001451
1333.000000	0.001448
1332.000000	0.001453
1331.000000	0.001461
1330.000000	0.001464
1329.000000	0.001455
1328.000000	0.001436
1327.000000	0.001415
1326.000000	0.001403
1325.000000	0.001406
1324.000000	0.001420
1323.000000	0.001429
1322.000000	0.001426
1321.000000	0.001415
1320.000000	0.001408
1319.000000	0.001410
1318.000000	0.001412
1317.000000	0.001404
1316.000000	0.001380
1315.000000	0.001346
1314.000000	0.001317
1313.000000	0.001305
1312.000000	0.001304
1311.000000	0.001300
1310.000000	0.001285
1309.000000	0.001272
1308.000000	0.001275
1307.000000	0.001289
1306.000000	0.001296
1305.000000	0.001285
1304.000000	0.001260
1303.000000	0.001235
1302.000000	0.001216
1301.000000	0.001201
1300.000000	0.001183
1299.000000	0.001160
1298.000000	0.001131
1297.000000	0.001098
1296.000000	0.001064
1295.000000	0.001029
1294.000000	0.000997
1293.000000	0.000977
1292.000000	0.000977
1291.000000	0.000996
1290.000000	0.001023
1289.000000	0.001050
1288.000000	0.001071
1287.000000	0.001082
1286.000000	0.001075
1285.000000	0.001054
1284.000000	0.001028
1283.000000	0.001005
1282.000000	0.000988
1281.000000	0.000979
1280.000000	0.000978
1279.000000	0.000987
1278.000000	0.001001
1277.000000	0.001008
1276.000000	0.001003
1275.000000	0.000989
1274.000000	0.000975
1273.000000	0.000971
1272.000000	0.000983
1271.000000	0.001009
1270.000000	0.001037
1269.000000	0.001062
1268.000000	0.001082
1267.000000	0.001105
1266.000000	0.001128
1265.000000	0.001145
1264.000000	0.001149
1263.000000	0.001146
1262.000000	0.001151
1261.000000	0.001175
1260.000000	0.001219
1259.000000	0.001267
1258.000000	0.001302
1257.000000	0.001314
1256.000000	0.001311
1255.000000	0.001314
1254.000000	0.001340
1253.000000	0.001389
1252.000000	0.001443
1251.000000	0.001483
1250.000000	0.001500
1249.000000	0.001491
1248.000000	0.001451
1247.000000	0.001382
1246.000000	0.001303
1245.000000	0.001246
1244.000000	0.001231
1243.000000	0.001248
1242.000000	0.001264
1241.000000	0.001258
1240.000000	0.001234
1239.000000	0.001208
1238.000000	0.001196
1237.000000	0.001199
1236.000000	0.001214
1235.000000	0.001237
1234.000000	0.001263
1233.000000	0.001277
1232.000000	0.001264
1231.000000	0.001225
1230.000000	0.001180
1229.000000	0.001147
1228.000000	0.001126
1227.000000	0.001104
1226.000000	0.001071
1225.000000	0.001031
1224.000000	0.000991
1223.000000	0.000952
1222.000000	0.000909
1221.000000	0.000864
1220.000000	0.000818
1219.000000	0.000772
1218.000000	0.000730
1217.000000	0.000698
1216.000000	0.000676
1215.000000	0.000660
1214.000000	0.000635
1213.000000	0.000596
1212.000000	0.000549
1211.000000	0.000506
1210.000000	0.000479
1209.000000	0.000467
1208.000000	0.000462
1207.000000	0.000455
1206.000000	0.000448
1205.000000	0.000444
1204.000000	0.000443
1203.000000	0.000435
1202.000000	0.000410
1201.000000	0.000375
1200.000000	0.000343
1199.000000	0.000329
1198.000000	0.000342
1197.000000	0.000381
1196.000000	0.000433
1195.000000	0.000479
1194.000000	0.000507
1193.000000	0.000521
1192.000000	0.000531
1191.000000	0.000542
1190.000000	0.000554
1189.000000	0.000567
1188.000000	0.000589
1187.000000	0.000628
1186.000000	0.000689
1185.000000	0.000769
1184.000000	0.000850
1183.000000	0.000916
1182.000000	0.000967
1181.000000	0.001024
1180.000000	0.001103
1179.000000	0.001198
1178.000000	0.001288
1177.000000	0.001364
1176.000000	0.001434
1175.000000	0.001504
1174.000000	0.001572
1173.000000	0.001638
1172.000000	0.001708
1171.000000	0.001790
1170.000000	0.001876
1169.000000	0.001957
1168.000000	0.002036
1167.000000	0.002123
1166.000000	0.002219
1165.000000	0.002307
1164.000000	0.002369
1163.000000	0.002401
1162.000000	0.002414
1161.000000	0.002419
1160.000000	0.002423
1159.000000	0.002430
1158.000000	0.002443
1157.000000	0.002459
1156.000000	0.002475
1155.000000	0.002489
1154.000000	0.002506
1153.000000	0.002531
1152.000000	0.002561
1151.000000	0.002589
1150.000000	0.002607
1149.000000	0.002606
1148.000000	0.002580
1147.000000	0.002531
1146.000000	0.002471
1145.000000	0.002415
1144.000000	0.002373
1143.000000	0.002342
1142.000000	0.002314
1141.000000	0.002287
1140.000000	0.002262
1139.000000	0.002235
1138.000000	0.002196
1137.000000	0.002138
1136.000000	0.002068
1135.000000	0.002006
1134.000000	0.001970
1133.000000	0.001954
1132.000000	0.001943
1131.000000	0.001930
1130.000000	0.001925
1129.000000	0.001934
1128.000000	0.001946
1127.000000	0.001946
1126.000000	0.001944
1125.000000	0.001963
1124.000000	0.002023
1123.000000	0.002119
1122.000000	0.002230
1121.000000	0.002333
1120.000000	0.002417
1119.000000	0.002479
1118.000000	0.002524
1117.000000	0.002552
1116.000000	0.002573
1115.000000	0.002599
1114.000000	0.002642
1113.000000	0.002689
1112.000000	0.002713
1111.000000	0.002700
1110.000000	0.002666
1109.000000	0.002636
1108.000000	0.002611
1107.000000	0.002577
1106.000000	0.002536
1105.000000	0.002501
1104.000000	0.002479
1103.000000	0.002456
1102.000000	0.002420
1101.000000	0.002378
1100.000000	0.002348
1099.000000	0.002341
1098.000000	0.002358
1097.000000	0.002381
1096.000000	0.002393
1095.000000	0.002387
1094.000000	0.002382
1093.000000	0.002393
1092.000000	0.002406
1091.000000	0.002398
1090.000000	0.002373
1089.000000	0.002364
1088.000000	0.002389
1087.000000	0.002422
1086.000000	0.002427
1085.000000	0.002396
1084.000000	0.002351
1083.000000	0.002313
1082.000000	0.002292
1081.000000	0.002289
1080.000000	0.002302
1079.000000	0.002326
1078.000000	0.002355
1077.000000	0.002380
1076.000000	0.002391
1075.000000	0.002379
1074.000000	0.002356
1073.000000	0.002340
1072.000000	0.002332
1071.000000	0.002313
1070.000000	0.002273
1069.000000	0.002233
1068.000000	0.002220
1067.000000	0.002234
1066.000000	0.002250
1065.000000	0.002252
1064.000000	0.002243
1063.000000	0.002235
1062.000000	0.002240
1061.000000	0.002264
1060.000000	0.002301
1059.000000	0.002326
1058.000000	0.002314
1057.000000	0.002255
1056.000000	0.002165
1055.000000	0.002072
1054.000000	0.002002
1053.000000	0.001969
1052.000000	0.001975
1051.000000	0.002004
1050.000000	0.002031
1049.000000	0.002043
1048.000000	0.002045
1047.000000	0.002060
1046.000000	0.002108
1045.000000	0.002196
1044.000000	0.002302
1043.000000	0.002379
1042.000000	0.002395
1041.000000	0.002366
1040.000000	0.002340
1039.000000	0.002347
1038.000000	0.002369
1037.000000	0.002363
1036.000000	0.002303
1035.000000	0.002212
1034.000000	0.002135
1033.000000	0.002093
1032.000000	0.002066
1031.000000	0.002023
1030.000000	0.001959
1029.000000	0.001903
1028.000000	0.001887
1027.000000	0.001913
1026.000000	0.001955
1025.000000	0.001983
1024.000000	0.001983
1023.000000	0.001965
1022.000000	0.001953
1021.000000	0.001958
1020.000000	0.001970
1019.000000	0.001967
1018.000000	0.001942
1017.000000	0.001914
1016.000000	0.001897
1015.000000	0.001891
1014.000000	0.001894
1013.000000	0.001911
1012.000000	0.001936
1011.000000	0.001945
1010.000000	0.001922
1009.000000	0.001887
1008.000000	0.001871
1007.000000	0.001873
1006.000000	0.001861
1005.000000	0.001808
1004.000000	0.001724
1003.000000	0.001637
1002.000000	0.001566
1001.000000	0.001515
1000.000000	0.001481
999.000000	0.001462
998.000000	0.001453
997.000000	0.001453
996.000000	0.001457
995.000000	0.001451
994.000000	0.001416
993.000000	0.001351
992.000000	0.001276
991.000000	0.001218
990.000000	0.001183
989.000000	0.001168
988.000000	0.001165
987.000000	0.001169
986.000000	0.001174
985.000000	0.001178
984.000000	0.001181
983.000000	0.001176
982.000000	0.001149
981.000000	0.001093
980.000000	0.001024
979.000000	0.000967
978.000000	0.000934
977.000000	0.000921
976.000000	0.000915
975.000000	0.000910
974.000000	0.000900
973.000000	0.000881
972.000000	0.000852
971.000000	0.000820
970.000000	0.000789
969.000000	0.000767
968.000000	0.000760
967.000000	0.000767
966.000000	0.000769
965.000000	0.000746
964.000000	0.000697
963.000000	0.000645
962.000000	0.000609
961.000000	0.000585
960.000000	0.000560
959.000000	0.000525
958.000000	0.000486
957.000000	0.000449
956.000000	0.000421
955.000000	0.000407
954.000000	0.000404
953.000000	0.000393
952.000000	0.000359
951.000000	0.000315
950.000000	0.000289
949.000000	0.000295
948.000000	0.000315
947.000000	0.000319
946.000000	0.000301
945.000000	0.000280
944.000000	0.000272
943.000000	0.000273
942.000000	0.000272
941.000000	0.000265
940.000000	0.000257
939.000000	0.000251
938.000000	0.000239
937.000000	0.000220
936.000000	0.000206
935.000000	0.000203
934.000000	0.000199
933.000000	0.000174
932.000000	0.000134
931.000000	0.000106
930.000000	0.000111
929.000000	0.000138
928.000000	0.000156
927.000000	0.000147
926.000000	0.000120
925.000000	0.000094
924.000000	0.000084
923.000000	0.000096
922.000000	0.000123
921.000000	0.000151
920.000000	0.000165
919.000000	0.000160
918.000000	0.000142
917.000000	0.000112
916.000000	0.000072
915.000000	0.000036
914.000000	0.000027
913.000000	0.000055
912.000000	0.000096
911.000000	0.000112
910.000000	0.000089
909.000000	0.000044
908.000000	0.000004
907.000000	-0.000024
906.000000	-0.000052
905.000000	-0.000087
904.000000	-0.000122
903.000000	-0.000148
902.000000	-0.000167
901.000000	-0.000193
900.000000	-0.000229
899.000000	-0.000260
898.000000	-0.000269
897.000000	-0.000256
896.000000	-0.000239
895.000000	-0.000234
894.000000	-0.000234
893.000000	-0.000223
892.000000	-0.000197
891.000000	-0.000170
890.000000	-0.000154
889.000000	-0.000142
888.000000	-0.000108
887.000000	-0.000034
886.000000	0.000066
885.000000	0.000154
884.000000	0.000204
883.000000	0.000226
882.000000	0.000263
881.000000	0.000352
880.000000	0.000502
879.000000	0.000695
878.000000	0.000904
877.000000	0.001106
876.000000	0.001274
875.000000	0.001376
874.000000	0.001387
873.000000	0.001299
872.000000	0.001133
871.000000	0.000936
870.000000	0.000760
869.000000	0.000627
868.000000	0.000524
867.000000	0.000421
866.000000	0.000308
865.000000	0.000206
864.000000	0.000145
863.000000	0.000129
862.000000	0.000129
861.000000	0.000111
860.000000	0.000059
859.000000	-0.000018
858.000000	-0.000102
857.000000	-0.000181
856.000000	-0.000239
855.000000	-0.000263
854.000000	-0.000249
853.000000	-0.000223
852.000000	-0.000212
851.000000	-0.000209
850.000000	-0.000184
849.000000	-0.000127
848.000000	-0.000073
847.000000	-0.000071
846.000000	-0.000133
845.000000	-0.000231
844.000000	-0.000320
843.000000	-0.000368
842.000000	-0.000363
841.000000	-0.000321
840.000000	-0.000276
839.000000	-0.000259
838.000000	-0.000264
837.000000	-0.000261
836.000000	-0.000231
835.000000	-0.000186
834.000000	-0.000153
833.000000	-0.000144
832.000000	-0.000159
831.000000	-0.000189
830.000000	-0.000226
829.000000	-0.000254
828.000000	-0.000253
827.000000	-0.000219
826.000000	-0.000173
825.000000	-0.000156
824.000000	-0.000189
823.000000	-0.000244
822.000000	-0.000273
821.000000	-0.000259
820.000000	-0.000232
819.000000	-0.000220
818.000000	-0.000212
817.000000	-0.000174
816.000000	-0.000105
815.000000	-0.000053
814.000000	-0.000064
813.000000	-0.000138
812.000000	-0.000234
811.000000	-0.000312
810.000000	-0.000353
809.000000	-0.000352
808.000000	-0.000317
807.000000	-0.000271
806.000000	-0.000244
805.000000	-0.000249
804.000000	-0.000276
803.000000	-0.000299
802.000000	-0.000296
801.000000	-0.000268
800.000000	-0.000234
799.000000	-0.000219
798.000000	-0.000236
797.000000	-0.000275
796.000000	-0.000319
795.000000	-0.000348
794.000000	-0.000347
793.000000	-0.000311
792.000000	-0.000253
791.000000	-0.000198
790.000000	-0.000169
789.000000	-0.000170
788.000000	-0.000199
787.000000	-0.000238
786.000000	-0.000254
785.000000	-0.000216
784.000000	-0.000130
783.000000	-0.000051
782.000000	-0.000037
781.000000	-0.000096
780.000000	-0.000177
779.000000	-0.000223
778.000000	-0.000222
777.000000	-0.000202
776.000000	-0.000203
775.000000	-0.000240
774.000000	-0.000297
773.000000	-0.000339
772.000000	-0.000339
771.000000	-0.000303
770.000000	-0.000265
769.000000	-0.000248
768.000000	-0.000246
767.000000	-0.000245
766.000000	-0.000249
765.000000	-0.000268
764.000000	-0.000299
763.000000	-0.000319
762.000000	-0.000310
761.000000	-0.000284
760.000000	-0.000264
759.000000	-0.000265
758.000000	-0.000279
757.000000	-0.000276
756.000000	-0.000237
755.000000	-0.000172
754.000000	-0.000123
753.000000	-0.000123
752.000000	-0.000166
751.000000	-0.000224
750.000000	-0.000275
749.000000	-0.000314
748.000000	-0.000340
747.000000	-0.000337
746.000000	-0.000295
745.000000	-0.000228
744.000000	-0.000164
743.000000	-0.000121
742.000000	-0.000101
741.000000	-0.000092
740.000000	-0.000085
739.000000	-0.000075
738.000000	-0.000068
737.000000	-0.000069
736.000000	-0.000082
735.000000	-0.000105
734.000000	-0.000137
733.000000	-0.000176
732.000000	-0.000216
731.000000	-0.000250
730.000000	-0.000277
729.000000	-0.000303
728.000000	-0.000323
727.000000	-0.000325
726.000000	-0.000295
725.000000	-0.000244
724.000000	-0.000200
723.000000	-0.000196
722.000000	-0.000247
721.000000	-0.000342
720.000000	-0.000437
719.000000	-0.000476
718.000000	-0.000426
717.000000	-0.000294
716.000000	-0.000111
715.000000	0.000085
714.000000	0.000262
713.000000	0.000387
712.000000	0.000434
711.000000	0.000397
710.000000	0.000296
709.000000	0.000172
708.000000	0.000078
707.000000	0.000054
706.000000	0.000093
705.000000	0.000148
704.000000	0.000163
703.000000	0.000127
702.000000	0.000078
701.000000	0.000062
700.000000	0.000101
699.000000	0.000175
698.000000	0.000251
697.000000	0.000300
696.000000	0.000313
695.000000	0.000297
694.000000	0.000268
693.000000	0.000240
692.000000	0.000226
691.000000	0.000223
690.000000	0.000206
689.000000	0.000147
688.000000	0.000053
687.000000	-0.000023
686.000000	-0.000037
685.000000	0.000002
684.000000	0.000055
683.000000	0.000101
682.000000	0.000135
681.000000	0.000157
680.000000	0.000174
679.000000	0.000215
678.000000	0.000292
677.000000	0.000389
676.000000	0.000461
675.000000	0.000479
674.000000	0.000446
673.000000	0.000390
672.000000	0.000316
671.000000	0.000201
670.000000	0.000011
669.000000	-0.000241
668.000000	-0.000416
667.000000	-0.000313
666.000000	-0.000082
665.000000	0.000117
664.000000	0.000229
663.000000	0.000218
662.000000	0.000095
661.000000	-0.000074
660.000000	-0.000237
659.000000	-0.000386
658.000000	-0.000513
657.000000	-0.000577
656.000000	-0.000553
655.000000	-0.000474
654.000000	-0.000387
653.000000	-0.000300
652.000000	-0.000217
651.000000	-0.000152
650.000000	-0.000100
649.000000	-0.000031
648.000000	0.000059
647.000000	0.000134
646.000000	0.000169
645.000000	0.000175
644.000000	0.000151
643.000000	0.000082
642.000000	-0.000015
641.000000	-0.000078
640.000000	-0.000070
639.000000	-0.000030
638.000000	-0.000013
637.000000	-0.000028
636.000000	-0.000054
635.000000	-0.000071
634.000000	-0.000055
633.000000	0.000020
632.000000	0.000148
631.000000	0.000271
630.000000	0.000334
629.000000	0.000341
628.000000	0.000326
627.000000	0.000308
626.000000	0.000289
625.000000	0.000269
624.000000	0.000241
623.000000	0.000178
622.000000	0.000062
621.000000	-0.000077
620.000000	-0.000168
619.000000	-0.000157
618.000000	-0.000049
617.000000	0.000089
616.000000	0.000182
615.000000	0.000205
614.000000	0.000195
613.000000	0.000199
612.000000	0.000229
611.000000	0.000280
610.000000	0.000362
609.000000	0.000472
608.000000	0.000562
607.000000	0.000583
606.000000	0.000561
605.000000	0.000584
604.000000	0.000685
603.000000	0.000801
602.000000	0.000844
601.000000	0.000791
600.000000	0.000683
599.000000	0.000583
598.000000	0.000547
597.000000	0.000602
596.000000	0.000717
595.000000	0.000817
594.000000	0.000847
593.000000	0.000808
592.000000	0.000725
591.000000	0.000609
590.000000	0.000471
589.000000	0.000333
588.000000	0.000223
587.000000	0.000171
586.000000	0.000206
585.000000	0.000315
584.000000	0.000414
583.000000	0.000411
582.000000	0.000311
581.000000	0.000219
580.000000	0.000209
579.000000	0.000246
578.000000	0.000246
577.000000	0.000185
576.000000	0.000091
575.000000	-0.000012
574.000000	-0.000112
573.000000	-0.000186
572.000000	-0.000200
571.000000	-0.000139
570.000000	-0.000013
569.000000	0.000127
568.000000	0.000191
567.000000	0.000110
566.000000	-0.000083
565.000000	-0.000268
564.000000	-0.000364
563.000000	-0.000376
562.000000	-0.000339
561.000000	-0.000264
560.000000	-0.000179
559.000000	-0.000151
558.000000	-0.000201
557.000000	-0.000257
556.000000	-0.000233
555.000000	-0.000144
554.000000	-0.000076
553.000000	-0.000066
552.000000	-0.000086
551.000000	-0.000107
550.000000	-0.000129
549.000000	-0.000143
548.000000	-0.000130
547.000000	-0.000107
546.000000	-0.000127
545.000000	-0.000213
544.000000	-0.000325
543.000000	-0.000397
542.000000	-0.000386
541.000000	-0.000299
540.000000	-0.000198
539.000000	-0.000164
538.000000	-0.000233
537.000000	-0.000355
536.000000	-0.000442
535.000000	-0.000445
534.000000	-0.000375
533.000000	-0.000266
532.000000	-0.000132
531.000000	0.000022
530.000000	0.000170
529.000000	0.000252
528.000000	0.000208
527.000000	0.000021
526.000000	-0.000234
525.000000	-0.000433
524.000000	-0.000490
523.000000	-0.000395
522.000000	-0.000187
521.000000	0.000036
520.000000	0.000127
519.000000	-0.000000
518.000000	-0.000254
517.000000	-0.000423
516.000000	-0.000399
515.000000	-0.000254
514.000000	-0.000108
513.000000	-0.000021
512.000000	-0.000020
511.000000	-0.000123
510.000000	-0.000287
509.000000	-0.000408
508.000000	-0.000415
507.000000	-0.000333
506.000000	-0.000218
505.000000	-0.000064
504.000000	0.000171
503.000000	0.000467
502.000000	0.000697
501.000000	0.000720
500.000000	0.000505
499.000000	0.000161
498.000000	-0.000128
497.000000	-0.000231
496.000000	-0.000171
495.000000	-0.000069
494.000000	0.000014
493.000000	0.000101
492.000000	0.000182
491.000000	0.000196
490.000000	0.000157
489.000000	0.000165
488.000000	0.000232
487.000000	0.000227
486.000000	0.000062
485.000000	-0.000143
484.000000	-0.000200
483.000000	-0.000090
482.000000	0.000059
481.000000	0.000166
480.000000	0.000217
479.000000	0.000168
478.000000	-0.000002
477.000000	-0.000177
476.000000	-0.000198
475.000000	-0.000062
474.000000	0.000073
473.000000	0.000079
472.000000	-0.000028
471.000000	-0.000169
470.000000	-0.000287
469.000000	-0.000345
468.000000	-0.000309
467.000000	-0.000180
466.000000	0.000019
465.000000	0.000271
464.000000	0.000514
463.000000	0.000613
462.000000	0.000475
461.000000	0.000194
460.000000	-0.000087
459.000000	-0.000357
458.000000	-0.000622
457.000000	-0.000704
456.000000	-0.000433
455.000000	0.000025
454.000000	0.000318
453.000000	0.000254
452.000000	-0.000034
451.000000	-0.000275
450.000000	-0.000391
