PE IR       SUBTECH     SPECTRUM    ASCII       PEDS        4.00        
   -1
P12-Rouge007_1.ASC
23/06/08
14:51:58.00
23/06/08
15:48:35.00
uco
Sample 007 By uco Date Thursday, June 08 2023
450.000000
#HDR
-1
-1
#GR
cm-1
A
1.0
0.0
4000.000000
-1.000000
3551
8
0.002868
-0.001113
#DATA
4000.000000	-0.000331
3999.000000	-0.000329
3998.000000	-0.000326
3997.000000	-0.000316
3996.000000	-0.000299
3995.000000	-0.000278
3994.000000	-0.000283
3993.000000	-0.000273
3992.000000	-0.000273
3991.000000	-0.000280
3990.000000	-0.000287
3989.000000	-0.000290
3988.000000	-0.000288
3987.000000	-0.000284
3986.000000	-0.000280
3985.000000	-0.000280
3984.000000	-0.000286
3983.000000	-0.000295
3982.000000	-0.000298
3981.000000	-0.000289
3980.000000	-0.000269
3979.000000	-0.000246
3978.000000	-0.000232
3977.000000	-0.000232
3976.000000	-0.000244
3975.000000	-0.000262
3974.000000	-0.000283
3973.000000	-0.000304
3972.000000	-0.000323
3971.000000	-0.000337
3970.000000	-0.000342
3969.000000	-0.000341
3968.000000	-0.000338
3967.000000	-0.000335
3966.000000	-0.000333
3965.000000	-0.000327
3964.000000	-0.000314
3963.000000	-0.000292
3962.000000	-0.000263
3961.000000	-0.000233
3960.000000	-0.000212
3959.000000	-0.000206
3958.000000	-0.000215
3957.000000	-0.000232
3956.000000	-0.000252
3955.000000	-0.000273
3954.000000	-0.000291
3953.000000	-0.000303
3952.000000	-0.000302
3951.000000	-0.000289
3950.000000	-0.000269
3949.000000	-0.000248
3948.000000	-0.000232
3947.000000	-0.000224
3946.000000	-0.000224
3945.000000	-0.000228
3944.000000	-0.000234
3943.000000	-0.000245
3942.000000	-0.000257
3941.000000	-0.000263
3940.000000	-0.000256
3939.000000	-0.000240
3938.000000	-0.000226
3937.000000	-0.000225
3936.000000	-0.000236
3935.000000	-0.000249
3934.000000	-0.000251
3933.000000	-0.000240
3932.000000	-0.000224
3931.000000	-0.000216
3930.000000	-0.000221
3929.000000	-0.000235
3928.000000	-0.000253
3927.000000	-0.000269
3926.000000	-0.000285
3925.000000	-0.000302
3924.000000	-0.000316
3923.000000	-0.000319
3922.000000	-0.000306
3921.000000	-0.000285
3920.000000	-0.000274
3919.000000	-0.000287
3918.000000	-0.000321
3917.000000	-0.000357
3916.000000	-0.000372
3915.000000	-0.000358
3914.000000	-0.000325
3913.000000	-0.000290
3912.000000	-0.000269
3911.000000	-0.000265
3910.000000	-0.000275
3909.000000	-0.000291
3908.000000	-0.000311
3907.000000	-0.000329
3906.000000	-0.000342
3905.000000	-0.000344
3904.000000	-0.000334
3903.000000	-0.000320
3902.000000	-0.000311
3901.000000	-0.000312
3900.000000	-0.000316
3899.000000	-0.000312
3898.000000	-0.000296
3897.000000	-0.000274
3896.000000	-0.000259
3895.000000	-0.000253
3894.000000	-0.000248
3893.000000	-0.000236
3892.000000	-0.000217
3891.000000	-0.000205
3890.000000	-0.000212
3889.000000	-0.000232
3888.000000	-0.000250
3887.000000	-0.000260
3886.000000	-0.000268
3885.000000	-0.000277
3884.000000	-0.000281
3883.000000	-0.000268
3882.000000	-0.000236
3881.000000	-0.000200
3880.000000	-0.000175
3879.000000	-0.000169
3878.000000	-0.000181
3877.000000	-0.000205
3876.000000	-0.000239
3875.000000	-0.000278
3874.000000	-0.000315
3873.000000	-0.000338
3872.000000	-0.000334
3871.000000	-0.000303
3870.000000	-0.000268
3869.000000	-0.000253
3868.000000	-0.000255
3867.000000	-0.000259
3866.000000	-0.000256
3865.000000	-0.000259
3864.000000	-0.000275
3863.000000	-0.000296
3862.000000	-0.000302
3861.000000	-0.000285
3860.000000	-0.000258
3859.000000	-0.000238
3858.000000	-0.000238
3857.000000	-0.000255
3856.000000	-0.000270
3855.000000	-0.000265
3854.000000	-0.000251
3853.000000	-0.000253
3852.000000	-0.000269
3851.000000	-0.000276
3850.000000	-0.000272
3849.000000	-0.000268
3848.000000	-0.000274
3847.000000	-0.000287
3846.000000	-0.000296
3845.000000	-0.000294
3844.000000	-0.000284
3843.000000	-0.000271
3842.000000	-0.000261
3841.000000	-0.000251
3840.000000	-0.000237
3839.000000	-0.000217
3838.000000	-0.000194
3837.000000	-0.000175
3836.000000	-0.000169
3835.000000	-0.000177
3834.000000	-0.000191
3833.000000	-0.000204
3832.000000	-0.000216
3831.000000	-0.000233
3830.000000	-0.000253
3829.000000	-0.000271
3828.000000	-0.000279
3827.000000	-0.000276
3826.000000	-0.000268
3825.000000	-0.000257
3824.000000	-0.000241
3823.000000	-0.000213
3822.000000	-0.000180
3821.000000	-0.000161
3820.000000	-0.000159
3819.000000	-0.000155
3818.000000	-0.000134
3817.000000	-0.000109
3816.000000	-0.000109
3815.000000	-0.000146
3814.000000	-0.000190
3813.000000	-0.000212
3812.000000	-0.000207
3811.000000	-0.000190
3810.000000	-0.000175
3809.000000	-0.000164
3808.000000	-0.000157
3807.000000	-0.000168
3806.000000	-0.000205
3805.000000	-0.000258
3804.000000	-0.000306
3803.000000	-0.000335
3802.000000	-0.000352
3801.000000	-0.000369
3800.000000	-0.000383
3799.000000	-0.000374
3798.000000	-0.000332
3797.000000	-0.000269
3796.000000	-0.000214
3795.000000	-0.000185
3794.000000	-0.000176
3793.000000	-0.000176
3792.000000	-0.000180
3791.000000	-0.000184
3790.000000	-0.000187
3789.000000	-0.000181
3788.000000	-0.000168
3787.000000	-0.000158
3786.000000	-0.000159
3785.000000	-0.000174
3784.000000	-0.000198
3783.000000	-0.000223
3782.000000	-0.000239
3781.000000	-0.000246
3780.000000	-0.000244
3779.000000	-0.000240
3778.000000	-0.000236
3777.000000	-0.000232
3776.000000	-0.000226
3775.000000	-0.000219
3774.000000	-0.000209
3773.000000	-0.000195
3772.000000	-0.000178
3771.000000	-0.000169
3770.000000	-0.000186
3769.000000	-0.000230
3768.000000	-0.000276
3767.000000	-0.000298
3766.000000	-0.000292
3765.000000	-0.000273
3764.000000	-0.000261
3763.000000	-0.000261
3762.000000	-0.000270
3761.000000	-0.000281
3760.000000	-0.000297
3759.000000	-0.000317
3758.000000	-0.000333
3757.000000	-0.000335
3756.000000	-0.000315
3755.000000	-0.000272
3754.000000	-0.000213
3753.000000	-0.000152
3752.000000	-0.000111
3751.000000	-0.000103
3750.000000	-0.000128
3749.000000	-0.000179
3748.000000	-0.000245
3747.000000	-0.000302
3746.000000	-0.000325
3745.000000	-0.000309
3744.000000	-0.000277
3743.000000	-0.000249
3742.000000	-0.000228
3741.000000	-0.000209
3740.000000	-0.000194
3739.000000	-0.000180
3738.000000	-0.000158
3737.000000	-0.000130
3736.000000	-0.000114
3735.000000	-0.000133
3734.000000	-0.000170
3733.000000	-0.000195
3732.000000	-0.000204
3731.000000	-0.000210
3730.000000	-0.000220
3729.000000	-0.000227
3728.000000	-0.000226
3727.000000	-0.000227
3726.000000	-0.000243
3725.000000	-0.000272
3724.000000	-0.000297
3723.000000	-0.000310
3722.000000	-0.000311
3721.000000	-0.000304
3720.000000	-0.000289
3719.000000	-0.000270
3718.000000	-0.000255
3717.000000	-0.000253
3716.000000	-0.000263
3715.000000	-0.000273
3714.000000	-0.000263
3713.000000	-0.000225
3712.000000	-0.000177
3711.000000	-0.000156
3710.000000	-0.000180
3709.000000	-0.000229
3708.000000	-0.000273
3707.000000	-0.000296
3706.000000	-0.000303
3705.000000	-0.000307
3704.000000	-0.000319
3703.000000	-0.000342
3702.000000	-0.000364
3701.000000	-0.000366
3700.000000	-0.000343
3699.000000	-0.000308
3698.000000	-0.000278
3697.000000	-0.000266
3696.000000	-0.000267
3695.000000	-0.000263
3694.000000	-0.000244
3693.000000	-0.000215
3692.000000	-0.000194
3691.000000	-0.000189
3690.000000	-0.000201
3689.000000	-0.000223
3688.000000	-0.000247
3687.000000	-0.000270
3686.000000	-0.000286
3685.000000	-0.000289
3684.000000	-0.000280
3683.000000	-0.000264
3682.000000	-0.000251
3681.000000	-0.000253
3680.000000	-0.000279
3679.000000	-0.000323
3678.000000	-0.000353
3677.000000	-0.000343
3676.000000	-0.000303
3675.000000	-0.000274
3674.000000	-0.000273
3673.000000	-0.000280
3672.000000	-0.000280
3671.000000	-0.000279
3670.000000	-0.000286
3669.000000	-0.000292
3668.000000	-0.000283
3667.000000	-0.000264
3666.000000	-0.000252
3665.000000	-0.000256
3664.000000	-0.000274
3663.000000	-0.000295
3662.000000	-0.000314
3661.000000	-0.000328
3660.000000	-0.000331
3659.000000	-0.000316
3658.000000	-0.000282
3657.000000	-0.000247
3656.000000	-0.000235
3655.000000	-0.000252
3654.000000	-0.000279
3653.000000	-0.000290
3652.000000	-0.000273
3651.000000	-0.000234
3650.000000	-0.000202
3649.000000	-0.000206
3648.000000	-0.000244
3647.000000	-0.000285
3646.000000	-0.000308
3645.000000	-0.000310
3644.000000	-0.000298
3643.000000	-0.000283
3642.000000	-0.000273
3641.000000	-0.000273
3640.000000	-0.000278
3639.000000	-0.000284
3638.000000	-0.000289
3637.000000	-0.000291
3636.000000	-0.000283
3635.000000	-0.000265
3634.000000	-0.000243
3633.000000	-0.000229
3632.000000	-0.000224
3631.000000	-0.000219
3630.000000	-0.000211
3629.000000	-0.000213
3628.000000	-0.000230
3627.000000	-0.000244
3626.000000	-0.000245
3625.000000	-0.000236
3624.000000	-0.000228
3623.000000	-0.000224
3622.000000	-0.000223
3621.000000	-0.000218
3620.000000	-0.000210
3619.000000	-0.000206
3618.000000	-0.000202
3617.000000	-0.000199
3616.000000	-0.000197
3615.000000	-0.000200
3614.000000	-0.000208
3613.000000	-0.000214
3612.000000	-0.000210
3611.000000	-0.000196
3610.000000	-0.000175
3609.000000	-0.000156
3608.000000	-0.000147
3607.000000	-0.000149
3606.000000	-0.000151
3605.000000	-0.000144
3604.000000	-0.000125
3603.000000	-0.000101
3602.000000	-0.000082
3601.000000	-0.000080
3600.000000	-0.000096
3599.000000	-0.000119
3598.000000	-0.000133
3597.000000	-0.000133
3596.000000	-0.000129
3595.000000	-0.000134
3594.000000	-0.000147
3593.000000	-0.000153
3592.000000	-0.000143
3591.000000	-0.000123
3590.000000	-0.000104
3589.000000	-0.000098
3588.000000	-0.000108
3587.000000	-0.000122
3586.000000	-0.000122
3585.000000	-0.000103
3584.000000	-0.000081
3583.000000	-0.000069
3582.000000	-0.000069
3581.000000	-0.000066
3580.000000	-0.000044
3579.000000	-0.000007
3578.000000	0.000027
3577.000000	0.000038
3576.000000	0.000021
3575.000000	-0.000009
3574.000000	-0.000030
3573.000000	-0.000030
3572.000000	-0.000009
3571.000000	0.000022
3570.000000	0.000052
3569.000000	0.000073
3568.000000	0.000081
3567.000000	0.000070
3566.000000	0.000047
3565.000000	0.000027
3564.000000	0.000016
3563.000000	0.000014
3562.000000	0.000013
3561.000000	0.000013
3560.000000	0.000016
3559.000000	0.000028
3558.000000	0.000047
3557.000000	0.000064
3556.000000	0.000075
3555.000000	0.000078
3554.000000	0.000076
3553.000000	0.000080
3552.000000	0.000099
3551.000000	0.000136
3550.000000	0.000177
3549.000000	0.000194
3548.000000	0.000172
3547.000000	0.000123
3546.000000	0.000087
3545.000000	0.000099
3544.000000	0.000154
3543.000000	0.000215
3542.000000	0.000250
3541.000000	0.000255
3540.000000	0.000242
3539.000000	0.000225
3538.000000	0.000209
3537.000000	0.000199
3536.000000	0.000200
3535.000000	0.000219
3534.000000	0.000253
3533.000000	0.000293
3532.000000	0.000327
3531.000000	0.000348
3530.000000	0.000353
3529.000000	0.000348
3528.000000	0.000340
3527.000000	0.000330
3526.000000	0.000316
3525.000000	0.000296
3524.000000	0.000275
3523.000000	0.000263
3522.000000	0.000263
3521.000000	0.000270
3520.000000	0.000281
3519.000000	0.000292
3518.000000	0.000294
3517.000000	0.000283
3516.000000	0.000259
3515.000000	0.000234
3514.000000	0.000219
3513.000000	0.000216
3512.000000	0.000213
3511.000000	0.000205
3510.000000	0.000197
3509.000000	0.000204
3508.000000	0.000227
3507.000000	0.000247
3506.000000	0.000238
3505.000000	0.000197
3504.000000	0.000145
3503.000000	0.000114
3502.000000	0.000112
3501.000000	0.000129
3500.000000	0.000153
3499.000000	0.000180
3498.000000	0.000211
3497.000000	0.000238
3496.000000	0.000249
3495.000000	0.000241
3494.000000	0.000222
3493.000000	0.000207
3492.000000	0.000204
3491.000000	0.000213
3490.000000	0.000222
3489.000000	0.000224
3488.000000	0.000220
3487.000000	0.000218
3486.000000	0.000222
3485.000000	0.000234
3484.000000	0.000249
3483.000000	0.000265
3482.000000	0.000272
3481.000000	0.000259
3480.000000	0.000223
3479.000000	0.000177
3478.000000	0.000142
3477.000000	0.000132
3476.000000	0.000143
3475.000000	0.000163
3474.000000	0.000179
3473.000000	0.000187
3472.000000	0.000194
3471.000000	0.000203
3470.000000	0.000212
3469.000000	0.000215
3468.000000	0.000206
3467.000000	0.000196
3466.000000	0.000198
3465.000000	0.000219
3464.000000	0.000254
3463.000000	0.000285
3462.000000	0.000299
3461.000000	0.000294
3460.000000	0.000276
3459.000000	0.000258
3458.000000	0.000246
3457.000000	0.000236
3456.000000	0.000220
3455.000000	0.000198
3454.000000	0.000178
3453.000000	0.000174
3452.000000	0.000186
3451.000000	0.000203
3450.000000	0.000212
3449.000000	0.000208
3448.000000	0.000198
3447.000000	0.000192
3446.000000	0.000196
3445.000000	0.000203
3444.000000	0.000207
3443.000000	0.000205
3442.000000	0.000205
3441.000000	0.000219
3440.000000	0.000251
3439.000000	0.000288
3438.000000	0.000309
3437.000000	0.000303
3436.000000	0.000280
3435.000000	0.000260
3434.000000	0.000254
3433.000000	0.000256
3432.000000	0.000257
3431.000000	0.000253
3430.000000	0.000253
3429.000000	0.000261
3428.000000	0.000274
3427.000000	0.000286
3426.000000	0.000296
3425.000000	0.000311
3424.000000	0.000334
3423.000000	0.000361
3422.000000	0.000382
3421.000000	0.000390
3420.000000	0.000385
3419.000000	0.000371
3418.000000	0.000357
3417.000000	0.000349
3416.000000	0.000352
3415.000000	0.000364
3414.000000	0.000381
3413.000000	0.000397
3412.000000	0.000414
3411.000000	0.000429
3410.000000	0.000441
3409.000000	0.000444
3408.000000	0.000437
3407.000000	0.000428
3406.000000	0.000429
3405.000000	0.000441
3404.000000	0.000457
3403.000000	0.000468
3402.000000	0.000469
3401.000000	0.000464
3400.000000	0.000459
3399.000000	0.000453
3398.000000	0.000443
3397.000000	0.000431
3396.000000	0.000427
3395.000000	0.000442
3394.000000	0.000474
3393.000000	0.000504
3392.000000	0.000516
3391.000000	0.000505
3390.000000	0.000484
3389.000000	0.000468
3388.000000	0.000457
3387.000000	0.000446
3386.000000	0.000435
3385.000000	0.000431
3384.000000	0.000439
3383.000000	0.000459
3382.000000	0.000481
3381.000000	0.000493
3380.000000	0.000495
3379.000000	0.000491
3378.000000	0.000492
3377.000000	0.000498
3376.000000	0.000504
3375.000000	0.000499
3374.000000	0.000482
3373.000000	0.000465
3372.000000	0.000466
3371.000000	0.000488
3370.000000	0.000513
3369.000000	0.000518
3368.000000	0.000493
3367.000000	0.000449
3366.000000	0.000402
3365.000000	0.000363
3364.000000	0.000338
3363.000000	0.000330
3362.000000	0.000338
3361.000000	0.000351
3360.000000	0.000363
3359.000000	0.000367
3358.000000	0.000367
3357.000000	0.000364
3356.000000	0.000364
3355.000000	0.000372
3354.000000	0.000385
3353.000000	0.000394
3352.000000	0.000388
3351.000000	0.000373
3350.000000	0.000360
3349.000000	0.000355
3348.000000	0.000352
3347.000000	0.000340
3346.000000	0.000319
3345.000000	0.000300
3344.000000	0.000297
3343.000000	0.000311
3342.000000	0.000335
3341.000000	0.000357
3340.000000	0.000366
3339.000000	0.000360
3338.000000	0.000346
3337.000000	0.000332
3336.000000	0.000322
3335.000000	0.000316
3334.000000	0.000316
3333.000000	0.000324
3332.000000	0.000337
3331.000000	0.000349
3330.000000	0.000350
3329.000000	0.000336
3328.000000	0.000313
3327.000000	0.000293
3326.000000	0.000285
3325.000000	0.000291
3324.000000	0.000306
3323.000000	0.000323
3322.000000	0.000334
3321.000000	0.000336
3320.000000	0.000329
3319.000000	0.000320
3318.000000	0.000319
3317.000000	0.000331
3316.000000	0.000345
3315.000000	0.000347
3314.000000	0.000334
3313.000000	0.000314
3312.000000	0.000303
3311.000000	0.000305
3310.000000	0.000317
3309.000000	0.000335
3308.000000	0.000354
3307.000000	0.000364
3306.000000	0.000356
3305.000000	0.000327
3304.000000	0.000295
3303.000000	0.000280
3302.000000	0.000292
3301.000000	0.000316
3300.000000	0.000335
3299.000000	0.000337
3298.000000	0.000327
3297.000000	0.000314
3296.000000	0.000301
3295.000000	0.000288
3294.000000	0.000274
3293.000000	0.000261
3292.000000	0.000259
3291.000000	0.000270
3290.000000	0.000290
3289.000000	0.000308
3288.000000	0.000314
3287.000000	0.000310
3286.000000	0.000303
3285.000000	0.000302
3284.000000	0.000310
3283.000000	0.000320
3282.000000	0.000327
3281.000000	0.000322
3280.000000	0.000304
3279.000000	0.000277
3278.000000	0.000246
3277.000000	0.000222
3276.000000	0.000211
3275.000000	0.000215
3274.000000	0.000231
3273.000000	0.000252
3272.000000	0.000268
3271.000000	0.000269
3270.000000	0.000253
3269.000000	0.000225
3268.000000	0.000198
3267.000000	0.000183
3266.000000	0.000181
3265.000000	0.000190
3264.000000	0.000205
3263.000000	0.000224
3262.000000	0.000241
3261.000000	0.000247
3260.000000	0.000237
3259.000000	0.000216
3258.000000	0.000192
3257.000000	0.000175
3256.000000	0.000174
3255.000000	0.000192
3254.000000	0.000221
3253.000000	0.000250
3252.000000	0.000268
3251.000000	0.000267
3250.000000	0.000245
3249.000000	0.000212
3248.000000	0.000185
3247.000000	0.000180
3246.000000	0.000204
3245.000000	0.000248
3244.000000	0.000296
3243.000000	0.000334
3242.000000	0.000353
3241.000000	0.000345
3240.000000	0.000313
3239.000000	0.000272
3238.000000	0.000238
3237.000000	0.000222
3236.000000	0.000222
3235.000000	0.000229
3234.000000	0.000235
3233.000000	0.000234
3232.000000	0.000225
3231.000000	0.000215
3230.000000	0.000214
3229.000000	0.000220
3228.000000	0.000224
3227.000000	0.000216
3226.000000	0.000199
3225.000000	0.000189
3224.000000	0.000199
3223.000000	0.000229
3222.000000	0.000266
3221.000000	0.000295
3220.000000	0.000310
3219.000000	0.000310
3218.000000	0.000293
3217.000000	0.000262
3216.000000	0.000225
3215.000000	0.000200
3214.000000	0.000198
3213.000000	0.000218
3212.000000	0.000242
3211.000000	0.000253
3210.000000	0.000246
3209.000000	0.000232
3208.000000	0.000225
3207.000000	0.000230
3206.000000	0.000237
3205.000000	0.000229
3204.000000	0.000200
3203.000000	0.000160
3202.000000	0.000130
3201.000000	0.000123
3200.000000	0.000139
3199.000000	0.000168
3198.000000	0.000195
3197.000000	0.000207
3196.000000	0.000198
3195.000000	0.000176
3194.000000	0.000153
3193.000000	0.000135
3192.000000	0.000127
3191.000000	0.000130
3190.000000	0.000143
3189.000000	0.000161
3188.000000	0.000177
3187.000000	0.000190
3186.000000	0.000204
3185.000000	0.000217
3184.000000	0.000220
3183.000000	0.000208
3182.000000	0.000190
3181.000000	0.000179
3180.000000	0.000178
3179.000000	0.000178
3178.000000	0.000166
3177.000000	0.000144
3176.000000	0.000125
3175.000000	0.000123
3174.000000	0.000140
3173.000000	0.000171
3172.000000	0.000202
3171.000000	0.000224
3170.000000	0.000230
3169.000000	0.000226
3168.000000	0.000219
3167.000000	0.000213
3166.000000	0.000207
3165.000000	0.000199
3164.000000	0.000191
3163.000000	0.000187
3162.000000	0.000183
3161.000000	0.000177
3160.000000	0.000171
3159.000000	0.000173
3158.000000	0.000187
3157.000000	0.000209
3156.000000	0.000234
3155.000000	0.000254
3154.000000	0.000261
3153.000000	0.000246
3152.000000	0.000213
3151.000000	0.000175
3150.000000	0.000149
3149.000000	0.000138
3148.000000	0.000137
3147.000000	0.000143
3146.000000	0.000160
3145.000000	0.000187
3144.000000	0.000210
3143.000000	0.000216
3142.000000	0.000209
3141.000000	0.000198
3140.000000	0.000191
3139.000000	0.000186
3138.000000	0.000180
3137.000000	0.000174
3136.000000	0.000171
3135.000000	0.000174
3134.000000	0.000180
3133.000000	0.000188
3132.000000	0.000192
3131.000000	0.000191
3130.000000	0.000182
3129.000000	0.000171
3128.000000	0.000165
3127.000000	0.000168
3126.000000	0.000174
3125.000000	0.000173
3124.000000	0.000159
3123.000000	0.000139
3122.000000	0.000126
3121.000000	0.000125
3120.000000	0.000136
3119.000000	0.000154
3118.000000	0.000179
3117.000000	0.000210
3116.000000	0.000243
3115.000000	0.000270
3114.000000	0.000286
3113.000000	0.000287
3112.000000	0.000273
3111.000000	0.000250
3110.000000	0.000229
3109.000000	0.000218
3108.000000	0.000215
3107.000000	0.000213
3106.000000	0.000209
3105.000000	0.000208
3104.000000	0.000216
3103.000000	0.000234
3102.000000	0.000252
3101.000000	0.000265
3100.000000	0.000270
3099.000000	0.000274
3098.000000	0.000283
3097.000000	0.000300
3096.000000	0.000317
3095.000000	0.000323
3094.000000	0.000314
3093.000000	0.000300
3092.000000	0.000294
3091.000000	0.000298
3090.000000	0.000302
3089.000000	0.000299
3088.000000	0.000291
3087.000000	0.000286
3086.000000	0.000292
3085.000000	0.000308
3084.000000	0.000326
3083.000000	0.000337
3082.000000	0.000338
3081.000000	0.000333
3080.000000	0.000336
3079.000000	0.000352
3078.000000	0.000374
3077.000000	0.000390
3076.000000	0.000395
3075.000000	0.000389
3074.000000	0.000376
3073.000000	0.000363
3072.000000	0.000358
3071.000000	0.000366
3070.000000	0.000382
3069.000000	0.000397
3068.000000	0.000404
3067.000000	0.000408
3066.000000	0.000409
3065.000000	0.000402
3064.000000	0.000385
3063.000000	0.000364
3062.000000	0.000356
3061.000000	0.000368
3060.000000	0.000396
3059.000000	0.000422
3058.000000	0.000434
3057.000000	0.000431
3056.000000	0.000427
3055.000000	0.000432
3054.000000	0.000447
3053.000000	0.000457
3052.000000	0.000453
3051.000000	0.000434
3050.000000	0.000412
3049.000000	0.000393
3048.000000	0.000381
3047.000000	0.000372
3046.000000	0.000371
3045.000000	0.000383
3044.000000	0.000409
3043.000000	0.000439
3042.000000	0.000462
3041.000000	0.000470
3040.000000	0.000468
3039.000000	0.000462
3038.000000	0.000455
3037.000000	0.000449
3036.000000	0.000447
3035.000000	0.000452
3034.000000	0.000462
3033.000000	0.000466
3032.000000	0.000457
3031.000000	0.000442
3030.000000	0.000431
3029.000000	0.000429
3028.000000	0.000432
3027.000000	0.000429
3026.000000	0.000416
3025.000000	0.000400
3024.000000	0.000396
3023.000000	0.000414
3022.000000	0.000449
3021.000000	0.000489
3020.000000	0.000520
3019.000000	0.000537
3018.000000	0.000537
3017.000000	0.000522
3016.000000	0.000499
3015.000000	0.000484
3014.000000	0.000488
3013.000000	0.000505
3012.000000	0.000518
3011.000000	0.000516
3010.000000	0.000501
3009.000000	0.000485
3008.000000	0.000480
3007.000000	0.000485
3006.000000	0.000496
3005.000000	0.000510
3004.000000	0.000527
3003.000000	0.000551
3002.000000	0.000578
3001.000000	0.000602
3000.000000	0.000612
2999.000000	0.000603
2998.000000	0.000580
2997.000000	0.000556
2996.000000	0.000543
2995.000000	0.000544
2994.000000	0.000551
2993.000000	0.000555
2992.000000	0.000557
2991.000000	0.000568
2990.000000	0.000592
2989.000000	0.000620
2988.000000	0.000633
2987.000000	0.000627
2986.000000	0.000614
2985.000000	0.000609
2984.000000	0.000618
2983.000000	0.000636
2982.000000	0.000654
2981.000000	0.000668
2980.000000	0.000682
2979.000000	0.000700
2978.000000	0.000721
2977.000000	0.000734
2976.000000	0.000734
2975.000000	0.000724
2974.000000	0.000716
2973.000000	0.000716
2972.000000	0.000721
2971.000000	0.000730
2970.000000	0.000740
2969.000000	0.000750
2968.000000	0.000758
2967.000000	0.000773
2966.000000	0.000800
2965.000000	0.000838
2964.000000	0.000872
2963.000000	0.000889
2962.000000	0.000891
2961.000000	0.000883
2960.000000	0.000868
2959.000000	0.000846
2958.000000	0.000820
2957.000000	0.000797
2956.000000	0.000780
2955.000000	0.000770
2954.000000	0.000764
2953.000000	0.000759
2952.000000	0.000755
2951.000000	0.000752
2950.000000	0.000753
2949.000000	0.000759
2948.000000	0.000768
2947.000000	0.000779
2946.000000	0.000788
2945.000000	0.000791
2944.000000	0.000785
2943.000000	0.000770
2942.000000	0.000752
2941.000000	0.000738
2940.000000	0.000728
2939.000000	0.000718
2938.000000	0.000708
2937.000000	0.000701
2936.000000	0.000700
2935.000000	0.000707
2934.000000	0.000724
2933.000000	0.000748
2932.000000	0.000767
2931.000000	0.000765
2930.000000	0.000738
2929.000000	0.000694
2928.000000	0.000651
2927.000000	0.000625
2926.000000	0.000618
2925.000000	0.000618
2924.000000	0.000612
2923.000000	0.000599
2922.000000	0.000589
2921.000000	0.000588
2920.000000	0.000590
2919.000000	0.000585
2918.000000	0.000573
2917.000000	0.000559
2916.000000	0.000551
2915.000000	0.000549
2914.000000	0.000553
2913.000000	0.000560
2912.000000	0.000565
2911.000000	0.000561
2910.000000	0.000545
2909.000000	0.000522
2908.000000	0.000502
2907.000000	0.000495
2906.000000	0.000500
2905.000000	0.000506
2904.000000	0.000503
2903.000000	0.000485
2902.000000	0.000463
2901.000000	0.000448
2900.000000	0.000451
2899.000000	0.000468
2898.000000	0.000487
2897.000000	0.000498
2896.000000	0.000498
2895.000000	0.000494
2894.000000	0.000488
2893.000000	0.000484
2892.000000	0.000477
2891.000000	0.000468
2890.000000	0.000458
2889.000000	0.000448
2888.000000	0.000443
2887.000000	0.000444
2886.000000	0.000452
2885.000000	0.000463
2884.000000	0.000472
2883.000000	0.000479
2882.000000	0.000485
2881.000000	0.000486
2880.000000	0.000476
2879.000000	0.000454
2878.000000	0.000429
2877.000000	0.000414
2876.000000	0.000410
2875.000000	0.000413
2874.000000	0.000419
2873.000000	0.000424
2872.000000	0.000426
2871.000000	0.000423
2870.000000	0.000418
2869.000000	0.000417
2868.000000	0.000415
2867.000000	0.000405
2866.000000	0.000391
2865.000000	0.000385
2864.000000	0.000397
2863.000000	0.000421
2862.000000	0.000445
2861.000000	0.000460
2860.000000	0.000466
2859.000000	0.000464
2858.000000	0.000454
2857.000000	0.000442
2856.000000	0.000436
2855.000000	0.000438
2854.000000	0.000437
2853.000000	0.000419
2852.000000	0.000378
2851.000000	0.000326
2850.000000	0.000283
2849.000000	0.000265
2848.000000	0.000273
2847.000000	0.000299
2846.000000	0.000327
2845.000000	0.000346
2844.000000	0.000346
2843.000000	0.000330
2842.000000	0.000307
2841.000000	0.000289
2840.000000	0.000283
2839.000000	0.000287
2838.000000	0.000300
2837.000000	0.000319
2836.000000	0.000338
2835.000000	0.000350
2834.000000	0.000350
2833.000000	0.000341
2832.000000	0.000330
2831.000000	0.000323
2830.000000	0.000322
2829.000000	0.000326
2828.000000	0.000333
2827.000000	0.000338
2826.000000	0.000340
2825.000000	0.000337
2824.000000	0.000331
2823.000000	0.000325
2822.000000	0.000321
2821.000000	0.000319
2820.000000	0.000315
2819.000000	0.000308
2818.000000	0.000299
2817.000000	0.000292
2816.000000	0.000289
2815.000000	0.000288
2814.000000	0.000286
2813.000000	0.000286
2812.000000	0.000293
2811.000000	0.000303
2810.000000	0.000312
2809.000000	0.000312
2808.000000	0.000306
2807.000000	0.000297
2806.000000	0.000291
2805.000000	0.000290
2804.000000	0.000291
2803.000000	0.000291
2802.000000	0.000284
2801.000000	0.000273
2800.000000	0.000267
2799.000000	0.000266
2798.000000	0.000264
2797.000000	0.000254
2796.000000	0.000236
2795.000000	0.000220
2794.000000	0.000217
2793.000000	0.000225
2792.000000	0.000241
2791.000000	0.000258
2790.000000	0.000271
2789.000000	0.000270
2788.000000	0.000257
2787.000000	0.000240
2786.000000	0.000230
2785.000000	0.000232
2784.000000	0.000242
2783.000000	0.000255
2782.000000	0.000267
2781.000000	0.000273
2780.000000	0.000269
2779.000000	0.000259
2778.000000	0.000253
2777.000000	0.000254
2776.000000	0.000260
2775.000000	0.000264
2774.000000	0.000268
2773.000000	0.000271
2772.000000	0.000273
2771.000000	0.000270
2770.000000	0.000259
2769.000000	0.000242
2768.000000	0.000224
2767.000000	0.000208
2766.000000	0.000201
2765.000000	0.000206
2764.000000	0.000218
2763.000000	0.000229
2762.000000	0.000236
2761.000000	0.000245
2760.000000	0.000262
2759.000000	0.000285
2758.000000	0.000305
2757.000000	0.000311
2756.000000	0.000295
2755.000000	0.000263
2754.000000	0.000229
2753.000000	0.000210
2752.000000	0.000211
2751.000000	0.000224
2750.000000	0.000238
2749.000000	0.000246
2748.000000	0.000246
2747.000000	0.000239
2746.000000	0.000227
2745.000000	0.000215
2744.000000	0.000206
2743.000000	0.000200
2742.000000	0.000198
2741.000000	0.000205
2740.000000	0.000223
2739.000000	0.000250
2738.000000	0.000275
2737.000000	0.000289
2736.000000	0.000291
2735.000000	0.000285
2734.000000	0.000274
2733.000000	0.000259
2732.000000	0.000241
2731.000000	0.000225
2730.000000	0.000219
2729.000000	0.000227
2728.000000	0.000248
2727.000000	0.000273
2726.000000	0.000292
2725.000000	0.000301
2724.000000	0.000304
2723.000000	0.000305
2722.000000	0.000308
2721.000000	0.000311
2720.000000	0.000312
2719.000000	0.000309
2718.000000	0.000303
2717.000000	0.000297
2716.000000	0.000290
2715.000000	0.000281
2714.000000	0.000274
2713.000000	0.000272
2712.000000	0.000274
2711.000000	0.000270
2710.000000	0.000254
2709.000000	0.000230
2708.000000	0.000211
2707.000000	0.000208
2706.000000	0.000223
2705.000000	0.000251
2704.000000	0.000281
2703.000000	0.000301
2702.000000	0.000306
2701.000000	0.000299
2700.000000	0.000294
2699.000000	0.000295
2698.000000	0.000300
2697.000000	0.000303
2696.000000	0.000301
2695.000000	0.000295
2694.000000	0.000287
2693.000000	0.000274
2692.000000	0.000259
2691.000000	0.000245
2690.000000	0.000240
2689.000000	0.000248
2688.000000	0.000267
2687.000000	0.000288
2686.000000	0.000301
2685.000000	0.000302
2684.000000	0.000293
2683.000000	0.000283
2682.000000	0.000278
2681.000000	0.000283
2680.000000	0.000294
2679.000000	0.000305
2678.000000	0.000306
2677.000000	0.000295
2676.000000	0.000281
2675.000000	0.000275
2674.000000	0.000283
2673.000000	0.000296
2672.000000	0.000302
2671.000000	0.000296
2670.000000	0.000289
2669.000000	0.000290
2668.000000	0.000305
2667.000000	0.000327
2666.000000	0.000348
2665.000000	0.000358
2664.000000	0.000356
2663.000000	0.000347
2662.000000	0.000344
2661.000000	0.000355
2660.000000	0.000378
2659.000000	0.000400
2658.000000	0.000410
2657.000000	0.000406
2656.000000	0.000394
2655.000000	0.000379
2654.000000	0.000362
2653.000000	0.000341
2652.000000	0.000324
2651.000000	0.000316
2650.000000	0.000319
2649.000000	0.000326
2648.000000	0.000328
2647.000000	0.000322
2646.000000	0.000311
2645.000000	0.000301
2644.000000	0.000289
2643.000000	0.000274
2642.000000	0.000260
2641.000000	0.000254
2640.000000	0.000252
2639.000000	0.000247
2638.000000	0.000233
2637.000000	0.000223
2636.000000	0.000231
2635.000000	0.000254
2634.000000	0.000275
2633.000000	0.000272
2632.000000	0.000244
2631.000000	0.000210
2630.000000	0.000191
2629.000000	0.000196
2628.000000	0.000216
2627.000000	0.000232
2626.000000	0.000228
2625.000000	0.000207
2624.000000	0.000181
2623.000000	0.000164
2622.000000	0.000157
2621.000000	0.000157
2620.000000	0.000160
2619.000000	0.000169
2618.000000	0.000189
2617.000000	0.000217
2616.000000	0.000242
2615.000000	0.000247
2614.000000	0.000227
2613.000000	0.000195
2612.000000	0.000175
2611.000000	0.000175
2610.000000	0.000182
2609.000000	0.000176
2608.000000	0.000157
2607.000000	0.000140
2606.000000	0.000138
2605.000000	0.000147
2604.000000	0.000156
2603.000000	0.000165
2602.000000	0.000178
2601.000000	0.000193
2600.000000	0.000201
2599.000000	0.000198
2598.000000	0.000190
2597.000000	0.000185
2596.000000	0.000185
2595.000000	0.000185
2594.000000	0.000174
2593.000000	0.000148
2592.000000	0.000110
2591.000000	0.000073
2590.000000	0.000052
2589.000000	0.000053
2588.000000	0.000071
2587.000000	0.000094
2586.000000	0.000114
2585.000000	0.000128
2584.000000	0.000142
2583.000000	0.000158
2582.000000	0.000177
2581.000000	0.000193
2580.000000	0.000195
2579.000000	0.000177
2578.000000	0.000146
2577.000000	0.000114
2576.000000	0.000092
2575.000000	0.000087
2574.000000	0.000101
2573.000000	0.000128
2572.000000	0.000155
2571.000000	0.000172
2570.000000	0.000172
2569.000000	0.000159
2568.000000	0.000146
2567.000000	0.000142
2566.000000	0.000147
2565.000000	0.000151
2564.000000	0.000145
2563.000000	0.000130
2562.000000	0.000114
2561.000000	0.000101
2560.000000	0.000085
2559.000000	0.000063
2558.000000	0.000044
2557.000000	0.000043
2556.000000	0.000058
2555.000000	0.000068
2554.000000	0.000054
2553.000000	0.000019
2552.000000	-0.000014
2551.000000	-0.000029
2550.000000	-0.000028
2549.000000	-0.000024
2548.000000	-0.000029
2547.000000	-0.000044
2546.000000	-0.000064
2545.000000	-0.000076
2544.000000	-0.000063
2543.000000	-0.000016
2542.000000	0.000056
2541.000000	0.000129
2540.000000	0.000182
2539.000000	0.000205
2538.000000	0.000193
2537.000000	0.000144
2536.000000	0.000073
2535.000000	0.000008
2534.000000	-0.000023
2533.000000	-0.000014
2532.000000	0.000024
2531.000000	0.000076
2530.000000	0.000125
2529.000000	0.000147
2528.000000	0.000127
2527.000000	0.000074
2526.000000	0.000025
2525.000000	0.000005
2524.000000	0.000010
2523.000000	0.000021
2522.000000	0.000035
2521.000000	0.000058
2520.000000	0.000091
2519.000000	0.000121
2518.000000	0.000134
2517.000000	0.000126
2516.000000	0.000104
2515.000000	0.000080
2514.000000	0.000071
2513.000000	0.000081
2512.000000	0.000093
2511.000000	0.000081
2510.000000	0.000040
2509.000000	-0.000003
2508.000000	-0.000015
2507.000000	0.000008
2506.000000	0.000042
2505.000000	0.000057
2504.000000	0.000046
2503.000000	0.000021
2502.000000	-0.000001
2501.000000	-0.000011
2500.000000	-0.000010
2499.000000	0.000002
2498.000000	0.000029
2497.000000	0.000071
2496.000000	0.000114
2495.000000	0.000136
2494.000000	0.000128
2493.000000	0.000101
2492.000000	0.000074
2491.000000	0.000056
2490.000000	0.000037
2489.000000	0.000009
2488.000000	-0.000019
2487.000000	-0.000027
2486.000000	-0.000003
2485.000000	0.000042
2484.000000	0.000080
2483.000000	0.000093
2482.000000	0.000082
2481.000000	0.000055
2480.000000	0.000016
2479.000000	-0.000029
2478.000000	-0.000056
2477.000000	-0.000043
2476.000000	0.000013
2475.000000	0.000087
2474.000000	0.000150
2473.000000	0.000181
2472.000000	0.000173
2471.000000	0.000132
2470.000000	0.000082
2469.000000	0.000049
2468.000000	0.000047
2467.000000	0.000062
2466.000000	0.000074
2465.000000	0.000071
2464.000000	0.000059
2463.000000	0.000044
2462.000000	0.000035
2461.000000	0.000036
2460.000000	0.000045
2459.000000	0.000053
2458.000000	0.000049
2457.000000	0.000047
2456.000000	0.000065
2455.000000	0.000104
2454.000000	0.000140
2453.000000	0.000145
2452.000000	0.000113
2451.000000	0.000061
2450.000000	0.000008
2449.000000	-0.000029
2448.000000	-0.000041
2447.000000	-0.000033
2446.000000	-0.000024
2445.000000	-0.000034
2444.000000	-0.000061
2443.000000	-0.000077
2442.000000	-0.000061
2441.000000	-0.000022
2440.000000	0.000003
2439.000000	-0.000011
2438.000000	-0.000058
2437.000000	-0.000103
2436.000000	-0.000116
2435.000000	-0.000094
2434.000000	-0.000057
2433.000000	-0.000028
2432.000000	-0.000015
2431.000000	-0.000019
2430.000000	-0.000028
2429.000000	-0.000032
2428.000000	-0.000019
2427.000000	0.000004
2426.000000	0.000015
2425.000000	0.000003
2424.000000	-0.000025
2423.000000	-0.000046
2422.000000	-0.000048
2421.000000	-0.000035
2420.000000	-0.000015
2419.000000	0.000003
2418.000000	0.000019
2417.000000	0.000027
2416.000000	0.000019
2415.000000	-0.000009
2414.000000	-0.000049
2413.000000	-0.000079
2412.000000	-0.000077
2411.000000	-0.000045
2410.000000	-0.000008
2409.000000	0.000010
2408.000000	0.000006
2407.000000	-0.000002
2406.000000	-0.000005
2405.000000	-0.000009
2404.000000	-0.000023
2403.000000	-0.000039
2402.000000	-0.000050
2401.000000	-0.000059
2400.000000	-0.000076
2399.000000	-0.000104
2398.000000	-0.000131
2397.000000	-0.000136
2396.000000	-0.000106
2395.000000	-0.000044
2394.000000	0.000022
2393.000000	0.000059
2392.000000	0.000055
2391.000000	0.000028
2390.000000	0.000007
2389.000000	-0.000004
2388.000000	-0.000020
2387.000000	-0.000052
2386.000000	-0.000092
2385.000000	-0.000125
2384.000000	-0.000143
2383.000000	-0.000152
2382.000000	-0.000168
2381.000000	-0.000210
2380.000000	-0.000280
2379.000000	-0.000353
2378.000000	-0.000395
2377.000000	-0.000386
2376.000000	-0.000333
2375.000000	-0.000254
2374.000000	-0.000179
2373.000000	-0.000146
2372.000000	-0.000171
2371.000000	-0.000228
2370.000000	-0.000269
2369.000000	-0.000277
2368.000000	-0.000274
2367.000000	-0.000274
2366.000000	-0.000257
2365.000000	-0.000213
2364.000000	-0.000166
2363.000000	-0.000143
2362.000000	-0.000142
2361.000000	-0.000151
2360.000000	-0.000166
2359.000000	-0.000194
2358.000000	-0.000235
2357.000000	-0.000275
2356.000000	-0.000288
2355.000000	-0.000251
2354.000000	-0.000196
2353.000000	-0.000184
2352.000000	-0.000217
2351.000000	-0.000235
2350.000000	-0.000201
2349.000000	-0.000135
2348.000000	-0.000086
2347.000000	-0.000084
2346.000000	-0.000111
2345.000000	-0.000112
2344.000000	-0.000072
2343.000000	-0.000027
2342.000000	-0.000013
2341.000000	-0.000030
2340.000000	-0.000052
2339.000000	-0.000057
2338.000000	-0.000046
2337.000000	-0.000030
2336.000000	-0.000012
2335.000000	0.000002
2334.000000	-0.000010
2333.000000	-0.000058
2332.000000	-0.000114
2331.000000	-0.000134
2330.000000	-0.000104
2329.000000	-0.000048
2328.000000	0.000016
2327.000000	0.000086
2326.000000	0.000162
2325.000000	0.000222
2324.000000	0.000242
2323.000000	0.000210
2322.000000	0.000145
2321.000000	0.000089
2320.000000	0.000084
2319.000000	0.000142
2318.000000	0.000232
2317.000000	0.000299
2316.000000	0.000306
2315.000000	0.000251
2314.000000	0.000167
2313.000000	0.000089
2312.000000	0.000034
2311.000000	0.000007
2310.000000	0.000014
2309.000000	0.000057
2308.000000	0.000123
2307.000000	0.000176
2306.000000	0.000193
2305.000000	0.000182
2304.000000	0.000163
2303.000000	0.000153
2302.000000	0.000149
2301.000000	0.000143
2300.000000	0.000129
2299.000000	0.000110
2298.000000	0.000103
2297.000000	0.000124
2296.000000	0.000176
2295.000000	0.000239
2294.000000	0.000286
2293.000000	0.000309
2292.000000	0.000314
2291.000000	0.000312
2290.000000	0.000308
2289.000000	0.000311
2288.000000	0.000321
2287.000000	0.000327
2286.000000	0.000311
2285.000000	0.000278
2284.000000	0.000250
2283.000000	0.000243
2282.000000	0.000252
2281.000000	0.000258
2280.000000	0.000248
2279.000000	0.000225
2278.000000	0.000199
2277.000000	0.000185
2276.000000	0.000190
2275.000000	0.000208
2274.000000	0.000220
2273.000000	0.000214
2272.000000	0.000204
2271.000000	0.000218
2270.000000	0.000272
2269.000000	0.000351
2268.000000	0.000417
2267.000000	0.000434
2266.000000	0.000388
2265.000000	0.000296
2264.000000	0.000201
2263.000000	0.000146
2262.000000	0.000156
2261.000000	0.000208
2260.000000	0.000244
2259.000000	0.000215
2258.000000	0.000129
2257.000000	0.000039
2256.000000	-0.000013
2255.000000	-0.000031
2254.000000	-0.000039
2253.000000	-0.000042
2252.000000	-0.000030
2251.000000	-0.000008
2250.000000	-0.000001
2249.000000	-0.000014
2248.000000	-0.000024
2247.000000	0.000005
2246.000000	0.000094
2245.000000	0.000242
2244.000000	0.000414
2243.000000	0.000546
2242.000000	0.000567
2241.000000	0.000455
2240.000000	0.000267
2239.000000	0.000101
2238.000000	0.000026
2237.000000	0.000037
2236.000000	0.000071
2235.000000	0.000065
2234.000000	0.000002
2233.000000	-0.000077
2232.000000	-0.000114
2231.000000	-0.000079
2230.000000	0.000015
2229.000000	0.000131
2228.000000	0.000235
2227.000000	0.000299
2226.000000	0.000308
2225.000000	0.000263
2224.000000	0.000189
2223.000000	0.000130
2222.000000	0.000130
2221.000000	0.000194
2220.000000	0.000270
2219.000000	0.000284
2218.000000	0.000212
2217.000000	0.000102
2216.000000	0.000022
2215.000000	-0.000003
2214.000000	0.000003
2213.000000	0.000022
2212.000000	0.000049
2211.000000	0.000072
2210.000000	0.000074
2209.000000	0.000047
2208.000000	-0.000002
2207.000000	-0.000075
2206.000000	-0.000173
2205.000000	-0.000258
2204.000000	-0.000260
2203.000000	-0.000150
2202.000000	0.000016
2201.000000	0.000142
2200.000000	0.000179
2199.000000	0.000157
2198.000000	0.000138
2197.000000	0.000165
2196.000000	0.000240
2195.000000	0.000322
2194.000000	0.000356
2193.000000	0.000312
2192.000000	0.000205
2191.000000	0.000081
2190.000000	-0.000016
2189.000000	-0.000057
2188.000000	-0.000030
2187.000000	0.000045
2186.000000	0.000123
2185.000000	0.000174
2184.000000	0.000198
2183.000000	0.000202
2182.000000	0.000170
2181.000000	0.000098
2180.000000	0.000028
2179.000000	0.000022
2178.000000	0.000087
2177.000000	0.000171
2176.000000	0.000218
2175.000000	0.000213
2174.000000	0.000178
2173.000000	0.000136
2172.000000	0.000108
2171.000000	0.000116
2170.000000	0.000160
2169.000000	0.000191
2168.000000	0.000125
2167.000000	-0.000076
2166.000000	-0.000337
2165.000000	-0.000480
2164.000000	-0.000357
2163.000000	0.000011
2162.000000	0.000433
2161.000000	0.000666
2160.000000	0.000565
2159.000000	0.000167
2158.000000	-0.000334
2157.000000	-0.000710
2156.000000	-0.000854
2155.000000	-0.000829
2154.000000	-0.000763
2153.000000	-0.000722
2152.000000	-0.000673
2151.000000	-0.000550
2150.000000	-0.000340
2149.000000	-0.000111
2148.000000	0.000041
2147.000000	0.000050
2146.000000	-0.000080
2145.000000	-0.000269
2144.000000	-0.000415
2143.000000	-0.000459
2142.000000	-0.000417
2141.000000	-0.000341
2140.000000	-0.000275
2139.000000	-0.000247
2138.000000	-0.000272
2137.000000	-0.000339
2136.000000	-0.000399
2135.000000	-0.000395
2134.000000	-0.000319
2133.000000	-0.000219
2132.000000	-0.000147
2131.000000	-0.000124
2130.000000	-0.000137
2129.000000	-0.000159
2128.000000	-0.000168
2127.000000	-0.000154
2126.000000	-0.000121
2125.000000	-0.000078
2124.000000	-0.000028
2123.000000	0.000025
2122.000000	0.000079
2121.000000	0.000134
2120.000000	0.000189
2119.000000	0.000231
2118.000000	0.000225
2117.000000	0.000144
2116.000000	0.000010
2115.000000	-0.000116
2114.000000	-0.000180
2113.000000	-0.000170
2112.000000	-0.000104
2111.000000	-0.000008
2110.000000	0.000096
2109.000000	0.000175
2108.000000	0.000193
2107.000000	0.000136
2106.000000	0.000029
2105.000000	-0.000069
2104.000000	-0.000101
2103.000000	-0.000050
2102.000000	0.000036
2101.000000	0.000090
2100.000000	0.000085
2099.000000	0.000056
2098.000000	0.000045
2097.000000	0.000066
2096.000000	0.000109
2095.000000	0.000168
2094.000000	0.000235
2093.000000	0.000276
2092.000000	0.000250
2091.000000	0.000155
2090.000000	0.000041
2089.000000	-0.000027
2088.000000	-0.000024
2087.000000	0.000030
2086.000000	0.000108
2085.000000	0.000192
2084.000000	0.000256
2083.000000	0.000264
2082.000000	0.000192
2081.000000	0.000071
2080.000000	-0.000030
2079.000000	-0.000063
2078.000000	-0.000044
2077.000000	-0.000032
2076.000000	-0.000062
2075.000000	-0.000118
2074.000000	-0.000154
2073.000000	-0.000142
2072.000000	-0.000087
2071.000000	-0.000017
2070.000000	0.000045
2069.000000	0.000090
2068.000000	0.000116
2067.000000	0.000113
2066.000000	0.000068
2065.000000	-0.000008
2064.000000	-0.000069
2063.000000	-0.000069
2062.000000	-0.000012
2061.000000	0.000064
2060.000000	0.000120
2059.000000	0.000137
2058.000000	0.000095
2057.000000	-0.000018
2056.000000	-0.000164
2055.000000	-0.000259
2054.000000	-0.000233
2053.000000	-0.000096
2052.000000	0.000070
2051.000000	0.000183
2050.000000	0.000221
2049.000000	0.000223
2048.000000	0.000251
2047.000000	0.000324
2046.000000	0.000389
2045.000000	0.000382
2044.000000	0.000307
2043.000000	0.000242
2042.000000	0.000251
2041.000000	0.000313
2040.000000	0.000367
2039.000000	0.000395
2038.000000	0.000420
2037.000000	0.000446
2036.000000	0.000439
2035.000000	0.000377
2034.000000	0.000287
2033.000000	0.000203
2032.000000	0.000129
2031.000000	0.000039
2030.000000	-0.000081
2029.000000	-0.000217
2028.000000	-0.000322
2027.000000	-0.000344
2026.000000	-0.000255
2025.000000	-0.000083
2024.000000	0.000093
2023.000000	0.000196
2022.000000	0.000199
2021.000000	0.000147
2020.000000	0.000103
2019.000000	0.000084
2018.000000	0.000038
2017.000000	-0.000064
2016.000000	-0.000140
2015.000000	-0.000054
2014.000000	0.000205
2013.000000	0.000455
2012.000000	0.000481
2011.000000	0.000266
2010.000000	-0.000004
2009.000000	-0.000137
2008.000000	-0.000114
2007.000000	-0.000066
2006.000000	-0.000104
2005.000000	-0.000233
2004.000000	-0.000389
2003.000000	-0.000497
2002.000000	-0.000508
2001.000000	-0.000415
2000.000000	-0.000277
1999.000000	-0.000185
1998.000000	-0.000183
1997.000000	-0.000227
1996.000000	-0.000228
1995.000000	-0.000140
1994.000000	-0.000001
1993.000000	0.000114
1992.000000	0.000170
1991.000000	0.000195
1990.000000	0.000227
1989.000000	0.000255
1988.000000	0.000241
1987.000000	0.000178
1986.000000	0.000118
1985.000000	0.000120
1984.000000	0.000201
1983.000000	0.000321
1982.000000	0.000421
1981.000000	0.000453
1980.000000	0.000384
1979.000000	0.000219
1978.000000	0.000004
1977.000000	-0.000167
1976.000000	-0.000219
1975.000000	-0.000160
1974.000000	-0.000073
1973.000000	-0.000051
1972.000000	-0.000136
1971.000000	-0.000294
1970.000000	-0.000425
1969.000000	-0.000423
1968.000000	-0.000255
1967.000000	-0.000012
1966.000000	0.000160
1965.000000	0.000196
1964.000000	0.000170
1963.000000	0.000187
1962.000000	0.000260
1961.000000	0.000313
1960.000000	0.000280
1959.000000	0.000183
1958.000000	0.000090
1957.000000	0.000044
1956.000000	0.000045
1955.000000	0.000081
1954.000000	0.000132
1953.000000	0.000177
1952.000000	0.000212
1951.000000	0.000244
1950.000000	0.000275
1949.000000	0.000286
1948.000000	0.000262
1947.000000	0.000202
1946.000000	0.000114
1945.000000	0.000007
1944.000000	-0.000093
1943.000000	-0.000139
1942.000000	-0.000114
1941.000000	-0.000070
1940.000000	-0.000071
1939.000000	-0.000112
1938.000000	-0.000135
1937.000000	-0.000108
1936.000000	-0.000064
1935.000000	-0.000055
1934.000000	-0.000088
1933.000000	-0.000130
1932.000000	-0.000145
1931.000000	-0.000131
1930.000000	-0.000112
1929.000000	-0.000124
1928.000000	-0.000188
1927.000000	-0.000290
1926.000000	-0.000388
1925.000000	-0.000440
1924.000000	-0.000427
1923.000000	-0.000362
1922.000000	-0.000279
1921.000000	-0.000217
1920.000000	-0.000190
1919.000000	-0.000176
1918.000000	-0.000146
1917.000000	-0.000101
1916.000000	-0.000070
1915.000000	-0.000069
1914.000000	-0.000089
1913.000000	-0.000118
1912.000000	-0.000159
1911.000000	-0.000205
1910.000000	-0.000225
1909.000000	-0.000187
1908.000000	-0.000106
1907.000000	-0.000037
1906.000000	-0.000021
1905.000000	-0.000051
1904.000000	-0.000094
1903.000000	-0.000123
1902.000000	-0.000135
1901.000000	-0.000140
1900.000000	-0.000145
1899.000000	-0.000147
1898.000000	-0.000137
1897.000000	-0.000112
1896.000000	-0.000084
1895.000000	-0.000069
1894.000000	-0.000077
1893.000000	-0.000094
1892.000000	-0.000103
1891.000000	-0.000093
1890.000000	-0.000068
1889.000000	-0.000042
1888.000000	-0.000030
1887.000000	-0.000033
1886.000000	-0.000039
1885.000000	-0.000035
1884.000000	-0.000022
1883.000000	-0.000025
1882.000000	-0.000060
1881.000000	-0.000121
1880.000000	-0.000178
1879.000000	-0.000211
1878.000000	-0.000211
1877.000000	-0.000175
1876.000000	-0.000106
1875.000000	-0.000033
1874.000000	0.000002
1873.000000	-0.000024
1872.000000	-0.000081
1871.000000	-0.000122
1870.000000	-0.000134
1869.000000	-0.000141
1868.000000	-0.000157
1867.000000	-0.000158
1866.000000	-0.000136
1865.000000	-0.000120
1864.000000	-0.000137
1863.000000	-0.000175
1862.000000	-0.000195
1861.000000	-0.000187
1860.000000	-0.000178
1859.000000	-0.000190
1858.000000	-0.000212
1857.000000	-0.000220
1856.000000	-0.000215
1855.000000	-0.000215
1854.000000	-0.000225
1853.000000	-0.000231
1852.000000	-0.000222
1851.000000	-0.000205
1850.000000	-0.000191
1849.000000	-0.000177
1848.000000	-0.000158
1847.000000	-0.000141
1846.000000	-0.000142
1845.000000	-0.000168
1844.000000	-0.000200
1843.000000	-0.000215
1842.000000	-0.000214
1841.000000	-0.000216
1840.000000	-0.000228
1839.000000	-0.000243
1838.000000	-0.000249
1837.000000	-0.000248
1836.000000	-0.000245
1835.000000	-0.000239
1834.000000	-0.000222
1833.000000	-0.000199
1832.000000	-0.000184
1831.000000	-0.000183
1830.000000	-0.000180
1829.000000	-0.000158
1828.000000	-0.000126
1827.000000	-0.000109
1826.000000	-0.000114
1825.000000	-0.000140
1824.000000	-0.000177
1823.000000	-0.000216
1822.000000	-0.000244
1821.000000	-0.000249
1820.000000	-0.000231
1819.000000	-0.000206
1818.000000	-0.000191
1817.000000	-0.000188
1816.000000	-0.000186
1815.000000	-0.000177
1814.000000	-0.000165
1813.000000	-0.000163
1812.000000	-0.000178
1811.000000	-0.000201
1810.000000	-0.000212
1809.000000	-0.000204
1808.000000	-0.000187
1807.000000	-0.000172
1806.000000	-0.000166
1805.000000	-0.000171
1804.000000	-0.000193
1803.000000	-0.000224
1802.000000	-0.000248
1801.000000	-0.000242
1800.000000	-0.000209
1799.000000	-0.000171
1798.000000	-0.000153
1797.000000	-0.000161
1796.000000	-0.000183
1795.000000	-0.000205
1794.000000	-0.000220
1793.000000	-0.000221
1792.000000	-0.000197
1791.000000	-0.000155
1790.000000	-0.000125
1789.000000	-0.000132
1788.000000	-0.000173
1787.000000	-0.000219
1786.000000	-0.000239
1785.000000	-0.000225
1784.000000	-0.000199
1783.000000	-0.000178
1782.000000	-0.000162
1781.000000	-0.000139
1780.000000	-0.000123
1779.000000	-0.000136
1778.000000	-0.000173
1777.000000	-0.000206
1776.000000	-0.000206
1775.000000	-0.000173
1774.000000	-0.000133
1773.000000	-0.000114
1772.000000	-0.000121
1771.000000	-0.000138
1770.000000	-0.000145
1769.000000	-0.000139
1768.000000	-0.000128
1767.000000	-0.000128
1766.000000	-0.000148
1765.000000	-0.000177
1764.000000	-0.000195
1763.000000	-0.000185
1762.000000	-0.000151
1761.000000	-0.000113
1760.000000	-0.000089
1759.000000	-0.000075
1758.000000	-0.000062
1757.000000	-0.000051
1756.000000	-0.000047
1755.000000	-0.000049
1754.000000	-0.000041
1753.000000	-0.000010
1752.000000	0.000051
1751.000000	0.000125
1750.000000	0.000188
1749.000000	0.000226
1748.000000	0.000232
1747.000000	0.000217
1746.000000	0.000205
1745.000000	0.000219
1744.000000	0.000260
1743.000000	0.000304
1742.000000	0.000327
1741.000000	0.000324
1740.000000	0.000300
1739.000000	0.000263
1738.000000	0.000231
1737.000000	0.000211
1736.000000	0.000203
1735.000000	0.000193
1734.000000	0.000158
1733.000000	0.000103
1732.000000	0.000055
1731.000000	0.000018
1730.000000	-0.000010
1729.000000	-0.000030
1728.000000	-0.000043
1727.000000	-0.000053
1726.000000	-0.000058
1725.000000	-0.000057
1724.000000	-0.000061
1723.000000	-0.000083
1722.000000	-0.000118
1721.000000	-0.000149
1720.000000	-0.000159
1719.000000	-0.000139
1718.000000	-0.000095
1717.000000	-0.000054
1716.000000	-0.000035
1715.000000	-0.000026
1714.000000	-0.000020
1713.000000	-0.000020
1712.000000	-0.000033
1711.000000	-0.000063
1710.000000	-0.000103
1709.000000	-0.000137
1708.000000	-0.000146
1707.000000	-0.000130
1706.000000	-0.000106
1705.000000	-0.000098
1704.000000	-0.000112
1703.000000	-0.000136
1702.000000	-0.000157
1701.000000	-0.000164
1700.000000	-0.000146
1699.000000	-0.000111
1698.000000	-0.000085
1697.000000	-0.000081
1696.000000	-0.000082
1695.000000	-0.000056
1694.000000	-0.000000
1693.000000	0.000060
1692.000000	0.000108
1691.000000	0.000137
1690.000000	0.000145
1689.000000	0.000136
1688.000000	0.000120
1687.000000	0.000108
1686.000000	0.000109
1685.000000	0.000130
1684.000000	0.000160
1683.000000	0.000183
1682.000000	0.000190
1681.000000	0.000187
1680.000000	0.000187
1679.000000	0.000193
1678.000000	0.000203
1677.000000	0.000207
1676.000000	0.000196
1675.000000	0.000167
1674.000000	0.000138
1673.000000	0.000121
1672.000000	0.000119
1671.000000	0.000123
1670.000000	0.000128
1669.000000	0.000134
1668.000000	0.000139
1667.000000	0.000138
1666.000000	0.000133
1665.000000	0.000132
1664.000000	0.000138
1663.000000	0.000147
1662.000000	0.000153
1661.000000	0.000165
1660.000000	0.000189
1659.000000	0.000219
1658.000000	0.000242
1657.000000	0.000253
1656.000000	0.000254
1655.000000	0.000251
1654.000000	0.000235
1653.000000	0.000200
1652.000000	0.000186
1651.000000	0.000190
1650.000000	0.000188
1649.000000	0.000183
1648.000000	0.000188
1647.000000	0.000214
1646.000000	0.000251
1645.000000	0.000276
1644.000000	0.000281
1643.000000	0.000272
1642.000000	0.000259
1641.000000	0.000247
1640.000000	0.000240
1639.000000	0.000240
1638.000000	0.000241
1637.000000	0.000241
1636.000000	0.000248
1635.000000	0.000275
1634.000000	0.000314
1633.000000	0.000346
1632.000000	0.000366
1631.000000	0.000378
1630.000000	0.000387
1629.000000	0.000395
1628.000000	0.000406
1627.000000	0.000428
1626.000000	0.000466
1625.000000	0.000521
1624.000000	0.000582
1623.000000	0.000628
1622.000000	0.000647
1621.000000	0.000657
1620.000000	0.000675
1619.000000	0.000696
1618.000000	0.000703
1617.000000	0.000675
1616.000000	0.000625
1615.000000	0.000577
1614.000000	0.000536
1613.000000	0.000490
1612.000000	0.000438
1611.000000	0.000380
1610.000000	0.000321
1609.000000	0.000273
1608.000000	0.000247
1607.000000	0.000242
1606.000000	0.000243
1605.000000	0.000245
1604.000000	0.000252
1603.000000	0.000274
1602.000000	0.000309
1601.000000	0.000342
1600.000000	0.000355
1599.000000	0.000337
1598.000000	0.000291
1597.000000	0.000236
1596.000000	0.000192
1595.000000	0.000168
1594.000000	0.000159
1593.000000	0.000157
1592.000000	0.000158
1591.000000	0.000162
1590.000000	0.000174
1589.000000	0.000194
1588.000000	0.000217
1587.000000	0.000228
1586.000000	0.000218
1585.000000	0.000198
1584.000000	0.000195
1583.000000	0.000224
1582.000000	0.000273
1581.000000	0.000317
1580.000000	0.000336
1579.000000	0.000325
1578.000000	0.000280
1577.000000	0.000210
1576.000000	0.000140
1575.000000	0.000104
1574.000000	0.000103
1573.000000	0.000118
1572.000000	0.000134
1571.000000	0.000142
1570.000000	0.000128
1569.000000	0.000101
1568.000000	0.000087
1567.000000	0.000088
1566.000000	0.000099
1565.000000	0.000114
1564.000000	0.000133
1563.000000	0.000146
1562.000000	0.000149
1561.000000	0.000156
1560.000000	0.000209
1559.000000	0.000323
1558.000000	0.000407
1557.000000	0.000423
1556.000000	0.000403
1555.000000	0.000379
1554.000000	0.000361
1553.000000	0.000352
1552.000000	0.000353
1551.000000	0.000372
1550.000000	0.000416
1549.000000	0.000484
1548.000000	0.000566
1547.000000	0.000658
1546.000000	0.000753
1545.000000	0.000832
1544.000000	0.000870
1543.000000	0.000869
1542.000000	0.000853
1541.000000	0.000836
1540.000000	0.000812
1539.000000	0.000766
1538.000000	0.000698
1537.000000	0.000616
1536.000000	0.000531
1535.000000	0.000448
1534.000000	0.000368
1533.000000	0.000305
1532.000000	0.000273
1531.000000	0.000275
1530.000000	0.000296
1529.000000	0.000317
1528.000000	0.000315
1527.000000	0.000277
1526.000000	0.000213
1525.000000	0.000147
1524.000000	0.000103
1523.000000	0.000083
1522.000000	0.000077
1521.000000	0.000068
1520.000000	0.000059
1519.000000	0.000056
1518.000000	0.000055
1517.000000	0.000045
1516.000000	0.000028
1515.000000	0.000025
1514.000000	0.000045
1513.000000	0.000079
1512.000000	0.000111
1511.000000	0.000129
1510.000000	0.000135
1509.000000	0.000141
1508.000000	0.000144
1507.000000	0.000119
1506.000000	0.000064
1505.000000	0.000011
1504.000000	-0.000039
1503.000000	-0.000079
1502.000000	-0.000098
1501.000000	-0.000088
1500.000000	-0.000056
1499.000000	-0.000020
1498.000000	0.000001
1497.000000	-0.000001
1496.000000	-0.000028
1495.000000	-0.000058
1494.000000	-0.000070
1493.000000	-0.000063
1492.000000	-0.000048
1491.000000	-0.000041
1490.000000	-0.000045
1489.000000	-0.000050
1488.000000	-0.000046
1487.000000	-0.000035
1486.000000	-0.000027
1485.000000	-0.000022
1484.000000	-0.000012
1483.000000	0.000007
1482.000000	0.000031
1481.000000	0.000051
1480.000000	0.000068
1479.000000	0.000087
1478.000000	0.000111
1477.000000	0.000138
1476.000000	0.000159
1475.000000	0.000166
1474.000000	0.000156
1473.000000	0.000126
1472.000000	0.000085
1471.000000	0.000056
1470.000000	0.000047
1469.000000	0.000051
1468.000000	0.000062
1467.000000	0.000074
1466.000000	0.000077
1465.000000	0.000062
1464.000000	0.000040
1463.000000	0.000027
1462.000000	0.000029
1461.000000	0.000035
1460.000000	0.000034
1459.000000	0.000012
1458.000000	-0.000035
1457.000000	-0.000082
1456.000000	-0.000086
1455.000000	-0.000054
1454.000000	-0.000017
1453.000000	0.000013
1452.000000	0.000037
1451.000000	0.000054
1450.000000	0.000058
1449.000000	0.000045
1448.000000	0.000020
1447.000000	0.000002
1446.000000	0.000001
1445.000000	0.000008
1444.000000	0.000013
1443.000000	0.000009
1442.000000	-0.000001
1441.000000	-0.000011
1440.000000	-0.000014
1439.000000	-0.000006
1438.000000	0.000015
1437.000000	0.000028
1436.000000	0.000010
1435.000000	-0.000029
1434.000000	-0.000055
1433.000000	-0.000055
1432.000000	-0.000036
1431.000000	-0.000017
1430.000000	-0.000013
1429.000000	-0.000018
1428.000000	-0.000018
1427.000000	-0.000012
1426.000000	-0.000012
1425.000000	-0.000023
1424.000000	-0.000042
1423.000000	-0.000064
1422.000000	-0.000083
1421.000000	-0.000094
1420.000000	-0.000090
1419.000000	-0.000071
1418.000000	-0.000047
1417.000000	-0.000029
1416.000000	-0.000020
1415.000000	-0.000010
1414.000000	0.000008
1413.000000	0.000032
1412.000000	0.000061
1411.000000	0.000098
1410.000000	0.000151
1409.000000	0.000224
1408.000000	0.000311
1407.000000	0.000394
1406.000000	0.000454
1405.000000	0.000471
1404.000000	0.000438
1403.000000	0.000368
1402.000000	0.000289
1401.000000	0.000220
1400.000000	0.000168
1399.000000	0.000130
1398.000000	0.000103
1397.000000	0.000086
1396.000000	0.000081
1395.000000	0.000083
1394.000000	0.000085
1393.000000	0.000080
1392.000000	0.000063
1391.000000	0.000037
1390.000000	0.000007
1389.000000	-0.000023
1388.000000	-0.000052
1387.000000	-0.000073
1386.000000	-0.000075
1385.000000	-0.000059
1384.000000	-0.000038
1383.000000	-0.000025
1382.000000	-0.000025
1381.000000	-0.000034
1380.000000	-0.000048
1379.000000	-0.000065
1378.000000	-0.000080
1377.000000	-0.000089
1376.000000	-0.000087
1375.000000	-0.000079
1374.000000	-0.000081
1373.000000	-0.000098
1372.000000	-0.000116
1371.000000	-0.000123
1370.000000	-0.000120
1369.000000	-0.000119
1368.000000	-0.000122
1367.000000	-0.000127
1366.000000	-0.000130
1365.000000	-0.000134
1364.000000	-0.000141
1363.000000	-0.000156
1362.000000	-0.000176
1361.000000	-0.000199
1360.000000	-0.000217
1359.000000	-0.000224
1358.000000	-0.000219
1357.000000	-0.000209
1356.000000	-0.000200
1355.000000	-0.000193
1354.000000	-0.000183
1353.000000	-0.000169
1352.000000	-0.000159
1351.000000	-0.000160
1350.000000	-0.000176
1349.000000	-0.000197
1348.000000	-0.000204
1347.000000	-0.000194
1346.000000	-0.000180
1345.000000	-0.000176
1344.000000	-0.000182
1343.000000	-0.000194
1342.000000	-0.000214
1341.000000	-0.000249
1340.000000	-0.000295
1339.000000	-0.000325
1338.000000	-0.000317
1337.000000	-0.000277
1336.000000	-0.000231
1335.000000	-0.000196
1334.000000	-0.000183
1333.000000	-0.000193
1332.000000	-0.000217
1331.000000	-0.000242
1330.000000	-0.000260
1329.000000	-0.000272
1328.000000	-0.000283
1327.000000	-0.000287
1326.000000	-0.000279
1325.000000	-0.000260
1324.000000	-0.000237
1323.000000	-0.000219
1322.000000	-0.000209
1321.000000	-0.000210
1320.000000	-0.000223
1319.000000	-0.000242
1318.000000	-0.000264
1317.000000	-0.000288
1316.000000	-0.000314
1315.000000	-0.000332
1314.000000	-0.000336
1313.000000	-0.000325
1312.000000	-0.000311
1311.000000	-0.000300
1310.000000	-0.000293
1309.000000	-0.000287
1308.000000	-0.000283
1307.000000	-0.000277
1306.000000	-0.000262
1305.000000	-0.000235
1304.000000	-0.000207
1303.000000	-0.000193
1302.000000	-0.000200
1301.000000	-0.000222
1300.000000	-0.000244
1299.000000	-0.000256
1298.000000	-0.000254
1297.000000	-0.000241
1296.000000	-0.000223
1295.000000	-0.000208
1294.000000	-0.000204
1293.000000	-0.000216
1292.000000	-0.000240
1291.000000	-0.000262
1290.000000	-0.000268
1289.000000	-0.000258
1288.000000	-0.000241
1287.000000	-0.000226
1286.000000	-0.000209
1285.000000	-0.000184
1284.000000	-0.000156
1283.000000	-0.000134
1282.000000	-0.000122
1281.000000	-0.000118
1280.000000	-0.000123
1279.000000	-0.000142
1278.000000	-0.000174
1277.000000	-0.000211
1276.000000	-0.000241
1275.000000	-0.000262
1274.000000	-0.000275
1273.000000	-0.000285
1272.000000	-0.000293
1271.000000	-0.000295
1270.000000	-0.000287
1269.000000	-0.000266
1268.000000	-0.000232
1267.000000	-0.000191
1266.000000	-0.000143
1265.000000	-0.000085
1264.000000	-0.000014
1263.000000	0.000063
1262.000000	0.000132
1261.000000	0.000177
1260.000000	0.000185
1259.000000	0.000152
1258.000000	0.000087
1257.000000	0.000017
1256.000000	-0.000031
1255.000000	-0.000043
1254.000000	-0.000028
1253.000000	0.000001
1252.000000	0.000036
1251.000000	0.000073
1250.000000	0.000116
1249.000000	0.000168
1248.000000	0.000231
1247.000000	0.000306
1246.000000	0.000388
1245.000000	0.000471
1244.000000	0.000546
1243.000000	0.000611
1242.000000	0.000664
1241.000000	0.000706
1240.000000	0.000741
1239.000000	0.000781
1238.000000	0.000838
1237.000000	0.000916
1236.000000	0.000998
1235.000000	0.001052
1234.000000	0.001057
1233.000000	0.001013
1232.000000	0.000940
1231.000000	0.000861
1230.000000	0.000800
1229.000000	0.000773
1228.000000	0.000787
1227.000000	0.000833
1226.000000	0.000894
1225.000000	0.000949
1224.000000	0.000989
1223.000000	0.001018
1222.000000	0.001049
1221.000000	0.001090
1220.000000	0.001143
1219.000000	0.001203
1218.000000	0.001269
1217.000000	0.001338
1216.000000	0.001406
1215.000000	0.001464
1214.000000	0.001515
1213.000000	0.001563
1212.000000	0.001603
1211.000000	0.001620
1210.000000	0.001601
1209.000000	0.001561
1208.000000	0.001528
1207.000000	0.001523
1206.000000	0.001547
1205.000000	0.001590
1204.000000	0.001641
1203.000000	0.001693
1202.000000	0.001741
1201.000000	0.001778
1200.000000	0.001798
1199.000000	0.001797
1198.000000	0.001773
1197.000000	0.001734
1196.000000	0.001695
1195.000000	0.001663
1194.000000	0.001641
1193.000000	0.001634
1192.000000	0.001645
1191.000000	0.001671
1190.000000	0.001694
1189.000000	0.001694
1188.000000	0.001664
1187.000000	0.001613
1186.000000	0.001561
1185.000000	0.001516
1184.000000	0.001476
1183.000000	0.001437
1182.000000	0.001401
1181.000000	0.001371
1180.000000	0.001348
1179.000000	0.001325
1178.000000	0.001301
1177.000000	0.001278
1176.000000	0.001253
1175.000000	0.001222
1174.000000	0.001185
1173.000000	0.001152
1172.000000	0.001138
1171.000000	0.001148
1170.000000	0.001169
1169.000000	0.001183
1168.000000	0.001180
1167.000000	0.001170
1166.000000	0.001172
1165.000000	0.001206
1164.000000	0.001282
1163.000000	0.001399
1162.000000	0.001536
1161.000000	0.001664
1160.000000	0.001754
1159.000000	0.001794
1158.000000	0.001790
1157.000000	0.001761
1156.000000	0.001722
1155.000000	0.001685
1154.000000	0.001663
1153.000000	0.001666
1152.000000	0.001697
1151.000000	0.001748
1150.000000	0.001804
1149.000000	0.001850
1148.000000	0.001884
1147.000000	0.001909
1146.000000	0.001940
1145.000000	0.001981
1144.000000	0.002019
1143.000000	0.002028
1142.000000	0.002001
1141.000000	0.001952
1140.000000	0.001908
1139.000000	0.001879
1138.000000	0.001858
1137.000000	0.001846
1136.000000	0.001857
1135.000000	0.001909
1134.000000	0.002004
1133.000000	0.002117
1132.000000	0.002222
1131.000000	0.002307
1130.000000	0.002381
1129.000000	0.002453
1128.000000	0.002511
1127.000000	0.002527
1126.000000	0.002486
1125.000000	0.002402
1124.000000	0.002310
1123.000000	0.002241
1122.000000	0.002206
1121.000000	0.002197
1120.000000	0.002196
1119.000000	0.002189
1118.000000	0.002169
1117.000000	0.002142
1116.000000	0.002112
1115.000000	0.002078
1114.000000	0.002038
1113.000000	0.001997
1112.000000	0.001966
1111.000000	0.001953
1110.000000	0.001951
1109.000000	0.001947
1108.000000	0.001933
1107.000000	0.001918
1106.000000	0.001921
1105.000000	0.001954
1104.000000	0.002003
1103.000000	0.002041
1102.000000	0.002047
1101.000000	0.002026
1100.000000	0.002002
1099.000000	0.001990
1098.000000	0.001988
1097.000000	0.001984
1096.000000	0.001974
1095.000000	0.001957
1094.000000	0.001931
1093.000000	0.001897
1092.000000	0.001867
1091.000000	0.001856
1090.000000	0.001864
1089.000000	0.001879
1088.000000	0.001891
1087.000000	0.001904
1086.000000	0.001923
1085.000000	0.001935
1084.000000	0.001918
1083.000000	0.001870
1082.000000	0.001813
1081.000000	0.001775
1080.000000	0.001765
1079.000000	0.001775
1078.000000	0.001790
1077.000000	0.001800
1076.000000	0.001798
1075.000000	0.001788
1074.000000	0.001776
1073.000000	0.001766
1072.000000	0.001763
1071.000000	0.001770
1070.000000	0.001792
1069.000000	0.001817
1068.000000	0.001820
1067.000000	0.001783
1066.000000	0.001717
1065.000000	0.001653
1064.000000	0.001621
1063.000000	0.001635
1062.000000	0.001687
1061.000000	0.001757
1060.000000	0.001826
1059.000000	0.001894
1058.000000	0.001991
1057.000000	0.002146
1056.000000	0.002348
1055.000000	0.002536
1054.000000	0.002649
1053.000000	0.002666
1052.000000	0.002601
1051.000000	0.002477
1050.000000	0.002316
1049.000000	0.002147
1048.000000	0.002004
1047.000000	0.001902
1046.000000	0.001827
1045.000000	0.001758
1044.000000	0.001693
1043.000000	0.001643
1042.000000	0.001608
1041.000000	0.001580
1040.000000	0.001552
1039.000000	0.001539
1038.000000	0.001565
1037.000000	0.001645
1036.000000	0.001777
1035.000000	0.001945
1034.000000	0.002128
1033.000000	0.002310
1032.000000	0.002481
1031.000000	0.002630
1030.000000	0.002745
1029.000000	0.002820
1028.000000	0.002860
1027.000000	0.002868
1026.000000	0.002848
1025.000000	0.002797
1024.000000	0.002717
1023.000000	0.002611
1022.000000	0.002485
1021.000000	0.002348
1020.000000	0.002218
1019.000000	0.002116
1018.000000	0.002042
1017.000000	0.001979
1016.000000	0.001909
1015.000000	0.001830
1014.000000	0.001751
1013.000000	0.001681
1012.000000	0.001624
1011.000000	0.001595
1010.000000	0.001598
1009.000000	0.001613
1008.000000	0.001604
1007.000000	0.001557
1006.000000	0.001488
1005.000000	0.001416
1004.000000	0.001348
1003.000000	0.001290
1002.000000	0.001262
1001.000000	0.001278
1000.000000	0.001312
999.000000	0.001316
998.000000	0.001262
997.000000	0.001174
996.000000	0.001098
995.000000	0.001062
994.000000	0.001057
993.000000	0.001065
992.000000	0.001077
991.000000	0.001085
990.000000	0.001081
989.000000	0.001056
988.000000	0.001011
987.000000	0.000957
986.000000	0.000904
985.000000	0.000861
984.000000	0.000836
983.000000	0.000832
982.000000	0.000842
981.000000	0.000849
980.000000	0.000844
979.000000	0.000823
978.000000	0.000789
977.000000	0.000751
976.000000	0.000726
975.000000	0.000727
974.000000	0.000749
973.000000	0.000770
972.000000	0.000769
971.000000	0.000744
970.000000	0.000704
969.000000	0.000662
968.000000	0.000632
967.000000	0.000623
966.000000	0.000630
965.000000	0.000631
964.000000	0.000605
963.000000	0.000560
962.000000	0.000521
961.000000	0.000503
960.000000	0.000497
959.000000	0.000488
958.000000	0.000471
957.000000	0.000450
956.000000	0.000423
955.000000	0.000392
954.000000	0.000368
953.000000	0.000365
952.000000	0.000379
951.000000	0.000395
950.000000	0.000402
949.000000	0.000404
948.000000	0.000405
947.000000	0.000398
946.000000	0.000375
945.000000	0.000345
944.000000	0.000329
943.000000	0.000335
942.000000	0.000344
941.000000	0.000332
940.000000	0.000297
939.000000	0.000261
938.000000	0.000243
937.000000	0.000240
936.000000	0.000239
935.000000	0.000235
934.000000	0.000235
933.000000	0.000246
932.000000	0.000260
931.000000	0.000261
930.000000	0.000241
929.000000	0.000213
928.000000	0.000193
927.000000	0.000187
926.000000	0.000184
925.000000	0.000181
924.000000	0.000188
923.000000	0.000201
922.000000	0.000198
921.000000	0.000163
920.000000	0.000113
919.000000	0.000084
918.000000	0.000087
917.000000	0.000098
916.000000	0.000097
915.000000	0.000091
914.000000	0.000097
913.000000	0.000114
912.000000	0.000136
911.000000	0.000166
910.000000	0.000201
909.000000	0.000218
908.000000	0.000200
907.000000	0.000156
906.000000	0.000115
905.000000	0.000090
904.000000	0.000079
903.000000	0.000083
902.000000	0.000108
901.000000	0.000143
900.000000	0.000166
899.000000	0.000173
898.000000	0.000181
897.000000	0.000195
896.000000	0.000200
895.000000	0.000179
894.000000	0.000139
893.000000	0.000099
892.000000	0.000068
891.000000	0.000045
890.000000	0.000027
889.000000	0.000006
888.000000	-0.000018
887.000000	-0.000033
886.000000	-0.000021
885.000000	0.000016
884.000000	0.000051
883.000000	0.000054
882.000000	0.000026
881.000000	-0.000010
880.000000	-0.000034
879.000000	-0.000039
878.000000	-0.000020
877.000000	0.000016
876.000000	0.000048
875.000000	0.000051
874.000000	0.000022
873.000000	-0.000018
872.000000	-0.000040
871.000000	-0.000032
870.000000	-0.000011
869.000000	-0.000005
868.000000	-0.000023
867.000000	-0.000051
866.000000	-0.000063
865.000000	-0.000058
864.000000	-0.000051
863.000000	-0.000049
862.000000	-0.000044
861.000000	-0.000031
860.000000	-0.000022
859.000000	-0.000018
858.000000	0.000001
857.000000	0.000057
856.000000	0.000140
855.000000	0.000203
854.000000	0.000204
853.000000	0.000135
852.000000	0.000026
851.000000	-0.000081
850.000000	-0.000155
849.000000	-0.000190
848.000000	-0.000204
847.000000	-0.000211
846.000000	-0.000209
845.000000	-0.000187
844.000000	-0.000152
843.000000	-0.000127
842.000000	-0.000128
841.000000	-0.000141
840.000000	-0.000148
839.000000	-0.000138
838.000000	-0.000122
837.000000	-0.000114
836.000000	-0.000125
835.000000	-0.000158
834.000000	-0.000197
833.000000	-0.000220
832.000000	-0.000211
831.000000	-0.000180
830.000000	-0.000149
829.000000	-0.000126
828.000000	-0.000106
827.000000	-0.000083
826.000000	-0.000073
825.000000	-0.000094
824.000000	-0.000136
823.000000	-0.000172
822.000000	-0.000187
821.000000	-0.000197
820.000000	-0.000221
819.000000	-0.000258
818.000000	-0.000285
817.000000	-0.000283
816.000000	-0.000255
815.000000	-0.000226
814.000000	-0.000220
813.000000	-0.000244
812.000000	-0.000279
811.000000	-0.000296
810.000000	-0.000277
809.000000	-0.000230
808.000000	-0.000176
807.000000	-0.000136
806.000000	-0.000119
805.000000	-0.000130
804.000000	-0.000158
803.000000	-0.000179
802.000000	-0.000179
801.000000	-0.000174
800.000000	-0.000188
799.000000	-0.000226
798.000000	-0.000266
797.000000	-0.000295
796.000000	-0.000317
795.000000	-0.000330
794.000000	-0.000315
793.000000	-0.000259
792.000000	-0.000182
791.000000	-0.000123
790.000000	-0.000103
789.000000	-0.000120
788.000000	-0.000156
787.000000	-0.000198
786.000000	-0.000233
785.000000	-0.000258
784.000000	-0.000279
783.000000	-0.000299
782.000000	-0.000314
781.000000	-0.000315
780.000000	-0.000308
779.000000	-0.000309
778.000000	-0.000323
777.000000	-0.000333
776.000000	-0.000330
775.000000	-0.000323
774.000000	-0.000325
773.000000	-0.000328
772.000000	-0.000304
771.000000	-0.000248
770.000000	-0.000198
769.000000	-0.000197
768.000000	-0.000244
767.000000	-0.000293
766.000000	-0.000296
765.000000	-0.000252
764.000000	-0.000200
763.000000	-0.000182
762.000000	-0.000212
761.000000	-0.000277
760.000000	-0.000346
759.000000	-0.000383
758.000000	-0.000362
757.000000	-0.000294
756.000000	-0.000220
755.000000	-0.000185
754.000000	-0.000202
753.000000	-0.000244
752.000000	-0.000269
751.000000	-0.000252
750.000000	-0.000203
749.000000	-0.000150
748.000000	-0.000113
747.000000	-0.000095
746.000000	-0.000084
745.000000	-0.000072
744.000000	-0.000067
743.000000	-0.000080
742.000000	-0.000115
741.000000	-0.000172
740.000000	-0.000244
739.000000	-0.000316
738.000000	-0.000369
737.000000	-0.000387
736.000000	-0.000371
735.000000	-0.000338
734.000000	-0.000309
733.000000	-0.000285
732.000000	-0.000250
731.000000	-0.000190
730.000000	-0.000107
729.000000	-0.000016
728.000000	0.000064
727.000000	0.000103
726.000000	0.000069
725.000000	-0.000041
724.000000	-0.000176
723.000000	-0.000259
722.000000	-0.000256
721.000000	-0.000203
720.000000	-0.000168
719.000000	-0.000181
718.000000	-0.000216
717.000000	-0.000247
716.000000	-0.000280
715.000000	-0.000330
714.000000	-0.000387
713.000000	-0.000420
712.000000	-0.000416
711.000000	-0.000385
710.000000	-0.000335
709.000000	-0.000258
708.000000	-0.000152
707.000000	-0.000065
706.000000	-0.000061
705.000000	-0.000148
704.000000	-0.000262
703.000000	-0.000329
702.000000	-0.000336
701.000000	-0.000325
700.000000	-0.000323
699.000000	-0.000324
698.000000	-0.000315
697.000000	-0.000309
696.000000	-0.000325
695.000000	-0.000350
694.000000	-0.000359
693.000000	-0.000345
692.000000	-0.000320
691.000000	-0.000302
690.000000	-0.000300
689.000000	-0.000314
688.000000	-0.000333
687.000000	-0.000328
686.000000	-0.000288
685.000000	-0.000243
684.000000	-0.000221
683.000000	-0.000205
682.000000	-0.000139
681.000000	0.000013
680.000000	0.000228
679.000000	0.000441
678.000000	0.000592
677.000000	0.000693
676.000000	0.000804
675.000000	0.000962
674.000000	0.001141
673.000000	0.001280
672.000000	0.001319
671.000000	0.001214
670.000000	0.000953
669.000000	0.000630
668.000000	0.000562
667.000000	0.000983
666.000000	0.001495
665.000000	0.001853
664.000000	0.002070
663.000000	0.002166
662.000000	0.002162
661.000000	0.002106
660.000000	0.002028
659.000000	0.001928
658.000000	0.001807
657.000000	0.001713
656.000000	0.001688
655.000000	0.001696
654.000000	0.001672
653.000000	0.001591
652.000000	0.001464
651.000000	0.001307
650.000000	0.001146
649.000000	0.001014
648.000000	0.000915
647.000000	0.000824
646.000000	0.000736
645.000000	0.000672
644.000000	0.000635
643.000000	0.000589
642.000000	0.000504
641.000000	0.000397
640.000000	0.000324
639.000000	0.000344
638.000000	0.000491
637.000000	0.000739
636.000000	0.000992
635.000000	0.001133
634.000000	0.001117
633.000000	0.000982
632.000000	0.000787
631.000000	0.000575
630.000000	0.000385
629.000000	0.000256
628.000000	0.000186
627.000000	0.000142
626.000000	0.000115
625.000000	0.000132
624.000000	0.000192
623.000000	0.000240
622.000000	0.000231
621.000000	0.000196
620.000000	0.000220
619.000000	0.000374
618.000000	0.000655
617.000000	0.000989
616.000000	0.001256
615.000000	0.001355
614.000000	0.001259
613.000000	0.001042
612.000000	0.000819
611.000000	0.000674
610.000000	0.000631
609.000000	0.000651
608.000000	0.000666
607.000000	0.000644
606.000000	0.000621
605.000000	0.000661
604.000000	0.000775
603.000000	0.000902
602.000000	0.000991
601.000000	0.001046
600.000000	0.001093
599.000000	0.001126
598.000000	0.001120
597.000000	0.001068
596.000000	0.000990
595.000000	0.000912
594.000000	0.000855
593.000000	0.000837
592.000000	0.000863
591.000000	0.000915
590.000000	0.000955
589.000000	0.000938
588.000000	0.000840
587.000000	0.000686
586.000000	0.000561
585.000000	0.000549
584.000000	0.000639
583.000000	0.000743
582.000000	0.000789
581.000000	0.000777
580.000000	0.000729
579.000000	0.000638
578.000000	0.000499
577.000000	0.000364
576.000000	0.000294
575.000000	0.000271
574.000000	0.000222
573.000000	0.000119
572.000000	0.000025
571.000000	0.000027
570.000000	0.000147
569.000000	0.000327
568.000000	0.000485
567.000000	0.000565
566.000000	0.000568
565.000000	0.000527
564.000000	0.000474
563.000000	0.000417
562.000000	0.000348
561.000000	0.000268
560.000000	0.000208
559.000000	0.000237
558.000000	0.000417
557.000000	0.000719
556.000000	0.000998
555.000000	0.001080
554.000000	0.000916
553.000000	0.000605
552.000000	0.000285
551.000000	0.000031
550.000000	-0.000130
549.000000	-0.000195
548.000000	-0.000201
547.000000	-0.000230
546.000000	-0.000338
545.000000	-0.000489
544.000000	-0.000589
543.000000	-0.000585
542.000000	-0.000496
541.000000	-0.000382
540.000000	-0.000295
539.000000	-0.000260
538.000000	-0.000250
537.000000	-0.000204
536.000000	-0.000093
535.000000	0.000031
534.000000	0.000103
533.000000	0.000114
532.000000	0.000109
531.000000	0.000106
530.000000	0.000068
529.000000	-0.000042
528.000000	-0.000204
527.000000	-0.000348
526.000000	-0.000418
525.000000	-0.000411
524.000000	-0.000364
523.000000	-0.000282
522.000000	-0.000124
521.000000	0.000120
520.000000	0.000355
519.000000	0.000426
518.000000	0.000273
517.000000	0.000016
516.000000	-0.000173
515.000000	-0.000233
514.000000	-0.000212
513.000000	-0.000187
512.000000	-0.000223
511.000000	-0.000359
510.000000	-0.000566
509.000000	-0.000752
508.000000	-0.000846
507.000000	-0.000861
506.000000	-0.000837
505.000000	-0.000753
504.000000	-0.000568
503.000000	-0.000322
502.000000	-0.000134
501.000000	-0.000067
500.000000	-0.000080
499.000000	-0.000146
498.000000	-0.000307
497.000000	-0.000579
496.000000	-0.000880
495.000000	-0.001083
494.000000	-0.001113
493.000000	-0.000982
492.000000	-0.000779
491.000000	-0.000640
490.000000	-0.000633
489.000000	-0.000669
488.000000	-0.000602
487.000000	-0.000418
486.000000	-0.000273
485.000000	-0.000285
484.000000	-0.000360
483.000000	-0.000325
482.000000	-0.000167
481.000000	-0.000029
480.000000	-0.000009
479.000000	-0.000084
478.000000	-0.000196
477.000000	-0.000305
476.000000	-0.000356
475.000000	-0.000295
474.000000	-0.000159
473.000000	-0.000095
472.000000	-0.000212
471.000000	-0.000426
470.000000	-0.000554
469.000000	-0.000517
468.000000	-0.000402
467.000000	-0.000357
466.000000	-0.000442
465.000000	-0.000545
464.000000	-0.000466
463.000000	-0.000088
462.000000	0.000457
461.000000	0.000860
460.000000	0.000896
459.000000	0.000575
458.000000	0.000132
457.000000	-0.000125
456.000000	-0.000101
455.000000	0.000042
454.000000	0.000117
453.000000	0.000042
452.000000	-0.000135
451.000000	-0.000315
450.000000	-0.000443
