PE IR       SUBTECH     SPECTRUM    ASCII       PEDS        4.00        
   -1
P12-Rouge026_1.ASC
23/06/08
15:15:12.00
23/06/08
15:48:35.00
uco
Sample 026 By uco Date Thursday, June 08 2023
450.000000
#HDR
-1
-1
#GR
cm-1
A
1.0
0.0
4000.000000
-1.000000
3551
8
0.017470
0.001367
#DATA
4000.000000	0.001793
3999.000000	0.001839
3998.000000	0.001877
3997.000000	0.001894
3996.000000	0.001886
3995.000000	0.001865
3994.000000	0.001847
3993.000000	0.001810
3992.000000	0.001819
3991.000000	0.001838
3990.000000	0.001861
3989.000000	0.001886
3988.000000	0.001905
3987.000000	0.001912
3986.000000	0.001900
3985.000000	0.001871
3984.000000	0.001836
3983.000000	0.001815
3982.000000	0.001821
3981.000000	0.001853
3980.000000	0.001895
3979.000000	0.001927
3978.000000	0.001933
3977.000000	0.001914
3976.000000	0.001884
3975.000000	0.001862
3974.000000	0.001858
3973.000000	0.001867
3972.000000	0.001879
3971.000000	0.001884
3970.000000	0.001882
3969.000000	0.001877
3968.000000	0.001875
3967.000000	0.001877
3966.000000	0.001879
3965.000000	0.001872
3964.000000	0.001852
3963.000000	0.001827
3962.000000	0.001815
3961.000000	0.001827
3960.000000	0.001858
3959.000000	0.001890
3958.000000	0.001908
3957.000000	0.001908
3956.000000	0.001896
3955.000000	0.001883
3954.000000	0.001875
3953.000000	0.001874
3952.000000	0.001880
3951.000000	0.001889
3950.000000	0.001896
3949.000000	0.001896
3948.000000	0.001895
3947.000000	0.001894
3946.000000	0.001897
3945.000000	0.001901
3944.000000	0.001903
3943.000000	0.001907
3942.000000	0.001920
3941.000000	0.001945
3940.000000	0.001973
3939.000000	0.001992
3938.000000	0.001994
3937.000000	0.001981
3936.000000	0.001968
3935.000000	0.001963
3934.000000	0.001965
3933.000000	0.001962
3932.000000	0.001949
3931.000000	0.001929
3930.000000	0.001915
3929.000000	0.001914
3928.000000	0.001923
3927.000000	0.001935
3926.000000	0.001940
3925.000000	0.001937
3924.000000	0.001928
3923.000000	0.001923
3922.000000	0.001934
3921.000000	0.001962
3920.000000	0.001996
3919.000000	0.002020
3918.000000	0.002019
3917.000000	0.001996
3916.000000	0.001967
3915.000000	0.001950
3914.000000	0.001948
3913.000000	0.001956
3912.000000	0.001965
3911.000000	0.001969
3910.000000	0.001964
3909.000000	0.001947
3908.000000	0.001920
3907.000000	0.001889
3906.000000	0.001868
3905.000000	0.001863
3904.000000	0.001875
3903.000000	0.001894
3902.000000	0.001911
3901.000000	0.001924
3900.000000	0.001934
3899.000000	0.001939
3898.000000	0.001938
3897.000000	0.001933
3896.000000	0.001925
3895.000000	0.001915
3894.000000	0.001908
3893.000000	0.001906
3892.000000	0.001911
3891.000000	0.001922
3890.000000	0.001932
3889.000000	0.001938
3888.000000	0.001941
3887.000000	0.001946
3886.000000	0.001951
3885.000000	0.001951
3884.000000	0.001942
3883.000000	0.001921
3882.000000	0.001886
3881.000000	0.001848
3880.000000	0.001829
3879.000000	0.001843
3878.000000	0.001882
3877.000000	0.001918
3876.000000	0.001933
3875.000000	0.001919
3874.000000	0.001891
3873.000000	0.001874
3872.000000	0.001884
3871.000000	0.001913
3870.000000	0.001943
3869.000000	0.001960
3868.000000	0.001964
3867.000000	0.001954
3866.000000	0.001932
3865.000000	0.001899
3864.000000	0.001871
3863.000000	0.001864
3862.000000	0.001879
3861.000000	0.001907
3860.000000	0.001936
3859.000000	0.001958
3858.000000	0.001972
3857.000000	0.001983
3856.000000	0.001998
3855.000000	0.002012
3854.000000	0.002009
3853.000000	0.001984
3852.000000	0.001949
3851.000000	0.001915
3850.000000	0.001893
3849.000000	0.001888
3848.000000	0.001902
3847.000000	0.001929
3846.000000	0.001955
3845.000000	0.001967
3844.000000	0.001960
3843.000000	0.001937
3842.000000	0.001910
3841.000000	0.001889
3840.000000	0.001878
3839.000000	0.001881
3838.000000	0.001902
3837.000000	0.001937
3836.000000	0.001972
3835.000000	0.001994
3834.000000	0.001998
3833.000000	0.001983
3832.000000	0.001956
3831.000000	0.001928
3830.000000	0.001908
3829.000000	0.001898
3828.000000	0.001893
3827.000000	0.001888
3826.000000	0.001882
3825.000000	0.001878
3824.000000	0.001878
3823.000000	0.001877
3822.000000	0.001867
3821.000000	0.001854
3820.000000	0.001851
3819.000000	0.001863
3818.000000	0.001881
3817.000000	0.001897
3816.000000	0.001907
3815.000000	0.001924
3814.000000	0.001956
3813.000000	0.001994
3812.000000	0.002021
3811.000000	0.002022
3810.000000	0.001998
3809.000000	0.001966
3808.000000	0.001942
3807.000000	0.001934
3806.000000	0.001937
3805.000000	0.001939
3804.000000	0.001932
3803.000000	0.001908
3802.000000	0.001866
3801.000000	0.001832
3800.000000	0.001832
3799.000000	0.001866
3798.000000	0.001915
3797.000000	0.001957
3796.000000	0.001980
3795.000000	0.001984
3794.000000	0.001979
3793.000000	0.001976
3792.000000	0.001980
3791.000000	0.001991
3790.000000	0.002002
3789.000000	0.002004
3788.000000	0.001993
3787.000000	0.001970
3786.000000	0.001942
3785.000000	0.001915
3784.000000	0.001896
3783.000000	0.001890
3782.000000	0.001897
3781.000000	0.001913
3780.000000	0.001933
3779.000000	0.001950
3778.000000	0.001962
3777.000000	0.001971
3776.000000	0.001978
3775.000000	0.001980
3774.000000	0.001973
3773.000000	0.001961
3772.000000	0.001946
3771.000000	0.001931
3770.000000	0.001914
3769.000000	0.001896
3768.000000	0.001883
3767.000000	0.001883
3766.000000	0.001904
3765.000000	0.001942
3764.000000	0.001982
3763.000000	0.002005
3762.000000	0.002000
3761.000000	0.001964
3760.000000	0.001913
3759.000000	0.001871
3758.000000	0.001856
3757.000000	0.001863
3756.000000	0.001881
3755.000000	0.001899
3754.000000	0.001919
3753.000000	0.001946
3752.000000	0.001988
3751.000000	0.002045
3750.000000	0.002093
3749.000000	0.002106
3748.000000	0.002088
3747.000000	0.002062
3746.000000	0.002046
3745.000000	0.002030
3744.000000	0.002003
3743.000000	0.001965
3742.000000	0.001926
3741.000000	0.001896
3740.000000	0.001880
3739.000000	0.001877
3738.000000	0.001883
3737.000000	0.001881
3736.000000	0.001856
3735.000000	0.001813
3734.000000	0.001779
3733.000000	0.001775
3732.000000	0.001789
3731.000000	0.001808
3730.000000	0.001831
3729.000000	0.001866
3728.000000	0.001913
3727.000000	0.001958
3726.000000	0.001986
3725.000000	0.001998
3724.000000	0.002000
3723.000000	0.001988
3722.000000	0.001954
3721.000000	0.001900
3720.000000	0.001840
3719.000000	0.001795
3718.000000	0.001776
3717.000000	0.001780
3716.000000	0.001795
3715.000000	0.001811
3714.000000	0.001831
3713.000000	0.001864
3712.000000	0.001907
3711.000000	0.001939
3710.000000	0.001941
3709.000000	0.001915
3708.000000	0.001882
3707.000000	0.001854
3706.000000	0.001837
3705.000000	0.001830
3704.000000	0.001826
3703.000000	0.001819
3702.000000	0.001809
3701.000000	0.001801
3700.000000	0.001803
3699.000000	0.001812
3698.000000	0.001828
3697.000000	0.001848
3696.000000	0.001872
3695.000000	0.001898
3694.000000	0.001921
3693.000000	0.001932
3692.000000	0.001922
3691.000000	0.001891
3690.000000	0.001859
3689.000000	0.001856
3688.000000	0.001886
3687.000000	0.001920
3686.000000	0.001933
3685.000000	0.001927
3684.000000	0.001911
3683.000000	0.001893
3682.000000	0.001877
3681.000000	0.001870
3680.000000	0.001877
3679.000000	0.001893
3678.000000	0.001906
3677.000000	0.001900
3676.000000	0.001873
3675.000000	0.001857
3674.000000	0.001876
3673.000000	0.001914
3672.000000	0.001951
3671.000000	0.001976
3670.000000	0.001988
3669.000000	0.001996
3668.000000	0.002001
3667.000000	0.001992
3666.000000	0.001975
3665.000000	0.001963
3664.000000	0.001974
3663.000000	0.002009
3662.000000	0.002049
3661.000000	0.002069
3660.000000	0.002060
3659.000000	0.002034
3658.000000	0.002014
3657.000000	0.002017
3656.000000	0.002040
3655.000000	0.002066
3654.000000	0.002083
3653.000000	0.002098
3652.000000	0.002122
3651.000000	0.002158
3650.000000	0.002199
3649.000000	0.002231
3648.000000	0.002243
3647.000000	0.002235
3646.000000	0.002210
3645.000000	0.002172
3644.000000	0.002128
3643.000000	0.002088
3642.000000	0.002064
3641.000000	0.002060
3640.000000	0.002077
3639.000000	0.002103
3638.000000	0.002129
3637.000000	0.002157
3636.000000	0.002190
3635.000000	0.002231
3634.000000	0.002271
3633.000000	0.002303
3632.000000	0.002330
3631.000000	0.002354
3630.000000	0.002371
3629.000000	0.002376
3628.000000	0.002379
3627.000000	0.002395
3626.000000	0.002417
3625.000000	0.002433
3624.000000	0.002436
3623.000000	0.002420
3622.000000	0.002389
3621.000000	0.002351
3620.000000	0.002318
3619.000000	0.002309
3618.000000	0.002333
3617.000000	0.002379
3616.000000	0.002428
3615.000000	0.002476
3614.000000	0.002525
3613.000000	0.002577
3612.000000	0.002626
3611.000000	0.002663
3610.000000	0.002688
3609.000000	0.002702
3608.000000	0.002707
3607.000000	0.002707
3606.000000	0.002710
3605.000000	0.002724
3604.000000	0.002747
3603.000000	0.002770
3602.000000	0.002783
3601.000000	0.002787
3600.000000	0.002790
3599.000000	0.002802
3598.000000	0.002827
3597.000000	0.002862
3596.000000	0.002905
3595.000000	0.002950
3594.000000	0.002991
3593.000000	0.003022
3592.000000	0.003042
3591.000000	0.003055
3590.000000	0.003065
3589.000000	0.003066
3588.000000	0.003060
3587.000000	0.003058
3586.000000	0.003084
3585.000000	0.003140
3584.000000	0.003209
3583.000000	0.003266
3582.000000	0.003300
3581.000000	0.003311
3580.000000	0.003307
3579.000000	0.003302
3578.000000	0.003308
3577.000000	0.003335
3576.000000	0.003385
3575.000000	0.003458
3574.000000	0.003543
3573.000000	0.003626
3572.000000	0.003699
3571.000000	0.003764
3570.000000	0.003831
3569.000000	0.003912
3568.000000	0.004005
3567.000000	0.004085
3566.000000	0.004136
3565.000000	0.004163
3564.000000	0.004181
3563.000000	0.004199
3562.000000	0.004215
3561.000000	0.004236
3560.000000	0.004269
3559.000000	0.004321
3558.000000	0.004390
3557.000000	0.004466
3556.000000	0.004546
3555.000000	0.004632
3554.000000	0.004721
3553.000000	0.004804
3552.000000	0.004871
3551.000000	0.004918
3550.000000	0.004955
3549.000000	0.004996
3548.000000	0.005045
3547.000000	0.005094
3546.000000	0.005134
3545.000000	0.005160
3544.000000	0.005180
3543.000000	0.005203
3542.000000	0.005229
3541.000000	0.005252
3540.000000	0.005267
3539.000000	0.005277
3538.000000	0.005286
3537.000000	0.005298
3536.000000	0.005310
3535.000000	0.005314
3534.000000	0.005307
3533.000000	0.005294
3532.000000	0.005282
3531.000000	0.005274
3530.000000	0.005276
3529.000000	0.005289
3528.000000	0.005313
3527.000000	0.005338
3526.000000	0.005352
3525.000000	0.005347
3524.000000	0.005324
3523.000000	0.005292
3522.000000	0.005258
3521.000000	0.005227
3520.000000	0.005202
3519.000000	0.005180
3518.000000	0.005160
3517.000000	0.005142
3516.000000	0.005125
3515.000000	0.005105
3514.000000	0.005078
3513.000000	0.005047
3512.000000	0.005019
3511.000000	0.005003
3510.000000	0.004996
3509.000000	0.004993
3508.000000	0.004991
3507.000000	0.004993
3506.000000	0.005003
3505.000000	0.005015
3504.000000	0.005021
3503.000000	0.005011
3502.000000	0.004988
3501.000000	0.004959
3500.000000	0.004933
3499.000000	0.004911
3498.000000	0.004892
3497.000000	0.004877
3496.000000	0.004870
3495.000000	0.004869
3494.000000	0.004867
3493.000000	0.004857
3492.000000	0.004843
3491.000000	0.004834
3490.000000	0.004834
3489.000000	0.004840
3488.000000	0.004849
3487.000000	0.004860
3486.000000	0.004873
3485.000000	0.004885
3484.000000	0.004890
3483.000000	0.004885
3482.000000	0.004870
3481.000000	0.004848
3480.000000	0.004828
3479.000000	0.004814
3478.000000	0.004809
3477.000000	0.004808
3476.000000	0.004809
3475.000000	0.004817
3474.000000	0.004838
3473.000000	0.004872
3472.000000	0.004908
3471.000000	0.004931
3470.000000	0.004930
3469.000000	0.004910
3468.000000	0.004884
3467.000000	0.004865
3466.000000	0.004856
3465.000000	0.004851
3464.000000	0.004848
3463.000000	0.004851
3462.000000	0.004862
3461.000000	0.004876
3460.000000	0.004884
3459.000000	0.004882
3458.000000	0.004874
3457.000000	0.004867
3456.000000	0.004864
3455.000000	0.004866
3454.000000	0.004875
3453.000000	0.004887
3452.000000	0.004904
3451.000000	0.004922
3450.000000	0.004942
3449.000000	0.004956
3448.000000	0.004961
3447.000000	0.004958
3446.000000	0.004953
3445.000000	0.004955
3444.000000	0.004967
3443.000000	0.004989
3442.000000	0.005021
3441.000000	0.005061
3440.000000	0.005103
3439.000000	0.005140
3438.000000	0.005167
3437.000000	0.005184
3436.000000	0.005199
3435.000000	0.005217
3434.000000	0.005243
3433.000000	0.005273
3432.000000	0.005305
3431.000000	0.005336
3430.000000	0.005369
3429.000000	0.005403
3428.000000	0.005441
3427.000000	0.005485
3426.000000	0.005537
3425.000000	0.005596
3424.000000	0.005659
3423.000000	0.005723
3422.000000	0.005786
3421.000000	0.005851
3420.000000	0.005914
3419.000000	0.005970
3418.000000	0.006020
3417.000000	0.006068
3416.000000	0.006121
3415.000000	0.006176
3414.000000	0.006225
3413.000000	0.006269
3412.000000	0.006318
3411.000000	0.006385
3410.000000	0.006464
3409.000000	0.006533
3408.000000	0.006573
3407.000000	0.006585
3406.000000	0.006588
3405.000000	0.006596
3404.000000	0.006616
3403.000000	0.006648
3402.000000	0.006695
3401.000000	0.006750
3400.000000	0.006796
3399.000000	0.006816
3398.000000	0.006806
3397.000000	0.006785
3396.000000	0.006773
3395.000000	0.006777
3394.000000	0.006788
3393.000000	0.006788
3392.000000	0.006770
3391.000000	0.006739
3390.000000	0.006706
3389.000000	0.006678
3388.000000	0.006653
3387.000000	0.006632
3386.000000	0.006619
3385.000000	0.006618
3384.000000	0.006625
3383.000000	0.006624
3382.000000	0.006606
3381.000000	0.006571
3380.000000	0.006530
3379.000000	0.006495
3378.000000	0.006470
3377.000000	0.006448
3376.000000	0.006425
3375.000000	0.006400
3374.000000	0.006375
3373.000000	0.006354
3372.000000	0.006338
3371.000000	0.006329
3370.000000	0.006329
3369.000000	0.006339
3368.000000	0.006354
3367.000000	0.006369
3366.000000	0.006380
3365.000000	0.006381
3364.000000	0.006367
3363.000000	0.006339
3362.000000	0.006303
3361.000000	0.006267
3360.000000	0.006241
3359.000000	0.006233
3358.000000	0.006248
3357.000000	0.006277
3356.000000	0.006304
3355.000000	0.006320
3354.000000	0.006329
3353.000000	0.006338
3352.000000	0.006353
3351.000000	0.006369
3350.000000	0.006375
3349.000000	0.006365
3348.000000	0.006338
3347.000000	0.006303
3346.000000	0.006272
3345.000000	0.006252
3344.000000	0.006247
3343.000000	0.006256
3342.000000	0.006281
3341.000000	0.006315
3340.000000	0.006350
3339.000000	0.006375
3338.000000	0.006387
3337.000000	0.006388
3336.000000	0.006385
3335.000000	0.006383
3334.000000	0.006387
3333.000000	0.006396
3332.000000	0.006409
3331.000000	0.006421
3330.000000	0.006432
3329.000000	0.006443
3328.000000	0.006452
3327.000000	0.006457
3326.000000	0.006461
3325.000000	0.006469
3324.000000	0.006481
3323.000000	0.006490
3322.000000	0.006490
3321.000000	0.006480
3320.000000	0.006470
3319.000000	0.006476
3318.000000	0.006509
3317.000000	0.006568
3316.000000	0.006633
3315.000000	0.006680
3314.000000	0.006693
3313.000000	0.006676
3312.000000	0.006645
3311.000000	0.006619
3310.000000	0.006614
3309.000000	0.006632
3308.000000	0.006661
3307.000000	0.006683
3306.000000	0.006691
3305.000000	0.006687
3304.000000	0.006682
3303.000000	0.006683
3302.000000	0.006691
3301.000000	0.006706
3300.000000	0.006723
3299.000000	0.006739
3298.000000	0.006748
3297.000000	0.006748
3296.000000	0.006744
3295.000000	0.006746
3294.000000	0.006760
3293.000000	0.006785
3292.000000	0.006814
3291.000000	0.006834
3290.000000	0.006838
3289.000000	0.006828
3288.000000	0.006812
3287.000000	0.006799
3286.000000	0.006789
3285.000000	0.006777
3284.000000	0.006766
3283.000000	0.006760
3282.000000	0.006764
3281.000000	0.006769
3280.000000	0.006765
3279.000000	0.006747
3278.000000	0.006722
3277.000000	0.006708
3276.000000	0.006716
3275.000000	0.006744
3274.000000	0.006774
3273.000000	0.006790
3272.000000	0.006784
3271.000000	0.006763
3270.000000	0.006741
3269.000000	0.006737
3268.000000	0.006755
3267.000000	0.006788
3266.000000	0.006818
3265.000000	0.006833
3264.000000	0.006832
3263.000000	0.006823
3262.000000	0.006816
3261.000000	0.006810
3260.000000	0.006804
3259.000000	0.006793
3258.000000	0.006779
3257.000000	0.006765
3256.000000	0.006751
3255.000000	0.006732
3254.000000	0.006709
3253.000000	0.006684
3252.000000	0.006661
3251.000000	0.006640
3250.000000	0.006621
3249.000000	0.006609
3248.000000	0.006606
3247.000000	0.006613
3246.000000	0.006628
3245.000000	0.006645
3244.000000	0.006656
3243.000000	0.006656
3242.000000	0.006643
3241.000000	0.006622
3240.000000	0.006595
3239.000000	0.006562
3238.000000	0.006522
3237.000000	0.006477
3236.000000	0.006438
3235.000000	0.006410
3234.000000	0.006393
3233.000000	0.006384
3232.000000	0.006376
3231.000000	0.006366
3230.000000	0.006345
3229.000000	0.006314
3228.000000	0.006281
3227.000000	0.006260
3226.000000	0.006258
3225.000000	0.006272
3224.000000	0.006293
3223.000000	0.006313
3222.000000	0.006324
3221.000000	0.006320
3220.000000	0.006304
3219.000000	0.006285
3218.000000	0.006270
3217.000000	0.006259
3216.000000	0.006245
3215.000000	0.006228
3214.000000	0.006212
3213.000000	0.006198
3212.000000	0.006185
3211.000000	0.006170
3210.000000	0.006155
3209.000000	0.006139
3208.000000	0.006126
3207.000000	0.006119
3206.000000	0.006123
3205.000000	0.006138
3204.000000	0.006154
3203.000000	0.006156
3202.000000	0.006138
3201.000000	0.006103
3200.000000	0.006066
3199.000000	0.006042
3198.000000	0.006040
3197.000000	0.006055
3196.000000	0.006072
3195.000000	0.006076
3194.000000	0.006058
3193.000000	0.006023
3192.000000	0.005983
3191.000000	0.005953
3190.000000	0.005937
3189.000000	0.005930
3188.000000	0.005919
3187.000000	0.005897
3186.000000	0.005871
3185.000000	0.005854
3184.000000	0.005851
3183.000000	0.005855
3182.000000	0.005853
3181.000000	0.005843
3180.000000	0.005830
3179.000000	0.005818
3178.000000	0.005804
3177.000000	0.005787
3176.000000	0.005766
3175.000000	0.005739
3174.000000	0.005700
3173.000000	0.005650
3172.000000	0.005602
3171.000000	0.005577
3170.000000	0.005583
3169.000000	0.005604
3168.000000	0.005614
3167.000000	0.005599
3166.000000	0.005563
3165.000000	0.005522
3164.000000	0.005490
3163.000000	0.005468
3162.000000	0.005450
3161.000000	0.005432
3160.000000	0.005418
3159.000000	0.005413
3158.000000	0.005420
3157.000000	0.005435
3156.000000	0.005452
3155.000000	0.005472
3154.000000	0.005491
3153.000000	0.005497
3152.000000	0.005480
3151.000000	0.005440
3150.000000	0.005389
3149.000000	0.005342
3148.000000	0.005313
3147.000000	0.005303
3146.000000	0.005305
3145.000000	0.005305
3144.000000	0.005295
3143.000000	0.005273
3142.000000	0.005248
3141.000000	0.005230
3140.000000	0.005217
3139.000000	0.005205
3138.000000	0.005187
3137.000000	0.005163
3136.000000	0.005141
3135.000000	0.005127
3134.000000	0.005125
3133.000000	0.005129
3132.000000	0.005134
3131.000000	0.005135
3130.000000	0.005132
3129.000000	0.005127
3128.000000	0.005122
3127.000000	0.005120
3126.000000	0.005122
3125.000000	0.005126
3124.000000	0.005125
3123.000000	0.005119
3122.000000	0.005111
3121.000000	0.005103
3120.000000	0.005099
3119.000000	0.005095
3118.000000	0.005090
3117.000000	0.005082
3116.000000	0.005074
3115.000000	0.005066
3114.000000	0.005059
3113.000000	0.005053
3112.000000	0.005050
3111.000000	0.005054
3110.000000	0.005062
3109.000000	0.005064
3108.000000	0.005052
3107.000000	0.005025
3106.000000	0.004997
3105.000000	0.004981
3104.000000	0.004980
3103.000000	0.004985
3102.000000	0.004987
3101.000000	0.004979
3100.000000	0.004965
3099.000000	0.004954
3098.000000	0.004954
3097.000000	0.004965
3096.000000	0.004978
3095.000000	0.004978
3094.000000	0.004962
3093.000000	0.004941
3092.000000	0.004932
3091.000000	0.004944
3090.000000	0.004965
3089.000000	0.004977
3088.000000	0.004974
3087.000000	0.004964
3086.000000	0.004961
3085.000000	0.004966
3084.000000	0.004967
3083.000000	0.004955
3082.000000	0.004932
3081.000000	0.004912
3080.000000	0.004912
3079.000000	0.004935
3078.000000	0.004970
3077.000000	0.004994
3076.000000	0.004994
3075.000000	0.004972
3074.000000	0.004945
3073.000000	0.004929
3072.000000	0.004936
3071.000000	0.004959
3070.000000	0.004982
3069.000000	0.004991
3068.000000	0.004982
3067.000000	0.004966
3066.000000	0.004956
3065.000000	0.004959
3064.000000	0.004972
3063.000000	0.004994
3062.000000	0.005021
3061.000000	0.005044
3060.000000	0.005056
3059.000000	0.005050
3058.000000	0.005028
3057.000000	0.004997
3056.000000	0.004966
3055.000000	0.004940
3054.000000	0.004922
3053.000000	0.004910
3052.000000	0.004902
3051.000000	0.004895
3050.000000	0.004886
3049.000000	0.004872
3048.000000	0.004853
3047.000000	0.004838
3046.000000	0.004835
3045.000000	0.004844
3044.000000	0.004857
3043.000000	0.004868
3042.000000	0.004874
3041.000000	0.004876
3040.000000	0.004869
3039.000000	0.004847
3038.000000	0.004813
3037.000000	0.004776
3036.000000	0.004753
3035.000000	0.004752
3034.000000	0.004774
3033.000000	0.004802
3032.000000	0.004821
3031.000000	0.004824
3030.000000	0.004817
3029.000000	0.004804
3028.000000	0.004786
3027.000000	0.004765
3026.000000	0.004753
3025.000000	0.004759
3024.000000	0.004779
3023.000000	0.004793
3022.000000	0.004787
3021.000000	0.004765
3020.000000	0.004739
3019.000000	0.004721
3018.000000	0.004711
3017.000000	0.004705
3016.000000	0.004701
3015.000000	0.004700
3014.000000	0.004698
3013.000000	0.004687
3012.000000	0.004666
3011.000000	0.004642
3010.000000	0.004629
3009.000000	0.004635
3008.000000	0.004659
3007.000000	0.004690
3006.000000	0.004715
3005.000000	0.004725
3004.000000	0.004725
3003.000000	0.004725
3002.000000	0.004740
3001.000000	0.004772
3000.000000	0.004808
2999.000000	0.004835
2998.000000	0.004847
2997.000000	0.004851
2996.000000	0.004854
2995.000000	0.004864
2994.000000	0.004882
2993.000000	0.004907
2992.000000	0.004932
2991.000000	0.004953
2990.000000	0.004974
2989.000000	0.005004
2988.000000	0.005048
2987.000000	0.005100
2986.000000	0.005150
2985.000000	0.005189
2984.000000	0.005214
2983.000000	0.005232
2982.000000	0.005253
2981.000000	0.005281
2980.000000	0.005315
2979.000000	0.005351
2978.000000	0.005392
2977.000000	0.005444
2976.000000	0.005510
2975.000000	0.005588
2974.000000	0.005669
2973.000000	0.005748
2972.000000	0.005826
2971.000000	0.005905
2970.000000	0.005988
2969.000000	0.006071
2968.000000	0.006144
2967.000000	0.006198
2966.000000	0.006236
2965.000000	0.006271
2964.000000	0.006319
2963.000000	0.006385
2962.000000	0.006458
2961.000000	0.006516
2960.000000	0.006541
2959.000000	0.006531
2958.000000	0.006500
2957.000000	0.006467
2956.000000	0.006442
2955.000000	0.006420
2954.000000	0.006392
2953.000000	0.006355
2952.000000	0.006318
2951.000000	0.006289
2950.000000	0.006274
2949.000000	0.006269
2948.000000	0.006270
2947.000000	0.006280
2946.000000	0.006306
2945.000000	0.006349
2944.000000	0.006401
2943.000000	0.006455
2942.000000	0.006511
2941.000000	0.006574
2940.000000	0.006643
2939.000000	0.006712
2938.000000	0.006773
2937.000000	0.006826
2936.000000	0.006877
2935.000000	0.006933
2934.000000	0.006990
2933.000000	0.007037
2932.000000	0.007068
2931.000000	0.007082
2930.000000	0.007092
2929.000000	0.007103
2928.000000	0.007113
2927.000000	0.007110
2926.000000	0.007091
2925.000000	0.007067
2924.000000	0.007043
2923.000000	0.007013
2922.000000	0.006964
2921.000000	0.006894
2920.000000	0.006811
2919.000000	0.006730
2918.000000	0.006661
2917.000000	0.006610
2916.000000	0.006571
2915.000000	0.006533
2914.000000	0.006488
2913.000000	0.006437
2912.000000	0.006389
2911.000000	0.006351
2910.000000	0.006318
2909.000000	0.006281
2908.000000	0.006239
2907.000000	0.006195
2906.000000	0.006154
2905.000000	0.006116
2904.000000	0.006078
2903.000000	0.006039
2902.000000	0.006001
2901.000000	0.005962
2900.000000	0.005922
2899.000000	0.005879
2898.000000	0.005833
2897.000000	0.005789
2896.000000	0.005751
2895.000000	0.005725
2894.000000	0.005707
2893.000000	0.005685
2892.000000	0.005651
2891.000000	0.005608
2890.000000	0.005569
2889.000000	0.005549
2888.000000	0.005551
2887.000000	0.005566
2886.000000	0.005584
2885.000000	0.005601
2884.000000	0.005619
2883.000000	0.005636
2882.000000	0.005652
2881.000000	0.005668
2880.000000	0.005692
2879.000000	0.005727
2878.000000	0.005768
2877.000000	0.005802
2876.000000	0.005825
2875.000000	0.005838
2874.000000	0.005849
2873.000000	0.005859
2872.000000	0.005863
2871.000000	0.005860
2870.000000	0.005856
2869.000000	0.005854
2868.000000	0.005852
2867.000000	0.005844
2866.000000	0.005834
2865.000000	0.005832
2864.000000	0.005843
2863.000000	0.005859
2862.000000	0.005871
2861.000000	0.005873
2860.000000	0.005868
2859.000000	0.005863
2858.000000	0.005857
2857.000000	0.005845
2856.000000	0.005819
2855.000000	0.005781
2854.000000	0.005733
2853.000000	0.005674
2852.000000	0.005602
2851.000000	0.005520
2850.000000	0.005436
2849.000000	0.005361
2848.000000	0.005303
2847.000000	0.005257
2846.000000	0.005219
2845.000000	0.005181
2844.000000	0.005138
2843.000000	0.005090
2842.000000	0.005035
2841.000000	0.004979
2840.000000	0.004923
2839.000000	0.004875
2838.000000	0.004840
2837.000000	0.004819
2836.000000	0.004810
2835.000000	0.004807
2834.000000	0.004806
2833.000000	0.004803
2832.000000	0.004795
2831.000000	0.004779
2830.000000	0.004759
2829.000000	0.004741
2828.000000	0.004729
2827.000000	0.004720
2826.000000	0.004711
2825.000000	0.004702
2824.000000	0.004699
2823.000000	0.004701
2822.000000	0.004706
2821.000000	0.004707
2820.000000	0.004701
2819.000000	0.004688
2818.000000	0.004666
2817.000000	0.004640
2816.000000	0.004613
2815.000000	0.004591
2814.000000	0.004572
2813.000000	0.004553
2812.000000	0.004533
2811.000000	0.004522
2810.000000	0.004531
2809.000000	0.004558
2808.000000	0.004586
2807.000000	0.004596
2806.000000	0.004582
2805.000000	0.004551
2804.000000	0.004518
2803.000000	0.004490
2802.000000	0.004470
2801.000000	0.004459
2800.000000	0.004457
2799.000000	0.004463
2798.000000	0.004469
2797.000000	0.004470
2796.000000	0.004468
2795.000000	0.004468
2794.000000	0.004478
2793.000000	0.004496
2792.000000	0.004515
2791.000000	0.004526
2790.000000	0.004527
2789.000000	0.004519
2788.000000	0.004504
2787.000000	0.004487
2786.000000	0.004469
2785.000000	0.004453
2784.000000	0.004444
2783.000000	0.004441
2782.000000	0.004443
2781.000000	0.004442
2780.000000	0.004433
2779.000000	0.004418
2778.000000	0.004404
2777.000000	0.004399
2776.000000	0.004401
2775.000000	0.004406
2774.000000	0.004406
2773.000000	0.004397
2772.000000	0.004388
2771.000000	0.004389
2770.000000	0.004402
2769.000000	0.004418
2768.000000	0.004425
2767.000000	0.004416
2766.000000	0.004397
2765.000000	0.004374
2764.000000	0.004351
2763.000000	0.004333
2762.000000	0.004323
2761.000000	0.004325
2760.000000	0.004336
2759.000000	0.004352
2758.000000	0.004369
2757.000000	0.004381
2756.000000	0.004380
2755.000000	0.004364
2754.000000	0.004342
2753.000000	0.004324
2752.000000	0.004320
2751.000000	0.004328
2750.000000	0.004344
2749.000000	0.004356
2748.000000	0.004352
2747.000000	0.004330
2746.000000	0.004301
2745.000000	0.004280
2744.000000	0.004276
2743.000000	0.004283
2742.000000	0.004290
2741.000000	0.004290
2740.000000	0.004276
2739.000000	0.004253
2738.000000	0.004230
2737.000000	0.004216
2736.000000	0.004214
2735.000000	0.004215
2734.000000	0.004212
2733.000000	0.004207
2732.000000	0.004204
2731.000000	0.004206
2730.000000	0.004215
2729.000000	0.004228
2728.000000	0.004239
2727.000000	0.004241
2726.000000	0.004235
2725.000000	0.004228
2724.000000	0.004230
2723.000000	0.004238
2722.000000	0.004244
2721.000000	0.004241
2720.000000	0.004229
2719.000000	0.004216
2718.000000	0.004210
2717.000000	0.004214
2716.000000	0.004221
2715.000000	0.004222
2714.000000	0.004213
2713.000000	0.004198
2712.000000	0.004180
2711.000000	0.004163
2710.000000	0.004153
2709.000000	0.004152
2708.000000	0.004159
2707.000000	0.004162
2706.000000	0.004151
2705.000000	0.004132
2704.000000	0.004119
2703.000000	0.004124
2702.000000	0.004144
2701.000000	0.004172
2700.000000	0.004199
2699.000000	0.004217
2698.000000	0.004218
2697.000000	0.004199
2696.000000	0.004165
2695.000000	0.004127
2694.000000	0.004099
2693.000000	0.004087
2692.000000	0.004085
2691.000000	0.004084
2690.000000	0.004078
2689.000000	0.004069
2688.000000	0.004063
2687.000000	0.004064
2686.000000	0.004068
2685.000000	0.004072
2684.000000	0.004075
2683.000000	0.004079
2682.000000	0.004082
2681.000000	0.004083
2680.000000	0.004080
2679.000000	0.004077
2678.000000	0.004079
2677.000000	0.004092
2676.000000	0.004112
2675.000000	0.004133
2674.000000	0.004144
2673.000000	0.004139
2672.000000	0.004118
2671.000000	0.004090
2670.000000	0.004064
2669.000000	0.004047
2668.000000	0.004041
2667.000000	0.004041
2666.000000	0.004049
2665.000000	0.004072
2664.000000	0.004113
2663.000000	0.004161
2662.000000	0.004198
2661.000000	0.004210
2660.000000	0.004200
2659.000000	0.004182
2658.000000	0.004165
2657.000000	0.004148
2656.000000	0.004133
2655.000000	0.004125
2654.000000	0.004130
2653.000000	0.004140
2652.000000	0.004142
2651.000000	0.004132
2650.000000	0.004118
2649.000000	0.004112
2648.000000	0.004117
2647.000000	0.004125
2646.000000	0.004121
2645.000000	0.004104
2644.000000	0.004083
2643.000000	0.004073
2642.000000	0.004075
2641.000000	0.004083
2640.000000	0.004084
2639.000000	0.004073
2638.000000	0.004057
2637.000000	0.004047
2636.000000	0.004048
2635.000000	0.004052
2634.000000	0.004046
2633.000000	0.004026
2632.000000	0.003996
2631.000000	0.003966
2630.000000	0.003945
2629.000000	0.003933
2628.000000	0.003924
2627.000000	0.003916
2626.000000	0.003910
2625.000000	0.003902
2624.000000	0.003888
2623.000000	0.003866
2622.000000	0.003844
2621.000000	0.003832
2620.000000	0.003831
2619.000000	0.003833
2618.000000	0.003831
2617.000000	0.003830
2616.000000	0.003838
2615.000000	0.003852
2614.000000	0.003859
2613.000000	0.003852
2612.000000	0.003839
2611.000000	0.003834
2610.000000	0.003840
2609.000000	0.003849
2608.000000	0.003849
2607.000000	0.003834
2606.000000	0.003810
2605.000000	0.003784
2604.000000	0.003765
2603.000000	0.003761
2602.000000	0.003772
2601.000000	0.003789
2600.000000	0.003799
2599.000000	0.003793
2598.000000	0.003770
2597.000000	0.003737
2596.000000	0.003703
2595.000000	0.003681
2594.000000	0.003677
2593.000000	0.003683
2592.000000	0.003687
2591.000000	0.003685
2590.000000	0.003683
2589.000000	0.003688
2588.000000	0.003700
2587.000000	0.003708
2586.000000	0.003704
2585.000000	0.003687
2584.000000	0.003666
2583.000000	0.003662
2582.000000	0.003683
2581.000000	0.003714
2580.000000	0.003726
2579.000000	0.003708
2578.000000	0.003673
2577.000000	0.003644
2576.000000	0.003629
2575.000000	0.003626
2574.000000	0.003632
2573.000000	0.003640
2572.000000	0.003638
2571.000000	0.003624
2570.000000	0.003604
2569.000000	0.003593
2568.000000	0.003589
2567.000000	0.003582
2566.000000	0.003569
2565.000000	0.003551
2564.000000	0.003533
2563.000000	0.003518
2562.000000	0.003515
2561.000000	0.003529
2560.000000	0.003554
2559.000000	0.003575
2558.000000	0.003586
2557.000000	0.003589
2556.000000	0.003585
2555.000000	0.003571
2554.000000	0.003549
2553.000000	0.003528
2552.000000	0.003513
2551.000000	0.003503
2550.000000	0.003493
2549.000000	0.003494
2548.000000	0.003514
2547.000000	0.003552
2546.000000	0.003589
2545.000000	0.003602
2544.000000	0.003590
2543.000000	0.003568
2542.000000	0.003558
2541.000000	0.003570
2540.000000	0.003595
2539.000000	0.003623
2538.000000	0.003647
2537.000000	0.003661
2536.000000	0.003654
2535.000000	0.003628
2534.000000	0.003597
2533.000000	0.003582
2532.000000	0.003583
2531.000000	0.003585
2530.000000	0.003575
2529.000000	0.003559
2528.000000	0.003550
2527.000000	0.003550
2526.000000	0.003554
2525.000000	0.003549
2524.000000	0.003529
2523.000000	0.003497
2522.000000	0.003472
2521.000000	0.003473
2520.000000	0.003500
2519.000000	0.003535
2518.000000	0.003561
2517.000000	0.003579
2516.000000	0.003600
2515.000000	0.003629
2514.000000	0.003664
2513.000000	0.003694
2512.000000	0.003709
2511.000000	0.003704
2510.000000	0.003683
2509.000000	0.003661
2508.000000	0.003650
2507.000000	0.003655
2506.000000	0.003669
2505.000000	0.003675
2504.000000	0.003658
2503.000000	0.003618
2502.000000	0.003579
2501.000000	0.003563
2500.000000	0.003568
2499.000000	0.003566
2498.000000	0.003540
2497.000000	0.003506
2496.000000	0.003498
2495.000000	0.003524
2494.000000	0.003563
2493.000000	0.003583
2492.000000	0.003578
2491.000000	0.003561
2490.000000	0.003552
2489.000000	0.003554
2488.000000	0.003555
2487.000000	0.003542
2486.000000	0.003518
2485.000000	0.003498
2484.000000	0.003489
2483.000000	0.003484
2482.000000	0.003473
2481.000000	0.003458
2480.000000	0.003452
2479.000000	0.003463
2478.000000	0.003488
2477.000000	0.003508
2476.000000	0.003511
2475.000000	0.003495
2474.000000	0.003472
2473.000000	0.003458
2472.000000	0.003457
2471.000000	0.003460
2470.000000	0.003455
2469.000000	0.003439
2468.000000	0.003418
2467.000000	0.003397
2466.000000	0.003382
2465.000000	0.003383
2464.000000	0.003407
2463.000000	0.003453
2462.000000	0.003507
2461.000000	0.003545
2460.000000	0.003549
2459.000000	0.003516
2458.000000	0.003459
2457.000000	0.003408
2456.000000	0.003387
2455.000000	0.003402
2454.000000	0.003433
2453.000000	0.003461
2452.000000	0.003476
2451.000000	0.003480
2450.000000	0.003473
2449.000000	0.003454
2448.000000	0.003430
2447.000000	0.003417
2446.000000	0.003426
2445.000000	0.003452
2444.000000	0.003479
2443.000000	0.003492
2442.000000	0.003483
2441.000000	0.003450
2440.000000	0.003400
2439.000000	0.003358
2438.000000	0.003347
2437.000000	0.003365
2436.000000	0.003388
2435.000000	0.003403
2434.000000	0.003422
2433.000000	0.003458
2432.000000	0.003500
2431.000000	0.003518
2430.000000	0.003498
2429.000000	0.003458
2428.000000	0.003431
2427.000000	0.003434
2426.000000	0.003464
2425.000000	0.003497
2424.000000	0.003507
2423.000000	0.003483
2422.000000	0.003445
2421.000000	0.003418
2420.000000	0.003418
2419.000000	0.003433
2418.000000	0.003441
2417.000000	0.003428
2416.000000	0.003394
2415.000000	0.003347
2414.000000	0.003305
2413.000000	0.003289
2412.000000	0.003302
2411.000000	0.003333
2410.000000	0.003360
2409.000000	0.003376
2408.000000	0.003383
2407.000000	0.003383
2406.000000	0.003369
2405.000000	0.003341
2404.000000	0.003307
2403.000000	0.003284
2402.000000	0.003284
2401.000000	0.003303
2400.000000	0.003326
2399.000000	0.003335
2398.000000	0.003326
2397.000000	0.003305
2396.000000	0.003287
2395.000000	0.003284
2394.000000	0.003296
2393.000000	0.003318
2392.000000	0.003341
2391.000000	0.003364
2390.000000	0.003384
2389.000000	0.003396
2388.000000	0.003391
2387.000000	0.003359
2386.000000	0.003303
2385.000000	0.003239
2384.000000	0.003187
2383.000000	0.003162
2382.000000	0.003169
2381.000000	0.003198
2380.000000	0.003235
2379.000000	0.003267
2378.000000	0.003287
2377.000000	0.003284
2376.000000	0.003258
2375.000000	0.003223
2374.000000	0.003208
2373.000000	0.003226
2372.000000	0.003254
2371.000000	0.003259
2370.000000	0.003231
2369.000000	0.003183
2368.000000	0.003139
2367.000000	0.003124
2366.000000	0.003149
2365.000000	0.003194
2364.000000	0.003234
2363.000000	0.003265
2362.000000	0.003306
2361.000000	0.003347
2360.000000	0.003362
2359.000000	0.003340
2358.000000	0.003307
2357.000000	0.003291
2356.000000	0.003300
2355.000000	0.003329
2354.000000	0.003349
2353.000000	0.003335
2352.000000	0.003295
2351.000000	0.003266
2350.000000	0.003272
2349.000000	0.003308
2348.000000	0.003350
2347.000000	0.003370
2346.000000	0.003366
2345.000000	0.003366
2344.000000	0.003391
2343.000000	0.003430
2342.000000	0.003461
2341.000000	0.003475
2340.000000	0.003476
2339.000000	0.003471
2338.000000	0.003462
2337.000000	0.003447
2336.000000	0.003429
2335.000000	0.003413
2334.000000	0.003398
2333.000000	0.003384
2332.000000	0.003379
2331.000000	0.003388
2330.000000	0.003408
2329.000000	0.003424
2328.000000	0.003452
2327.000000	0.003510
2326.000000	0.003602
2325.000000	0.003703
2324.000000	0.003774
2323.000000	0.003791
2322.000000	0.003760
2321.000000	0.003710
2320.000000	0.003672
2319.000000	0.003654
2318.000000	0.003652
2317.000000	0.003653
2316.000000	0.003637
2315.000000	0.003588
2314.000000	0.003517
2313.000000	0.003459
2312.000000	0.003440
2311.000000	0.003450
2310.000000	0.003468
2309.000000	0.003485
2308.000000	0.003509
2307.000000	0.003530
2306.000000	0.003523
2305.000000	0.003477
2304.000000	0.003406
2303.000000	0.003332
2302.000000	0.003275
2301.000000	0.003245
2300.000000	0.003253
2299.000000	0.003301
2298.000000	0.003373
2297.000000	0.003441
2296.000000	0.003479
2295.000000	0.003472
2294.000000	0.003435
2293.000000	0.003397
2292.000000	0.003376
2291.000000	0.003366
2290.000000	0.003362
2289.000000	0.003370
2288.000000	0.003401
2287.000000	0.003447
2286.000000	0.003481
2285.000000	0.003492
2284.000000	0.003488
2283.000000	0.003473
2282.000000	0.003439
2281.000000	0.003388
2280.000000	0.003343
2279.000000	0.003324
2278.000000	0.003312
2277.000000	0.003269
2276.000000	0.003185
2275.000000	0.003097
2274.000000	0.003058
2273.000000	0.003083
2272.000000	0.003140
2271.000000	0.003188
2270.000000	0.003215
2269.000000	0.003233
2268.000000	0.003241
2267.000000	0.003216
2266.000000	0.003137
2265.000000	0.003028
2264.000000	0.002954
2263.000000	0.002973
2262.000000	0.003082
2261.000000	0.003216
2260.000000	0.003298
2259.000000	0.003299
2258.000000	0.003254
2257.000000	0.003211
2256.000000	0.003189
2255.000000	0.003172
2254.000000	0.003145
2253.000000	0.003111
2252.000000	0.003074
2251.000000	0.003025
2250.000000	0.002956
2249.000000	0.002877
2248.000000	0.002821
2247.000000	0.002818
2246.000000	0.002876
2245.000000	0.002974
2244.000000	0.003076
2243.000000	0.003155
2242.000000	0.003212
2241.000000	0.003265
2240.000000	0.003315
2239.000000	0.003342
2238.000000	0.003325
2237.000000	0.003259
2236.000000	0.003159
2235.000000	0.003051
2234.000000	0.002971
2233.000000	0.002950
2232.000000	0.002986
2231.000000	0.003043
2230.000000	0.003074
2229.000000	0.003054
2228.000000	0.002982
2227.000000	0.002886
2226.000000	0.002828
2225.000000	0.002862
2224.000000	0.002981
2223.000000	0.003109
2222.000000	0.003167
2221.000000	0.003145
2220.000000	0.003079
2219.000000	0.003003
2218.000000	0.002929
2217.000000	0.002869
2216.000000	0.002828
2215.000000	0.002795
2214.000000	0.002744
2213.000000	0.002659
2212.000000	0.002550
2211.000000	0.002449
2210.000000	0.002395
2209.000000	0.002414
2208.000000	0.002484
2207.000000	0.002549
2206.000000	0.002569
2205.000000	0.002561
2204.000000	0.002573
2203.000000	0.002622
2202.000000	0.002681
2201.000000	0.002712
2200.000000	0.002701
2199.000000	0.002673
2198.000000	0.002677
2197.000000	0.002746
2196.000000	0.002860
2195.000000	0.002941
2194.000000	0.002932
2193.000000	0.002851
2192.000000	0.002772
2191.000000	0.002743
2190.000000	0.002755
2189.000000	0.002773
2188.000000	0.002760
2187.000000	0.002697
2186.000000	0.002608
2185.000000	0.002569
2184.000000	0.002625
2183.000000	0.002722
2182.000000	0.002743
2181.000000	0.002654
2180.000000	0.002545
2179.000000	0.002512
2178.000000	0.002548
2177.000000	0.002595
2176.000000	0.002628
2175.000000	0.002658
2174.000000	0.002667
2173.000000	0.002626
2172.000000	0.002572
2171.000000	0.002606
2170.000000	0.002792
2169.000000	0.003071
2168.000000	0.003296
2167.000000	0.003352
2166.000000	0.003235
2165.000000	0.003042
2164.000000	0.002905
2163.000000	0.002896
2162.000000	0.002971
2161.000000	0.002994
2160.000000	0.002829
2159.000000	0.002451
2158.000000	0.001982
2157.000000	0.001611
2156.000000	0.001454
2155.000000	0.001497
2154.000000	0.001646
2153.000000	0.001817
2152.000000	0.001969
2151.000000	0.002095
2150.000000	0.002177
2149.000000	0.002197
2148.000000	0.002162
2147.000000	0.002111
2146.000000	0.002081
2145.000000	0.002087
2144.000000	0.002154
2143.000000	0.002312
2142.000000	0.002541
2141.000000	0.002753
2140.000000	0.002863
2139.000000	0.002872
2138.000000	0.002845
2137.000000	0.002814
2136.000000	0.002758
2135.000000	0.002663
2134.000000	0.002563
2133.000000	0.002493
2132.000000	0.002443
2131.000000	0.002388
2130.000000	0.002340
2129.000000	0.002339
2128.000000	0.002404
2127.000000	0.002506
2126.000000	0.002594
2125.000000	0.002629
2124.000000	0.002619
2123.000000	0.002608
2122.000000	0.002642
2121.000000	0.002726
2120.000000	0.002816
2119.000000	0.002876
2118.000000	0.002912
2117.000000	0.002963
2116.000000	0.003048
2115.000000	0.003144
2114.000000	0.003208
2113.000000	0.003207
2112.000000	0.003141
2111.000000	0.003052
2110.000000	0.002997
2109.000000	0.003019
2108.000000	0.003102
2107.000000	0.003183
2106.000000	0.003207
2105.000000	0.003180
2104.000000	0.003151
2103.000000	0.003154
2102.000000	0.003168
2101.000000	0.003152
2100.000000	0.003101
2099.000000	0.003051
2098.000000	0.003025
2097.000000	0.002999
2096.000000	0.002940
2095.000000	0.002869
2094.000000	0.002835
2093.000000	0.002860
2092.000000	0.002917
2091.000000	0.002974
2090.000000	0.003011
2089.000000	0.003010
2088.000000	0.002956
2087.000000	0.002880
2086.000000	0.002845
2085.000000	0.002885
2084.000000	0.002959
2083.000000	0.003013
2082.000000	0.003034
2081.000000	0.003044
2080.000000	0.003050
2079.000000	0.003045
2078.000000	0.003042
2077.000000	0.003062
2076.000000	0.003088
2075.000000	0.003070
2074.000000	0.002990
2073.000000	0.002880
2072.000000	0.002791
2071.000000	0.002751
2070.000000	0.002764
2069.000000	0.002812
2068.000000	0.002870
2067.000000	0.002915
2066.000000	0.002943
2065.000000	0.002956
2064.000000	0.002945
2063.000000	0.002909
2062.000000	0.002871
2061.000000	0.002850
2060.000000	0.002839
2059.000000	0.002830
2058.000000	0.002842
2057.000000	0.002897
2056.000000	0.002977
2055.000000	0.003048
2054.000000	0.003114
2053.000000	0.003194
2052.000000	0.003261
2051.000000	0.003247
2050.000000	0.003123
2049.000000	0.002954
2048.000000	0.002837
2047.000000	0.002826
2046.000000	0.002893
2045.000000	0.002955
2044.000000	0.002901
2043.000000	0.002677
2042.000000	0.002358
2041.000000	0.002118
2040.000000	0.002086
2039.000000	0.002247
2038.000000	0.002491
2037.000000	0.002694
2036.000000	0.002762
2035.000000	0.002661
2034.000000	0.002442
2033.000000	0.002212
2032.000000	0.002040
2031.000000	0.001933
2030.000000	0.001882
2029.000000	0.001877
2028.000000	0.001889
2027.000000	0.001892
2026.000000	0.001918
2025.000000	0.002001
2024.000000	0.002084
2023.000000	0.002061
2022.000000	0.001933
2021.000000	0.001812
2020.000000	0.001765
2019.000000	0.001738
2018.000000	0.001682
2017.000000	0.001665
2016.000000	0.001773
2015.000000	0.001958
2014.000000	0.002095
2013.000000	0.002138
2012.000000	0.002163
2011.000000	0.002246
2010.000000	0.002364
2009.000000	0.002421
2008.000000	0.002358
2007.000000	0.002236
2006.000000	0.002175
2005.000000	0.002229
2004.000000	0.002331
2003.000000	0.002382
2002.000000	0.002360
2001.000000	0.002313
2000.000000	0.002272
1999.000000	0.002233
1998.000000	0.002196
1997.000000	0.002192
1996.000000	0.002238
1995.000000	0.002323
1994.000000	0.002425
1993.000000	0.002524
1992.000000	0.002575
1991.000000	0.002545
1990.000000	0.002474
1989.000000	0.002454
1988.000000	0.002537
1987.000000	0.002666
1986.000000	0.002745
1985.000000	0.002716
1984.000000	0.002585
1983.000000	0.002406
1982.000000	0.002256
1981.000000	0.002197
1980.000000	0.002206
1979.000000	0.002194
1978.000000	0.002115
1977.000000	0.002042
1976.000000	0.002064
1975.000000	0.002168
1974.000000	0.002267
1973.000000	0.002306
1972.000000	0.002290
1971.000000	0.002244
1970.000000	0.002208
1969.000000	0.002250
1968.000000	0.002424
1967.000000	0.002682
1966.000000	0.002863
1965.000000	0.002815
1964.000000	0.002529
1963.000000	0.002149
1962.000000	0.001854
1961.000000	0.001723
1960.000000	0.001699
1959.000000	0.001682
1958.000000	0.001657
1957.000000	0.001683
1956.000000	0.001805
1955.000000	0.001990
1954.000000	0.002147
1953.000000	0.002193
1952.000000	0.002126
1951.000000	0.002036
1950.000000	0.002028
1949.000000	0.002123
1948.000000	0.002236
1947.000000	0.002291
1946.000000	0.002296
1945.000000	0.002299
1944.000000	0.002304
1943.000000	0.002282
1942.000000	0.002237
1941.000000	0.002203
1940.000000	0.002181
1939.000000	0.002151
1938.000000	0.002123
1937.000000	0.002128
1936.000000	0.002156
1935.000000	0.002162
1934.000000	0.002136
1933.000000	0.002121
1932.000000	0.002152
1931.000000	0.002213
1930.000000	0.002282
1929.000000	0.002359
1928.000000	0.002439
1927.000000	0.002481
1926.000000	0.002442
1925.000000	0.002328
1924.000000	0.002200
1923.000000	0.002129
1922.000000	0.002148
1921.000000	0.002227
1920.000000	0.002302
1919.000000	0.002326
1918.000000	0.002297
1917.000000	0.002260
1916.000000	0.002255
1915.000000	0.002291
1914.000000	0.002353
1913.000000	0.002406
1912.000000	0.002412
1911.000000	0.002365
1910.000000	0.002303
1909.000000	0.002276
1908.000000	0.002286
1907.000000	0.002299
1906.000000	0.002299
1905.000000	0.002303
1904.000000	0.002319
1903.000000	0.002328
1902.000000	0.002328
1901.000000	0.002349
1900.000000	0.002415
1899.000000	0.002501
1898.000000	0.002549
1897.000000	0.002533
1896.000000	0.002480
1895.000000	0.002442
1894.000000	0.002442
1893.000000	0.002454
1892.000000	0.002427
1891.000000	0.002347
1890.000000	0.002262
1889.000000	0.002241
1888.000000	0.002289
1887.000000	0.002350
1886.000000	0.002384
1885.000000	0.002397
1884.000000	0.002400
1883.000000	0.002377
1882.000000	0.002314
1881.000000	0.002237
1880.000000	0.002192
1879.000000	0.002200
1878.000000	0.002241
1877.000000	0.002279
1876.000000	0.002289
1875.000000	0.002267
1874.000000	0.002227
1873.000000	0.002194
1872.000000	0.002177
1871.000000	0.002169
1870.000000	0.002164
1869.000000	0.002161
1868.000000	0.002152
1867.000000	0.002130
1866.000000	0.002112
1865.000000	0.002124
1864.000000	0.002173
1863.000000	0.002227
1862.000000	0.002254
1861.000000	0.002248
1860.000000	0.002222
1859.000000	0.002189
1858.000000	0.002162
1857.000000	0.002160
1856.000000	0.002189
1855.000000	0.002222
1854.000000	0.002227
1853.000000	0.002203
1852.000000	0.002176
1851.000000	0.002155
1850.000000	0.002123
1849.000000	0.002070
1848.000000	0.002014
1847.000000	0.001980
1846.000000	0.001964
1845.000000	0.001950
1844.000000	0.001932
1843.000000	0.001924
1842.000000	0.001934
1841.000000	0.001959
1840.000000	0.001996
1839.000000	0.002043
1838.000000	0.002086
1837.000000	0.002099
1836.000000	0.002065
1835.000000	0.002001
1834.000000	0.001960
1833.000000	0.001972
1832.000000	0.002011
1831.000000	0.002026
1830.000000	0.001997
1829.000000	0.001955
1828.000000	0.001929
1827.000000	0.001908
1826.000000	0.001878
1825.000000	0.001850
1824.000000	0.001849
1823.000000	0.001876
1822.000000	0.001910
1821.000000	0.001932
1820.000000	0.001930
1819.000000	0.001905
1818.000000	0.001868
1817.000000	0.001838
1816.000000	0.001819
1815.000000	0.001808
1814.000000	0.001800
1813.000000	0.001797
1812.000000	0.001804
1811.000000	0.001817
1810.000000	0.001835
1809.000000	0.001854
1808.000000	0.001872
1807.000000	0.001889
1806.000000	0.001910
1805.000000	0.001941
1804.000000	0.001977
1803.000000	0.002006
1802.000000	0.002017
1801.000000	0.002006
1800.000000	0.001983
1799.000000	0.001961
1798.000000	0.001958
1797.000000	0.001977
1796.000000	0.002011
1795.000000	0.002038
1794.000000	0.002034
1793.000000	0.001991
1792.000000	0.001933
1791.000000	0.001892
1790.000000	0.001877
1789.000000	0.001877
1788.000000	0.001876
1787.000000	0.001865
1786.000000	0.001844
1785.000000	0.001825
1784.000000	0.001816
1783.000000	0.001811
1782.000000	0.001803
1781.000000	0.001795
1780.000000	0.001798
1779.000000	0.001816
1778.000000	0.001839
1777.000000	0.001852
1776.000000	0.001847
1775.000000	0.001827
1774.000000	0.001805
1773.000000	0.001798
1772.000000	0.001812
1771.000000	0.001825
1770.000000	0.001823
1769.000000	0.001821
1768.000000	0.001823
1767.000000	0.001831
1766.000000	0.001849
1765.000000	0.001879
1764.000000	0.001909
1763.000000	0.001920
1762.000000	0.001928
1761.000000	0.001976
1760.000000	0.002076
1759.000000	0.002205
1758.000000	0.002348
1757.000000	0.002517
1756.000000	0.002715
1755.000000	0.002920
1754.000000	0.003125
1753.000000	0.003346
1752.000000	0.003596
1751.000000	0.003851
1750.000000	0.004081
1749.000000	0.004292
1748.000000	0.004492
1747.000000	0.004660
1746.000000	0.004786
1745.000000	0.004890
1744.000000	0.004987
1743.000000	0.005062
1742.000000	0.005108
1741.000000	0.005142
1740.000000	0.005174
1739.000000	0.005177
1738.000000	0.005131
1737.000000	0.005051
1736.000000	0.004934
1735.000000	0.004765
1734.000000	0.004575
1733.000000	0.004422
1732.000000	0.004293
1731.000000	0.004153
1730.000000	0.003996
1729.000000	0.003834
1728.000000	0.003674
1727.000000	0.003513
1726.000000	0.003359
1725.000000	0.003235
1724.000000	0.003148
1723.000000	0.003073
1722.000000	0.002995
1721.000000	0.002917
1720.000000	0.002834
1719.000000	0.002731
1718.000000	0.002624
1717.000000	0.002562
1716.000000	0.002545
1715.000000	0.002543
1714.000000	0.002543
1713.000000	0.002553
1712.000000	0.002567
1711.000000	0.002572
1710.000000	0.002567
1709.000000	0.002568
1708.000000	0.002580
1707.000000	0.002586
1706.000000	0.002586
1705.000000	0.002610
1704.000000	0.002685
1703.000000	0.002803
1702.000000	0.002937
1701.000000	0.003058
1700.000000	0.003163
1699.000000	0.003251
1698.000000	0.003348
1697.000000	0.003496
1696.000000	0.003696
1695.000000	0.003903
1694.000000	0.004081
1693.000000	0.004250
1692.000000	0.004436
1691.000000	0.004638
1690.000000	0.004858
1689.000000	0.005100
1688.000000	0.005350
1687.000000	0.005577
1686.000000	0.005748
1685.000000	0.005868
1684.000000	0.006002
1683.000000	0.006167
1682.000000	0.006338
1681.000000	0.006513
1680.000000	0.006680
1679.000000	0.006828
1678.000000	0.006972
1677.000000	0.007130
1676.000000	0.007295
1675.000000	0.007435
1674.000000	0.007551
1673.000000	0.007680
1672.000000	0.007851
1671.000000	0.008051
1670.000000	0.008266
1669.000000	0.008492
1668.000000	0.008711
1667.000000	0.008899
1666.000000	0.009065
1665.000000	0.009238
1664.000000	0.009435
1663.000000	0.009654
1662.000000	0.009878
1661.000000	0.010095
1660.000000	0.010300
1659.000000	0.010485
1658.000000	0.010645
1657.000000	0.010809
1656.000000	0.011007
1655.000000	0.011219
1654.000000	0.011377
1653.000000	0.011473
1652.000000	0.011559
1651.000000	0.011648
1650.000000	0.011762
1649.000000	0.011907
1648.000000	0.012062
1647.000000	0.012192
1646.000000	0.012280
1645.000000	0.012360
1644.000000	0.012456
1643.000000	0.012563
1642.000000	0.012665
1641.000000	0.012746
1640.000000	0.012807
1639.000000	0.012857
1638.000000	0.012904
1637.000000	0.012939
1636.000000	0.012941
1635.000000	0.012907
1634.000000	0.012874
1633.000000	0.012881
1632.000000	0.012920
1631.000000	0.012953
1630.000000	0.012947
1629.000000	0.012914
1628.000000	0.012897
1627.000000	0.012923
1626.000000	0.012984
1625.000000	0.013055
1624.000000	0.013111
1623.000000	0.013129
1622.000000	0.013104
1621.000000	0.013068
1620.000000	0.013041
1619.000000	0.012992
1618.000000	0.012846
1617.000000	0.012551
1616.000000	0.012174
1615.000000	0.011839
1614.000000	0.011579
1613.000000	0.011359
1612.000000	0.011134
1611.000000	0.010891
1610.000000	0.010643
1609.000000	0.010405
1608.000000	0.010165
1607.000000	0.009911
1606.000000	0.009652
1605.000000	0.009411
1604.000000	0.009200
1603.000000	0.009011
1602.000000	0.008829
1601.000000	0.008649
1600.000000	0.008481
1599.000000	0.008334
1598.000000	0.008205
1597.000000	0.008078
1596.000000	0.007941
1595.000000	0.007801
1594.000000	0.007678
1593.000000	0.007578
1592.000000	0.007493
1591.000000	0.007405
1590.000000	0.007312
1589.000000	0.007220
1588.000000	0.007141
1587.000000	0.007075
1586.000000	0.007017
1585.000000	0.006959
1584.000000	0.006895
1583.000000	0.006827
1582.000000	0.006757
1581.000000	0.006686
1580.000000	0.006633
1579.000000	0.006615
1578.000000	0.006629
1577.000000	0.006643
1576.000000	0.006630
1575.000000	0.006609
1574.000000	0.006617
1573.000000	0.006663
1572.000000	0.006727
1571.000000	0.006777
1570.000000	0.006808
1569.000000	0.006840
1568.000000	0.006892
1567.000000	0.006972
1566.000000	0.007073
1565.000000	0.007182
1564.000000	0.007289
1563.000000	0.007407
1562.000000	0.007549
1561.000000	0.007687
1560.000000	0.007770
1559.000000	0.007831
1558.000000	0.007920
1557.000000	0.008055
1556.000000	0.008226
1555.000000	0.008419
1554.000000	0.008617
1553.000000	0.008793
1552.000000	0.008945
1551.000000	0.009095
1550.000000	0.009261
1549.000000	0.009435
1548.000000	0.009589
1547.000000	0.009722
1546.000000	0.009848
1545.000000	0.009983
1544.000000	0.010128
1543.000000	0.010280
1542.000000	0.010438
1541.000000	0.010596
1540.000000	0.010721
1539.000000	0.010803
1538.000000	0.010874
1537.000000	0.010958
1536.000000	0.011052
1535.000000	0.011133
1534.000000	0.011192
1533.000000	0.011246
1532.000000	0.011318
1531.000000	0.011406
1530.000000	0.011486
1529.000000	0.011534
1528.000000	0.011549
1527.000000	0.011552
1526.000000	0.011565
1525.000000	0.011582
1524.000000	0.011590
1523.000000	0.011588
1522.000000	0.011591
1521.000000	0.011608
1520.000000	0.011631
1519.000000	0.011656
1518.000000	0.011687
1517.000000	0.011716
1516.000000	0.011732
1515.000000	0.011741
1514.000000	0.011749
1513.000000	0.011745
1512.000000	0.011712
1511.000000	0.011649
1510.000000	0.011575
1509.000000	0.011483
1508.000000	0.011342
1507.000000	0.011164
1506.000000	0.011042
1505.000000	0.010985
1504.000000	0.010925
1503.000000	0.010851
1502.000000	0.010772
1501.000000	0.010682
1500.000000	0.010568
1499.000000	0.010430
1498.000000	0.010283
1497.000000	0.010143
1496.000000	0.010014
1495.000000	0.009896
1494.000000	0.009793
1493.000000	0.009690
1492.000000	0.009557
1491.000000	0.009378
1490.000000	0.009182
1489.000000	0.009013
1488.000000	0.008873
1487.000000	0.008741
1486.000000	0.008617
1485.000000	0.008511
1484.000000	0.008424
1483.000000	0.008345
1482.000000	0.008274
1481.000000	0.008223
1480.000000	0.008189
1479.000000	0.008154
1478.000000	0.008109
1477.000000	0.008070
1476.000000	0.008063
1475.000000	0.008101
1474.000000	0.008191
1473.000000	0.008340
1472.000000	0.008517
1471.000000	0.008669
1470.000000	0.008788
1469.000000	0.008883
1468.000000	0.008953
1467.000000	0.008993
1466.000000	0.009024
1465.000000	0.009072
1464.000000	0.009134
1463.000000	0.009178
1462.000000	0.009197
1461.000000	0.009203
1460.000000	0.009211
1459.000000	0.009248
1458.000000	0.009386
1457.000000	0.009654
1456.000000	0.009883
1455.000000	0.009951
1454.000000	0.009936
1453.000000	0.009928
1452.000000	0.009952
1451.000000	0.009987
1450.000000	0.010014
1449.000000	0.010038
1448.000000	0.010069
1447.000000	0.010105
1446.000000	0.010141
1445.000000	0.010165
1444.000000	0.010170
1443.000000	0.010161
1442.000000	0.010153
1441.000000	0.010154
1440.000000	0.010151
1439.000000	0.010132
1438.000000	0.010115
1437.000000	0.010137
1436.000000	0.010183
1435.000000	0.010182
1434.000000	0.010127
1433.000000	0.010053
1432.000000	0.009983
1431.000000	0.009926
1430.000000	0.009900
1429.000000	0.009921
1428.000000	0.009962
1427.000000	0.009983
1426.000000	0.009974
1425.000000	0.009964
1424.000000	0.009970
1423.000000	0.009969
1422.000000	0.009950
1421.000000	0.009940
1420.000000	0.009980
1419.000000	0.010064
1418.000000	0.010118
1417.000000	0.010107
1416.000000	0.010061
1415.000000	0.010011
1414.000000	0.009969
1413.000000	0.009946
1412.000000	0.009944
1411.000000	0.009945
1410.000000	0.009922
1409.000000	0.009861
1408.000000	0.009771
1407.000000	0.009673
1406.000000	0.009602
1405.000000	0.009580
1404.000000	0.009592
1403.000000	0.009601
1402.000000	0.009593
1401.000000	0.009585
1400.000000	0.009597
1399.000000	0.009617
1398.000000	0.009624
1397.000000	0.009626
1396.000000	0.009652
1395.000000	0.009710
1394.000000	0.009770
1393.000000	0.009798
1392.000000	0.009789
1391.000000	0.009757
1390.000000	0.009722
1389.000000	0.009698
1388.000000	0.009688
1387.000000	0.009676
1386.000000	0.009649
1385.000000	0.009608
1384.000000	0.009557
1383.000000	0.009490
1382.000000	0.009405
1381.000000	0.009308
1380.000000	0.009208
1379.000000	0.009109
1378.000000	0.009006
1377.000000	0.008900
1376.000000	0.008792
1375.000000	0.008686
1374.000000	0.008587
1373.000000	0.008497
1372.000000	0.008410
1371.000000	0.008319
1370.000000	0.008220
1369.000000	0.008120
1368.000000	0.008030
1367.000000	0.007949
1366.000000	0.007867
1365.000000	0.007778
1364.000000	0.007681
1363.000000	0.007583
1362.000000	0.007490
1361.000000	0.007408
1360.000000	0.007350
1359.000000	0.007317
1358.000000	0.007297
1357.000000	0.007274
1356.000000	0.007240
1355.000000	0.007204
1354.000000	0.007167
1353.000000	0.007121
1352.000000	0.007060
1351.000000	0.006993
1350.000000	0.006937
1349.000000	0.006904
1348.000000	0.006886
1347.000000	0.006871
1346.000000	0.006850
1345.000000	0.006824
1344.000000	0.006800
1343.000000	0.006781
1342.000000	0.006766
1341.000000	0.006760
1340.000000	0.006769
1339.000000	0.006790
1338.000000	0.006809
1337.000000	0.006816
1336.000000	0.006809
1335.000000	0.006795
1334.000000	0.006776
1333.000000	0.006752
1332.000000	0.006720
1331.000000	0.006683
1330.000000	0.006643
1329.000000	0.006601
1328.000000	0.006555
1327.000000	0.006511
1326.000000	0.006474
1325.000000	0.006451
1324.000000	0.006436
1323.000000	0.006421
1322.000000	0.006399
1321.000000	0.006375
1320.000000	0.006358
1319.000000	0.006357
1318.000000	0.006364
1317.000000	0.006367
1316.000000	0.006353
1315.000000	0.006323
1314.000000	0.006291
1313.000000	0.006268
1312.000000	0.006253
1311.000000	0.006234
1310.000000	0.006212
1309.000000	0.006195
1308.000000	0.006189
1307.000000	0.006182
1306.000000	0.006154
1305.000000	0.006101
1304.000000	0.006037
1303.000000	0.005977
1302.000000	0.005927
1301.000000	0.005886
1300.000000	0.005850
1299.000000	0.005815
1298.000000	0.005777
1297.000000	0.005731
1296.000000	0.005679
1295.000000	0.005627
1294.000000	0.005585
1293.000000	0.005564
1292.000000	0.005570
1291.000000	0.005593
1290.000000	0.005615
1289.000000	0.005622
1288.000000	0.005614
1287.000000	0.005599
1286.000000	0.005584
1285.000000	0.005571
1284.000000	0.005553
1283.000000	0.005529
1282.000000	0.005498
1281.000000	0.005470
1280.000000	0.005455
1279.000000	0.005460
1278.000000	0.005478
1277.000000	0.005494
1276.000000	0.005501
1275.000000	0.005503
1274.000000	0.005511
1273.000000	0.005534
1272.000000	0.005576
1271.000000	0.005633
1270.000000	0.005698
1269.000000	0.005766
1268.000000	0.005834
1267.000000	0.005902
1266.000000	0.005972
1265.000000	0.006037
1264.000000	0.006082
1263.000000	0.006101
1262.000000	0.006109
1261.000000	0.006135
1260.000000	0.006198
1259.000000	0.006294
1258.000000	0.006402
1257.000000	0.006502
1256.000000	0.006582
1255.000000	0.006638
1254.000000	0.006678
1253.000000	0.006719
1252.000000	0.006766
1251.000000	0.006807
1250.000000	0.006824
1249.000000	0.006815
1248.000000	0.006793
1247.000000	0.006772
1246.000000	0.006764
1245.000000	0.006777
1244.000000	0.006808
1243.000000	0.006844
1242.000000	0.006864
1241.000000	0.006862
1240.000000	0.006851
1239.000000	0.006845
1238.000000	0.006849
1237.000000	0.006853
1236.000000	0.006844
1235.000000	0.006818
1234.000000	0.006781
1233.000000	0.006735
1232.000000	0.006683
1231.000000	0.006631
1230.000000	0.006587
1229.000000	0.006555
1228.000000	0.006521
1227.000000	0.006466
1226.000000	0.006382
1225.000000	0.006274
1224.000000	0.006156
1223.000000	0.006031
1222.000000	0.005903
1221.000000	0.005775
1220.000000	0.005656
1219.000000	0.005553
1218.000000	0.005463
1217.000000	0.005376
1216.000000	0.005275
1215.000000	0.005159
1214.000000	0.005041
1213.000000	0.004939
1212.000000	0.004861
1211.000000	0.004805
1210.000000	0.004764
1209.000000	0.004735
1208.000000	0.004713
1207.000000	0.004699
1206.000000	0.004695
1205.000000	0.004706
1204.000000	0.004730
1203.000000	0.004755
1202.000000	0.004766
1201.000000	0.004760
1200.000000	0.004747
1199.000000	0.004744
1198.000000	0.004769
1197.000000	0.004826
1196.000000	0.004911
1195.000000	0.005011
1194.000000	0.005117
1193.000000	0.005230
1192.000000	0.005350
1191.000000	0.005477
1190.000000	0.005610
1189.000000	0.005753
1188.000000	0.005914
1187.000000	0.006101
1186.000000	0.006313
1185.000000	0.006545
1184.000000	0.006785
1183.000000	0.007021
1182.000000	0.007260
1181.000000	0.007520
1180.000000	0.007812
1179.000000	0.008129
1178.000000	0.008460
1177.000000	0.008804
1176.000000	0.009165
1175.000000	0.009535
1174.000000	0.009896
1173.000000	0.010236
1172.000000	0.010554
1171.000000	0.010852
1170.000000	0.011135
1169.000000	0.011415
1168.000000	0.011701
1167.000000	0.011985
1166.000000	0.012252
1165.000000	0.012491
1164.000000	0.012705
1163.000000	0.012903
1162.000000	0.013091
1161.000000	0.013269
1160.000000	0.013435
1159.000000	0.013591
1158.000000	0.013747
1157.000000	0.013915
1156.000000	0.014091
1155.000000	0.014255
1154.000000	0.014393
1153.000000	0.014509
1152.000000	0.014613
1151.000000	0.014708
1150.000000	0.014792
1149.000000	0.014867
1148.000000	0.014932
1147.000000	0.014979
1146.000000	0.014999
1145.000000	0.014991
1144.000000	0.014961
1143.000000	0.014919
1142.000000	0.014873
1141.000000	0.014829
1140.000000	0.014785
1139.000000	0.014739
1138.000000	0.014692
1137.000000	0.014645
1136.000000	0.014592
1135.000000	0.014530
1134.000000	0.014470
1133.000000	0.014422
1132.000000	0.014383
1131.000000	0.014341
1130.000000	0.014299
1129.000000	0.014277
1128.000000	0.014286
1127.000000	0.014323
1126.000000	0.014392
1125.000000	0.014507
1124.000000	0.014676
1123.000000	0.014889
1122.000000	0.015127
1121.000000	0.015377
1120.000000	0.015627
1119.000000	0.015868
1118.000000	0.016102
1117.000000	0.016340
1116.000000	0.016583
1115.000000	0.016817
1114.000000	0.017029
1113.000000	0.017214
1112.000000	0.017360
1111.000000	0.017448
1110.000000	0.017470
1109.000000	0.017436
1108.000000	0.017362
1107.000000	0.017258
1106.000000	0.017133
1105.000000	0.016991
1104.000000	0.016824
1103.000000	0.016621
1102.000000	0.016402
1101.000000	0.016207
1100.000000	0.016055
1099.000000	0.015933
1098.000000	0.015814
1097.000000	0.015686
1096.000000	0.015552
1095.000000	0.015415
1094.000000	0.015282
1093.000000	0.015158
1092.000000	0.015034
1091.000000	0.014896
1090.000000	0.014737
1089.000000	0.014562
1088.000000	0.014378
1087.000000	0.014186
1086.000000	0.013994
1085.000000	0.013817
1084.000000	0.013665
1083.000000	0.013532
1082.000000	0.013407
1081.000000	0.013285
1080.000000	0.013163
1079.000000	0.013044
1078.000000	0.012940
1077.000000	0.012856
1076.000000	0.012781
1075.000000	0.012698
1074.000000	0.012608
1073.000000	0.012519
1072.000000	0.012429
1071.000000	0.012324
1070.000000	0.012206
1069.000000	0.012093
1068.000000	0.011995
1067.000000	0.011908
1066.000000	0.011831
1065.000000	0.011776
1064.000000	0.011742
1063.000000	0.011713
1062.000000	0.011680
1061.000000	0.011652
1060.000000	0.011630
1059.000000	0.011589
1058.000000	0.011499
1057.000000	0.011362
1056.000000	0.011203
1055.000000	0.011051
1054.000000	0.010934
1053.000000	0.010874
1052.000000	0.010876
1051.000000	0.010905
1050.000000	0.010911
1049.000000	0.010871
1048.000000	0.010811
1047.000000	0.010774
1046.000000	0.010784
1045.000000	0.010830
1044.000000	0.010879
1043.000000	0.010906
1042.000000	0.010907
1041.000000	0.010895
1040.000000	0.010883
1039.000000	0.010876
1038.000000	0.010869
1037.000000	0.010852
1036.000000	0.010811
1035.000000	0.010748
1034.000000	0.010676
1033.000000	0.010610
1032.000000	0.010544
1031.000000	0.010465
1030.000000	0.010376
1029.000000	0.010305
1028.000000	0.010275
1027.000000	0.010276
1026.000000	0.010283
1025.000000	0.010271
1024.000000	0.010233
1023.000000	0.010179
1022.000000	0.010127
1021.000000	0.010084
1020.000000	0.010042
1019.000000	0.009980
1018.000000	0.009897
1017.000000	0.009809
1016.000000	0.009727
1015.000000	0.009653
1014.000000	0.009587
1013.000000	0.009530
1012.000000	0.009471
1011.000000	0.009390
1010.000000	0.009288
1009.000000	0.009194
1008.000000	0.009134
1007.000000	0.009101
1006.000000	0.009066
1005.000000	0.009010
1004.000000	0.008930
1003.000000	0.008826
1002.000000	0.008704
1001.000000	0.008571
1000.000000	0.008433
999.000000	0.008293
998.000000	0.008160
997.000000	0.008040
996.000000	0.007933
995.000000	0.007824
994.000000	0.007697
993.000000	0.007560
992.000000	0.007436
991.000000	0.007339
990.000000	0.007263
989.000000	0.007190
988.000000	0.007102
987.000000	0.007003
986.000000	0.006918
985.000000	0.006865
984.000000	0.006831
983.000000	0.006780
982.000000	0.006685
981.000000	0.006560
980.000000	0.006437
979.000000	0.006334
978.000000	0.006253
977.000000	0.006190
976.000000	0.006145
975.000000	0.006105
974.000000	0.006053
973.000000	0.005985
972.000000	0.005917
971.000000	0.005858
970.000000	0.005804
969.000000	0.005750
968.000000	0.005695
967.000000	0.005642
966.000000	0.005590
965.000000	0.005539
964.000000	0.005489
963.000000	0.005439
962.000000	0.005375
961.000000	0.005291
960.000000	0.005200
959.000000	0.005119
958.000000	0.005046
957.000000	0.004962
956.000000	0.004863
955.000000	0.004770
954.000000	0.004702
953.000000	0.004647
952.000000	0.004579
951.000000	0.004498
950.000000	0.004438
949.000000	0.004426
948.000000	0.004441
947.000000	0.004438
946.000000	0.004393
945.000000	0.004323
944.000000	0.004261
943.000000	0.004216
942.000000	0.004175
941.000000	0.004129
940.000000	0.004082
939.000000	0.004038
938.000000	0.003991
937.000000	0.003927
936.000000	0.003847
935.000000	0.003771
934.000000	0.003723
933.000000	0.003701
932.000000	0.003689
931.000000	0.003672
930.000000	0.003658
929.000000	0.003651
928.000000	0.003639
927.000000	0.003598
926.000000	0.003526
925.000000	0.003450
924.000000	0.003400
923.000000	0.003380
922.000000	0.003371
921.000000	0.003351
920.000000	0.003317
919.000000	0.003281
918.000000	0.003262
917.000000	0.003258
916.000000	0.003246
915.000000	0.003202
914.000000	0.003128
913.000000	0.003055
912.000000	0.003005
911.000000	0.002973
910.000000	0.002940
909.000000	0.002899
908.000000	0.002854
907.000000	0.002808
906.000000	0.002758
905.000000	0.002707
904.000000	0.002662
903.000000	0.002626
902.000000	0.002590
901.000000	0.002550
900.000000	0.002506
899.000000	0.002469
898.000000	0.002444
897.000000	0.002435
896.000000	0.002436
895.000000	0.002437
894.000000	0.002426
893.000000	0.002409
892.000000	0.002396
891.000000	0.002388
890.000000	0.002379
889.000000	0.002377
888.000000	0.002411
887.000000	0.002512
886.000000	0.002677
885.000000	0.002876
884.000000	0.003065
883.000000	0.003226
882.000000	0.003376
881.000000	0.003554
880.000000	0.003785
879.000000	0.004056
878.000000	0.004321
877.000000	0.004540
876.000000	0.004693
875.000000	0.004782
874.000000	0.004801
873.000000	0.004739
872.000000	0.004587
871.000000	0.004356
870.000000	0.004086
869.000000	0.003822
868.000000	0.003589
867.000000	0.003374
866.000000	0.003163
865.000000	0.002972
864.000000	0.002839
863.000000	0.002769
862.000000	0.002718
861.000000	0.002635
860.000000	0.002512
859.000000	0.002378
858.000000	0.002255
857.000000	0.002141
856.000000	0.002036
855.000000	0.001960
854.000000	0.001926
853.000000	0.001916
852.000000	0.001902
851.000000	0.001882
850.000000	0.001883
849.000000	0.001918
848.000000	0.001965
847.000000	0.001982
846.000000	0.001942
845.000000	0.001856
844.000000	0.001761
843.000000	0.001705
842.000000	0.001719
841.000000	0.001790
840.000000	0.001864
839.000000	0.001892
838.000000	0.001871
837.000000	0.001849
836.000000	0.001867
835.000000	0.001914
834.000000	0.001940
833.000000	0.001917
832.000000	0.001871
831.000000	0.001848
830.000000	0.001868
829.000000	0.001915
828.000000	0.001958
827.000000	0.001975
826.000000	0.001964
825.000000	0.001930
824.000000	0.001890
823.000000	0.001859
822.000000	0.001842
821.000000	0.001829
820.000000	0.001811
819.000000	0.001792
818.000000	0.001784
817.000000	0.001792
816.000000	0.001816
815.000000	0.001848
814.000000	0.001877
813.000000	0.001882
812.000000	0.001848
811.000000	0.001780
810.000000	0.001715
809.000000	0.001696
808.000000	0.001733
807.000000	0.001803
806.000000	0.001869
805.000000	0.001905
804.000000	0.001910
803.000000	0.001900
802.000000	0.001898
801.000000	0.001915
800.000000	0.001938
799.000000	0.001944
798.000000	0.001928
797.000000	0.001906
796.000000	0.001896
795.000000	0.001898
794.000000	0.001902
793.000000	0.001897
792.000000	0.001881
791.000000	0.001857
790.000000	0.001832
789.000000	0.001812
788.000000	0.001793
787.000000	0.001774
786.000000	0.001778
785.000000	0.001835
784.000000	0.001941
783.000000	0.002044
782.000000	0.002085
781.000000	0.002053
780.000000	0.001985
779.000000	0.001928
778.000000	0.001906
777.000000	0.001917
776.000000	0.001938
775.000000	0.001942
774.000000	0.001921
773.000000	0.001887
772.000000	0.001857
771.000000	0.001831
770.000000	0.001810
769.000000	0.001801
768.000000	0.001810
767.000000	0.001826
766.000000	0.001832
765.000000	0.001823
764.000000	0.001801
763.000000	0.001771
762.000000	0.001750
761.000000	0.001769
760.000000	0.001836
759.000000	0.001909
758.000000	0.001934
757.000000	0.001917
756.000000	0.001912
755.000000	0.001941
754.000000	0.001966
753.000000	0.001946
752.000000	0.001902
751.000000	0.001883
750.000000	0.001901
749.000000	0.001928
748.000000	0.001948
747.000000	0.001968
746.000000	0.002008
745.000000	0.002067
744.000000	0.002134
743.000000	0.002187
742.000000	0.002202
741.000000	0.002168
740.000000	0.002102
739.000000	0.002027
738.000000	0.001956
737.000000	0.001899
736.000000	0.001884
735.000000	0.001924
734.000000	0.001988
733.000000	0.002012
732.000000	0.001970
731.000000	0.001902
730.000000	0.001856
729.000000	0.001834
728.000000	0.001800
727.000000	0.001740
726.000000	0.001697
725.000000	0.001723
724.000000	0.001808
723.000000	0.001881
722.000000	0.001887
721.000000	0.001841
720.000000	0.001797
719.000000	0.001783
718.000000	0.001791
717.000000	0.001831
716.000000	0.001947
715.000000	0.002163
714.000000	0.002428
713.000000	0.002635
712.000000	0.002713
711.000000	0.002672
710.000000	0.002581
709.000000	0.002508
708.000000	0.002479
707.000000	0.002488
706.000000	0.002515
705.000000	0.002545
704.000000	0.002570
703.000000	0.002587
702.000000	0.002601
701.000000	0.002621
700.000000	0.002648
699.000000	0.002679
698.000000	0.002709
697.000000	0.002736
696.000000	0.002742
695.000000	0.002710
694.000000	0.002639
693.000000	0.002563
692.000000	0.002521
691.000000	0.002510
690.000000	0.002496
689.000000	0.002470
688.000000	0.002465
687.000000	0.002514
686.000000	0.002593
685.000000	0.002651
684.000000	0.002671
683.000000	0.002699
682.000000	0.002793
681.000000	0.002974
680.000000	0.003229
679.000000	0.003526
678.000000	0.003841
677.000000	0.004198
676.000000	0.004634
675.000000	0.005137
674.000000	0.005614
673.000000	0.005955
672.000000	0.006120
671.000000	0.006149
670.000000	0.006091
669.000000	0.005958
668.000000	0.005820
667.000000	0.005703
666.000000	0.005453
665.000000	0.005144
664.000000	0.004837
663.000000	0.004497
662.000000	0.004102
661.000000	0.003660
660.000000	0.003195
659.000000	0.002749
658.000000	0.002409
657.000000	0.002271
656.000000	0.002334
655.000000	0.002478
654.000000	0.002571
653.000000	0.002580
652.000000	0.002545
651.000000	0.002513
650.000000	0.002513
649.000000	0.002554
648.000000	0.002607
647.000000	0.002618
646.000000	0.002584
645.000000	0.002555
644.000000	0.002570
643.000000	0.002613
642.000000	0.002652
641.000000	0.002675
640.000000	0.002676
639.000000	0.002633
638.000000	0.002548
637.000000	0.002475
636.000000	0.002472
635.000000	0.002545
634.000000	0.002662
633.000000	0.002800
632.000000	0.002943
631.000000	0.003067
630.000000	0.003138
629.000000	0.003160
628.000000	0.003172
627.000000	0.003211
626.000000	0.003284
625.000000	0.003360
624.000000	0.003390
623.000000	0.003362
622.000000	0.003313
621.000000	0.003305
620.000000	0.003361
619.000000	0.003463
618.000000	0.003582
617.000000	0.003709
616.000000	0.003850
615.000000	0.004022
614.000000	0.004232
613.000000	0.004466
612.000000	0.004683
611.000000	0.004875
610.000000	0.005088
609.000000	0.005387
608.000000	0.005766
607.000000	0.006168
606.000000	0.006557
605.000000	0.006934
604.000000	0.007267
603.000000	0.007481
602.000000	0.007537
601.000000	0.007485
600.000000	0.007406
599.000000	0.007352
598.000000	0.007331
597.000000	0.007305
596.000000	0.007194
595.000000	0.006936
594.000000	0.006568
593.000000	0.006222
592.000000	0.005991
591.000000	0.005859
590.000000	0.005749
589.000000	0.005609
588.000000	0.005425
587.000000	0.005208
586.000000	0.005011
585.000000	0.004895
584.000000	0.004853
583.000000	0.004813
582.000000	0.004737
581.000000	0.004669
580.000000	0.004647
579.000000	0.004625
578.000000	0.004533
577.000000	0.004370
576.000000	0.004187
575.000000	0.004017
574.000000	0.003864
573.000000	0.003737
572.000000	0.003640
571.000000	0.003560
570.000000	0.003489
569.000000	0.003444
568.000000	0.003432
567.000000	0.003429
566.000000	0.003419
565.000000	0.003402
564.000000	0.003361
563.000000	0.003259
562.000000	0.003114
561.000000	0.003012
560.000000	0.002990
559.000000	0.002981
558.000000	0.002918
557.000000	0.002839
556.000000	0.002818
555.000000	0.002839
554.000000	0.002832
553.000000	0.002798
552.000000	0.002797
551.000000	0.002828
550.000000	0.002826
549.000000	0.002770
548.000000	0.002707
547.000000	0.002657
546.000000	0.002569
545.000000	0.002415
544.000000	0.002251
543.000000	0.002141
542.000000	0.002080
541.000000	0.002023
540.000000	0.001958
539.000000	0.001912
538.000000	0.001911
537.000000	0.001959
536.000000	0.002044
535.000000	0.002148
534.000000	0.002259
533.000000	0.002372
532.000000	0.002467
531.000000	0.002496
530.000000	0.002414
529.000000	0.002250
528.000000	0.002088
527.000000	0.001986
526.000000	0.001914
525.000000	0.001813
524.000000	0.001708
523.000000	0.001694
522.000000	0.001811
521.000000	0.001964
520.000000	0.002018
519.000000	0.001966
518.000000	0.001951
517.000000	0.002081
516.000000	0.002275
515.000000	0.002381
514.000000	0.002352
513.000000	0.002245
512.000000	0.002119
511.000000	0.002012
510.000000	0.001995
509.000000	0.002116
508.000000	0.002319
507.000000	0.002461
506.000000	0.002443
505.000000	0.002303
504.000000	0.002152
503.000000	0.002103
502.000000	0.002222
501.000000	0.002432
500.000000	0.002526
499.000000	0.002376
498.000000	0.002086
497.000000	0.001875
496.000000	0.001820
495.000000	0.001804
494.000000	0.001726
493.000000	0.001630
492.000000	0.001590
491.000000	0.001604
490.000000	0.001677
489.000000	0.001865
488.000000	0.002136
487.000000	0.002337
486.000000	0.002391
485.000000	0.002418
484.000000	0.002562
483.000000	0.002761
482.000000	0.002858
481.000000	0.002847
480.000000	0.002829
479.000000	0.002827
478.000000	0.002799
477.000000	0.002765
476.000000	0.002757
475.000000	0.002703
474.000000	0.002517
473.000000	0.002279
472.000000	0.002186
471.000000	0.002286
470.000000	0.002468
469.000000	0.002662
468.000000	0.002844
467.000000	0.002915
466.000000	0.002809
465.000000	0.002635
464.000000	0.002520
463.000000	0.002414
462.000000	0.002173
461.000000	0.001811
460.000000	0.001504
459.000000	0.001367
458.000000	0.001411
457.000000	0.001625
456.000000	0.001921
455.000000	0.002263
454.000000	0.002115
453.000000	0.001788
452.000000	0.001525
451.000000	0.001496
450.000000	0.001631
