PE IR       SUBTECH     SPECTRUM    ASCII       PEDS        4.00        
   -1
P12-Rouge044_1.ASC
23/06/08
15:35:02.00
23/06/08
15:48:35.00
uco
Sample 044 By uco Date Thursday, June 08 2023
450.000000
#HDR
-1
-1
#GR
cm-1
A
1.0
0.0
4000.000000
-1.000000
3551
8
0.024484
0.001531
#DATA
4000.000000	0.001860
3999.000000	0.001870
3998.000000	0.001881
3997.000000	0.001886
3996.000000	0.001881
3995.000000	0.001869
3994.000000	0.001850
3993.000000	0.001833
3992.000000	0.001825
3991.000000	0.001836
3990.000000	0.001870
3989.000000	0.001918
3988.000000	0.001963
3987.000000	0.001987
3986.000000	0.001982
3985.000000	0.001952
3984.000000	0.001914
3983.000000	0.001885
3982.000000	0.001881
3981.000000	0.001897
3980.000000	0.001919
3979.000000	0.001930
3978.000000	0.001924
3977.000000	0.001911
3976.000000	0.001906
3975.000000	0.001917
3974.000000	0.001937
3973.000000	0.001954
3972.000000	0.001957
3971.000000	0.001946
3970.000000	0.001927
3969.000000	0.001908
3968.000000	0.001895
3967.000000	0.001893
3966.000000	0.001904
3965.000000	0.001922
3964.000000	0.001937
3963.000000	0.001938
3962.000000	0.001927
3961.000000	0.001916
3960.000000	0.001915
3959.000000	0.001923
3958.000000	0.001929
3957.000000	0.001929
3956.000000	0.001925
3955.000000	0.001925
3954.000000	0.001934
3953.000000	0.001950
3952.000000	0.001970
3951.000000	0.001992
3950.000000	0.002017
3949.000000	0.002039
3948.000000	0.002049
3947.000000	0.002039
3946.000000	0.002009
3945.000000	0.001972
3944.000000	0.001946
3943.000000	0.001949
3942.000000	0.001980
3941.000000	0.002024
3940.000000	0.002055
3939.000000	0.002060
3938.000000	0.002040
3937.000000	0.002012
3936.000000	0.001992
3935.000000	0.001988
3934.000000	0.001992
3933.000000	0.001992
3932.000000	0.001984
3931.000000	0.001976
3930.000000	0.001979
3929.000000	0.001997
3928.000000	0.002018
3927.000000	0.002034
3926.000000	0.002041
3925.000000	0.002041
3924.000000	0.002037
3923.000000	0.002032
3922.000000	0.002033
3921.000000	0.002041
3920.000000	0.002053
3919.000000	0.002063
3918.000000	0.002058
3917.000000	0.002032
3916.000000	0.001992
3915.000000	0.001954
3914.000000	0.001931
3913.000000	0.001925
3912.000000	0.001933
3911.000000	0.001948
3910.000000	0.001962
3909.000000	0.001968
3908.000000	0.001965
3907.000000	0.001957
3906.000000	0.001952
3905.000000	0.001958
3904.000000	0.001976
3903.000000	0.001997
3902.000000	0.002014
3901.000000	0.002026
3900.000000	0.002035
3899.000000	0.002040
3898.000000	0.002037
3897.000000	0.002024
3896.000000	0.002003
3895.000000	0.001981
3894.000000	0.001965
3893.000000	0.001963
3892.000000	0.001972
3891.000000	0.001984
3890.000000	0.001990
3889.000000	0.001989
3888.000000	0.001988
3887.000000	0.001995
3886.000000	0.002011
3885.000000	0.002026
3884.000000	0.002024
3883.000000	0.001995
3882.000000	0.001944
3881.000000	0.001897
3880.000000	0.001884
3879.000000	0.001912
3878.000000	0.001957
3877.000000	0.001989
3876.000000	0.001997
3875.000000	0.001990
3874.000000	0.001994
3873.000000	0.002023
3872.000000	0.002068
3871.000000	0.002104
3870.000000	0.002110
3869.000000	0.002091
3868.000000	0.002069
3867.000000	0.002052
3866.000000	0.002033
3865.000000	0.002006
3864.000000	0.001983
3863.000000	0.001978
3862.000000	0.001993
3861.000000	0.002014
3860.000000	0.002026
3859.000000	0.002022
3858.000000	0.002012
3857.000000	0.002004
3856.000000	0.002005
3855.000000	0.002017
3854.000000	0.002047
3853.000000	0.002074
3852.000000	0.002066
3851.000000	0.002031
3850.000000	0.001989
3849.000000	0.001957
3848.000000	0.001944
3847.000000	0.001950
3846.000000	0.001969
3845.000000	0.001990
3844.000000	0.001999
3843.000000	0.001987
3842.000000	0.001960
3841.000000	0.001930
3840.000000	0.001907
3839.000000	0.001898
3838.000000	0.001908
3837.000000	0.001934
3836.000000	0.001965
3835.000000	0.001994
3834.000000	0.002016
3833.000000	0.002027
3832.000000	0.002027
3831.000000	0.002022
3830.000000	0.002018
3829.000000	0.002015
3828.000000	0.002009
3827.000000	0.001995
3826.000000	0.001979
3825.000000	0.001972
3824.000000	0.001978
3823.000000	0.001985
3822.000000	0.001983
3821.000000	0.001973
3820.000000	0.001970
3819.000000	0.001983
3818.000000	0.002000
3817.000000	0.001998
3816.000000	0.001974
3815.000000	0.001950
3814.000000	0.001951
3813.000000	0.001974
3812.000000	0.002003
3811.000000	0.002022
3810.000000	0.002026
3809.000000	0.002015
3808.000000	0.001994
3807.000000	0.001970
3806.000000	0.001958
3805.000000	0.001964
3804.000000	0.001985
3803.000000	0.002000
3802.000000	0.001995
3801.000000	0.001975
3800.000000	0.001961
3799.000000	0.001963
3798.000000	0.001976
3797.000000	0.001985
3796.000000	0.001985
3795.000000	0.001979
3794.000000	0.001979
3793.000000	0.001993
3792.000000	0.002017
3791.000000	0.002038
3790.000000	0.002042
3789.000000	0.002023
3788.000000	0.001991
3787.000000	0.001964
3786.000000	0.001956
3785.000000	0.001966
3784.000000	0.001983
3783.000000	0.002000
3782.000000	0.002012
3781.000000	0.002018
3780.000000	0.002014
3779.000000	0.001994
3778.000000	0.001965
3777.000000	0.001936
3776.000000	0.001918
3775.000000	0.001916
3774.000000	0.001928
3773.000000	0.001949
3772.000000	0.001966
3771.000000	0.001968
3770.000000	0.001956
3769.000000	0.001943
3768.000000	0.001944
3767.000000	0.001958
3766.000000	0.001974
3765.000000	0.001979
3764.000000	0.001967
3763.000000	0.001944
3762.000000	0.001917
3761.000000	0.001895
3760.000000	0.001891
3759.000000	0.001907
3758.000000	0.001933
3757.000000	0.001957
3756.000000	0.001976
3755.000000	0.001995
3754.000000	0.002017
3753.000000	0.002047
3752.000000	0.002086
3751.000000	0.002120
3750.000000	0.002127
3749.000000	0.002103
3748.000000	0.002068
3747.000000	0.002033
3746.000000	0.001992
3745.000000	0.001937
3744.000000	0.001882
3743.000000	0.001849
3742.000000	0.001839
3741.000000	0.001841
3740.000000	0.001846
3739.000000	0.001850
3738.000000	0.001857
3737.000000	0.001872
3736.000000	0.001886
3735.000000	0.001887
3734.000000	0.001884
3733.000000	0.001897
3732.000000	0.001921
3731.000000	0.001945
3730.000000	0.001968
3729.000000	0.001999
3728.000000	0.002036
3727.000000	0.002068
3726.000000	0.002084
3725.000000	0.002084
3724.000000	0.002076
3723.000000	0.002058
3722.000000	0.002030
3721.000000	0.001992
3720.000000	0.001950
3719.000000	0.001913
3718.000000	0.001886
3717.000000	0.001870
3716.000000	0.001864
3715.000000	0.001865
3714.000000	0.001880
3713.000000	0.001920
3712.000000	0.001986
3711.000000	0.002044
3710.000000	0.002056
3709.000000	0.002022
3708.000000	0.001973
3707.000000	0.001934
3706.000000	0.001912
3705.000000	0.001898
3704.000000	0.001882
3703.000000	0.001863
3702.000000	0.001846
3701.000000	0.001838
3700.000000	0.001840
3699.000000	0.001856
3698.000000	0.001887
3697.000000	0.001923
3696.000000	0.001950
3695.000000	0.001958
3694.000000	0.001948
3693.000000	0.001923
3692.000000	0.001893
3691.000000	0.001868
3690.000000	0.001857
3689.000000	0.001863
3688.000000	0.001882
3687.000000	0.001899
3686.000000	0.001906
3685.000000	0.001903
3684.000000	0.001896
3683.000000	0.001891
3682.000000	0.001892
3681.000000	0.001904
3680.000000	0.001930
3679.000000	0.001966
3678.000000	0.002004
3677.000000	0.002026
3676.000000	0.002015
3675.000000	0.001986
3674.000000	0.001982
3673.000000	0.002012
3672.000000	0.002050
3671.000000	0.002058
3670.000000	0.002020
3669.000000	0.001963
3668.000000	0.001927
3667.000000	0.001924
3666.000000	0.001948
3665.000000	0.001989
3664.000000	0.002043
3663.000000	0.002097
3662.000000	0.002131
3661.000000	0.002125
3660.000000	0.002073
3659.000000	0.001988
3658.000000	0.001898
3657.000000	0.001837
3656.000000	0.001830
3655.000000	0.001869
3654.000000	0.001930
3653.000000	0.001984
3652.000000	0.002015
3651.000000	0.002026
3650.000000	0.002036
3649.000000	0.002060
3648.000000	0.002081
3647.000000	0.002079
3646.000000	0.002054
3645.000000	0.002020
3644.000000	0.001995
3643.000000	0.001989
3642.000000	0.002000
3641.000000	0.002018
3640.000000	0.002038
3639.000000	0.002059
3638.000000	0.002082
3637.000000	0.002104
3636.000000	0.002124
3635.000000	0.002141
3634.000000	0.002161
3633.000000	0.002188
3632.000000	0.002221
3631.000000	0.002251
3630.000000	0.002268
3629.000000	0.002265
3628.000000	0.002255
3627.000000	0.002258
3626.000000	0.002271
3625.000000	0.002276
3624.000000	0.002255
3623.000000	0.002203
3622.000000	0.002129
3621.000000	0.002050
3620.000000	0.001992
3619.000000	0.001983
3618.000000	0.002024
3617.000000	0.002096
3616.000000	0.002172
3615.000000	0.002238
3614.000000	0.002291
3613.000000	0.002339
3612.000000	0.002384
3611.000000	0.002419
3610.000000	0.002438
3609.000000	0.002435
3608.000000	0.002412
3607.000000	0.002383
3606.000000	0.002363
3605.000000	0.002357
3604.000000	0.002357
3603.000000	0.002356
3602.000000	0.002356
3601.000000	0.002361
3600.000000	0.002367
3599.000000	0.002365
3598.000000	0.002350
3597.000000	0.002330
3596.000000	0.002327
3595.000000	0.002352
3594.000000	0.002395
3593.000000	0.002432
3592.000000	0.002448
3591.000000	0.002440
3590.000000	0.002418
3589.000000	0.002395
3588.000000	0.002380
3587.000000	0.002377
3586.000000	0.002391
3585.000000	0.002423
3584.000000	0.002466
3583.000000	0.002510
3582.000000	0.002551
3581.000000	0.002584
3580.000000	0.002608
3579.000000	0.002620
3578.000000	0.002619
3577.000000	0.002608
3576.000000	0.002597
3575.000000	0.002596
3574.000000	0.002607
3573.000000	0.002622
3572.000000	0.002636
3571.000000	0.002655
3570.000000	0.002691
3569.000000	0.002756
3568.000000	0.002836
3567.000000	0.002891
3566.000000	0.002899
3565.000000	0.002884
3564.000000	0.002876
3563.000000	0.002883
3562.000000	0.002899
3561.000000	0.002922
3560.000000	0.002951
3559.000000	0.002983
3558.000000	0.003016
3557.000000	0.003048
3556.000000	0.003079
3555.000000	0.003113
3554.000000	0.003149
3553.000000	0.003184
3552.000000	0.003212
3551.000000	0.003234
3550.000000	0.003247
3549.000000	0.003253
3548.000000	0.003254
3547.000000	0.003252
3546.000000	0.003251
3545.000000	0.003259
3544.000000	0.003283
3543.000000	0.003322
3542.000000	0.003357
3541.000000	0.003375
3540.000000	0.003369
3539.000000	0.003352
3538.000000	0.003337
3537.000000	0.003329
3536.000000	0.003325
3535.000000	0.003324
3534.000000	0.003331
3533.000000	0.003347
3532.000000	0.003365
3531.000000	0.003374
3530.000000	0.003369
3529.000000	0.003360
3528.000000	0.003358
3527.000000	0.003369
3526.000000	0.003382
3525.000000	0.003389
3524.000000	0.003387
3523.000000	0.003381
3522.000000	0.003377
3521.000000	0.003372
3520.000000	0.003365
3519.000000	0.003353
3518.000000	0.003342
3517.000000	0.003333
3516.000000	0.003327
3515.000000	0.003319
3514.000000	0.003311
3513.000000	0.003310
3512.000000	0.003327
3511.000000	0.003358
3510.000000	0.003387
3509.000000	0.003403
3508.000000	0.003409
3507.000000	0.003421
3506.000000	0.003442
3505.000000	0.003462
3504.000000	0.003468
3503.000000	0.003459
3502.000000	0.003448
3501.000000	0.003444
3500.000000	0.003446
3499.000000	0.003446
3498.000000	0.003434
3497.000000	0.003412
3496.000000	0.003386
3495.000000	0.003365
3494.000000	0.003361
3493.000000	0.003377
3492.000000	0.003410
3491.000000	0.003448
3490.000000	0.003476
3489.000000	0.003482
3488.000000	0.003468
3487.000000	0.003448
3486.000000	0.003439
3485.000000	0.003451
3484.000000	0.003483
3483.000000	0.003520
3482.000000	0.003543
3481.000000	0.003540
3480.000000	0.003515
3479.000000	0.003489
3478.000000	0.003479
3477.000000	0.003489
3476.000000	0.003510
3475.000000	0.003538
3474.000000	0.003569
3473.000000	0.003598
3472.000000	0.003619
3471.000000	0.003626
3470.000000	0.003617
3469.000000	0.003598
3468.000000	0.003580
3467.000000	0.003573
3466.000000	0.003577
3465.000000	0.003589
3464.000000	0.003597
3463.000000	0.003596
3462.000000	0.003587
3461.000000	0.003572
3460.000000	0.003556
3459.000000	0.003543
3458.000000	0.003535
3457.000000	0.003538
3456.000000	0.003551
3455.000000	0.003574
3454.000000	0.003598
3453.000000	0.003617
3452.000000	0.003631
3451.000000	0.003644
3450.000000	0.003656
3449.000000	0.003666
3448.000000	0.003672
3447.000000	0.003677
3446.000000	0.003689
3445.000000	0.003709
3444.000000	0.003731
3443.000000	0.003747
3442.000000	0.003755
3441.000000	0.003759
3440.000000	0.003767
3439.000000	0.003779
3438.000000	0.003790
3437.000000	0.003795
3436.000000	0.003793
3435.000000	0.003788
3434.000000	0.003784
3433.000000	0.003784
3432.000000	0.003789
3431.000000	0.003799
3430.000000	0.003812
3429.000000	0.003828
3428.000000	0.003846
3427.000000	0.003864
3426.000000	0.003882
3425.000000	0.003900
3424.000000	0.003916
3423.000000	0.003929
3422.000000	0.003938
3421.000000	0.003945
3420.000000	0.003951
3419.000000	0.003955
3418.000000	0.003957
3417.000000	0.003962
3416.000000	0.003978
3415.000000	0.004008
3414.000000	0.004043
3413.000000	0.004075
3412.000000	0.004101
3411.000000	0.004128
3410.000000	0.004154
3409.000000	0.004176
3408.000000	0.004186
3407.000000	0.004187
3406.000000	0.004183
3405.000000	0.004181
3404.000000	0.004185
3403.000000	0.004201
3402.000000	0.004227
3401.000000	0.004257
3400.000000	0.004279
3399.000000	0.004284
3398.000000	0.004273
3397.000000	0.004258
3396.000000	0.004249
3395.000000	0.004246
3394.000000	0.004239
3393.000000	0.004218
3392.000000	0.004186
3391.000000	0.004158
3390.000000	0.004144
3389.000000	0.004146
3388.000000	0.004159
3387.000000	0.004179
3386.000000	0.004206
3385.000000	0.004237
3384.000000	0.004266
3383.000000	0.004286
3382.000000	0.004292
3381.000000	0.004282
3380.000000	0.004265
3379.000000	0.004248
3378.000000	0.004239
3377.000000	0.004236
3376.000000	0.004234
3375.000000	0.004231
3374.000000	0.004230
3373.000000	0.004233
3372.000000	0.004239
3371.000000	0.004249
3370.000000	0.004263
3369.000000	0.004286
3368.000000	0.004315
3367.000000	0.004344
3366.000000	0.004362
3365.000000	0.004363
3364.000000	0.004355
3363.000000	0.004351
3362.000000	0.004357
3361.000000	0.004368
3360.000000	0.004374
3359.000000	0.004371
3358.000000	0.004361
3357.000000	0.004347
3356.000000	0.004331
3355.000000	0.004319
3354.000000	0.004319
3353.000000	0.004335
3352.000000	0.004363
3351.000000	0.004393
3350.000000	0.004420
3349.000000	0.004443
3348.000000	0.004460
3347.000000	0.004469
3346.000000	0.004469
3345.000000	0.004462
3344.000000	0.004456
3343.000000	0.004459
3342.000000	0.004473
3341.000000	0.004498
3340.000000	0.004527
3339.000000	0.004555
3338.000000	0.004575
3337.000000	0.004586
3336.000000	0.004587
3335.000000	0.004586
3334.000000	0.004594
3333.000000	0.004611
3332.000000	0.004625
3331.000000	0.004622
3330.000000	0.004600
3329.000000	0.004572
3328.000000	0.004558
3327.000000	0.004564
3326.000000	0.004587
3325.000000	0.004613
3324.000000	0.004633
3323.000000	0.004643
3322.000000	0.004647
3321.000000	0.004649
3320.000000	0.004656
3319.000000	0.004674
3318.000000	0.004708
3317.000000	0.004758
3316.000000	0.004811
3315.000000	0.004849
3314.000000	0.004857
3313.000000	0.004837
3312.000000	0.004807
3311.000000	0.004789
3310.000000	0.004793
3309.000000	0.004810
3308.000000	0.004825
3307.000000	0.004831
3306.000000	0.004833
3305.000000	0.004839
3304.000000	0.004846
3303.000000	0.004846
3302.000000	0.004837
3301.000000	0.004824
3300.000000	0.004816
3299.000000	0.004820
3298.000000	0.004834
3297.000000	0.004851
3296.000000	0.004859
3295.000000	0.004851
3294.000000	0.004832
3293.000000	0.004816
3292.000000	0.004812
3291.000000	0.004820
3290.000000	0.004832
3289.000000	0.004840
3288.000000	0.004843
3287.000000	0.004842
3286.000000	0.004834
3285.000000	0.004817
3284.000000	0.004794
3283.000000	0.004774
3282.000000	0.004766
3281.000000	0.004767
3280.000000	0.004768
3279.000000	0.004758
3278.000000	0.004738
3277.000000	0.004721
3276.000000	0.004715
3275.000000	0.004719
3274.000000	0.004725
3273.000000	0.004727
3272.000000	0.004727
3271.000000	0.004731
3270.000000	0.004744
3269.000000	0.004765
3268.000000	0.004790
3267.000000	0.004814
3266.000000	0.004826
3265.000000	0.004822
3264.000000	0.004804
3263.000000	0.004784
3262.000000	0.004775
3261.000000	0.004778
3260.000000	0.004781
3259.000000	0.004775
3258.000000	0.004757
3257.000000	0.004731
3256.000000	0.004702
3255.000000	0.004675
3254.000000	0.004656
3253.000000	0.004650
3252.000000	0.004652
3251.000000	0.004657
3250.000000	0.004660
3249.000000	0.004666
3248.000000	0.004676
3247.000000	0.004686
3246.000000	0.004686
3245.000000	0.004671
3244.000000	0.004646
3243.000000	0.004621
3242.000000	0.004605
3241.000000	0.004601
3240.000000	0.004604
3239.000000	0.004603
3238.000000	0.004588
3237.000000	0.004559
3236.000000	0.004524
3235.000000	0.004495
3234.000000	0.004479
3233.000000	0.004477
3232.000000	0.004489
3231.000000	0.004508
3230.000000	0.004523
3229.000000	0.004523
3228.000000	0.004508
3227.000000	0.004489
3226.000000	0.004479
3225.000000	0.004484
3224.000000	0.004504
3223.000000	0.004533
3222.000000	0.004561
3221.000000	0.004572
3220.000000	0.004562
3219.000000	0.004539
3218.000000	0.004515
3217.000000	0.004495
3216.000000	0.004475
3215.000000	0.004453
3214.000000	0.004433
3213.000000	0.004423
3212.000000	0.004421
3211.000000	0.004421
3210.000000	0.004416
3209.000000	0.004407
3208.000000	0.004406
3207.000000	0.004422
3206.000000	0.004452
3205.000000	0.004478
3204.000000	0.004484
3203.000000	0.004465
3202.000000	0.004431
3201.000000	0.004397
3200.000000	0.004373
3199.000000	0.004354
3198.000000	0.004336
3197.000000	0.004314
3196.000000	0.004288
3195.000000	0.004265
3194.000000	0.004250
3193.000000	0.004243
3192.000000	0.004242
3191.000000	0.004245
3190.000000	0.004256
3189.000000	0.004275
3188.000000	0.004298
3187.000000	0.004315
3186.000000	0.004317
3185.000000	0.004304
3184.000000	0.004284
3183.000000	0.004271
3182.000000	0.004270
3181.000000	0.004277
3180.000000	0.004282
3179.000000	0.004276
3178.000000	0.004257
3177.000000	0.004231
3176.000000	0.004202
3175.000000	0.004174
3174.000000	0.004149
3173.000000	0.004127
3172.000000	0.004109
3171.000000	0.004098
3170.000000	0.004094
3169.000000	0.004087
3168.000000	0.004070
3167.000000	0.004045
3166.000000	0.004026
3165.000000	0.004021
3164.000000	0.004029
3163.000000	0.004038
3162.000000	0.004035
3161.000000	0.004016
3160.000000	0.003988
3159.000000	0.003965
3158.000000	0.003959
3157.000000	0.003970
3156.000000	0.003990
3155.000000	0.004009
3154.000000	0.004018
3153.000000	0.004013
3152.000000	0.003993
3151.000000	0.003970
3150.000000	0.003954
3149.000000	0.003955
3148.000000	0.003967
3147.000000	0.003979
3146.000000	0.003983
3145.000000	0.003976
3144.000000	0.003955
3143.000000	0.003927
3142.000000	0.003900
3141.000000	0.003884
3140.000000	0.003883
3139.000000	0.003895
3138.000000	0.003912
3137.000000	0.003924
3136.000000	0.003917
3135.000000	0.003883
3134.000000	0.003836
3133.000000	0.003799
3132.000000	0.003787
3131.000000	0.003797
3130.000000	0.003813
3129.000000	0.003825
3128.000000	0.003834
3127.000000	0.003843
3126.000000	0.003850
3125.000000	0.003850
3124.000000	0.003841
3123.000000	0.003834
3122.000000	0.003839
3121.000000	0.003856
3120.000000	0.003872
3119.000000	0.003879
3118.000000	0.003874
3117.000000	0.003865
3116.000000	0.003855
3115.000000	0.003843
3114.000000	0.003828
3113.000000	0.003814
3112.000000	0.003809
3111.000000	0.003816
3110.000000	0.003829
3109.000000	0.003836
3108.000000	0.003827
3107.000000	0.003801
3106.000000	0.003774
3105.000000	0.003759
3104.000000	0.003762
3103.000000	0.003775
3102.000000	0.003787
3101.000000	0.003789
3100.000000	0.003780
3099.000000	0.003769
3098.000000	0.003767
3097.000000	0.003779
3096.000000	0.003797
3095.000000	0.003813
3094.000000	0.003824
3093.000000	0.003834
3092.000000	0.003845
3091.000000	0.003848
3090.000000	0.003836
3089.000000	0.003811
3088.000000	0.003785
3087.000000	0.003770
3086.000000	0.003773
3085.000000	0.003789
3084.000000	0.003808
3083.000000	0.003822
3082.000000	0.003828
3081.000000	0.003828
3080.000000	0.003826
3079.000000	0.003826
3078.000000	0.003829
3077.000000	0.003833
3076.000000	0.003831
3075.000000	0.003821
3074.000000	0.003810
3073.000000	0.003807
3072.000000	0.003811
3071.000000	0.003815
3070.000000	0.003810
3069.000000	0.003801
3068.000000	0.003796
3067.000000	0.003802
3066.000000	0.003819
3065.000000	0.003841
3064.000000	0.003855
3063.000000	0.003857
3062.000000	0.003844
3061.000000	0.003823
3060.000000	0.003802
3059.000000	0.003788
3058.000000	0.003783
3057.000000	0.003782
3056.000000	0.003780
3055.000000	0.003777
3054.000000	0.003773
3053.000000	0.003761
3052.000000	0.003734
3051.000000	0.003695
3050.000000	0.003664
3049.000000	0.003659
3048.000000	0.003678
3047.000000	0.003702
3046.000000	0.003718
3045.000000	0.003724
3044.000000	0.003727
3043.000000	0.003731
3042.000000	0.003732
3041.000000	0.003726
3040.000000	0.003710
3039.000000	0.003682
3038.000000	0.003647
3037.000000	0.003618
3036.000000	0.003604
3035.000000	0.003607
3034.000000	0.003622
3033.000000	0.003641
3032.000000	0.003653
3031.000000	0.003650
3030.000000	0.003635
3029.000000	0.003615
3028.000000	0.003603
3027.000000	0.003603
3026.000000	0.003611
3025.000000	0.003619
3024.000000	0.003618
3023.000000	0.003603
3022.000000	0.003581
3021.000000	0.003562
3020.000000	0.003555
3019.000000	0.003555
3018.000000	0.003558
3017.000000	0.003563
3016.000000	0.003575
3015.000000	0.003593
3014.000000	0.003613
3013.000000	0.003628
3012.000000	0.003634
3011.000000	0.003639
3010.000000	0.003653
3009.000000	0.003679
3008.000000	0.003711
3007.000000	0.003738
3006.000000	0.003758
3005.000000	0.003778
3004.000000	0.003802
3003.000000	0.003824
3002.000000	0.003835
3001.000000	0.003842
3000.000000	0.003858
2999.000000	0.003896
2998.000000	0.003949
2997.000000	0.003999
2996.000000	0.004037
2995.000000	0.004063
2994.000000	0.004088
2993.000000	0.004120
2992.000000	0.004160
2991.000000	0.004206
2990.000000	0.004254
2989.000000	0.004305
2988.000000	0.004361
2987.000000	0.004421
2986.000000	0.004483
2985.000000	0.004546
2984.000000	0.004612
2983.000000	0.004684
2982.000000	0.004764
2981.000000	0.004850
2980.000000	0.004941
2979.000000	0.005041
2978.000000	0.005154
2977.000000	0.005277
2976.000000	0.005400
2975.000000	0.005516
2974.000000	0.005628
2973.000000	0.005742
2972.000000	0.005863
2971.000000	0.005989
2970.000000	0.006116
2969.000000	0.006243
2968.000000	0.006369
2967.000000	0.006493
2966.000000	0.006616
2965.000000	0.006741
2964.000000	0.006866
2963.000000	0.006987
2962.000000	0.007100
2961.000000	0.007197
2960.000000	0.007271
2959.000000	0.007312
2958.000000	0.007322
2957.000000	0.007309
2956.000000	0.007281
2955.000000	0.007237
2954.000000	0.007172
2953.000000	0.007088
2952.000000	0.006997
2951.000000	0.006919
2950.000000	0.006869
2949.000000	0.006851
2948.000000	0.006859
2947.000000	0.006886
2946.000000	0.006932
2945.000000	0.006997
2944.000000	0.007077
2943.000000	0.007165
2942.000000	0.007258
2941.000000	0.007361
2940.000000	0.007481
2939.000000	0.007614
2938.000000	0.007751
2937.000000	0.007888
2936.000000	0.008020
2935.000000	0.008148
2934.000000	0.008267
2933.000000	0.008366
2932.000000	0.008436
2931.000000	0.008476
2930.000000	0.008494
2929.000000	0.008499
2928.000000	0.008492
2927.000000	0.008470
2926.000000	0.008434
2925.000000	0.008388
2924.000000	0.008330
2923.000000	0.008249
2922.000000	0.008140
2921.000000	0.008009
2920.000000	0.007873
2919.000000	0.007750
2918.000000	0.007647
2917.000000	0.007565
2916.000000	0.007497
2915.000000	0.007435
2914.000000	0.007370
2913.000000	0.007300
2912.000000	0.007227
2911.000000	0.007155
2910.000000	0.007083
2909.000000	0.007015
2908.000000	0.006950
2907.000000	0.006888
2906.000000	0.006825
2905.000000	0.006754
2904.000000	0.006666
2903.000000	0.006563
2902.000000	0.006455
2901.000000	0.006353
2900.000000	0.006259
2899.000000	0.006166
2898.000000	0.006069
2897.000000	0.005972
2896.000000	0.005886
2895.000000	0.005812
2894.000000	0.005747
2893.000000	0.005683
2892.000000	0.005614
2891.000000	0.005540
2890.000000	0.005467
2889.000000	0.005413
2888.000000	0.005389
2887.000000	0.005392
2886.000000	0.005403
2885.000000	0.005407
2884.000000	0.005405
2883.000000	0.005405
2882.000000	0.005420
2881.000000	0.005456
2880.000000	0.005520
2879.000000	0.005608
2878.000000	0.005703
2877.000000	0.005793
2876.000000	0.005870
2875.000000	0.005937
2874.000000	0.005994
2873.000000	0.006036
2872.000000	0.006058
2871.000000	0.006063
2870.000000	0.006056
2869.000000	0.006047
2868.000000	0.006044
2867.000000	0.006054
2866.000000	0.006083
2865.000000	0.006129
2864.000000	0.006186
2863.000000	0.006247
2862.000000	0.006308
2861.000000	0.006363
2860.000000	0.006412
2859.000000	0.006454
2858.000000	0.006485
2857.000000	0.006495
2856.000000	0.006475
2855.000000	0.006419
2854.000000	0.006332
2853.000000	0.006216
2852.000000	0.006076
2851.000000	0.005919
2850.000000	0.005759
2849.000000	0.005611
2848.000000	0.005486
2847.000000	0.005383
2846.000000	0.005297
2845.000000	0.005221
2844.000000	0.005144
2843.000000	0.005060
2842.000000	0.004965
2841.000000	0.004867
2840.000000	0.004775
2839.000000	0.004691
2838.000000	0.004614
2837.000000	0.004542
2836.000000	0.004476
2835.000000	0.004420
2834.000000	0.004378
2833.000000	0.004349
2832.000000	0.004332
2831.000000	0.004318
2830.000000	0.004299
2829.000000	0.004274
2828.000000	0.004247
2827.000000	0.004226
2826.000000	0.004212
2825.000000	0.004206
2824.000000	0.004206
2823.000000	0.004211
2822.000000	0.004221
2821.000000	0.004225
2820.000000	0.004216
2819.000000	0.004187
2818.000000	0.004147
2817.000000	0.004111
2816.000000	0.004091
2815.000000	0.004088
2814.000000	0.004092
2813.000000	0.004089
2812.000000	0.004070
2811.000000	0.004039
2810.000000	0.004010
2809.000000	0.003998
2808.000000	0.004003
2807.000000	0.004017
2806.000000	0.004026
2805.000000	0.004021
2804.000000	0.004002
2803.000000	0.003972
2802.000000	0.003939
2801.000000	0.003910
2800.000000	0.003893
2799.000000	0.003890
2798.000000	0.003900
2797.000000	0.003912
2796.000000	0.003918
2795.000000	0.003914
2794.000000	0.003904
2793.000000	0.003894
2792.000000	0.003888
2791.000000	0.003884
2790.000000	0.003878
2789.000000	0.003865
2788.000000	0.003846
2787.000000	0.003824
2786.000000	0.003803
2785.000000	0.003788
2784.000000	0.003783
2783.000000	0.003789
2782.000000	0.003798
2781.000000	0.003799
2780.000000	0.003788
2779.000000	0.003771
2778.000000	0.003761
2777.000000	0.003766
2776.000000	0.003785
2775.000000	0.003805
2774.000000	0.003816
2773.000000	0.003812
2772.000000	0.003795
2771.000000	0.003772
2770.000000	0.003752
2769.000000	0.003739
2768.000000	0.003733
2767.000000	0.003730
2766.000000	0.003726
2765.000000	0.003720
2764.000000	0.003711
2763.000000	0.003701
2762.000000	0.003698
2761.000000	0.003707
2760.000000	0.003728
2759.000000	0.003757
2758.000000	0.003783
2757.000000	0.003796
2756.000000	0.003789
2755.000000	0.003764
2754.000000	0.003735
2753.000000	0.003716
2752.000000	0.003711
2751.000000	0.003716
2750.000000	0.003724
2749.000000	0.003732
2748.000000	0.003737
2747.000000	0.003732
2746.000000	0.003717
2745.000000	0.003700
2744.000000	0.003694
2743.000000	0.003706
2742.000000	0.003729
2741.000000	0.003746
2740.000000	0.003747
2739.000000	0.003729
2738.000000	0.003704
2737.000000	0.003678
2736.000000	0.003653
2735.000000	0.003627
2734.000000	0.003607
2733.000000	0.003597
2732.000000	0.003601
2731.000000	0.003612
2730.000000	0.003623
2729.000000	0.003632
2728.000000	0.003639
2727.000000	0.003642
2726.000000	0.003641
2725.000000	0.003638
2724.000000	0.003637
2723.000000	0.003639
2722.000000	0.003645
2721.000000	0.003649
2720.000000	0.003647
2719.000000	0.003639
2718.000000	0.003632
2717.000000	0.003631
2716.000000	0.003637
2715.000000	0.003639
2714.000000	0.003635
2713.000000	0.003622
2712.000000	0.003604
2711.000000	0.003584
2710.000000	0.003567
2709.000000	0.003563
2708.000000	0.003574
2707.000000	0.003585
2706.000000	0.003587
2705.000000	0.003580
2704.000000	0.003576
2703.000000	0.003579
2702.000000	0.003584
2701.000000	0.003583
2700.000000	0.003580
2699.000000	0.003581
2698.000000	0.003592
2697.000000	0.003607
2696.000000	0.003617
2695.000000	0.003614
2694.000000	0.003603
2693.000000	0.003593
2692.000000	0.003588
2691.000000	0.003578
2690.000000	0.003557
2689.000000	0.003532
2688.000000	0.003519
2687.000000	0.003524
2686.000000	0.003537
2685.000000	0.003544
2684.000000	0.003540
2683.000000	0.003534
2682.000000	0.003529
2681.000000	0.003525
2680.000000	0.003518
2679.000000	0.003510
2678.000000	0.003506
2677.000000	0.003512
2676.000000	0.003527
2675.000000	0.003544
2674.000000	0.003555
2673.000000	0.003552
2672.000000	0.003539
2671.000000	0.003524
2670.000000	0.003518
2669.000000	0.003521
2668.000000	0.003524
2667.000000	0.003524
2666.000000	0.003529
2665.000000	0.003546
2664.000000	0.003571
2663.000000	0.003594
2662.000000	0.003604
2661.000000	0.003604
2660.000000	0.003602
2659.000000	0.003598
2658.000000	0.003590
2657.000000	0.003574
2656.000000	0.003557
2655.000000	0.003550
2654.000000	0.003555
2653.000000	0.003562
2652.000000	0.003560
2651.000000	0.003541
2650.000000	0.003513
2649.000000	0.003491
2648.000000	0.003483
2647.000000	0.003488
2646.000000	0.003499
2645.000000	0.003509
2644.000000	0.003517
2643.000000	0.003523
2642.000000	0.003525
2641.000000	0.003520
2640.000000	0.003507
2639.000000	0.003482
2638.000000	0.003451
2637.000000	0.003427
2636.000000	0.003420
2635.000000	0.003428
2634.000000	0.003435
2633.000000	0.003427
2632.000000	0.003402
2631.000000	0.003373
2630.000000	0.003354
2629.000000	0.003354
2628.000000	0.003371
2627.000000	0.003397
2626.000000	0.003423
2625.000000	0.003437
2624.000000	0.003431
2623.000000	0.003408
2622.000000	0.003380
2621.000000	0.003358
2620.000000	0.003351
2619.000000	0.003354
2618.000000	0.003360
2617.000000	0.003367
2616.000000	0.003374
2615.000000	0.003378
2614.000000	0.003377
2613.000000	0.003371
2612.000000	0.003370
2611.000000	0.003386
2610.000000	0.003421
2609.000000	0.003458
2608.000000	0.003472
2607.000000	0.003447
2606.000000	0.003393
2605.000000	0.003335
2604.000000	0.003291
2603.000000	0.003269
2602.000000	0.003263
2601.000000	0.003272
2600.000000	0.003291
2599.000000	0.003311
2598.000000	0.003319
2597.000000	0.003307
2596.000000	0.003278
2595.000000	0.003244
2594.000000	0.003215
2593.000000	0.003195
2592.000000	0.003189
2591.000000	0.003195
2590.000000	0.003205
2589.000000	0.003213
2588.000000	0.003222
2587.000000	0.003240
2586.000000	0.003269
2585.000000	0.003292
2584.000000	0.003289
2583.000000	0.003264
2582.000000	0.003236
2581.000000	0.003223
2580.000000	0.003222
2579.000000	0.003219
2578.000000	0.003210
2577.000000	0.003198
2576.000000	0.003190
2575.000000	0.003192
2574.000000	0.003206
2573.000000	0.003230
2572.000000	0.003252
2571.000000	0.003261
2570.000000	0.003257
2569.000000	0.003250
2568.000000	0.003247
2567.000000	0.003246
2566.000000	0.003238
2565.000000	0.003220
2564.000000	0.003195
2563.000000	0.003169
2562.000000	0.003148
2561.000000	0.003134
2560.000000	0.003125
2559.000000	0.003121
2558.000000	0.003125
2557.000000	0.003137
2556.000000	0.003153
2555.000000	0.003165
2554.000000	0.003166
2553.000000	0.003153
2552.000000	0.003127
2551.000000	0.003090
2550.000000	0.003057
2549.000000	0.003044
2548.000000	0.003062
2547.000000	0.003112
2546.000000	0.003184
2545.000000	0.003256
2544.000000	0.003298
2543.000000	0.003296
2542.000000	0.003258
2541.000000	0.003214
2540.000000	0.003189
2539.000000	0.003186
2538.000000	0.003197
2537.000000	0.003215
2536.000000	0.003238
2535.000000	0.003269
2534.000000	0.003308
2533.000000	0.003345
2532.000000	0.003366
2531.000000	0.003367
2530.000000	0.003358
2529.000000	0.003352
2528.000000	0.003354
2527.000000	0.003358
2526.000000	0.003358
2525.000000	0.003353
2524.000000	0.003342
2523.000000	0.003322
2522.000000	0.003305
2521.000000	0.003306
2520.000000	0.003331
2519.000000	0.003362
2518.000000	0.003377
2517.000000	0.003371
2516.000000	0.003359
2515.000000	0.003361
2514.000000	0.003385
2513.000000	0.003421
2512.000000	0.003444
2511.000000	0.003436
2510.000000	0.003405
2509.000000	0.003375
2508.000000	0.003359
2507.000000	0.003344
2506.000000	0.003311
2505.000000	0.003256
2504.000000	0.003198
2503.000000	0.003160
2502.000000	0.003158
2501.000000	0.003190
2500.000000	0.003235
2499.000000	0.003268
2498.000000	0.003274
2497.000000	0.003263
2496.000000	0.003252
2495.000000	0.003248
2494.000000	0.003243
2493.000000	0.003229
2492.000000	0.003203
2491.000000	0.003169
2490.000000	0.003134
2489.000000	0.003109
2488.000000	0.003103
2487.000000	0.003108
2486.000000	0.003114
2485.000000	0.003119
2484.000000	0.003128
2483.000000	0.003140
2482.000000	0.003143
2481.000000	0.003131
2480.000000	0.003116
2479.000000	0.003111
2478.000000	0.003113
2477.000000	0.003099
2476.000000	0.003053
2475.000000	0.002987
2474.000000	0.002932
2473.000000	0.002916
2472.000000	0.002941
2471.000000	0.002983
2470.000000	0.003007
2469.000000	0.002997
2468.000000	0.002963
2467.000000	0.002932
2466.000000	0.002919
2465.000000	0.002928
2464.000000	0.002956
2463.000000	0.003004
2462.000000	0.003060
2461.000000	0.003100
2460.000000	0.003099
2459.000000	0.003059
2458.000000	0.003011
2457.000000	0.002989
2456.000000	0.003010
2455.000000	0.003066
2454.000000	0.003129
2453.000000	0.003168
2452.000000	0.003167
2451.000000	0.003135
2450.000000	0.003093
2449.000000	0.003064
2448.000000	0.003061
2447.000000	0.003080
2446.000000	0.003106
2445.000000	0.003118
2444.000000	0.003106
2443.000000	0.003080
2442.000000	0.003053
2441.000000	0.003027
2440.000000	0.003001
2439.000000	0.002986
2438.000000	0.002994
2437.000000	0.003022
2436.000000	0.003052
2435.000000	0.003076
2434.000000	0.003099
2433.000000	0.003117
2432.000000	0.003114
2431.000000	0.003081
2430.000000	0.003032
2429.000000	0.002996
2428.000000	0.002987
2427.000000	0.003003
2426.000000	0.003039
2425.000000	0.003089
2424.000000	0.003135
2423.000000	0.003151
2422.000000	0.003131
2421.000000	0.003091
2420.000000	0.003053
2419.000000	0.003022
2418.000000	0.002993
2417.000000	0.002962
2416.000000	0.002933
2415.000000	0.002917
2414.000000	0.002925
2413.000000	0.002957
2412.000000	0.003003
2411.000000	0.003041
2410.000000	0.003060
2409.000000	0.003056
2408.000000	0.003039
2407.000000	0.003018
2406.000000	0.002999
2405.000000	0.002980
2404.000000	0.002959
2403.000000	0.002939
2402.000000	0.002929
2401.000000	0.002926
2400.000000	0.002922
2399.000000	0.002917
2398.000000	0.002917
2397.000000	0.002929
2396.000000	0.002951
2395.000000	0.002979
2394.000000	0.003014
2393.000000	0.003054
2392.000000	0.003085
2391.000000	0.003095
2390.000000	0.003091
2389.000000	0.003081
2388.000000	0.003060
2387.000000	0.003016
2386.000000	0.002950
2385.000000	0.002876
2384.000000	0.002807
2383.000000	0.002748
2382.000000	0.002704
2381.000000	0.002680
2380.000000	0.002671
2379.000000	0.002667
2378.000000	0.002664
2377.000000	0.002667
2376.000000	0.002687
2375.000000	0.002727
2374.000000	0.002778
2373.000000	0.002811
2372.000000	0.002799
2371.000000	0.002748
2370.000000	0.002697
2369.000000	0.002671
2368.000000	0.002663
2367.000000	0.002661
2366.000000	0.002676
2365.000000	0.002712
2364.000000	0.002752
2363.000000	0.002786
2362.000000	0.002827
2361.000000	0.002871
2360.000000	0.002889
2359.000000	0.002858
2358.000000	0.002796
2357.000000	0.002747
2356.000000	0.002732
2355.000000	0.002764
2354.000000	0.002817
2353.000000	0.002844
2352.000000	0.002827
2351.000000	0.002796
2350.000000	0.002799
2349.000000	0.002853
2348.000000	0.002938
2347.000000	0.002996
2346.000000	0.002984
2345.000000	0.002927
2344.000000	0.002883
2343.000000	0.002884
2342.000000	0.002894
2341.000000	0.002881
2340.000000	0.002867
2339.000000	0.002885
2338.000000	0.002927
2337.000000	0.002951
2336.000000	0.002940
2335.000000	0.002908
2334.000000	0.002875
2333.000000	0.002847
2332.000000	0.002847
2331.000000	0.002875
2330.000000	0.002925
2329.000000	0.002959
2328.000000	0.002987
2327.000000	0.003022
2326.000000	0.003072
2325.000000	0.003113
2324.000000	0.003124
2323.000000	0.003094
2322.000000	0.003040
2321.000000	0.002994
2320.000000	0.002987
2319.000000	0.003017
2318.000000	0.003067
2317.000000	0.003110
2316.000000	0.003134
2315.000000	0.003123
2314.000000	0.003084
2313.000000	0.003025
2312.000000	0.002967
2311.000000	0.002910
2310.000000	0.002864
2309.000000	0.002835
2308.000000	0.002838
2307.000000	0.002858
2306.000000	0.002875
2305.000000	0.002875
2304.000000	0.002871
2303.000000	0.002869
2302.000000	0.002873
2301.000000	0.002883
2300.000000	0.002907
2299.000000	0.002943
2298.000000	0.002981
2297.000000	0.002999
2296.000000	0.002993
2295.000000	0.002972
2294.000000	0.002958
2293.000000	0.002961
2292.000000	0.002974
2291.000000	0.002981
2290.000000	0.002984
2289.000000	0.002997
2288.000000	0.003031
2287.000000	0.003069
2286.000000	0.003092
2285.000000	0.003097
2284.000000	0.003093
2283.000000	0.003081
2282.000000	0.003057
2281.000000	0.003030
2280.000000	0.003016
2279.000000	0.003024
2278.000000	0.003048
2277.000000	0.003076
2276.000000	0.003098
2275.000000	0.003098
2274.000000	0.003069
2273.000000	0.003022
2272.000000	0.002982
2271.000000	0.002964
2270.000000	0.002974
2269.000000	0.003005
2268.000000	0.003027
2267.000000	0.002990
2266.000000	0.002875
2265.000000	0.002729
2264.000000	0.002646
2263.000000	0.002684
2262.000000	0.002831
2261.000000	0.003020
2260.000000	0.003180
2259.000000	0.003268
2258.000000	0.003281
2257.000000	0.003244
2256.000000	0.003171
2255.000000	0.003054
2254.000000	0.002901
2253.000000	0.002765
2252.000000	0.002699
2251.000000	0.002693
2250.000000	0.002692
2249.000000	0.002672
2248.000000	0.002667
2247.000000	0.002713
2246.000000	0.002793
2245.000000	0.002853
2244.000000	0.002856
2243.000000	0.002810
2242.000000	0.002763
2241.000000	0.002773
2240.000000	0.002860
2239.000000	0.002981
2238.000000	0.003060
2237.000000	0.003060
2236.000000	0.003015
2235.000000	0.002989
2234.000000	0.003012
2233.000000	0.003071
2232.000000	0.003123
2231.000000	0.003129
2230.000000	0.003070
2229.000000	0.002954
2228.000000	0.002808
2227.000000	0.002679
2226.000000	0.002627
2225.000000	0.002700
2224.000000	0.002870
2223.000000	0.003037
2222.000000	0.003107
2221.000000	0.003074
2220.000000	0.002985
2219.000000	0.002863
2218.000000	0.002706
2217.000000	0.002553
2216.000000	0.002479
2215.000000	0.002510
2214.000000	0.002578
2213.000000	0.002603
2212.000000	0.002575
2211.000000	0.002544
2210.000000	0.002551
2209.000000	0.002592
2208.000000	0.002641
2207.000000	0.002676
2206.000000	0.002684
2205.000000	0.002667
2204.000000	0.002637
2203.000000	0.002617
2202.000000	0.002627
2201.000000	0.002671
2200.000000	0.002735
2199.000000	0.002794
2198.000000	0.002846
2197.000000	0.002916
2196.000000	0.003011
2195.000000	0.003080
2194.000000	0.003057
2193.000000	0.002942
2192.000000	0.002802
2191.000000	0.002691
2190.000000	0.002610
2189.000000	0.002554
2188.000000	0.002543
2187.000000	0.002587
2186.000000	0.002657
2185.000000	0.002709
2184.000000	0.002729
2183.000000	0.002700
2182.000000	0.002595
2181.000000	0.002436
2180.000000	0.002328
2179.000000	0.002374
2178.000000	0.002565
2177.000000	0.002781
2176.000000	0.002895
2175.000000	0.002860
2174.000000	0.002700
2173.000000	0.002475
2172.000000	0.002260
2171.000000	0.002135
2170.000000	0.002143
2169.000000	0.002257
2168.000000	0.002382
2167.000000	0.002420
2166.000000	0.002364
2165.000000	0.002333
2164.000000	0.002465
2163.000000	0.002772
2162.000000	0.003112
2161.000000	0.003327
2160.000000	0.003352
2159.000000	0.003190
2158.000000	0.002835
2157.000000	0.002349
2156.000000	0.001926
2155.000000	0.001762
2154.000000	0.001887
2153.000000	0.002160
2152.000000	0.002423
2151.000000	0.002610
2150.000000	0.002712
2149.000000	0.002700
2148.000000	0.002541
2147.000000	0.002274
2146.000000	0.002010
2145.000000	0.001860
2144.000000	0.001880
2143.000000	0.002050
2142.000000	0.002294
2141.000000	0.002507
2140.000000	0.002603
2139.000000	0.002574
2138.000000	0.002490
2137.000000	0.002432
2136.000000	0.002433
2135.000000	0.002462
2134.000000	0.002469
2133.000000	0.002423
2132.000000	0.002340
2131.000000	0.002261
2130.000000	0.002236
2129.000000	0.002294
2128.000000	0.002433
2127.000000	0.002603
2126.000000	0.002733
2125.000000	0.002778
2124.000000	0.002763
2123.000000	0.002769
2122.000000	0.002848
2121.000000	0.002970
2120.000000	0.003057
2119.000000	0.003062
2118.000000	0.003012
2117.000000	0.002960
2116.000000	0.002929
2115.000000	0.002912
2114.000000	0.002900
2113.000000	0.002901
2112.000000	0.002926
2111.000000	0.002973
2110.000000	0.003030
2109.000000	0.003087
2108.000000	0.003128
2107.000000	0.003131
2106.000000	0.003076
2105.000000	0.002974
2104.000000	0.002882
2103.000000	0.002859
2102.000000	0.002909
2101.000000	0.002966
2100.000000	0.002958
2099.000000	0.002888
2098.000000	0.002829
2097.000000	0.002837
2096.000000	0.002894
2095.000000	0.002943
2094.000000	0.002949
2093.000000	0.002916
2092.000000	0.002865
2091.000000	0.002812
2090.000000	0.002777
2089.000000	0.002772
2088.000000	0.002807
2087.000000	0.002889
2086.000000	0.003011
2085.000000	0.003135
2084.000000	0.003199
2083.000000	0.003169
2082.000000	0.003072
2081.000000	0.002964
2080.000000	0.002883
2079.000000	0.002851
2078.000000	0.002882
2077.000000	0.002966
2076.000000	0.003038
2075.000000	0.003015
2074.000000	0.002887
2073.000000	0.002732
2072.000000	0.002639
2071.000000	0.002641
2070.000000	0.002711
2069.000000	0.002807
2068.000000	0.002892
2067.000000	0.002942
2066.000000	0.002963
2065.000000	0.002976
2064.000000	0.002984
2063.000000	0.002956
2062.000000	0.002858
2061.000000	0.002690
2060.000000	0.002508
2059.000000	0.002391
2058.000000	0.002403
2057.000000	0.002543
2056.000000	0.002740
2055.000000	0.002912
2054.000000	0.003031
2053.000000	0.003105
2052.000000	0.003126
2051.000000	0.003058
2050.000000	0.002902
2049.000000	0.002734
2048.000000	0.002653
2047.000000	0.002686
2046.000000	0.002775
2045.000000	0.002827
2044.000000	0.002778
2043.000000	0.002625
2042.000000	0.002425
2041.000000	0.002255
2040.000000	0.002171
2039.000000	0.002197
2038.000000	0.002342
2037.000000	0.002564
2036.000000	0.002745
2035.000000	0.002758
2034.000000	0.002589
2033.000000	0.002336
2032.000000	0.002096
2031.000000	0.001911
2030.000000	0.001820
2029.000000	0.001852
2028.000000	0.001950
2027.000000	0.001996
2026.000000	0.001941
2025.000000	0.001860
2024.000000	0.001841
2023.000000	0.001896
2022.000000	0.001994
2021.000000	0.002101
2020.000000	0.002143
2019.000000	0.002024
2018.000000	0.001760
2017.000000	0.001533
2016.000000	0.001531
2015.000000	0.001749
2014.000000	0.002021
2013.000000	0.002202
2012.000000	0.002267
2011.000000	0.002278
2010.000000	0.002275
2009.000000	0.002230
2008.000000	0.002097
2007.000000	0.001912
2006.000000	0.001806
2005.000000	0.001854
2004.000000	0.001959
2003.000000	0.001975
2002.000000	0.001923
2001.000000	0.001972
2000.000000	0.002199
1999.000000	0.002474
1998.000000	0.002619
1997.000000	0.002605
1996.000000	0.002525
1995.000000	0.002445
1994.000000	0.002377
1993.000000	0.002344
1992.000000	0.002374
1991.000000	0.002423
1990.000000	0.002420
1989.000000	0.002374
1988.000000	0.002358
1987.000000	0.002405
1986.000000	0.002470
1985.000000	0.002503
1984.000000	0.002502
1983.000000	0.002485
1982.000000	0.002456
1981.000000	0.002415
1980.000000	0.002348
1979.000000	0.002213
1978.000000	0.001987
1977.000000	0.001743
1976.000000	0.001613
1975.000000	0.001660
1974.000000	0.001862
1973.000000	0.002152
1972.000000	0.002438
1971.000000	0.002605
1970.000000	0.002600
1969.000000	0.002516
1968.000000	0.002516
1967.000000	0.002648
1966.000000	0.002774
1965.000000	0.002734
1964.000000	0.002514
1963.000000	0.002227
1962.000000	0.001988
1961.000000	0.001844
1960.000000	0.001776
1959.000000	0.001742
1958.000000	0.001724
1957.000000	0.001745
1956.000000	0.001826
1955.000000	0.001951
1954.000000	0.002062
1953.000000	0.002110
1952.000000	0.002101
1951.000000	0.002069
1950.000000	0.002033
1949.000000	0.001975
1948.000000	0.001890
1947.000000	0.001824
1946.000000	0.001849
1945.000000	0.001982
1944.000000	0.002150
1943.000000	0.002249
1942.000000	0.002233
1941.000000	0.002144
1940.000000	0.002047
1939.000000	0.001977
1938.000000	0.001952
1937.000000	0.001991
1936.000000	0.002079
1935.000000	0.002165
1934.000000	0.002208
1933.000000	0.002217
1932.000000	0.002228
1931.000000	0.002256
1930.000000	0.002279
1929.000000	0.002279
1928.000000	0.002268
1927.000000	0.002267
1926.000000	0.002265
1925.000000	0.002228
1924.000000	0.002148
1923.000000	0.002072
1922.000000	0.002070
1921.000000	0.002167
1920.000000	0.002313
1919.000000	0.002424
1918.000000	0.002429
1917.000000	0.002323
1916.000000	0.002180
1915.000000	0.002090
1914.000000	0.002087
1913.000000	0.002146
1912.000000	0.002200
1911.000000	0.002206
1910.000000	0.002172
1909.000000	0.002138
1908.000000	0.002118
1907.000000	0.002107
1906.000000	0.002105
1905.000000	0.002117
1904.000000	0.002127
1903.000000	0.002104
1902.000000	0.002058
1901.000000	0.002041
1900.000000	0.002088
1899.000000	0.002160
1898.000000	0.002196
1897.000000	0.002183
1896.000000	0.002164
1895.000000	0.002176
1894.000000	0.002199
1893.000000	0.002186
1892.000000	0.002125
1891.000000	0.002051
1890.000000	0.002019
1889.000000	0.002051
1888.000000	0.002112
1887.000000	0.002156
1886.000000	0.002172
1885.000000	0.002189
1884.000000	0.002229
1883.000000	0.002272
1882.000000	0.002283
1881.000000	0.002254
1880.000000	0.002220
1879.000000	0.002209
1878.000000	0.002213
1877.000000	0.002201
1876.000000	0.002151
1875.000000	0.002079
1874.000000	0.002023
1873.000000	0.002006
1872.000000	0.002020
1871.000000	0.002042
1870.000000	0.002060
1869.000000	0.002084
1868.000000	0.002113
1867.000000	0.002137
1866.000000	0.002152
1865.000000	0.002167
1864.000000	0.002181
1863.000000	0.002168
1862.000000	0.002106
1861.000000	0.002013
1860.000000	0.001945
1859.000000	0.001938
1858.000000	0.001982
1857.000000	0.002040
1856.000000	0.002074
1855.000000	0.002071
1854.000000	0.002041
1853.000000	0.002023
1852.000000	0.002045
1851.000000	0.002089
1850.000000	0.002112
1849.000000	0.002093
1848.000000	0.002053
1847.000000	0.002016
1846.000000	0.001984
1845.000000	0.001951
1844.000000	0.001926
1843.000000	0.001921
1842.000000	0.001928
1841.000000	0.001932
1840.000000	0.001932
1839.000000	0.001946
1838.000000	0.001980
1837.000000	0.002017
1836.000000	0.002019
1835.000000	0.001976
1834.000000	0.001919
1833.000000	0.001885
1832.000000	0.001886
1831.000000	0.001904
1830.000000	0.001927
1829.000000	0.001947
1828.000000	0.001957
1827.000000	0.001946
1826.000000	0.001921
1825.000000	0.001904
1824.000000	0.001904
1823.000000	0.001911
1822.000000	0.001915
1821.000000	0.001917
1820.000000	0.001921
1819.000000	0.001925
1818.000000	0.001927
1817.000000	0.001929
1816.000000	0.001929
1815.000000	0.001917
1814.000000	0.001884
1813.000000	0.001842
1812.000000	0.001815
1811.000000	0.001821
1810.000000	0.001849
1809.000000	0.001870
1808.000000	0.001871
1807.000000	0.001871
1806.000000	0.001894
1805.000000	0.001950
1804.000000	0.002034
1803.000000	0.002128
1802.000000	0.002217
1801.000000	0.002291
1800.000000	0.002347
1799.000000	0.002385
1798.000000	0.002404
1797.000000	0.002410
1796.000000	0.002413
1795.000000	0.002412
1794.000000	0.002386
1793.000000	0.002328
1792.000000	0.002260
1791.000000	0.002212
1790.000000	0.002173
1789.000000	0.002120
1788.000000	0.002053
1787.000000	0.001989
1786.000000	0.001943
1785.000000	0.001917
1784.000000	0.001911
1783.000000	0.001919
1782.000000	0.001932
1781.000000	0.001943
1780.000000	0.001954
1779.000000	0.001961
1778.000000	0.001952
1777.000000	0.001917
1776.000000	0.001860
1775.000000	0.001800
1774.000000	0.001766
1773.000000	0.001793
1772.000000	0.001868
1771.000000	0.001927
1770.000000	0.001942
1769.000000	0.001937
1768.000000	0.001943
1767.000000	0.001975
1766.000000	0.002031
1765.000000	0.002108
1764.000000	0.002206
1763.000000	0.002329
1762.000000	0.002485
1761.000000	0.002677
1760.000000	0.002895
1759.000000	0.003137
1758.000000	0.003425
1757.000000	0.003807
1756.000000	0.004283
1755.000000	0.004790
1754.000000	0.005300
1753.000000	0.005858
1752.000000	0.006521
1751.000000	0.007271
1750.000000	0.008022
1749.000000	0.008724
1748.000000	0.009353
1747.000000	0.009870
1746.000000	0.010276
1745.000000	0.010619
1744.000000	0.010930
1743.000000	0.011196
1742.000000	0.011414
1741.000000	0.011594
1740.000000	0.011717
1739.000000	0.011743
1738.000000	0.011678
1737.000000	0.011557
1736.000000	0.011367
1735.000000	0.011049
1734.000000	0.010594
1733.000000	0.010123
1732.000000	0.009705
1731.000000	0.009281
1730.000000	0.008807
1729.000000	0.008306
1728.000000	0.007815
1727.000000	0.007343
1726.000000	0.006900
1725.000000	0.006497
1724.000000	0.006126
1723.000000	0.005764
1722.000000	0.005414
1721.000000	0.005092
1720.000000	0.004777
1719.000000	0.004448
1718.000000	0.004155
1717.000000	0.003975
1716.000000	0.003892
1715.000000	0.003822
1714.000000	0.003718
1713.000000	0.003595
1712.000000	0.003485
1711.000000	0.003404
1710.000000	0.003352
1709.000000	0.003325
1708.000000	0.003300
1707.000000	0.003260
1706.000000	0.003223
1705.000000	0.003229
1704.000000	0.003281
1703.000000	0.003346
1702.000000	0.003409
1701.000000	0.003484
1700.000000	0.003581
1699.000000	0.003678
1698.000000	0.003750
1697.000000	0.003807
1696.000000	0.003865
1695.000000	0.003940
1694.000000	0.004032
1693.000000	0.004127
1692.000000	0.004207
1691.000000	0.004274
1690.000000	0.004354
1689.000000	0.004464
1688.000000	0.004576
1687.000000	0.004657
1686.000000	0.004705
1685.000000	0.004779
1684.000000	0.004931
1683.000000	0.005106
1682.000000	0.005247
1681.000000	0.005371
1680.000000	0.005484
1679.000000	0.005586
1678.000000	0.005686
1677.000000	0.005814
1676.000000	0.005980
1675.000000	0.006154
1674.000000	0.006295
1673.000000	0.006410
1672.000000	0.006524
1671.000000	0.006653
1670.000000	0.006827
1669.000000	0.007053
1668.000000	0.007280
1667.000000	0.007452
1666.000000	0.007575
1665.000000	0.007685
1664.000000	0.007811
1663.000000	0.007963
1662.000000	0.008130
1661.000000	0.008292
1660.000000	0.008427
1659.000000	0.008519
1658.000000	0.008585
1657.000000	0.008659
1656.000000	0.008749
1655.000000	0.008827
1654.000000	0.008880
1653.000000	0.008933
1652.000000	0.009004
1651.000000	0.009061
1650.000000	0.009114
1649.000000	0.009166
1648.000000	0.009228
1647.000000	0.009284
1646.000000	0.009312
1645.000000	0.009336
1644.000000	0.009378
1643.000000	0.009422
1642.000000	0.009449
1641.000000	0.009463
1640.000000	0.009473
1639.000000	0.009487
1638.000000	0.009507
1637.000000	0.009541
1636.000000	0.009580
1635.000000	0.009573
1634.000000	0.009526
1633.000000	0.009491
1632.000000	0.009485
1631.000000	0.009479
1630.000000	0.009443
1629.000000	0.009376
1628.000000	0.009309
1627.000000	0.009262
1626.000000	0.009225
1625.000000	0.009173
1624.000000	0.009084
1623.000000	0.008948
1622.000000	0.008796
1621.000000	0.008669
1620.000000	0.008566
1619.000000	0.008448
1618.000000	0.008273
1617.000000	0.008044
1616.000000	0.007817
1615.000000	0.007634
1614.000000	0.007483
1613.000000	0.007340
1612.000000	0.007188
1611.000000	0.007032
1610.000000	0.006884
1609.000000	0.006751
1608.000000	0.006619
1607.000000	0.006470
1606.000000	0.006312
1605.000000	0.006174
1604.000000	0.006060
1603.000000	0.005948
1602.000000	0.005819
1601.000000	0.005687
1600.000000	0.005574
1599.000000	0.005488
1598.000000	0.005424
1597.000000	0.005371
1596.000000	0.005322
1595.000000	0.005273
1594.000000	0.005228
1593.000000	0.005189
1592.000000	0.005153
1591.000000	0.005119
1590.000000	0.005096
1589.000000	0.005089
1588.000000	0.005088
1587.000000	0.005074
1586.000000	0.005047
1585.000000	0.005027
1584.000000	0.005025
1583.000000	0.005028
1582.000000	0.005021
1581.000000	0.005004
1580.000000	0.004988
1579.000000	0.004983
1578.000000	0.005005
1577.000000	0.005082
1576.000000	0.005212
1575.000000	0.005339
1574.000000	0.005439
1573.000000	0.005529
1572.000000	0.005610
1571.000000	0.005676
1570.000000	0.005738
1569.000000	0.005820
1568.000000	0.005920
1567.000000	0.006022
1566.000000	0.006127
1565.000000	0.006239
1564.000000	0.006348
1563.000000	0.006436
1562.000000	0.006512
1561.000000	0.006611
1560.000000	0.006780
1559.000000	0.007026
1558.000000	0.007163
1557.000000	0.007215
1556.000000	0.007277
1555.000000	0.007369
1554.000000	0.007493
1553.000000	0.007636
1552.000000	0.007771
1551.000000	0.007893
1550.000000	0.008013
1549.000000	0.008130
1548.000000	0.008224
1547.000000	0.008286
1546.000000	0.008343
1545.000000	0.008431
1544.000000	0.008546
1543.000000	0.008657
1542.000000	0.008764
1541.000000	0.008891
1540.000000	0.009015
1539.000000	0.009076
1538.000000	0.009113
1537.000000	0.009182
1536.000000	0.009273
1535.000000	0.009354
1534.000000	0.009414
1533.000000	0.009461
1532.000000	0.009503
1531.000000	0.009541
1530.000000	0.009568
1529.000000	0.009586
1528.000000	0.009614
1527.000000	0.009667
1526.000000	0.009737
1525.000000	0.009797
1524.000000	0.009821
1523.000000	0.009805
1522.000000	0.009780
1521.000000	0.009776
1520.000000	0.009796
1519.000000	0.009828
1518.000000	0.009869
1517.000000	0.009925
1516.000000	0.009979
1515.000000	0.010012
1514.000000	0.010035
1513.000000	0.010066
1512.000000	0.010099
1511.000000	0.010117
1510.000000	0.010113
1509.000000	0.010100
1508.000000	0.010094
1507.000000	0.010108
1506.000000	0.010149
1505.000000	0.010212
1504.000000	0.010250
1503.000000	0.010266
1502.000000	0.010289
1501.000000	0.010348
1500.000000	0.010426
1499.000000	0.010487
1498.000000	0.010540
1497.000000	0.010626
1496.000000	0.010732
1495.000000	0.010809
1494.000000	0.010856
1493.000000	0.010903
1492.000000	0.010963
1491.000000	0.011047
1490.000000	0.011173
1489.000000	0.011336
1488.000000	0.011497
1487.000000	0.011632
1486.000000	0.011746
1485.000000	0.011865
1484.000000	0.012001
1483.000000	0.012154
1482.000000	0.012338
1481.000000	0.012564
1480.000000	0.012799
1479.000000	0.013005
1478.000000	0.013194
1477.000000	0.013413
1476.000000	0.013677
1475.000000	0.013969
1474.000000	0.014298
1473.000000	0.014696
1472.000000	0.015109
1471.000000	0.015457
1470.000000	0.015751
1469.000000	0.016035
1468.000000	0.016319
1467.000000	0.016602
1466.000000	0.016899
1465.000000	0.017214
1464.000000	0.017484
1463.000000	0.017664
1462.000000	0.017790
1461.000000	0.017918
1460.000000	0.018067
1459.000000	0.018263
1458.000000	0.018591
1457.000000	0.019067
1456.000000	0.019463
1455.000000	0.019657
1454.000000	0.019759
1453.000000	0.019862
1452.000000	0.019982
1451.000000	0.020100
1450.000000	0.020223
1449.000000	0.020373
1448.000000	0.020541
1447.000000	0.020692
1446.000000	0.020822
1445.000000	0.020946
1444.000000	0.021061
1443.000000	0.021166
1442.000000	0.021281
1441.000000	0.021425
1440.000000	0.021577
1439.000000	0.021711
1438.000000	0.021861
1437.000000	0.022089
1436.000000	0.022346
1435.000000	0.022528
1434.000000	0.022634
1433.000000	0.022722
1432.000000	0.022813
1431.000000	0.022914
1430.000000	0.023055
1429.000000	0.023259
1428.000000	0.023486
1427.000000	0.023677
1426.000000	0.023827
1425.000000	0.023966
1424.000000	0.024080
1423.000000	0.024124
1422.000000	0.024118
1421.000000	0.024129
1420.000000	0.024204
1419.000000	0.024325
1418.000000	0.024432
1417.000000	0.024484
1416.000000	0.024463
1415.000000	0.024376
1414.000000	0.024258
1413.000000	0.024142
1412.000000	0.024013
1411.000000	0.023838
1410.000000	0.023624
1409.000000	0.023394
1408.000000	0.023145
1407.000000	0.022872
1406.000000	0.022598
1405.000000	0.022358
1404.000000	0.022151
1403.000000	0.021967
1402.000000	0.021814
1401.000000	0.021700
1400.000000	0.021606
1399.000000	0.021500
1398.000000	0.021382
1397.000000	0.021269
1396.000000	0.021160
1395.000000	0.021039
1394.000000	0.020917
1393.000000	0.020808
1392.000000	0.020694
1391.000000	0.020555
1390.000000	0.020400
1389.000000	0.020242
1388.000000	0.020072
1387.000000	0.019874
1386.000000	0.019665
1385.000000	0.019471
1384.000000	0.019291
1383.000000	0.019113
1382.000000	0.018940
1381.000000	0.018771
1380.000000	0.018589
1379.000000	0.018383
1378.000000	0.018158
1377.000000	0.017922
1376.000000	0.017670
1375.000000	0.017395
1374.000000	0.017114
1373.000000	0.016851
1372.000000	0.016606
1371.000000	0.016365
1370.000000	0.016123
1369.000000	0.015895
1368.000000	0.015690
1367.000000	0.015505
1366.000000	0.015333
1365.000000	0.015163
1364.000000	0.014985
1363.000000	0.014811
1362.000000	0.014658
1361.000000	0.014531
1360.000000	0.014419
1359.000000	0.014314
1358.000000	0.014223
1357.000000	0.014151
1356.000000	0.014089
1355.000000	0.014023
1354.000000	0.013947
1353.000000	0.013859
1352.000000	0.013758
1351.000000	0.013652
1350.000000	0.013549
1349.000000	0.013457
1348.000000	0.013384
1347.000000	0.013338
1346.000000	0.013323
1345.000000	0.013330
1344.000000	0.013342
1343.000000	0.013349
1342.000000	0.013357
1341.000000	0.013379
1340.000000	0.013422
1339.000000	0.013476
1338.000000	0.013530
1337.000000	0.013576
1336.000000	0.013607
1335.000000	0.013614
1334.000000	0.013590
1333.000000	0.013527
1332.000000	0.013430
1331.000000	0.013314
1330.000000	0.013194
1329.000000	0.013067
1328.000000	0.012930
1327.000000	0.012788
1326.000000	0.012659
1325.000000	0.012548
1324.000000	0.012445
1323.000000	0.012336
1322.000000	0.012222
1321.000000	0.012116
1320.000000	0.012023
1319.000000	0.011936
1318.000000	0.011842
1317.000000	0.011733
1316.000000	0.011609
1315.000000	0.011481
1314.000000	0.011358
1313.000000	0.011244
1312.000000	0.011136
1311.000000	0.011031
1310.000000	0.010928
1309.000000	0.010828
1308.000000	0.010730
1307.000000	0.010632
1306.000000	0.010524
1305.000000	0.010404
1304.000000	0.010275
1303.000000	0.010150
1302.000000	0.010034
1301.000000	0.009921
1300.000000	0.009808
1299.000000	0.009703
1298.000000	0.009616
1297.000000	0.009544
1296.000000	0.009474
1295.000000	0.009401
1294.000000	0.009331
1293.000000	0.009276
1292.000000	0.009243
1291.000000	0.009233
1290.000000	0.009235
1289.000000	0.009229
1288.000000	0.009204
1287.000000	0.009167
1286.000000	0.009132
1285.000000	0.009102
1284.000000	0.009073
1283.000000	0.009039
1282.000000	0.009006
1281.000000	0.008979
1280.000000	0.008965
1279.000000	0.008967
1278.000000	0.008986
1277.000000	0.009013
1276.000000	0.009039
1275.000000	0.009071
1274.000000	0.009121
1273.000000	0.009195
1272.000000	0.009297
1271.000000	0.009433
1270.000000	0.009607
1269.000000	0.009809
1268.000000	0.010020
1267.000000	0.010229
1266.000000	0.010437
1265.000000	0.010645
1264.000000	0.010841
1263.000000	0.011020
1262.000000	0.011194
1261.000000	0.011382
1260.000000	0.011590
1259.000000	0.011806
1258.000000	0.012019
1257.000000	0.012217
1256.000000	0.012387
1255.000000	0.012515
1254.000000	0.012603
1253.000000	0.012671
1252.000000	0.012734
1251.000000	0.012793
1250.000000	0.012833
1249.000000	0.012847
1248.000000	0.012845
1247.000000	0.012854
1246.000000	0.012892
1245.000000	0.012963
1244.000000	0.013054
1243.000000	0.013144
1242.000000	0.013211
1241.000000	0.013237
1240.000000	0.013227
1239.000000	0.013201
1238.000000	0.013174
1237.000000	0.013137
1236.000000	0.013071
1235.000000	0.012976
1234.000000	0.012863
1233.000000	0.012740
1232.000000	0.012605
1231.000000	0.012465
1230.000000	0.012328
1229.000000	0.012178
1228.000000	0.011977
1227.000000	0.011705
1226.000000	0.011376
1225.000000	0.011032
1224.000000	0.010703
1223.000000	0.010403
1222.000000	0.010132
1221.000000	0.009876
1220.000000	0.009625
1219.000000	0.009383
1218.000000	0.009170
1217.000000	0.008993
1216.000000	0.008839
1215.000000	0.008695
1214.000000	0.008573
1213.000000	0.008482
1212.000000	0.008421
1211.000000	0.008378
1210.000000	0.008349
1209.000000	0.008336
1208.000000	0.008338
1207.000000	0.008354
1206.000000	0.008388
1205.000000	0.008438
1204.000000	0.008494
1203.000000	0.008537
1202.000000	0.008566
1201.000000	0.008590
1200.000000	0.008624
1199.000000	0.008674
1198.000000	0.008737
1197.000000	0.008806
1196.000000	0.008871
1195.000000	0.008930
1194.000000	0.008987
1193.000000	0.009050
1192.000000	0.009128
1191.000000	0.009228
1190.000000	0.009349
1189.000000	0.009483
1188.000000	0.009616
1187.000000	0.009752
1186.000000	0.009912
1185.000000	0.010105
1184.000000	0.010314
1183.000000	0.010516
1182.000000	0.010713
1181.000000	0.010930
1180.000000	0.011185
1179.000000	0.011473
1178.000000	0.011778
1177.000000	0.012086
1176.000000	0.012387
1175.000000	0.012671
1174.000000	0.012932
1173.000000	0.013178
1172.000000	0.013426
1171.000000	0.013689
1170.000000	0.013967
1169.000000	0.014245
1168.000000	0.014507
1167.000000	0.014746
1166.000000	0.014962
1165.000000	0.015159
1164.000000	0.015336
1163.000000	0.015484
1162.000000	0.015596
1161.000000	0.015666
1160.000000	0.015692
1159.000000	0.015673
1158.000000	0.015624
1157.000000	0.015560
1156.000000	0.015483
1155.000000	0.015379
1154.000000	0.015236
1153.000000	0.015051
1152.000000	0.014838
1151.000000	0.014605
1150.000000	0.014356
1149.000000	0.014086
1148.000000	0.013797
1147.000000	0.013492
1146.000000	0.013175
1145.000000	0.012840
1144.000000	0.012489
1143.000000	0.012138
1142.000000	0.011805
1141.000000	0.011494
1140.000000	0.011200
1139.000000	0.010925
1138.000000	0.010669
1137.000000	0.010420
1136.000000	0.010163
1135.000000	0.009909
1134.000000	0.009683
1133.000000	0.009503
1132.000000	0.009359
1131.000000	0.009239
1130.000000	0.009140
1129.000000	0.009059
1128.000000	0.008984
1127.000000	0.008913
1126.000000	0.008865
1125.000000	0.008861
1124.000000	0.008911
1123.000000	0.009009
1122.000000	0.009142
1121.000000	0.009292
1120.000000	0.009441
1119.000000	0.009577
1118.000000	0.009714
1117.000000	0.009882
1116.000000	0.010103
1115.000000	0.010373
1114.000000	0.010658
1113.000000	0.010914
1112.000000	0.011121
1111.000000	0.011292
1110.000000	0.011445
1109.000000	0.011573
1108.000000	0.011645
1107.000000	0.011646
1106.000000	0.011594
1105.000000	0.011519
1104.000000	0.011443
1103.000000	0.011372
1102.000000	0.011315
1101.000000	0.011280
1100.000000	0.011275
1099.000000	0.011312
1098.000000	0.011396
1097.000000	0.011510
1096.000000	0.011623
1095.000000	0.011717
1094.000000	0.011794
1093.000000	0.011848
1092.000000	0.011856
1091.000000	0.011804
1090.000000	0.011710
1089.000000	0.011598
1088.000000	0.011466
1087.000000	0.011294
1086.000000	0.011075
1085.000000	0.010826
1084.000000	0.010567
1083.000000	0.010314
1082.000000	0.010081
1081.000000	0.009876
1080.000000	0.009695
1079.000000	0.009527
1078.000000	0.009363
1077.000000	0.009196
1076.000000	0.009019
1075.000000	0.008832
1074.000000	0.008648
1073.000000	0.008478
1072.000000	0.008327
1071.000000	0.008200
1070.000000	0.008106
1069.000000	0.008050
1068.000000	0.008023
1067.000000	0.008018
1066.000000	0.008031
1065.000000	0.008051
1064.000000	0.008055
1063.000000	0.008025
1062.000000	0.007978
1061.000000	0.007938
1060.000000	0.007909
1059.000000	0.007869
1058.000000	0.007793
1057.000000	0.007678
1056.000000	0.007542
1055.000000	0.007404
1054.000000	0.007282
1053.000000	0.007188
1052.000000	0.007127
1051.000000	0.007088
1050.000000	0.007050
1049.000000	0.007000
1048.000000	0.006939
1047.000000	0.006893
1046.000000	0.006888
1045.000000	0.006932
1044.000000	0.007010
1043.000000	0.007090
1042.000000	0.007151
1041.000000	0.007188
1040.000000	0.007217
1039.000000	0.007256
1038.000000	0.007311
1037.000000	0.007363
1036.000000	0.007396
1035.000000	0.007418
1034.000000	0.007447
1033.000000	0.007480
1032.000000	0.007495
1031.000000	0.007486
1030.000000	0.007473
1029.000000	0.007482
1028.000000	0.007516
1027.000000	0.007555
1026.000000	0.007582
1025.000000	0.007587
1024.000000	0.007568
1023.000000	0.007541
1022.000000	0.007533
1021.000000	0.007551
1020.000000	0.007567
1019.000000	0.007548
1018.000000	0.007495
1017.000000	0.007435
1016.000000	0.007384
1015.000000	0.007336
1014.000000	0.007281
1013.000000	0.007219
1012.000000	0.007145
1011.000000	0.007051
1010.000000	0.006938
1009.000000	0.006827
1008.000000	0.006732
1007.000000	0.006647
1006.000000	0.006554
1005.000000	0.006444
1004.000000	0.006322
1003.000000	0.006198
1002.000000	0.006079
1001.000000	0.005971
1000.000000	0.005879
999.000000	0.005802
998.000000	0.005734
997.000000	0.005663
996.000000	0.005579
995.000000	0.005488
994.000000	0.005403
993.000000	0.005339
992.000000	0.005303
991.000000	0.005293
990.000000	0.005300
989.000000	0.005308
988.000000	0.005298
987.000000	0.005263
986.000000	0.005219
985.000000	0.005189
984.000000	0.005181
983.000000	0.005177
982.000000	0.005153
981.000000	0.005110
980.000000	0.005077
979.000000	0.005088
978.000000	0.005149
977.000000	0.005236
976.000000	0.005315
975.000000	0.005367
974.000000	0.005392
973.000000	0.005404
972.000000	0.005425
971.000000	0.005466
970.000000	0.005522
969.000000	0.005580
968.000000	0.005625
967.000000	0.005648
966.000000	0.005642
965.000000	0.005605
964.000000	0.005542
963.000000	0.005467
962.000000	0.005394
961.000000	0.005331
960.000000	0.005281
959.000000	0.005235
958.000000	0.005179
957.000000	0.005100
956.000000	0.005006
955.000000	0.004927
954.000000	0.004871
953.000000	0.004809
952.000000	0.004703
951.000000	0.004567
950.000000	0.004461
949.000000	0.004429
948.000000	0.004448
947.000000	0.004452
946.000000	0.004404
945.000000	0.004324
944.000000	0.004255
943.000000	0.004208
942.000000	0.004163
941.000000	0.004105
940.000000	0.004045
939.000000	0.003995
938.000000	0.003947
937.000000	0.003877
936.000000	0.003780
935.000000	0.003680
934.000000	0.003602
933.000000	0.003551
932.000000	0.003517
931.000000	0.003493
930.000000	0.003477
929.000000	0.003465
928.000000	0.003444
927.000000	0.003411
926.000000	0.003365
925.000000	0.003311
924.000000	0.003248
923.000000	0.003187
922.000000	0.003137
921.000000	0.003100
920.000000	0.003067
919.000000	0.003030
918.000000	0.002987
917.000000	0.002938
916.000000	0.002876
915.000000	0.002799
914.000000	0.002721
913.000000	0.002666
912.000000	0.002643
911.000000	0.002639
910.000000	0.002623
909.000000	0.002575
908.000000	0.002497
907.000000	0.002415
906.000000	0.002348
905.000000	0.002292
904.000000	0.002223
903.000000	0.002134
902.000000	0.002045
901.000000	0.001979
900.000000	0.001941
899.000000	0.001917
898.000000	0.001898
897.000000	0.001881
896.000000	0.001864
895.000000	0.001835
894.000000	0.001794
893.000000	0.001762
892.000000	0.001767
891.000000	0.001814
890.000000	0.001901
889.000000	0.002059
888.000000	0.002367
887.000000	0.002907
886.000000	0.003682
885.000000	0.004604
884.000000	0.005548
883.000000	0.006441
882.000000	0.007303
881.000000	0.008235
880.000000	0.009340
879.000000	0.010623
878.000000	0.011974
877.000000	0.013224
876.000000	0.014234
875.000000	0.014918
874.000000	0.015210
873.000000	0.015054
872.000000	0.014442
871.000000	0.013455
870.000000	0.012255
869.000000	0.011016
868.000000	0.009858
867.000000	0.008826
866.000000	0.007920
865.000000	0.007134
864.000000	0.006480
863.000000	0.005969
862.000000	0.005568
861.000000	0.005211
860.000000	0.004858
859.000000	0.004526
858.000000	0.004245
857.000000	0.004003
856.000000	0.003774
855.000000	0.003569
854.000000	0.003421
853.000000	0.003331
852.000000	0.003273
851.000000	0.003248
850.000000	0.003292
849.000000	0.003400
848.000000	0.003488
847.000000	0.003461
846.000000	0.003301
845.000000	0.003065
844.000000	0.002825
843.000000	0.002633
842.000000	0.002528
841.000000	0.002513
840.000000	0.002540
839.000000	0.002542
838.000000	0.002505
837.000000	0.002471
836.000000	0.002482
835.000000	0.002525
834.000000	0.002558
833.000000	0.002557
832.000000	0.002529
831.000000	0.002488
830.000000	0.002447
829.000000	0.002413
828.000000	0.002394
827.000000	0.002377
826.000000	0.002342
825.000000	0.002277
824.000000	0.002190
823.000000	0.002097
822.000000	0.002021
821.000000	0.001973
820.000000	0.001944
819.000000	0.001907
818.000000	0.001862
817.000000	0.001844
816.000000	0.001889
815.000000	0.001980
814.000000	0.002045
813.000000	0.002029
812.000000	0.001943
811.000000	0.001842
810.000000	0.001771
809.000000	0.001742
808.000000	0.001754
807.000000	0.001797
806.000000	0.001851
805.000000	0.001887
804.000000	0.001891
803.000000	0.001885
802.000000	0.001903
801.000000	0.001955
800.000000	0.002013
799.000000	0.002028
798.000000	0.001975
797.000000	0.001883
796.000000	0.001811
795.000000	0.001800
794.000000	0.001841
793.000000	0.001903
792.000000	0.001969
791.000000	0.002037
790.000000	0.002098
789.000000	0.002128
788.000000	0.002117
787.000000	0.002084
786.000000	0.002065
785.000000	0.002087
784.000000	0.002142
783.000000	0.002201
782.000000	0.002238
781.000000	0.002252
780.000000	0.002261
779.000000	0.002271
778.000000	0.002271
777.000000	0.002252
776.000000	0.002213
775.000000	0.002160
774.000000	0.002098
773.000000	0.002051
772.000000	0.002059
771.000000	0.002139
770.000000	0.002255
769.000000	0.002353
768.000000	0.002416
767.000000	0.002471
766.000000	0.002533
765.000000	0.002581
764.000000	0.002589
763.000000	0.002571
762.000000	0.002567
761.000000	0.002608
760.000000	0.002681
759.000000	0.002742
758.000000	0.002756
757.000000	0.002732
756.000000	0.002722
755.000000	0.002757
754.000000	0.002808
753.000000	0.002820
752.000000	0.002780
751.000000	0.002728
750.000000	0.002707
749.000000	0.002719
748.000000	0.002739
747.000000	0.002750
746.000000	0.002750
745.000000	0.002744
744.000000	0.002752
743.000000	0.002795
742.000000	0.002873
741.000000	0.002952
740.000000	0.002987
739.000000	0.002955
738.000000	0.002870
737.000000	0.002789
736.000000	0.002785
735.000000	0.002890
734.000000	0.003062
733.000000	0.003221
732.000000	0.003321
731.000000	0.003372
730.000000	0.003392
729.000000	0.003384
728.000000	0.003358
727.000000	0.003340
726.000000	0.003346
725.000000	0.003365
724.000000	0.003373
723.000000	0.003367
722.000000	0.003366
721.000000	0.003399
720.000000	0.003494
719.000000	0.003692
718.000000	0.004047
717.000000	0.004619
716.000000	0.005443
715.000000	0.006458
714.000000	0.007462
713.000000	0.008177
712.000000	0.008399
711.000000	0.008131
710.000000	0.007561
709.000000	0.006939
708.000000	0.006453
707.000000	0.006161
706.000000	0.006015
705.000000	0.005930
704.000000	0.005840
703.000000	0.005729
702.000000	0.005626
701.000000	0.005569
700.000000	0.005583
699.000000	0.005648
698.000000	0.005703
697.000000	0.005697
696.000000	0.005640
695.000000	0.005602
694.000000	0.005627
693.000000	0.005698
692.000000	0.005774
691.000000	0.005829
690.000000	0.005846
689.000000	0.005824
688.000000	0.005790
687.000000	0.005792
686.000000	0.005829
685.000000	0.005847
684.000000	0.005835
683.000000	0.005847
682.000000	0.005918
681.000000	0.006001
680.000000	0.006044
679.000000	0.006068
678.000000	0.006118
677.000000	0.006220
676.000000	0.006366
675.000000	0.006528
674.000000	0.006646
673.000000	0.006643
672.000000	0.006474
671.000000	0.006150
670.000000	0.005719
669.000000	0.005301
668.000000	0.005167
667.000000	0.005381
666.000000	0.005563
665.000000	0.005653
664.000000	0.005655
663.000000	0.005529
662.000000	0.005302
661.000000	0.005055
660.000000	0.004833
659.000000	0.004629
658.000000	0.004453
657.000000	0.004377
656.000000	0.004434
655.000000	0.004566
654.000000	0.004705
653.000000	0.004843
652.000000	0.004970
651.000000	0.005056
650.000000	0.005118
649.000000	0.005236
648.000000	0.005440
647.000000	0.005666
646.000000	0.005862
645.000000	0.006037
644.000000	0.006202
643.000000	0.006322
642.000000	0.006372
641.000000	0.006387
640.000000	0.006411
639.000000	0.006443
638.000000	0.006480
637.000000	0.006548
636.000000	0.006644
635.000000	0.006724
634.000000	0.006761
633.000000	0.006791
632.000000	0.006856
631.000000	0.006946
630.000000	0.007022
629.000000	0.007062
628.000000	0.007063
627.000000	0.007030
626.000000	0.006991
625.000000	0.006979
624.000000	0.006980
623.000000	0.006960
622.000000	0.006919
621.000000	0.006901
620.000000	0.006941
619.000000	0.007041
618.000000	0.007189
617.000000	0.007365
616.000000	0.007519
615.000000	0.007607
614.000000	0.007654
613.000000	0.007731
612.000000	0.007860
611.000000	0.007997
610.000000	0.008107
609.000000	0.008208
608.000000	0.008328
607.000000	0.008466
606.000000	0.008621
605.000000	0.008792
604.000000	0.008940
603.000000	0.008991
602.000000	0.008903
601.000000	0.008693
600.000000	0.008411
599.000000	0.008110
598.000000	0.007843
597.000000	0.007642
596.000000	0.007479
595.000000	0.007300
594.000000	0.007097
593.000000	0.006921
592.000000	0.006800
591.000000	0.006702
590.000000	0.006585
589.000000	0.006442
588.000000	0.006277
587.000000	0.006095
586.000000	0.005944
585.000000	0.005890
584.000000	0.005930
583.000000	0.005964
582.000000	0.005909
581.000000	0.005788
580.000000	0.005683
579.000000	0.005627
578.000000	0.005593
577.000000	0.005559
576.000000	0.005528
575.000000	0.005503
574.000000	0.005477
573.000000	0.005443
572.000000	0.005399
571.000000	0.005355
570.000000	0.005338
569.000000	0.005367
568.000000	0.005402
567.000000	0.005369
566.000000	0.005253
565.000000	0.005114
564.000000	0.005021
563.000000	0.004991
562.000000	0.005017
561.000000	0.005079
560.000000	0.005116
559.000000	0.005066
558.000000	0.004951
557.000000	0.004864
556.000000	0.004838
555.000000	0.004805
554.000000	0.004718
553.000000	0.004651
552.000000	0.004693
551.000000	0.004809
550.000000	0.004879
549.000000	0.004867
548.000000	0.004848
547.000000	0.004880
546.000000	0.004920
545.000000	0.004885
544.000000	0.004753
543.000000	0.004582
542.000000	0.004461
541.000000	0.004434
540.000000	0.004484
539.000000	0.004567
538.000000	0.004665
537.000000	0.004781
536.000000	0.004886
535.000000	0.004913
534.000000	0.004834
533.000000	0.004705
532.000000	0.004612
531.000000	0.004597
530.000000	0.004631
529.000000	0.004662
528.000000	0.004663
527.000000	0.004639
526.000000	0.004612
525.000000	0.004585
524.000000	0.004539
523.000000	0.004492
522.000000	0.004503
521.000000	0.004593
520.000000	0.004669
519.000000	0.004617
518.000000	0.004476
517.000000	0.004405
516.000000	0.004466
515.000000	0.004552
514.000000	0.004560
513.000000	0.004510
512.000000	0.004455
511.000000	0.004395
510.000000	0.004336
509.000000	0.004341
508.000000	0.004461
507.000000	0.004619
506.000000	0.004673
505.000000	0.004585
504.000000	0.004439
503.000000	0.004339
502.000000	0.004324
501.000000	0.004359
500.000000	0.004374
499.000000	0.004324
498.000000	0.004223
497.000000	0.004122
496.000000	0.004042
495.000000	0.003963
494.000000	0.003882
493.000000	0.003828
492.000000	0.003802
491.000000	0.003780
490.000000	0.003811
489.000000	0.003989
488.000000	0.004285
487.000000	0.004497
486.000000	0.004437
485.000000	0.004154
484.000000	0.003859
483.000000	0.003694
482.000000	0.003675
481.000000	0.003793
480.000000	0.004007
479.000000	0.004183
478.000000	0.004205
477.000000	0.004125
476.000000	0.004073
475.000000	0.004016
474.000000	0.003793
473.000000	0.003394
472.000000	0.003072
471.000000	0.003034
470.000000	0.003190
469.000000	0.003327
468.000000	0.003339
467.000000	0.003265
466.000000	0.003222
465.000000	0.003292
464.000000	0.003415
463.000000	0.003421
462.000000	0.003202
461.000000	0.002891
460.000000	0.002715
459.000000	0.002745
458.000000	0.002873
457.000000	0.002977
456.000000	0.003016
455.000000	0.002928
454.000000	0.002614
453.000000	0.002121
452.000000	0.001721
451.000000	0.001642
450.000000	0.001810
