PE IR       SUBTECH     SPECTRUM    ASCII       PEDS        4.00        
   -1
P12-Rouge039_1.ASC
23/06/08
15:29:07.00
23/06/08
15:48:35.00
uco
Sample 039 By uco Date Thursday, June 08 2023
450.000000
#HDR
-1
-1
#GR
cm-1
A
1.0
0.0
4000.000000
-1.000000
3551
8
0.021732
0.000631
#DATA
4000.000000	0.000998
3999.000000	0.001034
3998.000000	0.001060
3997.000000	0.001067
3996.000000	0.001058
3995.000000	0.001046
3994.000000	0.001046
3993.000000	0.001059
3992.000000	0.001076
3991.000000	0.001030
3990.000000	0.001044
3989.000000	0.001060
3988.000000	0.001075
3987.000000	0.001080
3986.000000	0.001074
3985.000000	0.001061
3984.000000	0.001049
3983.000000	0.001040
3982.000000	0.001038
3981.000000	0.001042
3980.000000	0.001051
3979.000000	0.001060
3978.000000	0.001060
3977.000000	0.001049
3976.000000	0.001030
3975.000000	0.001013
3974.000000	0.001006
3973.000000	0.001008
3972.000000	0.001013
3971.000000	0.001014
3970.000000	0.001009
3969.000000	0.001005
3968.000000	0.001011
3967.000000	0.001032
3966.000000	0.001065
3965.000000	0.001098
3964.000000	0.001118
3963.000000	0.001116
3962.000000	0.001099
3961.000000	0.001082
3960.000000	0.001075
3959.000000	0.001077
3958.000000	0.001079
3957.000000	0.001075
3956.000000	0.001068
3955.000000	0.001065
3954.000000	0.001071
3953.000000	0.001080
3952.000000	0.001088
3951.000000	0.001092
3950.000000	0.001094
3949.000000	0.001098
3948.000000	0.001102
3947.000000	0.001104
3946.000000	0.001098
3945.000000	0.001085
3944.000000	0.001070
3943.000000	0.001065
3942.000000	0.001084
3941.000000	0.001124
3940.000000	0.001170
3939.000000	0.001200
3938.000000	0.001202
3937.000000	0.001182
3936.000000	0.001157
3935.000000	0.001147
3934.000000	0.001155
3933.000000	0.001166
3932.000000	0.001163
3931.000000	0.001140
3930.000000	0.001111
3929.000000	0.001095
3928.000000	0.001100
3927.000000	0.001125
3926.000000	0.001162
3925.000000	0.001197
3924.000000	0.001222
3923.000000	0.001232
3922.000000	0.001236
3921.000000	0.001241
3920.000000	0.001251
3919.000000	0.001257
3918.000000	0.001247
3917.000000	0.001217
3916.000000	0.001179
3915.000000	0.001150
3914.000000	0.001135
3913.000000	0.001130
3912.000000	0.001130
3911.000000	0.001131
3910.000000	0.001133
3909.000000	0.001134
3908.000000	0.001128
3907.000000	0.001117
3906.000000	0.001107
3905.000000	0.001112
3904.000000	0.001141
3903.000000	0.001179
3902.000000	0.001199
3901.000000	0.001191
3900.000000	0.001163
3899.000000	0.001136
3898.000000	0.001122
3897.000000	0.001121
3896.000000	0.001128
3895.000000	0.001138
3894.000000	0.001150
3893.000000	0.001158
3892.000000	0.001160
3891.000000	0.001153
3890.000000	0.001141
3889.000000	0.001128
3888.000000	0.001119
3887.000000	0.001124
3886.000000	0.001146
3885.000000	0.001177
3884.000000	0.001197
3883.000000	0.001189
3882.000000	0.001160
3881.000000	0.001131
3880.000000	0.001125
3879.000000	0.001147
3878.000000	0.001175
3877.000000	0.001184
3876.000000	0.001166
3875.000000	0.001134
3874.000000	0.001109
3873.000000	0.001107
3872.000000	0.001125
3871.000000	0.001149
3870.000000	0.001168
3869.000000	0.001184
3868.000000	0.001197
3867.000000	0.001205
3866.000000	0.001203
3865.000000	0.001194
3864.000000	0.001185
3863.000000	0.001183
3862.000000	0.001188
3861.000000	0.001201
3860.000000	0.001220
3859.000000	0.001244
3858.000000	0.001270
3857.000000	0.001296
3856.000000	0.001314
3855.000000	0.001317
3854.000000	0.001315
3853.000000	0.001318
3852.000000	0.001309
3851.000000	0.001278
3850.000000	0.001233
3849.000000	0.001195
3848.000000	0.001178
3847.000000	0.001182
3846.000000	0.001196
3845.000000	0.001201
3844.000000	0.001190
3843.000000	0.001171
3842.000000	0.001161
3841.000000	0.001172
3840.000000	0.001199
3839.000000	0.001233
3838.000000	0.001264
3837.000000	0.001284
3836.000000	0.001289
3835.000000	0.001281
3834.000000	0.001267
3833.000000	0.001253
3832.000000	0.001239
3831.000000	0.001228
3830.000000	0.001222
3829.000000	0.001222
3828.000000	0.001225
3827.000000	0.001228
3826.000000	0.001229
3825.000000	0.001234
3824.000000	0.001246
3823.000000	0.001258
3822.000000	0.001261
3821.000000	0.001254
3820.000000	0.001246
3819.000000	0.001246
3818.000000	0.001249
3817.000000	0.001247
3816.000000	0.001237
3815.000000	0.001231
3814.000000	0.001232
3813.000000	0.001233
3812.000000	0.001226
3811.000000	0.001209
3810.000000	0.001187
3809.000000	0.001169
3808.000000	0.001162
3807.000000	0.001169
3806.000000	0.001190
3805.000000	0.001223
3804.000000	0.001265
3803.000000	0.001302
3802.000000	0.001311
3801.000000	0.001278
3800.000000	0.001222
3799.000000	0.001169
3798.000000	0.001139
3797.000000	0.001133
3796.000000	0.001141
3795.000000	0.001149
3794.000000	0.001150
3793.000000	0.001147
3792.000000	0.001148
3791.000000	0.001156
3790.000000	0.001170
3789.000000	0.001187
3788.000000	0.001199
3787.000000	0.001204
3786.000000	0.001199
3785.000000	0.001188
3784.000000	0.001178
3783.000000	0.001175
3782.000000	0.001178
3781.000000	0.001182
3780.000000	0.001181
3779.000000	0.001179
3778.000000	0.001181
3777.000000	0.001187
3776.000000	0.001189
3775.000000	0.001180
3774.000000	0.001160
3773.000000	0.001137
3772.000000	0.001120
3771.000000	0.001114
3770.000000	0.001115
3769.000000	0.001114
3768.000000	0.001103
3767.000000	0.001090
3766.000000	0.001091
3765.000000	0.001114
3764.000000	0.001147
3763.000000	0.001167
3762.000000	0.001163
3761.000000	0.001143
3760.000000	0.001133
3759.000000	0.001151
3758.000000	0.001193
3757.000000	0.001239
3756.000000	0.001278
3755.000000	0.001313
3754.000000	0.001355
3753.000000	0.001415
3752.000000	0.001489
3751.000000	0.001552
3750.000000	0.001576
3749.000000	0.001553
3748.000000	0.001499
3747.000000	0.001430
3746.000000	0.001352
3745.000000	0.001275
3744.000000	0.001222
3743.000000	0.001197
3742.000000	0.001178
3741.000000	0.001159
3740.000000	0.001146
3739.000000	0.001144
3738.000000	0.001154
3737.000000	0.001174
3736.000000	0.001188
3735.000000	0.001179
3734.000000	0.001156
3733.000000	0.001145
3732.000000	0.001160
3731.000000	0.001191
3730.000000	0.001222
3729.000000	0.001248
3728.000000	0.001273
3727.000000	0.001296
3726.000000	0.001313
3725.000000	0.001318
3724.000000	0.001307
3723.000000	0.001281
3722.000000	0.001248
3721.000000	0.001218
3720.000000	0.001193
3719.000000	0.001173
3718.000000	0.001153
3717.000000	0.001132
3716.000000	0.001111
3715.000000	0.001097
3714.000000	0.001102
3713.000000	0.001138
3712.000000	0.001195
3711.000000	0.001236
3710.000000	0.001232
3709.000000	0.001189
3708.000000	0.001132
3707.000000	0.001084
3706.000000	0.001055
3705.000000	0.001041
3704.000000	0.001032
3703.000000	0.001019
3702.000000	0.001000
3701.000000	0.000984
3700.000000	0.000979
3699.000000	0.000991
3698.000000	0.001018
3697.000000	0.001054
3696.000000	0.001093
3695.000000	0.001132
3694.000000	0.001169
3693.000000	0.001204
3692.000000	0.001235
3691.000000	0.001255
3690.000000	0.001264
3689.000000	0.001266
3688.000000	0.001265
3687.000000	0.001253
3686.000000	0.001225
3685.000000	0.001192
3684.000000	0.001167
3683.000000	0.001154
3682.000000	0.001150
3681.000000	0.001153
3680.000000	0.001172
3679.000000	0.001210
3678.000000	0.001256
3677.000000	0.001283
3676.000000	0.001280
3675.000000	0.001273
3674.000000	0.001294
3673.000000	0.001334
3672.000000	0.001368
3671.000000	0.001378
3670.000000	0.001361
3669.000000	0.001332
3668.000000	0.001299
3667.000000	0.001263
3666.000000	0.001226
3665.000000	0.001195
3664.000000	0.001179
3663.000000	0.001180
3662.000000	0.001189
3661.000000	0.001197
3660.000000	0.001199
3659.000000	0.001199
3658.000000	0.001210
3657.000000	0.001239
3656.000000	0.001286
3655.000000	0.001335
3654.000000	0.001373
3653.000000	0.001396
3652.000000	0.001409
3651.000000	0.001422
3650.000000	0.001444
3649.000000	0.001469
3648.000000	0.001478
3647.000000	0.001459
3646.000000	0.001414
3645.000000	0.001355
3644.000000	0.001298
3643.000000	0.001255
3642.000000	0.001230
3641.000000	0.001213
3640.000000	0.001195
3639.000000	0.001177
3638.000000	0.001165
3637.000000	0.001167
3636.000000	0.001183
3635.000000	0.001213
3634.000000	0.001258
3633.000000	0.001317
3632.000000	0.001379
3631.000000	0.001430
3630.000000	0.001457
3629.000000	0.001456
3628.000000	0.001441
3627.000000	0.001426
3626.000000	0.001410
3625.000000	0.001389
3624.000000	0.001362
3623.000000	0.001328
3622.000000	0.001289
3621.000000	0.001249
3620.000000	0.001222
3619.000000	0.001226
3618.000000	0.001265
3617.000000	0.001323
3616.000000	0.001385
3615.000000	0.001447
3614.000000	0.001511
3613.000000	0.001569
3612.000000	0.001605
3611.000000	0.001613
3610.000000	0.001604
3609.000000	0.001588
3608.000000	0.001563
3607.000000	0.001527
3606.000000	0.001491
3605.000000	0.001473
3604.000000	0.001476
3603.000000	0.001491
3602.000000	0.001503
3601.000000	0.001504
3600.000000	0.001497
3599.000000	0.001485
3598.000000	0.001471
3597.000000	0.001460
3596.000000	0.001466
3595.000000	0.001497
3594.000000	0.001543
3593.000000	0.001586
3592.000000	0.001613
3591.000000	0.001624
3590.000000	0.001626
3589.000000	0.001623
3588.000000	0.001615
3587.000000	0.001601
3586.000000	0.001594
3585.000000	0.001604
3584.000000	0.001625
3583.000000	0.001647
3582.000000	0.001662
3581.000000	0.001666
3580.000000	0.001660
3579.000000	0.001650
3578.000000	0.001648
3577.000000	0.001660
3576.000000	0.001687
3575.000000	0.001721
3574.000000	0.001754
3573.000000	0.001780
3572.000000	0.001802
3571.000000	0.001829
3570.000000	0.001871
3569.000000	0.001937
3568.000000	0.002011
3567.000000	0.002059
3566.000000	0.002064
3565.000000	0.002045
3564.000000	0.002023
3563.000000	0.002003
3562.000000	0.001985
3561.000000	0.001975
3560.000000	0.001981
3559.000000	0.001998
3558.000000	0.002012
3557.000000	0.002016
3556.000000	0.002021
3555.000000	0.002045
3554.000000	0.002098
3553.000000	0.002167
3552.000000	0.002228
3551.000000	0.002265
3550.000000	0.002278
3549.000000	0.002279
3548.000000	0.002278
3547.000000	0.002279
3546.000000	0.002277
3545.000000	0.002271
3544.000000	0.002265
3543.000000	0.002259
3542.000000	0.002250
3541.000000	0.002234
3540.000000	0.002215
3539.000000	0.002205
3538.000000	0.002214
3537.000000	0.002239
3536.000000	0.002265
3535.000000	0.002280
3534.000000	0.002280
3533.000000	0.002270
3532.000000	0.002257
3531.000000	0.002241
3530.000000	0.002224
3529.000000	0.002210
3528.000000	0.002205
3527.000000	0.002210
3526.000000	0.002222
3525.000000	0.002236
3524.000000	0.002246
3523.000000	0.002253
3522.000000	0.002257
3521.000000	0.002257
3520.000000	0.002253
3519.000000	0.002241
3518.000000	0.002221
3517.000000	0.002202
3516.000000	0.002190
3515.000000	0.002188
3514.000000	0.002190
3513.000000	0.002190
3512.000000	0.002187
3511.000000	0.002184
3510.000000	0.002179
3509.000000	0.002172
3508.000000	0.002163
3507.000000	0.002156
3506.000000	0.002157
3505.000000	0.002164
3504.000000	0.002176
3503.000000	0.002189
3502.000000	0.002200
3501.000000	0.002206
3500.000000	0.002209
3499.000000	0.002206
3498.000000	0.002198
3497.000000	0.002188
3496.000000	0.002180
3495.000000	0.002179
3494.000000	0.002183
3493.000000	0.002187
3492.000000	0.002187
3491.000000	0.002184
3490.000000	0.002181
3489.000000	0.002176
3488.000000	0.002169
3487.000000	0.002165
3486.000000	0.002171
3485.000000	0.002193
3484.000000	0.002226
3483.000000	0.002255
3482.000000	0.002266
3481.000000	0.002257
3480.000000	0.002246
3479.000000	0.002246
3478.000000	0.002257
3477.000000	0.002260
3476.000000	0.002244
3475.000000	0.002218
3474.000000	0.002202
3473.000000	0.002205
3472.000000	0.002220
3471.000000	0.002229
3470.000000	0.002221
3469.000000	0.002201
3468.000000	0.002180
3467.000000	0.002169
3466.000000	0.002173
3465.000000	0.002191
3464.000000	0.002217
3463.000000	0.002243
3462.000000	0.002259
3461.000000	0.002258
3460.000000	0.002245
3459.000000	0.002227
3458.000000	0.002214
3457.000000	0.002206
3456.000000	0.002201
3455.000000	0.002202
3454.000000	0.002212
3453.000000	0.002233
3452.000000	0.002260
3451.000000	0.002286
3450.000000	0.002309
3449.000000	0.002326
3448.000000	0.002338
3447.000000	0.002345
3446.000000	0.002350
3445.000000	0.002357
3444.000000	0.002364
3443.000000	0.002366
3442.000000	0.002363
3441.000000	0.002359
3440.000000	0.002358
3439.000000	0.002357
3438.000000	0.002352
3437.000000	0.002345
3436.000000	0.002344
3435.000000	0.002357
3434.000000	0.002386
3433.000000	0.002418
3432.000000	0.002441
3431.000000	0.002446
3430.000000	0.002435
3429.000000	0.002417
3428.000000	0.002402
3427.000000	0.002396
3426.000000	0.002399
3425.000000	0.002410
3424.000000	0.002432
3423.000000	0.002463
3422.000000	0.002500
3421.000000	0.002532
3420.000000	0.002552
3419.000000	0.002561
3418.000000	0.002563
3417.000000	0.002566
3416.000000	0.002573
3415.000000	0.002583
3414.000000	0.002590
3413.000000	0.002594
3412.000000	0.002597
3411.000000	0.002607
3410.000000	0.002624
3409.000000	0.002642
3408.000000	0.002655
3407.000000	0.002658
3406.000000	0.002652
3405.000000	0.002643
3404.000000	0.002640
3403.000000	0.002654
3402.000000	0.002687
3401.000000	0.002729
3400.000000	0.002761
3399.000000	0.002772
3398.000000	0.002765
3397.000000	0.002754
3396.000000	0.002750
3395.000000	0.002754
3394.000000	0.002757
3393.000000	0.002745
3392.000000	0.002710
3391.000000	0.002662
3390.000000	0.002615
3389.000000	0.002587
3388.000000	0.002578
3387.000000	0.002587
3386.000000	0.002605
3385.000000	0.002630
3384.000000	0.002656
3383.000000	0.002679
3382.000000	0.002697
3381.000000	0.002709
3380.000000	0.002716
3379.000000	0.002718
3378.000000	0.002708
3377.000000	0.002684
3376.000000	0.002656
3375.000000	0.002638
3374.000000	0.002640
3373.000000	0.002656
3372.000000	0.002677
3371.000000	0.002695
3370.000000	0.002714
3369.000000	0.002731
3368.000000	0.002741
3367.000000	0.002738
3366.000000	0.002726
3365.000000	0.002709
3364.000000	0.002692
3363.000000	0.002678
3362.000000	0.002670
3361.000000	0.002668
3360.000000	0.002669
3359.000000	0.002672
3358.000000	0.002677
3357.000000	0.002681
3356.000000	0.002679
3355.000000	0.002675
3354.000000	0.002678
3353.000000	0.002697
3352.000000	0.002724
3351.000000	0.002743
3350.000000	0.002742
3349.000000	0.002723
3348.000000	0.002696
3347.000000	0.002671
3346.000000	0.002654
3345.000000	0.002647
3344.000000	0.002645
3343.000000	0.002649
3342.000000	0.002659
3341.000000	0.002676
3340.000000	0.002694
3339.000000	0.002706
3338.000000	0.002714
3337.000000	0.002723
3336.000000	0.002730
3335.000000	0.002730
3334.000000	0.002720
3333.000000	0.002708
3332.000000	0.002703
3331.000000	0.002704
3330.000000	0.002705
3329.000000	0.002702
3328.000000	0.002698
3327.000000	0.002696
3326.000000	0.002699
3325.000000	0.002705
3324.000000	0.002711
3323.000000	0.002715
3322.000000	0.002719
3321.000000	0.002724
3320.000000	0.002732
3319.000000	0.002744
3318.000000	0.002764
3317.000000	0.002795
3316.000000	0.002832
3315.000000	0.002854
3314.000000	0.002848
3313.000000	0.002818
3312.000000	0.002784
3311.000000	0.002768
3310.000000	0.002777
3309.000000	0.002804
3308.000000	0.002838
3307.000000	0.002864
3306.000000	0.002875
3305.000000	0.002869
3304.000000	0.002855
3303.000000	0.002839
3302.000000	0.002826
3301.000000	0.002814
3300.000000	0.002802
3299.000000	0.002794
3298.000000	0.002795
3297.000000	0.002803
3296.000000	0.002814
3295.000000	0.002825
3294.000000	0.002841
3293.000000	0.002864
3292.000000	0.002886
3291.000000	0.002892
3290.000000	0.002882
3289.000000	0.002864
3288.000000	0.002853
3287.000000	0.002851
3286.000000	0.002853
3285.000000	0.002851
3284.000000	0.002847
3283.000000	0.002847
3282.000000	0.002854
3281.000000	0.002861
3280.000000	0.002854
3279.000000	0.002826
3278.000000	0.002787
3277.000000	0.002754
3276.000000	0.002738
3275.000000	0.002737
3274.000000	0.002742
3273.000000	0.002751
3272.000000	0.002770
3271.000000	0.002803
3270.000000	0.002842
3269.000000	0.002877
3268.000000	0.002899
3267.000000	0.002901
3266.000000	0.002884
3265.000000	0.002856
3264.000000	0.002830
3263.000000	0.002813
3262.000000	0.002802
3261.000000	0.002792
3260.000000	0.002783
3259.000000	0.002782
3258.000000	0.002794
3257.000000	0.002814
3256.000000	0.002828
3255.000000	0.002825
3254.000000	0.002804
3253.000000	0.002776
3252.000000	0.002750
3251.000000	0.002732
3250.000000	0.002722
3249.000000	0.002721
3248.000000	0.002732
3247.000000	0.002750
3246.000000	0.002768
3245.000000	0.002780
3244.000000	0.002786
3243.000000	0.002788
3242.000000	0.002781
3241.000000	0.002763
3240.000000	0.002736
3239.000000	0.002707
3238.000000	0.002683
3237.000000	0.002663
3236.000000	0.002645
3235.000000	0.002629
3234.000000	0.002617
3233.000000	0.002610
3232.000000	0.002609
3231.000000	0.002612
3230.000000	0.002616
3229.000000	0.002620
3228.000000	0.002623
3227.000000	0.002622
3226.000000	0.002618
3225.000000	0.002619
3224.000000	0.002632
3223.000000	0.002662
3222.000000	0.002696
3221.000000	0.002717
3220.000000	0.002714
3219.000000	0.002694
3218.000000	0.002671
3217.000000	0.002654
3216.000000	0.002639
3215.000000	0.002619
3214.000000	0.002592
3213.000000	0.002560
3212.000000	0.002525
3211.000000	0.002494
3210.000000	0.002477
3209.000000	0.002478
3208.000000	0.002496
3207.000000	0.002527
3206.000000	0.002563
3205.000000	0.002594
3204.000000	0.002611
3203.000000	0.002610
3202.000000	0.002595
3201.000000	0.002577
3200.000000	0.002564
3199.000000	0.002557
3198.000000	0.002556
3197.000000	0.002554
3196.000000	0.002547
3195.000000	0.002530
3194.000000	0.002509
3193.000000	0.002492
3192.000000	0.002486
3191.000000	0.002488
3190.000000	0.002492
3189.000000	0.002489
3188.000000	0.002479
3187.000000	0.002465
3186.000000	0.002453
3185.000000	0.002444
3184.000000	0.002439
3183.000000	0.002441
3182.000000	0.002452
3181.000000	0.002467
3180.000000	0.002481
3179.000000	0.002490
3178.000000	0.002494
3177.000000	0.002494
3176.000000	0.002490
3175.000000	0.002482
3174.000000	0.002468
3173.000000	0.002452
3172.000000	0.002438
3171.000000	0.002430
3170.000000	0.002430
3169.000000	0.002431
3168.000000	0.002425
3167.000000	0.002410
3166.000000	0.002392
3165.000000	0.002378
3164.000000	0.002372
3163.000000	0.002370
3162.000000	0.002366
3161.000000	0.002358
3160.000000	0.002348
3159.000000	0.002341
3158.000000	0.002340
3157.000000	0.002345
3156.000000	0.002357
3155.000000	0.002378
3154.000000	0.002406
3153.000000	0.002425
3152.000000	0.002418
3151.000000	0.002385
3150.000000	0.002346
3149.000000	0.002321
3148.000000	0.002315
3147.000000	0.002317
3146.000000	0.002315
3145.000000	0.002308
3144.000000	0.002303
3143.000000	0.002310
3142.000000	0.002329
3141.000000	0.002351
3140.000000	0.002362
3139.000000	0.002359
3138.000000	0.002348
3137.000000	0.002340
3136.000000	0.002341
3135.000000	0.002351
3134.000000	0.002361
3133.000000	0.002366
3132.000000	0.002359
3131.000000	0.002341
3130.000000	0.002321
3129.000000	0.002302
3128.000000	0.002290
3127.000000	0.002285
3126.000000	0.002286
3125.000000	0.002284
3124.000000	0.002274
3123.000000	0.002260
3122.000000	0.002255
3121.000000	0.002265
3120.000000	0.002280
3119.000000	0.002284
3118.000000	0.002275
3117.000000	0.002261
3116.000000	0.002253
3115.000000	0.002254
3114.000000	0.002262
3113.000000	0.002276
3112.000000	0.002298
3111.000000	0.002326
3110.000000	0.002347
3109.000000	0.002348
3108.000000	0.002322
3107.000000	0.002274
3106.000000	0.002224
3105.000000	0.002191
3104.000000	0.002185
3103.000000	0.002200
3102.000000	0.002221
3101.000000	0.002229
3100.000000	0.002222
3099.000000	0.002209
3098.000000	0.002206
3097.000000	0.002218
3096.000000	0.002238
3095.000000	0.002253
3094.000000	0.002260
3093.000000	0.002263
3092.000000	0.002265
3091.000000	0.002265
3090.000000	0.002261
3089.000000	0.002256
3088.000000	0.002252
3087.000000	0.002253
3086.000000	0.002258
3085.000000	0.002263
3084.000000	0.002262
3083.000000	0.002253
3082.000000	0.002240
3081.000000	0.002228
3080.000000	0.002224
3079.000000	0.002226
3078.000000	0.002230
3077.000000	0.002232
3076.000000	0.002227
3075.000000	0.002221
3074.000000	0.002220
3073.000000	0.002229
3072.000000	0.002239
3071.000000	0.002237
3070.000000	0.002220
3069.000000	0.002197
3068.000000	0.002183
3067.000000	0.002183
3066.000000	0.002195
3065.000000	0.002208
3064.000000	0.002213
3063.000000	0.002208
3062.000000	0.002202
3061.000000	0.002204
3060.000000	0.002218
3059.000000	0.002238
3058.000000	0.002254
3057.000000	0.002262
3056.000000	0.002260
3055.000000	0.002250
3054.000000	0.002236
3053.000000	0.002222
3052.000000	0.002207
3051.000000	0.002193
3050.000000	0.002185
3049.000000	0.002188
3048.000000	0.002196
3047.000000	0.002198
3046.000000	0.002188
3045.000000	0.002170
3044.000000	0.002157
3043.000000	0.002154
3042.000000	0.002163
3041.000000	0.002178
3040.000000	0.002192
3039.000000	0.002194
3038.000000	0.002182
3037.000000	0.002164
3036.000000	0.002155
3035.000000	0.002164
3034.000000	0.002190
3033.000000	0.002217
3032.000000	0.002231
3031.000000	0.002227
3030.000000	0.002218
3029.000000	0.002218
3028.000000	0.002230
3027.000000	0.002243
3026.000000	0.002245
3025.000000	0.002236
3024.000000	0.002224
3023.000000	0.002217
3022.000000	0.002218
3021.000000	0.002226
3020.000000	0.002235
3019.000000	0.002236
3018.000000	0.002230
3017.000000	0.002226
3016.000000	0.002238
3015.000000	0.002266
3014.000000	0.002296
3013.000000	0.002316
3012.000000	0.002324
3011.000000	0.002330
3010.000000	0.002343
3009.000000	0.002364
3008.000000	0.002388
3007.000000	0.002412
3006.000000	0.002438
3005.000000	0.002470
3004.000000	0.002504
3003.000000	0.002536
3002.000000	0.002561
3001.000000	0.002584
3000.000000	0.002611
2999.000000	0.002647
2998.000000	0.002688
2997.000000	0.002727
2996.000000	0.002761
2995.000000	0.002796
2994.000000	0.002842
2993.000000	0.002901
2992.000000	0.002970
2991.000000	0.003043
2990.000000	0.003114
2989.000000	0.003182
2988.000000	0.003241
2987.000000	0.003294
2986.000000	0.003346
2985.000000	0.003404
2984.000000	0.003470
2983.000000	0.003544
2982.000000	0.003626
2981.000000	0.003720
2980.000000	0.003822
2979.000000	0.003929
2978.000000	0.004043
2977.000000	0.004166
2976.000000	0.004295
2975.000000	0.004424
2974.000000	0.004549
2973.000000	0.004676
2972.000000	0.004810
2971.000000	0.004959
2970.000000	0.005124
2969.000000	0.005301
2968.000000	0.005475
2967.000000	0.005632
2966.000000	0.005769
2965.000000	0.005898
2964.000000	0.006029
2963.000000	0.006159
2962.000000	0.006280
2961.000000	0.006384
2960.000000	0.006461
2959.000000	0.006503
2958.000000	0.006506
2957.000000	0.006476
2956.000000	0.006419
2955.000000	0.006343
2954.000000	0.006254
2953.000000	0.006162
2952.000000	0.006079
2951.000000	0.006012
2950.000000	0.005962
2949.000000	0.005929
2948.000000	0.005912
2947.000000	0.005913
2946.000000	0.005939
2945.000000	0.005996
2944.000000	0.006081
2943.000000	0.006186
2942.000000	0.006298
2941.000000	0.006412
2940.000000	0.006527
2939.000000	0.006649
2938.000000	0.006784
2937.000000	0.006938
2936.000000	0.007107
2935.000000	0.007276
2934.000000	0.007424
2933.000000	0.007538
2932.000000	0.007618
2931.000000	0.007671
2930.000000	0.007708
2929.000000	0.007729
2928.000000	0.007731
2927.000000	0.007712
2926.000000	0.007678
2925.000000	0.007639
2924.000000	0.007591
2923.000000	0.007520
2922.000000	0.007417
2921.000000	0.007286
2920.000000	0.007142
2919.000000	0.006996
2918.000000	0.006850
2917.000000	0.006710
2916.000000	0.006585
2915.000000	0.006480
2914.000000	0.006391
2913.000000	0.006312
2912.000000	0.006241
2911.000000	0.006175
2910.000000	0.006112
2909.000000	0.006049
2908.000000	0.005980
2907.000000	0.005902
2906.000000	0.005817
2905.000000	0.005726
2904.000000	0.005628
2903.000000	0.005524
2902.000000	0.005416
2901.000000	0.005308
2900.000000	0.005204
2899.000000	0.005098
2898.000000	0.004989
2897.000000	0.004879
2896.000000	0.004780
2895.000000	0.004696
2894.000000	0.004621
2893.000000	0.004546
2892.000000	0.004464
2891.000000	0.004379
2890.000000	0.004303
2889.000000	0.004246
2888.000000	0.004214
2887.000000	0.004205
2886.000000	0.004212
2885.000000	0.004227
2884.000000	0.004246
2883.000000	0.004272
2882.000000	0.004313
2881.000000	0.004377
2880.000000	0.004465
2879.000000	0.004569
2878.000000	0.004669
2877.000000	0.004756
2876.000000	0.004831
2875.000000	0.004905
2874.000000	0.004981
2873.000000	0.005045
2872.000000	0.005078
2871.000000	0.005077
2870.000000	0.005059
2869.000000	0.005049
2868.000000	0.005063
2867.000000	0.005101
2866.000000	0.005156
2865.000000	0.005216
2864.000000	0.005271
2863.000000	0.005322
2862.000000	0.005370
2861.000000	0.005418
2860.000000	0.005465
2859.000000	0.005508
2858.000000	0.005540
2857.000000	0.005553
2856.000000	0.005531
2855.000000	0.005467
2854.000000	0.005367
2853.000000	0.005244
2852.000000	0.005103
2851.000000	0.004939
2850.000000	0.004750
2849.000000	0.004554
2848.000000	0.004379
2847.000000	0.004243
2846.000000	0.004140
2845.000000	0.004049
2844.000000	0.003953
2843.000000	0.003851
2842.000000	0.003747
2841.000000	0.003649
2840.000000	0.003559
2839.000000	0.003476
2838.000000	0.003404
2837.000000	0.003345
2836.000000	0.003298
2835.000000	0.003261
2834.000000	0.003230
2833.000000	0.003201
2832.000000	0.003169
2831.000000	0.003126
2830.000000	0.003074
2829.000000	0.003025
2828.000000	0.002990
2827.000000	0.002969
2826.000000	0.002956
2825.000000	0.002946
2824.000000	0.002941
2823.000000	0.002944
2822.000000	0.002951
2821.000000	0.002952
2820.000000	0.002937
2819.000000	0.002908
2818.000000	0.002875
2817.000000	0.002850
2816.000000	0.002837
2815.000000	0.002836
2814.000000	0.002838
2813.000000	0.002831
2812.000000	0.002812
2811.000000	0.002786
2810.000000	0.002763
2809.000000	0.002748
2808.000000	0.002743
2807.000000	0.002744
2806.000000	0.002745
2805.000000	0.002736
2804.000000	0.002711
2803.000000	0.002674
2802.000000	0.002642
2801.000000	0.002629
2800.000000	0.002636
2799.000000	0.002650
2798.000000	0.002661
2797.000000	0.002665
2796.000000	0.002665
2795.000000	0.002662
2794.000000	0.002660
2793.000000	0.002662
2792.000000	0.002669
2791.000000	0.002678
2790.000000	0.002681
2789.000000	0.002674
2788.000000	0.002652
2787.000000	0.002616
2786.000000	0.002577
2785.000000	0.002548
2784.000000	0.002535
2783.000000	0.002537
2782.000000	0.002545
2781.000000	0.002553
2780.000000	0.002554
2779.000000	0.002550
2778.000000	0.002547
2777.000000	0.002551
2776.000000	0.002560
2775.000000	0.002565
2774.000000	0.002558
2773.000000	0.002543
2772.000000	0.002530
2771.000000	0.002526
2770.000000	0.002528
2769.000000	0.002530
2768.000000	0.002529
2767.000000	0.002527
2766.000000	0.002528
2765.000000	0.002529
2764.000000	0.002525
2763.000000	0.002513
2762.000000	0.002499
2761.000000	0.002495
2760.000000	0.002505
2759.000000	0.002524
2758.000000	0.002542
2757.000000	0.002552
2756.000000	0.002548
2755.000000	0.002532
2754.000000	0.002512
2753.000000	0.002501
2752.000000	0.002501
2751.000000	0.002507
2750.000000	0.002513
2749.000000	0.002518
2748.000000	0.002520
2747.000000	0.002514
2746.000000	0.002499
2745.000000	0.002480
2744.000000	0.002467
2743.000000	0.002465
2742.000000	0.002473
2741.000000	0.002486
2740.000000	0.002493
2739.000000	0.002489
2738.000000	0.002476
2737.000000	0.002463
2736.000000	0.002456
2735.000000	0.002451
2734.000000	0.002444
2733.000000	0.002434
2732.000000	0.002427
2731.000000	0.002428
2730.000000	0.002436
2729.000000	0.002448
2728.000000	0.002457
2727.000000	0.002460
2726.000000	0.002460
2725.000000	0.002464
2724.000000	0.002476
2723.000000	0.002488
2722.000000	0.002490
2721.000000	0.002480
2720.000000	0.002465
2719.000000	0.002456
2718.000000	0.002454
2717.000000	0.002457
2716.000000	0.002459
2715.000000	0.002456
2714.000000	0.002450
2713.000000	0.002443
2712.000000	0.002437
2711.000000	0.002430
2710.000000	0.002425
2709.000000	0.002425
2708.000000	0.002433
2707.000000	0.002442
2706.000000	0.002440
2705.000000	0.002424
2704.000000	0.002408
2703.000000	0.002408
2702.000000	0.002428
2701.000000	0.002459
2700.000000	0.002488
2699.000000	0.002504
2698.000000	0.002503
2697.000000	0.002484
2696.000000	0.002455
2695.000000	0.002421
2694.000000	0.002393
2693.000000	0.002380
2692.000000	0.002385
2691.000000	0.002398
2690.000000	0.002405
2689.000000	0.002398
2688.000000	0.002384
2687.000000	0.002375
2686.000000	0.002374
2685.000000	0.002376
2684.000000	0.002378
2683.000000	0.002381
2682.000000	0.002386
2681.000000	0.002392
2680.000000	0.002396
2679.000000	0.002396
2678.000000	0.002396
2677.000000	0.002399
2676.000000	0.002408
2675.000000	0.002423
2674.000000	0.002436
2673.000000	0.002440
2672.000000	0.002430
2671.000000	0.002414
2670.000000	0.002401
2669.000000	0.002399
2668.000000	0.002405
2667.000000	0.002414
2666.000000	0.002424
2665.000000	0.002437
2664.000000	0.002457
2663.000000	0.002479
2662.000000	0.002496
2661.000000	0.002503
2660.000000	0.002500
2659.000000	0.002490
2658.000000	0.002476
2657.000000	0.002458
2656.000000	0.002439
2655.000000	0.002425
2654.000000	0.002421
2653.000000	0.002424
2652.000000	0.002426
2651.000000	0.002425
2650.000000	0.002420
2649.000000	0.002411
2648.000000	0.002397
2647.000000	0.002377
2646.000000	0.002358
2645.000000	0.002343
2644.000000	0.002335
2643.000000	0.002331
2642.000000	0.002327
2641.000000	0.002322
2640.000000	0.002312
2639.000000	0.002299
2638.000000	0.002290
2637.000000	0.002293
2636.000000	0.002307
2635.000000	0.002321
2634.000000	0.002320
2633.000000	0.002300
2632.000000	0.002268
2631.000000	0.002246
2630.000000	0.002247
2629.000000	0.002275
2628.000000	0.002316
2627.000000	0.002349
2626.000000	0.002362
2625.000000	0.002354
2624.000000	0.002330
2623.000000	0.002302
2622.000000	0.002279
2621.000000	0.002264
2620.000000	0.002248
2619.000000	0.002224
2618.000000	0.002197
2617.000000	0.002184
2616.000000	0.002191
2615.000000	0.002206
2614.000000	0.002212
2613.000000	0.002210
2612.000000	0.002211
2611.000000	0.002226
2610.000000	0.002253
2609.000000	0.002273
2608.000000	0.002271
2607.000000	0.002240
2606.000000	0.002195
2605.000000	0.002158
2604.000000	0.002147
2603.000000	0.002160
2602.000000	0.002182
2601.000000	0.002199
2600.000000	0.002200
2599.000000	0.002181
2598.000000	0.002148
2597.000000	0.002118
2596.000000	0.002112
2595.000000	0.002138
2594.000000	0.002183
2593.000000	0.002223
2592.000000	0.002237
2591.000000	0.002221
2590.000000	0.002183
2589.000000	0.002141
2588.000000	0.002111
2587.000000	0.002104
2586.000000	0.002114
2585.000000	0.002128
2584.000000	0.002140
2583.000000	0.002144
2582.000000	0.002143
2581.000000	0.002136
2580.000000	0.002129
2579.000000	0.002126
2578.000000	0.002134
2577.000000	0.002152
2576.000000	0.002177
2575.000000	0.002199
2574.000000	0.002211
2573.000000	0.002204
2572.000000	0.002176
2571.000000	0.002137
2570.000000	0.002101
2569.000000	0.002081
2568.000000	0.002079
2567.000000	0.002086
2566.000000	0.002089
2565.000000	0.002080
2564.000000	0.002056
2563.000000	0.002031
2562.000000	0.002023
2561.000000	0.002040
2560.000000	0.002065
2559.000000	0.002069
2558.000000	0.002047
2557.000000	0.002021
2556.000000	0.002015
2555.000000	0.002024
2554.000000	0.002025
2553.000000	0.002003
2552.000000	0.001962
2551.000000	0.001929
2550.000000	0.001925
2549.000000	0.001957
2548.000000	0.002011
2547.000000	0.002063
2546.000000	0.002098
2545.000000	0.002119
2544.000000	0.002136
2543.000000	0.002148
2542.000000	0.002148
2541.000000	0.002134
2540.000000	0.002120
2539.000000	0.002125
2538.000000	0.002150
2537.000000	0.002181
2536.000000	0.002200
2535.000000	0.002204
2534.000000	0.002199
2533.000000	0.002193
2532.000000	0.002185
2531.000000	0.002179
2530.000000	0.002183
2529.000000	0.002199
2528.000000	0.002217
2527.000000	0.002224
2526.000000	0.002218
2525.000000	0.002202
2524.000000	0.002182
2523.000000	0.002168
2522.000000	0.002172
2521.000000	0.002204
2520.000000	0.002256
2519.000000	0.002311
2518.000000	0.002355
2517.000000	0.002384
2516.000000	0.002394
2515.000000	0.002386
2514.000000	0.002369
2513.000000	0.002359
2512.000000	0.002364
2511.000000	0.002384
2510.000000	0.002409
2509.000000	0.002424
2508.000000	0.002418
2507.000000	0.002387
2506.000000	0.002347
2505.000000	0.002320
2504.000000	0.002312
2503.000000	0.002310
2502.000000	0.002295
2501.000000	0.002264
2500.000000	0.002222
2499.000000	0.002176
2498.000000	0.002135
2497.000000	0.002116
2496.000000	0.002124
2495.000000	0.002142
2494.000000	0.002143
2493.000000	0.002117
2492.000000	0.002071
2491.000000	0.002022
2490.000000	0.001983
2489.000000	0.001954
2488.000000	0.001929
2487.000000	0.001908
2486.000000	0.001899
2485.000000	0.001915
2484.000000	0.001951
2483.000000	0.001984
2482.000000	0.001986
2481.000000	0.001952
2480.000000	0.001907
2479.000000	0.001886
2478.000000	0.001905
2477.000000	0.001952
2476.000000	0.001991
2475.000000	0.001994
2474.000000	0.001968
2473.000000	0.001947
2472.000000	0.001954
2471.000000	0.001974
2470.000000	0.001978
2469.000000	0.001956
2468.000000	0.001921
2467.000000	0.001883
2466.000000	0.001845
2465.000000	0.001820
2464.000000	0.001830
2463.000000	0.001882
2462.000000	0.001945
2461.000000	0.001981
2460.000000	0.001978
2459.000000	0.001957
2458.000000	0.001940
2457.000000	0.001934
2456.000000	0.001941
2455.000000	0.001964
2454.000000	0.002004
2453.000000	0.002053
2452.000000	0.002089
2451.000000	0.002100
2450.000000	0.002091
2449.000000	0.002073
2448.000000	0.002053
2447.000000	0.002032
2446.000000	0.002010
2445.000000	0.001997
2444.000000	0.001999
2443.000000	0.002008
2442.000000	0.002003
2441.000000	0.001967
2440.000000	0.001909
2439.000000	0.001864
2438.000000	0.001861
2437.000000	0.001896
2436.000000	0.001944
2435.000000	0.001984
2434.000000	0.002014
2433.000000	0.002035
2432.000000	0.002040
2431.000000	0.002021
2430.000000	0.001985
2429.000000	0.001957
2428.000000	0.001954
2427.000000	0.001980
2426.000000	0.002018
2425.000000	0.002051
2424.000000	0.002066
2423.000000	0.002060
2422.000000	0.002035
2421.000000	0.002000
2420.000000	0.001959
2419.000000	0.001921
2418.000000	0.001891
2417.000000	0.001874
2416.000000	0.001866
2415.000000	0.001861
2414.000000	0.001857
2413.000000	0.001855
2412.000000	0.001854
2411.000000	0.001853
2410.000000	0.001852
2409.000000	0.001855
2408.000000	0.001861
2407.000000	0.001866
2406.000000	0.001868
2405.000000	0.001871
2404.000000	0.001873
2403.000000	0.001869
2402.000000	0.001858
2401.000000	0.001842
2400.000000	0.001832
2399.000000	0.001833
2398.000000	0.001845
2397.000000	0.001866
2396.000000	0.001893
2395.000000	0.001924
2394.000000	0.001950
2393.000000	0.001964
2392.000000	0.001970
2391.000000	0.001980
2390.000000	0.002002
2389.000000	0.002023
2388.000000	0.002025
2387.000000	0.001999
2386.000000	0.001957
2385.000000	0.001916
2384.000000	0.001881
2383.000000	0.001847
2382.000000	0.001816
2381.000000	0.001792
2380.000000	0.001777
2379.000000	0.001768
2378.000000	0.001768
2377.000000	0.001781
2376.000000	0.001800
2375.000000	0.001814
2374.000000	0.001815
2373.000000	0.001800
2372.000000	0.001772
2371.000000	0.001744
2370.000000	0.001725
2369.000000	0.001702
2368.000000	0.001659
2367.000000	0.001614
2366.000000	0.001614
2365.000000	0.001672
2364.000000	0.001741
2363.000000	0.001780
2362.000000	0.001794
2361.000000	0.001804
2360.000000	0.001816
2359.000000	0.001821
2358.000000	0.001817
2357.000000	0.001805
2356.000000	0.001790
2355.000000	0.001782
2354.000000	0.001760
2353.000000	0.001700
2352.000000	0.001635
2351.000000	0.001633
2350.000000	0.001712
2349.000000	0.001832
2348.000000	0.001932
2347.000000	0.001960
2346.000000	0.001914
2345.000000	0.001865
2344.000000	0.001874
2343.000000	0.001924
2342.000000	0.001960
2341.000000	0.001957
2340.000000	0.001939
2339.000000	0.001936
2338.000000	0.001938
2337.000000	0.001922
2336.000000	0.001894
2335.000000	0.001876
2334.000000	0.001872
2333.000000	0.001857
2332.000000	0.001833
2331.000000	0.001818
2330.000000	0.001833
2329.000000	0.001871
2328.000000	0.001931
2327.000000	0.002011
2326.000000	0.002099
2325.000000	0.002173
2324.000000	0.002217
2323.000000	0.002227
2322.000000	0.002214
2321.000000	0.002192
2320.000000	0.002179
2319.000000	0.002184
2318.000000	0.002205
2317.000000	0.002229
2316.000000	0.002238
2315.000000	0.002213
2314.000000	0.002155
2313.000000	0.002086
2312.000000	0.002034
2311.000000	0.002001
2310.000000	0.001977
2309.000000	0.001961
2308.000000	0.001961
2307.000000	0.001974
2306.000000	0.001981
2305.000000	0.001969
2304.000000	0.001940
2303.000000	0.001905
2302.000000	0.001882
2301.000000	0.001890
2300.000000	0.001932
2299.000000	0.001985
2298.000000	0.002021
2297.000000	0.002031
2296.000000	0.002029
2295.000000	0.002022
2294.000000	0.002007
2293.000000	0.001988
2292.000000	0.001981
2291.000000	0.001997
2290.000000	0.002026
2289.000000	0.002049
2288.000000	0.002060
2287.000000	0.002070
2286.000000	0.002087
2285.000000	0.002116
2284.000000	0.002146
2283.000000	0.002158
2282.000000	0.002136
2281.000000	0.002083
2280.000000	0.002024
2279.000000	0.001989
2278.000000	0.001986
2277.000000	0.001995
2276.000000	0.001984
2275.000000	0.001937
2274.000000	0.001867
2273.000000	0.001812
2272.000000	0.001797
2271.000000	0.001821
2270.000000	0.001873
2269.000000	0.001937
2268.000000	0.001984
2267.000000	0.001970
2266.000000	0.001883
2265.000000	0.001780
2264.000000	0.001747
2263.000000	0.001817
2262.000000	0.001941
2261.000000	0.002043
2260.000000	0.002082
2259.000000	0.002066
2258.000000	0.002022
2257.000000	0.001983
2256.000000	0.001975
2255.000000	0.001996
2254.000000	0.002020
2253.000000	0.002019
2252.000000	0.001996
2251.000000	0.001964
2250.000000	0.001931
2249.000000	0.001905
2248.000000	0.001907
2247.000000	0.001958
2246.000000	0.002050
2245.000000	0.002154
2244.000000	0.002239
2243.000000	0.002284
2242.000000	0.002265
2241.000000	0.002176
2240.000000	0.002056
2239.000000	0.001981
2238.000000	0.001997
2237.000000	0.002067
2236.000000	0.002101
2235.000000	0.002046
2234.000000	0.001944
2233.000000	0.001884
2232.000000	0.001914
2231.000000	0.001990
2230.000000	0.002025
2229.000000	0.001963
2228.000000	0.001822
2227.000000	0.001677
2226.000000	0.001609
2225.000000	0.001657
2224.000000	0.001789
2223.000000	0.001930
2222.000000	0.002027
2221.000000	0.002068
2220.000000	0.002054
2219.000000	0.001976
2218.000000	0.001844
2217.000000	0.001710
2216.000000	0.001639
2215.000000	0.001635
2214.000000	0.001637
2213.000000	0.001592
2212.000000	0.001503
2211.000000	0.001408
2210.000000	0.001344
2209.000000	0.001329
2208.000000	0.001368
2207.000000	0.001436
2206.000000	0.001484
2205.000000	0.001473
2204.000000	0.001412
2203.000000	0.001353
2202.000000	0.001341
2201.000000	0.001376
2200.000000	0.001432
2199.000000	0.001489
2198.000000	0.001558
2197.000000	0.001643
2196.000000	0.001708
2195.000000	0.001705
2194.000000	0.001639
2193.000000	0.001584
2192.000000	0.001607
2191.000000	0.001690
2190.000000	0.001751
2189.000000	0.001742
2188.000000	0.001691
2187.000000	0.001652
2186.000000	0.001645
2185.000000	0.001653
2184.000000	0.001652
2183.000000	0.001614
2182.000000	0.001521
2181.000000	0.001380
2180.000000	0.001241
2179.000000	0.001163
2178.000000	0.001175
2177.000000	0.001249
2176.000000	0.001326
2175.000000	0.001348
2174.000000	0.001305
2173.000000	0.001242
2172.000000	0.001223
2171.000000	0.001287
2170.000000	0.001435
2169.000000	0.001636
2168.000000	0.001822
2167.000000	0.001910
2166.000000	0.001875
2165.000000	0.001805
2164.000000	0.001841
2163.000000	0.002021
2162.000000	0.002213
2161.000000	0.002241
2160.000000	0.002049
2159.000000	0.001720
2158.000000	0.001355
2157.000000	0.001009
2156.000000	0.000743
2155.000000	0.000631
2154.000000	0.000699
2153.000000	0.000893
2152.000000	0.001123
2151.000000	0.001322
2150.000000	0.001449
2149.000000	0.001463
2148.000000	0.001346
2147.000000	0.001148
2146.000000	0.000980
2145.000000	0.000948
2144.000000	0.001085
2143.000000	0.001338
2142.000000	0.001604
2141.000000	0.001782
2140.000000	0.001837
2139.000000	0.001813
2138.000000	0.001779
2137.000000	0.001761
2136.000000	0.001732
2135.000000	0.001674
2134.000000	0.001615
2133.000000	0.001594
2132.000000	0.001609
2131.000000	0.001627
2130.000000	0.001617
2129.000000	0.001582
2128.000000	0.001539
2127.000000	0.001500
2126.000000	0.001467
2125.000000	0.001445
2124.000000	0.001453
2123.000000	0.001512
2122.000000	0.001620
2121.000000	0.001742
2120.000000	0.001836
2119.000000	0.001888
2118.000000	0.001923
2117.000000	0.001963
2116.000000	0.002006
2115.000000	0.002037
2114.000000	0.002044
2113.000000	0.002024
2112.000000	0.001979
2111.000000	0.001921
2110.000000	0.001879
2109.000000	0.001876
2108.000000	0.001910
2107.000000	0.001951
2106.000000	0.001978
2105.000000	0.001992
2104.000000	0.001997
2103.000000	0.001994
2102.000000	0.001978
2101.000000	0.001939
2100.000000	0.001871
2099.000000	0.001779
2098.000000	0.001693
2097.000000	0.001644
2096.000000	0.001645
2095.000000	0.001683
2094.000000	0.001733
2093.000000	0.001777
2092.000000	0.001808
2091.000000	0.001827
2090.000000	0.001849
2089.000000	0.001883
2088.000000	0.001931
2087.000000	0.001994
2086.000000	0.002067
2085.000000	0.002132
2084.000000	0.002164
2083.000000	0.002147
2082.000000	0.002098
2081.000000	0.002047
2080.000000	0.002018
2079.000000	0.002025
2078.000000	0.002069
2077.000000	0.002129
2076.000000	0.002160
2075.000000	0.002134
2074.000000	0.002065
2073.000000	0.001985
2072.000000	0.001909
2071.000000	0.001840
2070.000000	0.001802
2069.000000	0.001813
2068.000000	0.001855
2067.000000	0.001891
2066.000000	0.001918
2065.000000	0.001961
2064.000000	0.002008
2063.000000	0.002020
2062.000000	0.001986
2061.000000	0.001938
2060.000000	0.001899
2059.000000	0.001860
2058.000000	0.001818
2057.000000	0.001800
2056.000000	0.001826
2055.000000	0.001883
2054.000000	0.001965
2053.000000	0.002086
2052.000000	0.002228
2051.000000	0.002303
2050.000000	0.002215
2049.000000	0.001956
2048.000000	0.001645
2047.000000	0.001436
2046.000000	0.001405
2045.000000	0.001515
2044.000000	0.001652
2043.000000	0.001720
2042.000000	0.001695
2041.000000	0.001617
2040.000000	0.001542
2039.000000	0.001532
2038.000000	0.001661
2037.000000	0.001937
2036.000000	0.002209
2035.000000	0.002257
2034.000000	0.002008
2033.000000	0.001605
2032.000000	0.001239
2031.000000	0.000979
2030.000000	0.000826
2029.000000	0.000804
2028.000000	0.000900
2027.000000	0.001016
2026.000000	0.001058
2025.000000	0.001047
2024.000000	0.001059
2023.000000	0.001108
2022.000000	0.001162
2021.000000	0.001217
2020.000000	0.001276
2019.000000	0.001298
2018.000000	0.001235
2017.000000	0.001126
2016.000000	0.001070
2015.000000	0.001113
2014.000000	0.001211
2013.000000	0.001313
2012.000000	0.001406
2011.000000	0.001490
2010.000000	0.001558
2009.000000	0.001596
2008.000000	0.001592
2007.000000	0.001539
2006.000000	0.001452
2005.000000	0.001359
2004.000000	0.001274
2003.000000	0.001191
2002.000000	0.001123
2001.000000	0.001111
2000.000000	0.001181
1999.000000	0.001308
1998.000000	0.001458
1997.000000	0.001615
1996.000000	0.001752
1995.000000	0.001807
1994.000000	0.001730
1993.000000	0.001545
1992.000000	0.001350
1991.000000	0.001257
1990.000000	0.001339
1989.000000	0.001594
1988.000000	0.001915
1987.000000	0.002125
1986.000000	0.002104
1985.000000	0.001897
1984.000000	0.001651
1983.000000	0.001466
1982.000000	0.001348
1981.000000	0.001269
1980.000000	0.001212
1979.000000	0.001159
1978.000000	0.001107
1977.000000	0.001094
1976.000000	0.001154
1975.000000	0.001252
1974.000000	0.001312
1973.000000	0.001306
1972.000000	0.001273
1971.000000	0.001255
1970.000000	0.001277
1969.000000	0.001373
1968.000000	0.001562
1967.000000	0.001784
1966.000000	0.001897
1965.000000	0.001795
1964.000000	0.001517
1963.000000	0.001203
1962.000000	0.000983
1961.000000	0.000890
1960.000000	0.000866
1959.000000	0.000850
1958.000000	0.000849
1957.000000	0.000921
1956.000000	0.001092
1955.000000	0.001303
1954.000000	0.001456
1953.000000	0.001488
1952.000000	0.001419
1951.000000	0.001328
1950.000000	0.001266
1949.000000	0.001219
1948.000000	0.001145
1947.000000	0.001065
1946.000000	0.001059
1945.000000	0.001165
1944.000000	0.001317
1943.000000	0.001410
1942.000000	0.001425
1941.000000	0.001431
1940.000000	0.001480
1939.000000	0.001554
1938.000000	0.001630
1937.000000	0.001699
1936.000000	0.001731
1935.000000	0.001671
1934.000000	0.001514
1933.000000	0.001336
1932.000000	0.001223
1931.000000	0.001194
1930.000000	0.001216
1929.000000	0.001261
1928.000000	0.001320
1927.000000	0.001366
1926.000000	0.001369
1925.000000	0.001337
1924.000000	0.001310
1923.000000	0.001316
1922.000000	0.001349
1921.000000	0.001381
1920.000000	0.001397
1919.000000	0.001386
1918.000000	0.001349
1917.000000	0.001306
1916.000000	0.001294
1915.000000	0.001321
1914.000000	0.001360
1913.000000	0.001379
1912.000000	0.001367
1911.000000	0.001342
1910.000000	0.001328
1909.000000	0.001324
1908.000000	0.001313
1907.000000	0.001284
1906.000000	0.001255
1905.000000	0.001255
1904.000000	0.001287
1903.000000	0.001329
1902.000000	0.001363
1901.000000	0.001404
1900.000000	0.001463
1899.000000	0.001510
1898.000000	0.001506
1897.000000	0.001455
1896.000000	0.001417
1895.000000	0.001438
1894.000000	0.001488
1893.000000	0.001495
1892.000000	0.001424
1891.000000	0.001315
1890.000000	0.001250
1889.000000	0.001277
1888.000000	0.001355
1887.000000	0.001404
1886.000000	0.001382
1885.000000	0.001312
1884.000000	0.001254
1883.000000	0.001239
1882.000000	0.001258
1881.000000	0.001283
1880.000000	0.001302
1879.000000	0.001309
1878.000000	0.001299
1877.000000	0.001269
1876.000000	0.001221
1875.000000	0.001168
1874.000000	0.001127
1873.000000	0.001100
1872.000000	0.001077
1871.000000	0.001052
1870.000000	0.001043
1869.000000	0.001078
1868.000000	0.001151
1867.000000	0.001225
1866.000000	0.001273
1865.000000	0.001301
1864.000000	0.001315
1863.000000	0.001311
1862.000000	0.001282
1861.000000	0.001235
1860.000000	0.001176
1859.000000	0.001104
1858.000000	0.001030
1857.000000	0.000990
1856.000000	0.001009
1855.000000	0.001065
1854.000000	0.001116
1853.000000	0.001147
1852.000000	0.001171
1851.000000	0.001185
1850.000000	0.001170
1849.000000	0.001121
1848.000000	0.001070
1847.000000	0.001048
1846.000000	0.001057
1845.000000	0.001081
1844.000000	0.001105
1843.000000	0.001115
1842.000000	0.001111
1841.000000	0.001104
1840.000000	0.001101
1839.000000	0.001103
1838.000000	0.001103
1837.000000	0.001095
1836.000000	0.001076
1835.000000	0.001045
1834.000000	0.001008
1833.000000	0.000974
1832.000000	0.000955
1831.000000	0.000964
1830.000000	0.001009
1829.000000	0.001069
1828.000000	0.001100
1827.000000	0.001085
1826.000000	0.001050
1825.000000	0.001040
1824.000000	0.001065
1823.000000	0.001093
1822.000000	0.001095
1821.000000	0.001078
1820.000000	0.001063
1819.000000	0.001056
1818.000000	0.001053
1817.000000	0.001048
1816.000000	0.001042
1815.000000	0.001032
1814.000000	0.001011
1813.000000	0.000987
1812.000000	0.000980
1811.000000	0.000999
1810.000000	0.001026
1809.000000	0.001039
1808.000000	0.001046
1807.000000	0.001072
1806.000000	0.001123
1805.000000	0.001178
1804.000000	0.001221
1803.000000	0.001263
1802.000000	0.001328
1801.000000	0.001421
1800.000000	0.001520
1799.000000	0.001595
1798.000000	0.001633
1797.000000	0.001644
1796.000000	0.001650
1795.000000	0.001650
1794.000000	0.001622
1793.000000	0.001549
1792.000000	0.001453
1791.000000	0.001380
1790.000000	0.001333
1789.000000	0.001284
1788.000000	0.001215
1787.000000	0.001136
1786.000000	0.001071
1785.000000	0.001039
1784.000000	0.001041
1783.000000	0.001053
1782.000000	0.001060
1781.000000	0.001068
1780.000000	0.001093
1779.000000	0.001130
1778.000000	0.001155
1777.000000	0.001156
1776.000000	0.001141
1775.000000	0.001125
1774.000000	0.001123
1773.000000	0.001159
1772.000000	0.001228
1771.000000	0.001273
1770.000000	0.001262
1769.000000	0.001228
1768.000000	0.001231
1767.000000	0.001297
1766.000000	0.001397
1765.000000	0.001492
1764.000000	0.001581
1763.000000	0.001696
1762.000000	0.001879
1761.000000	0.002128
1760.000000	0.002403
1759.000000	0.002687
1758.000000	0.003020
1757.000000	0.003468
1756.000000	0.004031
1755.000000	0.004622
1754.000000	0.005191
1753.000000	0.005778
1752.000000	0.006448
1751.000000	0.007194
1750.000000	0.007945
1749.000000	0.008670
1748.000000	0.009361
1747.000000	0.009976
1746.000000	0.010494
1745.000000	0.010942
1744.000000	0.011344
1743.000000	0.011693
1742.000000	0.011969
1741.000000	0.012161
1740.000000	0.012247
1739.000000	0.012228
1738.000000	0.012157
1737.000000	0.012061
1736.000000	0.011880
1735.000000	0.011511
1734.000000	0.010954
1733.000000	0.010405
1732.000000	0.009945
1731.000000	0.009467
1730.000000	0.008908
1729.000000	0.008312
1728.000000	0.007741
1727.000000	0.007206
1726.000000	0.006696
1725.000000	0.006212
1724.000000	0.005754
1723.000000	0.005323
1722.000000	0.004931
1721.000000	0.004582
1720.000000	0.004246
1719.000000	0.003893
1718.000000	0.003564
1717.000000	0.003320
1716.000000	0.003152
1715.000000	0.003010
1714.000000	0.002876
1713.000000	0.002764
1712.000000	0.002671
1711.000000	0.002578
1710.000000	0.002483
1709.000000	0.002397
1708.000000	0.002316
1707.000000	0.002226
1706.000000	0.002145
1705.000000	0.002110
1704.000000	0.002128
1703.000000	0.002170
1702.000000	0.002211
1701.000000	0.002249
1700.000000	0.002294
1699.000000	0.002334
1698.000000	0.002352
1697.000000	0.002344
1696.000000	0.002318
1695.000000	0.002312
1694.000000	0.002354
1693.000000	0.002420
1692.000000	0.002480
1691.000000	0.002516
1690.000000	0.002544
1689.000000	0.002595
1688.000000	0.002667
1687.000000	0.002728
1686.000000	0.002748
1685.000000	0.002739
1684.000000	0.002752
1683.000000	0.002797
1682.000000	0.002852
1681.000000	0.002911
1680.000000	0.002967
1679.000000	0.003009
1678.000000	0.003042
1677.000000	0.003080
1676.000000	0.003138
1675.000000	0.003204
1674.000000	0.003266
1673.000000	0.003329
1672.000000	0.003396
1671.000000	0.003461
1670.000000	0.003526
1669.000000	0.003604
1668.000000	0.003692
1667.000000	0.003761
1666.000000	0.003804
1665.000000	0.003835
1664.000000	0.003867
1663.000000	0.003917
1662.000000	0.003994
1661.000000	0.004089
1660.000000	0.004176
1659.000000	0.004226
1658.000000	0.004242
1657.000000	0.004251
1656.000000	0.004286
1655.000000	0.004336
1654.000000	0.004387
1653.000000	0.004428
1652.000000	0.004473
1651.000000	0.004498
1650.000000	0.004515
1649.000000	0.004538
1648.000000	0.004581
1647.000000	0.004627
1646.000000	0.004646
1645.000000	0.004654
1644.000000	0.004671
1643.000000	0.004692
1642.000000	0.004705
1641.000000	0.004702
1640.000000	0.004692
1639.000000	0.004687
1638.000000	0.004694
1637.000000	0.004708
1636.000000	0.004711
1635.000000	0.004683
1634.000000	0.004645
1633.000000	0.004620
1632.000000	0.004612
1631.000000	0.004603
1630.000000	0.004576
1629.000000	0.004532
1628.000000	0.004492
1627.000000	0.004473
1626.000000	0.004473
1625.000000	0.004477
1624.000000	0.004465
1623.000000	0.004421
1622.000000	0.004358
1621.000000	0.004307
1620.000000	0.004273
1619.000000	0.004239
1618.000000	0.004179
1617.000000	0.004082
1616.000000	0.003960
1615.000000	0.003835
1614.000000	0.003722
1613.000000	0.003628
1612.000000	0.003546
1611.000000	0.003464
1610.000000	0.003382
1609.000000	0.003311
1608.000000	0.003247
1607.000000	0.003178
1606.000000	0.003102
1605.000000	0.003034
1604.000000	0.002976
1603.000000	0.002916
1602.000000	0.002852
1601.000000	0.002801
1600.000000	0.002769
1599.000000	0.002739
1598.000000	0.002707
1597.000000	0.002679
1596.000000	0.002664
1595.000000	0.002653
1594.000000	0.002638
1593.000000	0.002618
1592.000000	0.002593
1591.000000	0.002560
1590.000000	0.002524
1589.000000	0.002500
1588.000000	0.002494
1587.000000	0.002491
1586.000000	0.002483
1585.000000	0.002480
1584.000000	0.002490
1583.000000	0.002499
1582.000000	0.002488
1581.000000	0.002464
1580.000000	0.002449
1579.000000	0.002453
1578.000000	0.002472
1577.000000	0.002494
1576.000000	0.002506
1575.000000	0.002509
1574.000000	0.002525
1573.000000	0.002570
1572.000000	0.002629
1571.000000	0.002672
1570.000000	0.002690
1569.000000	0.002706
1568.000000	0.002738
1567.000000	0.002777
1566.000000	0.002813
1565.000000	0.002848
1564.000000	0.002883
1563.000000	0.002916
1562.000000	0.002952
1561.000000	0.003001
1560.000000	0.003086
1559.000000	0.003216
1558.000000	0.003287
1557.000000	0.003329
1556.000000	0.003371
1555.000000	0.003412
1554.000000	0.003466
1553.000000	0.003540
1552.000000	0.003617
1551.000000	0.003690
1550.000000	0.003781
1549.000000	0.003903
1548.000000	0.004027
1547.000000	0.004117
1546.000000	0.004181
1545.000000	0.004263
1544.000000	0.004391
1543.000000	0.004551
1542.000000	0.004727
1541.000000	0.004905
1540.000000	0.005050
1539.000000	0.005132
1538.000000	0.005193
1537.000000	0.005269
1536.000000	0.005357
1535.000000	0.005447
1534.000000	0.005542
1533.000000	0.005652
1532.000000	0.005770
1531.000000	0.005877
1530.000000	0.005958
1529.000000	0.006010
1528.000000	0.006050
1527.000000	0.006112
1526.000000	0.006216
1525.000000	0.006341
1524.000000	0.006434
1523.000000	0.006468
1522.000000	0.006476
1521.000000	0.006520
1520.000000	0.006618
1519.000000	0.006729
1518.000000	0.006831
1517.000000	0.006929
1516.000000	0.007025
1515.000000	0.007117
1514.000000	0.007209
1513.000000	0.007298
1512.000000	0.007371
1511.000000	0.007419
1510.000000	0.007451
1509.000000	0.007496
1508.000000	0.007582
1507.000000	0.007711
1506.000000	0.007872
1505.000000	0.008036
1504.000000	0.008147
1503.000000	0.008211
1502.000000	0.008270
1501.000000	0.008349
1500.000000	0.008440
1499.000000	0.008520
1498.000000	0.008611
1497.000000	0.008743
1496.000000	0.008891
1495.000000	0.009009
1494.000000	0.009095
1493.000000	0.009168
1492.000000	0.009231
1491.000000	0.009298
1490.000000	0.009407
1489.000000	0.009565
1488.000000	0.009732
1487.000000	0.009876
1486.000000	0.010002
1485.000000	0.010135
1484.000000	0.010281
1483.000000	0.010428
1482.000000	0.010593
1481.000000	0.010794
1480.000000	0.011012
1479.000000	0.011204
1478.000000	0.011371
1477.000000	0.011553
1476.000000	0.011776
1475.000000	0.012030
1474.000000	0.012307
1473.000000	0.012624
1472.000000	0.012963
1471.000000	0.013288
1470.000000	0.013598
1469.000000	0.013896
1468.000000	0.014167
1467.000000	0.014396
1466.000000	0.014590
1465.000000	0.014773
1464.000000	0.014952
1463.000000	0.015122
1462.000000	0.015287
1461.000000	0.015444
1460.000000	0.015577
1459.000000	0.015690
1458.000000	0.015855
1457.000000	0.016131
1456.000000	0.016409
1455.000000	0.016590
1454.000000	0.016714
1453.000000	0.016839
1452.000000	0.016978
1451.000000	0.017111
1450.000000	0.017230
1449.000000	0.017343
1448.000000	0.017458
1447.000000	0.017583
1446.000000	0.017735
1445.000000	0.017911
1444.000000	0.018085
1443.000000	0.018240
1442.000000	0.018388
1441.000000	0.018545
1440.000000	0.018690
1439.000000	0.018799
1438.000000	0.018904
1437.000000	0.019088
1436.000000	0.019354
1435.000000	0.019609
1434.000000	0.019811
1433.000000	0.019973
1432.000000	0.020101
1431.000000	0.020207
1430.000000	0.020333
1429.000000	0.020521
1428.000000	0.020748
1427.000000	0.020959
1426.000000	0.021134
1425.000000	0.021284
1424.000000	0.021407
1423.000000	0.021484
1422.000000	0.021533
1421.000000	0.021574
1420.000000	0.021604
1419.000000	0.021621
1418.000000	0.021651
1417.000000	0.021704
1416.000000	0.021732
1415.000000	0.021696
1414.000000	0.021611
1413.000000	0.021506
1412.000000	0.021376
1411.000000	0.021204
1410.000000	0.021007
1409.000000	0.020801
1408.000000	0.020568
1407.000000	0.020295
1406.000000	0.020012
1405.000000	0.019765
1404.000000	0.019567
1403.000000	0.019410
1402.000000	0.019286
1401.000000	0.019180
1400.000000	0.019068
1399.000000	0.018947
1398.000000	0.018845
1397.000000	0.018773
1396.000000	0.018702
1395.000000	0.018609
1394.000000	0.018521
1393.000000	0.018468
1392.000000	0.018420
1391.000000	0.018339
1390.000000	0.018218
1389.000000	0.018065
1388.000000	0.017887
1387.000000	0.017699
1386.000000	0.017536
1385.000000	0.017408
1384.000000	0.017280
1383.000000	0.017124
1382.000000	0.016950
1381.000000	0.016770
1380.000000	0.016578
1379.000000	0.016371
1378.000000	0.016159
1377.000000	0.015943
1376.000000	0.015697
1375.000000	0.015415
1374.000000	0.015138
1373.000000	0.014913
1372.000000	0.014734
1371.000000	0.014560
1370.000000	0.014370
1369.000000	0.014180
1368.000000	0.014012
1367.000000	0.013871
1366.000000	0.013742
1365.000000	0.013598
1364.000000	0.013420
1363.000000	0.013223
1362.000000	0.013052
1361.000000	0.012938
1360.000000	0.012872
1359.000000	0.012825
1358.000000	0.012777
1357.000000	0.012717
1356.000000	0.012639
1355.000000	0.012550
1354.000000	0.012463
1353.000000	0.012375
1352.000000	0.012269
1351.000000	0.012144
1350.000000	0.012018
1349.000000	0.011911
1348.000000	0.011825
1347.000000	0.011753
1346.000000	0.011692
1345.000000	0.011640
1344.000000	0.011593
1343.000000	0.011540
1342.000000	0.011483
1341.000000	0.011433
1340.000000	0.011410
1339.000000	0.011424
1338.000000	0.011469
1337.000000	0.011524
1336.000000	0.011568
1335.000000	0.011591
1334.000000	0.011592
1333.000000	0.011566
1332.000000	0.011509
1331.000000	0.011426
1330.000000	0.011327
1329.000000	0.011216
1328.000000	0.011092
1327.000000	0.010971
1326.000000	0.010870
1325.000000	0.010795
1324.000000	0.010726
1323.000000	0.010644
1322.000000	0.010548
1321.000000	0.010449
1320.000000	0.010357
1319.000000	0.010278
1318.000000	0.010206
1317.000000	0.010126
1316.000000	0.010021
1315.000000	0.009895
1314.000000	0.009775
1313.000000	0.009679
1312.000000	0.009598
1311.000000	0.009512
1310.000000	0.009417
1309.000000	0.009330
1308.000000	0.009259
1307.000000	0.009199
1306.000000	0.009130
1305.000000	0.009037
1304.000000	0.008922
1303.000000	0.008808
1302.000000	0.008715
1301.000000	0.008638
1300.000000	0.008556
1299.000000	0.008455
1298.000000	0.008343
1297.000000	0.008235
1296.000000	0.008139
1295.000000	0.008056
1294.000000	0.007983
1293.000000	0.007923
1292.000000	0.007876
1291.000000	0.007844
1290.000000	0.007818
1289.000000	0.007784
1288.000000	0.007733
1287.000000	0.007672
1286.000000	0.007616
1285.000000	0.007566
1284.000000	0.007514
1283.000000	0.007453
1282.000000	0.007390
1281.000000	0.007332
1280.000000	0.007287
1279.000000	0.007266
1278.000000	0.007282
1277.000000	0.007334
1276.000000	0.007410
1275.000000	0.007492
1274.000000	0.007574
1273.000000	0.007667
1272.000000	0.007785
1271.000000	0.007940
1270.000000	0.008128
1269.000000	0.008331
1268.000000	0.008534
1267.000000	0.008739
1266.000000	0.008954
1265.000000	0.009174
1264.000000	0.009380
1263.000000	0.009560
1262.000000	0.009727
1261.000000	0.009899
1260.000000	0.010081
1259.000000	0.010269
1258.000000	0.010453
1257.000000	0.010624
1256.000000	0.010766
1255.000000	0.010867
1254.000000	0.010928
1253.000000	0.010964
1252.000000	0.010982
1251.000000	0.010991
1250.000000	0.010998
1249.000000	0.011011
1248.000000	0.011028
1247.000000	0.011039
1246.000000	0.011044
1245.000000	0.011052
1244.000000	0.011072
1243.000000	0.011096
1242.000000	0.011101
1241.000000	0.011073
1240.000000	0.011013
1239.000000	0.010944
1238.000000	0.010881
1237.000000	0.010823
1236.000000	0.010750
1235.000000	0.010652
1234.000000	0.010534
1233.000000	0.010410
1232.000000	0.010288
1231.000000	0.010169
1230.000000	0.010047
1229.000000	0.009909
1228.000000	0.009735
1227.000000	0.009522
1226.000000	0.009281
1225.000000	0.009029
1224.000000	0.008774
1223.000000	0.008519
1222.000000	0.008270
1221.000000	0.008038
1220.000000	0.007832
1219.000000	0.007659
1218.000000	0.007518
1217.000000	0.007395
1216.000000	0.007272
1215.000000	0.007139
1214.000000	0.007005
1213.000000	0.006887
1212.000000	0.006797
1211.000000	0.006743
1210.000000	0.006717
1209.000000	0.006704
1208.000000	0.006691
1207.000000	0.006674
1206.000000	0.006658
1205.000000	0.006652
1204.000000	0.006665
1203.000000	0.006698
1202.000000	0.006744
1201.000000	0.006787
1200.000000	0.006821
1199.000000	0.006859
1198.000000	0.006918
1197.000000	0.007004
1196.000000	0.007113
1195.000000	0.007239
1194.000000	0.007383
1193.000000	0.007540
1192.000000	0.007704
1191.000000	0.007876
1190.000000	0.008056
1189.000000	0.008238
1188.000000	0.008415
1187.000000	0.008590
1186.000000	0.008781
1185.000000	0.008998
1184.000000	0.009231
1183.000000	0.009469
1182.000000	0.009719
1181.000000	0.009997
1180.000000	0.010311
1179.000000	0.010647
1178.000000	0.010978
1177.000000	0.011283
1176.000000	0.011561
1175.000000	0.011826
1174.000000	0.012096
1173.000000	0.012379
1172.000000	0.012673
1171.000000	0.012967
1170.000000	0.013254
1169.000000	0.013525
1168.000000	0.013770
1167.000000	0.013987
1166.000000	0.014182
1165.000000	0.014356
1164.000000	0.014502
1163.000000	0.014612
1162.000000	0.014688
1161.000000	0.014736
1160.000000	0.014758
1159.000000	0.014754
1158.000000	0.014726
1157.000000	0.014670
1156.000000	0.014577
1155.000000	0.014439
1154.000000	0.014264
1153.000000	0.014057
1152.000000	0.013823
1151.000000	0.013571
1150.000000	0.013312
1149.000000	0.013043
1148.000000	0.012743
1147.000000	0.012399
1146.000000	0.012028
1145.000000	0.011659
1144.000000	0.011304
1143.000000	0.010956
1142.000000	0.010607
1141.000000	0.010256
1140.000000	0.009912
1139.000000	0.009589
1138.000000	0.009293
1137.000000	0.009019
1136.000000	0.008757
1135.000000	0.008515
1134.000000	0.008301
1133.000000	0.008113
1132.000000	0.007928
1131.000000	0.007744
1130.000000	0.007581
1129.000000	0.007463
1128.000000	0.007389
1127.000000	0.007349
1126.000000	0.007342
1125.000000	0.007371
1124.000000	0.007432
1123.000000	0.007514
1122.000000	0.007613
1121.000000	0.007732
1120.000000	0.007869
1119.000000	0.008019
1118.000000	0.008188
1117.000000	0.008395
1116.000000	0.008656
1115.000000	0.008958
1114.000000	0.009273
1113.000000	0.009574
1112.000000	0.009852
1111.000000	0.010104
1110.000000	0.010315
1109.000000	0.010458
1108.000000	0.010517
1107.000000	0.010506
1106.000000	0.010462
1105.000000	0.010402
1104.000000	0.010327
1103.000000	0.010239
1102.000000	0.010162
1101.000000	0.010123
1100.000000	0.010133
1099.000000	0.010185
1098.000000	0.010269
1097.000000	0.010369
1096.000000	0.010474
1095.000000	0.010576
1094.000000	0.010668
1093.000000	0.010730
1092.000000	0.010731
1091.000000	0.010658
1090.000000	0.010520
1089.000000	0.010329
1088.000000	0.010092
1087.000000	0.009821
1086.000000	0.009540
1085.000000	0.009263
1084.000000	0.008980
1083.000000	0.008692
1082.000000	0.008417
1081.000000	0.008173
1080.000000	0.007948
1079.000000	0.007729
1078.000000	0.007527
1077.000000	0.007359
1076.000000	0.007222
1075.000000	0.007096
1074.000000	0.006972
1073.000000	0.006856
1072.000000	0.006750
1071.000000	0.006653
1070.000000	0.006574
1069.000000	0.006529
1068.000000	0.006522
1067.000000	0.006538
1066.000000	0.006556
1065.000000	0.006566
1064.000000	0.006568
1063.000000	0.006564
1062.000000	0.006558
1061.000000	0.006548
1060.000000	0.006523
1059.000000	0.006473
1058.000000	0.006398
1057.000000	0.006310
1056.000000	0.006216
1055.000000	0.006113
1054.000000	0.006005
1053.000000	0.005902
1052.000000	0.005820
1051.000000	0.005761
1050.000000	0.005721
1049.000000	0.005691
1048.000000	0.005668
1047.000000	0.005661
1046.000000	0.005675
1045.000000	0.005707
1044.000000	0.005745
1043.000000	0.005775
1042.000000	0.005798
1041.000000	0.005820
1040.000000	0.005846
1039.000000	0.005881
1038.000000	0.005922
1037.000000	0.005964
1036.000000	0.006002
1035.000000	0.006027
1034.000000	0.006038
1033.000000	0.006033
1032.000000	0.006013
1031.000000	0.005993
1030.000000	0.005999
1029.000000	0.006045
1028.000000	0.006119
1027.000000	0.006193
1026.000000	0.006248
1025.000000	0.006285
1024.000000	0.006312
1023.000000	0.006331
1022.000000	0.006340
1021.000000	0.006342
1020.000000	0.006337
1019.000000	0.006323
1018.000000	0.006297
1017.000000	0.006259
1016.000000	0.006214
1015.000000	0.006163
1014.000000	0.006105
1013.000000	0.006042
1012.000000	0.005978
1011.000000	0.005910
1010.000000	0.005829
1009.000000	0.005731
1008.000000	0.005626
1007.000000	0.005527
1006.000000	0.005434
1005.000000	0.005337
1004.000000	0.005228
1003.000000	0.005109
1002.000000	0.004991
1001.000000	0.004885
1000.000000	0.004802
999.000000	0.004747
998.000000	0.004715
997.000000	0.004697
996.000000	0.004680
995.000000	0.004657
994.000000	0.004618
993.000000	0.004567
992.000000	0.004515
991.000000	0.004483
990.000000	0.004472
989.000000	0.004461
988.000000	0.004430
987.000000	0.004384
986.000000	0.004348
985.000000	0.004338
984.000000	0.004346
983.000000	0.004346
982.000000	0.004316
981.000000	0.004261
980.000000	0.004208
979.000000	0.004188
978.000000	0.004206
977.000000	0.004245
976.000000	0.004293
975.000000	0.004355
974.000000	0.004434
973.000000	0.004515
972.000000	0.004576
971.000000	0.004608
970.000000	0.004620
969.000000	0.004618
968.000000	0.004607
967.000000	0.004591
966.000000	0.004576
965.000000	0.004559
964.000000	0.004539
963.000000	0.004515
962.000000	0.004488
961.000000	0.004446
960.000000	0.004383
959.000000	0.004309
958.000000	0.004238
957.000000	0.004173
956.000000	0.004106
955.000000	0.004037
954.000000	0.003970
953.000000	0.003893
952.000000	0.003789
951.000000	0.003670
950.000000	0.003581
949.000000	0.003549
948.000000	0.003550
947.000000	0.003529
946.000000	0.003463
945.000000	0.003374
944.000000	0.003294
943.000000	0.003230
942.000000	0.003168
941.000000	0.003106
940.000000	0.003055
939.000000	0.003019
938.000000	0.002984
937.000000	0.002935
936.000000	0.002870
935.000000	0.002803
934.000000	0.002744
933.000000	0.002694
932.000000	0.002649
931.000000	0.002614
930.000000	0.002587
929.000000	0.002561
928.000000	0.002524
927.000000	0.002475
926.000000	0.002422
925.000000	0.002379
924.000000	0.002357
923.000000	0.002349
922.000000	0.002332
921.000000	0.002282
920.000000	0.002207
919.000000	0.002142
918.000000	0.002108
917.000000	0.002089
916.000000	0.002053
915.000000	0.001989
914.000000	0.001914
913.000000	0.001849
912.000000	0.001805
911.000000	0.001780
910.000000	0.001760
909.000000	0.001721
908.000000	0.001649
907.000000	0.001553
906.000000	0.001451
905.000000	0.001354
904.000000	0.001263
903.000000	0.001187
902.000000	0.001137
901.000000	0.001107
900.000000	0.001081
899.000000	0.001055
898.000000	0.001041
897.000000	0.001060
896.000000	0.001105
895.000000	0.001147
894.000000	0.001157
893.000000	0.001133
892.000000	0.001106
891.000000	0.001112
890.000000	0.001180
889.000000	0.001345
888.000000	0.001678
887.000000	0.002251
886.000000	0.003062
885.000000	0.004002
884.000000	0.004927
883.000000	0.005766
882.000000	0.006570
881.000000	0.007456
880.000000	0.008522
879.000000	0.009766
878.000000	0.011083
877.000000	0.012321
876.000000	0.013351
875.000000	0.014078
874.000000	0.014428
873.000000	0.014337
872.000000	0.013795
871.000000	0.012884
870.000000	0.011758
869.000000	0.010566
868.000000	0.009405
867.000000	0.008325
866.000000	0.007362
865.000000	0.006544
864.000000	0.005891
863.000000	0.005391
862.000000	0.004990
861.000000	0.004610
860.000000	0.004211
859.000000	0.003823
858.000000	0.003490
857.000000	0.003219
856.000000	0.002991
855.000000	0.002809
854.000000	0.002689
853.000000	0.002623
852.000000	0.002594
851.000000	0.002615
850.000000	0.002707
849.000000	0.002836
848.000000	0.002904
847.000000	0.002837
846.000000	0.002650
845.000000	0.002413
844.000000	0.002192
843.000000	0.002022
842.000000	0.001922
841.000000	0.001884
840.000000	0.001875
839.000000	0.001865
838.000000	0.001866
837.000000	0.001905
836.000000	0.001983
835.000000	0.002064
834.000000	0.002097
833.000000	0.002055
832.000000	0.001948
831.000000	0.001824
830.000000	0.001731
829.000000	0.001682
828.000000	0.001648
827.000000	0.001604
826.000000	0.001546
825.000000	0.001481
824.000000	0.001409
823.000000	0.001347
822.000000	0.001330
821.000000	0.001363
820.000000	0.001395
819.000000	0.001367
818.000000	0.001285
817.000000	0.001206
816.000000	0.001174
815.000000	0.001182
814.000000	0.001197
813.000000	0.001191
812.000000	0.001151
811.000000	0.001078
810.000000	0.000987
809.000000	0.000913
808.000000	0.000887
807.000000	0.000910
806.000000	0.000956
805.000000	0.000995
804.000000	0.001021
803.000000	0.001055
802.000000	0.001115
801.000000	0.001180
800.000000	0.001210
799.000000	0.001188
798.000000	0.001148
797.000000	0.001141
796.000000	0.001170
795.000000	0.001199
794.000000	0.001195
793.000000	0.001162
792.000000	0.001131
791.000000	0.001125
790.000000	0.001149
789.000000	0.001192
788.000000	0.001234
787.000000	0.001261
786.000000	0.001276
785.000000	0.001300
784.000000	0.001343
783.000000	0.001385
782.000000	0.001402
781.000000	0.001391
780.000000	0.001373
779.000000	0.001368
778.000000	0.001369
777.000000	0.001364
776.000000	0.001340
775.000000	0.001295
774.000000	0.001236
773.000000	0.001191
772.000000	0.001187
771.000000	0.001235
770.000000	0.001319
769.000000	0.001410
768.000000	0.001484
767.000000	0.001528
766.000000	0.001535
765.000000	0.001507
764.000000	0.001456
763.000000	0.001397
762.000000	0.001359
761.000000	0.001384
760.000000	0.001489
759.000000	0.001636
758.000000	0.001750
757.000000	0.001786
756.000000	0.001770
755.000000	0.001753
754.000000	0.001747
753.000000	0.001736
752.000000	0.001719
751.000000	0.001719
750.000000	0.001742
749.000000	0.001773
748.000000	0.001796
747.000000	0.001814
746.000000	0.001834
745.000000	0.001850
744.000000	0.001867
743.000000	0.001892
742.000000	0.001921
741.000000	0.001925
740.000000	0.001880
739.000000	0.001788
738.000000	0.001682
737.000000	0.001608
736.000000	0.001607
735.000000	0.001693
734.000000	0.001827
733.000000	0.001956
732.000000	0.002050
731.000000	0.002114
730.000000	0.002142
729.000000	0.002126
728.000000	0.002084
727.000000	0.002056
726.000000	0.002058
725.000000	0.002063
724.000000	0.002041
723.000000	0.001998
722.000000	0.001966
721.000000	0.001974
720.000000	0.002052
719.000000	0.002242
718.000000	0.002597
717.000000	0.003165
716.000000	0.003971
715.000000	0.004972
714.000000	0.005995
713.000000	0.006764
712.000000	0.007045
711.000000	0.006803
710.000000	0.006215
709.000000	0.005542
708.000000	0.004986
707.000000	0.004623
706.000000	0.004423
705.000000	0.004313
704.000000	0.004228
703.000000	0.004155
702.000000	0.004120
701.000000	0.004144
700.000000	0.004209
699.000000	0.004263
698.000000	0.004257
697.000000	0.004192
696.000000	0.004108
695.000000	0.004056
694.000000	0.004054
693.000000	0.004084
692.000000	0.004136
691.000000	0.004202
690.000000	0.004252
689.000000	0.004241
688.000000	0.004163
687.000000	0.004065
686.000000	0.003982
685.000000	0.003907
684.000000	0.003842
683.000000	0.003818
682.000000	0.003838
681.000000	0.003855
680.000000	0.003847
679.000000	0.003851
678.000000	0.003906
677.000000	0.004008
676.000000	0.004125
675.000000	0.004230
674.000000	0.004290
673.000000	0.004266
672.000000	0.004130
671.000000	0.003882
670.000000	0.003509
669.000000	0.003026
668.000000	0.002710
667.000000	0.002831
666.000000	0.003012
665.000000	0.003111
664.000000	0.003156
663.000000	0.003109
662.000000	0.002952
661.000000	0.002727
660.000000	0.002495
659.000000	0.002298
658.000000	0.002159
657.000000	0.002116
656.000000	0.002169
655.000000	0.002280
654.000000	0.002426
653.000000	0.002611
652.000000	0.002809
651.000000	0.002985
650.000000	0.003147
649.000000	0.003326
648.000000	0.003493
647.000000	0.003581
646.000000	0.003615
645.000000	0.003690
644.000000	0.003831
643.000000	0.003969
642.000000	0.004061
641.000000	0.004149
640.000000	0.004279
639.000000	0.004422
638.000000	0.004534
637.000000	0.004612
636.000000	0.004656
635.000000	0.004640
634.000000	0.004577
633.000000	0.004530
632.000000	0.004544
631.000000	0.004591
630.000000	0.004636
629.000000	0.004680
628.000000	0.004727
627.000000	0.004753
626.000000	0.004758
625.000000	0.004783
624.000000	0.004848
623.000000	0.004917
622.000000	0.004941
621.000000	0.004912
620.000000	0.004863
619.000000	0.004840
618.000000	0.004893
617.000000	0.005036
616.000000	0.005217
615.000000	0.005361
614.000000	0.005445
613.000000	0.005509
612.000000	0.005575
611.000000	0.005635
610.000000	0.005693
609.000000	0.005768
608.000000	0.005846
607.000000	0.005887
606.000000	0.005909
605.000000	0.005981
604.000000	0.006099
603.000000	0.006160
602.000000	0.006067
601.000000	0.005823
600.000000	0.005498
599.000000	0.005155
598.000000	0.004847
597.000000	0.004621
596.000000	0.004479
595.000000	0.004361
594.000000	0.004211
593.000000	0.004027
592.000000	0.003842
591.000000	0.003667
590.000000	0.003499
589.000000	0.003340
588.000000	0.003203
587.000000	0.003104
586.000000	0.003085
585.000000	0.003174
584.000000	0.003323
583.000000	0.003421
582.000000	0.003407
581.000000	0.003329
580.000000	0.003267
579.000000	0.003218
578.000000	0.003121
577.000000	0.002962
576.000000	0.002796
575.000000	0.002685
574.000000	0.002639
573.000000	0.002606
572.000000	0.002514
571.000000	0.002348
570.000000	0.002187
569.000000	0.002138
568.000000	0.002212
567.000000	0.002317
566.000000	0.002369
565.000000	0.002345
564.000000	0.002224
563.000000	0.001981
562.000000	0.001690
561.000000	0.001536
560.000000	0.001628
559.000000	0.001868
558.000000	0.002056
557.000000	0.002104
556.000000	0.002067
555.000000	0.002016
554.000000	0.001980
553.000000	0.001991
552.000000	0.002084
551.000000	0.002230
550.000000	0.002356
549.000000	0.002424
548.000000	0.002451
547.000000	0.002432
546.000000	0.002319
545.000000	0.002106
544.000000	0.001867
543.000000	0.001697
542.000000	0.001643
541.000000	0.001707
540.000000	0.001851
539.000000	0.002003
538.000000	0.002083
537.000000	0.002059
536.000000	0.001974
535.000000	0.001905
534.000000	0.001906
533.000000	0.001977
532.000000	0.002073
531.000000	0.002119
530.000000	0.002072
529.000000	0.001966
528.000000	0.001902
527.000000	0.001947
526.000000	0.002057
525.000000	0.002120
524.000000	0.002091
523.000000	0.002041
522.000000	0.002049
521.000000	0.002098
520.000000	0.002081
519.000000	0.001939
518.000000	0.001756
517.000000	0.001663
516.000000	0.001678
515.000000	0.001718
514.000000	0.001743
513.000000	0.001798
512.000000	0.001920
511.000000	0.002080
510.000000	0.002220
509.000000	0.002310
508.000000	0.002350
507.000000	0.002347
506.000000	0.002319
505.000000	0.002305
504.000000	0.002330
503.000000	0.002392
502.000000	0.002469
501.000000	0.002524
500.000000	0.002510
499.000000	0.002418
498.000000	0.002308
497.000000	0.002256
496.000000	0.002251
495.000000	0.002217
494.000000	0.002159
493.000000	0.002190
492.000000	0.002353
491.000000	0.002498
490.000000	0.002453
489.000000	0.002246
488.000000	0.002047
487.000000	0.001946
486.000000	0.001886
485.000000	0.001796
484.000000	0.001707
483.000000	0.001717
482.000000	0.001892
481.000000	0.002205
480.000000	0.002538
479.000000	0.002725
478.000000	0.002669
477.000000	0.002422
476.000000	0.002110
475.000000	0.001813
474.000000	0.001600
473.000000	0.001577
472.000000	0.001756
471.000000	0.001936
470.000000	0.001909
469.000000	0.001674
468.000000	0.001383
467.000000	0.001197
466.000000	0.001241
465.000000	0.001545
464.000000	0.001965
463.000000	0.002201
462.000000	0.002054
461.000000	0.001685
460.000000	0.001433
459.000000	0.001426
458.000000	0.001521
457.000000	0.001561
456.000000	0.001568
455.000000	0.001576
454.000000	0.001516
453.000000	0.001361
452.000000	0.001206
451.000000	0.001089
450.000000	0.000885
