PE IR       SUBTECH     SPECTRUM    ASCII       PEDS        4.00        
   -1
P12-Rouge054_1.ASC
23/06/08
15:45:56.00
23/06/08
15:48:35.00
uco
Sample 054 By uco Date Thursday, June 08 2023
450.000000
#HDR
-1
-1
#GR
cm-1
A
1.0
0.0
4000.000000
-1.000000
3551
8
0.019071
0.000148
#DATA
4000.000000	0.000339
3999.000000	0.000397
3998.000000	0.000456
3997.000000	0.000490
3996.000000	0.000493
3995.000000	0.000473
3994.000000	0.000448
3993.000000	0.000434
3992.000000	0.000365
3991.000000	0.000372
3990.000000	0.000384
3989.000000	0.000398
3988.000000	0.000412
3987.000000	0.000423
3986.000000	0.000425
3985.000000	0.000415
3984.000000	0.000393
3983.000000	0.000371
3982.000000	0.000362
3981.000000	0.000374
3980.000000	0.000401
3979.000000	0.000431
3978.000000	0.000451
3977.000000	0.000454
3976.000000	0.000443
3975.000000	0.000424
3974.000000	0.000403
3973.000000	0.000387
3972.000000	0.000378
3971.000000	0.000373
3970.000000	0.000369
3969.000000	0.000367
3968.000000	0.000373
3967.000000	0.000388
3966.000000	0.000409
3965.000000	0.000425
3964.000000	0.000428
3963.000000	0.000421
3962.000000	0.000413
3961.000000	0.000416
3960.000000	0.000427
3959.000000	0.000437
3958.000000	0.000432
3957.000000	0.000409
3956.000000	0.000377
3955.000000	0.000348
3954.000000	0.000334
3953.000000	0.000343
3952.000000	0.000374
3951.000000	0.000421
3950.000000	0.000469
3949.000000	0.000503
3948.000000	0.000513
3947.000000	0.000502
3946.000000	0.000477
3945.000000	0.000448
3944.000000	0.000423
3943.000000	0.000412
3942.000000	0.000422
3941.000000	0.000452
3940.000000	0.000488
3939.000000	0.000511
3938.000000	0.000509
3937.000000	0.000484
3936.000000	0.000450
3935.000000	0.000425
3934.000000	0.000417
3933.000000	0.000422
3932.000000	0.000427
3931.000000	0.000424
3930.000000	0.000418
3929.000000	0.000418
3928.000000	0.000428
3927.000000	0.000445
3926.000000	0.000462
3925.000000	0.000471
3924.000000	0.000469
3923.000000	0.000463
3922.000000	0.000465
3921.000000	0.000487
3920.000000	0.000521
3919.000000	0.000548
3918.000000	0.000549
3917.000000	0.000523
3916.000000	0.000490
3915.000000	0.000468
3914.000000	0.000460
3913.000000	0.000458
3912.000000	0.000455
3911.000000	0.000454
3910.000000	0.000460
3909.000000	0.000472
3908.000000	0.000483
3907.000000	0.000488
3906.000000	0.000493
3905.000000	0.000512
3904.000000	0.000551
3903.000000	0.000590
3902.000000	0.000603
3901.000000	0.000579
3900.000000	0.000535
3899.000000	0.000497
3898.000000	0.000480
3897.000000	0.000482
3896.000000	0.000491
3895.000000	0.000497
3894.000000	0.000495
3893.000000	0.000486
3892.000000	0.000479
3891.000000	0.000484
3890.000000	0.000505
3889.000000	0.000534
3888.000000	0.000561
3887.000000	0.000579
3886.000000	0.000589
3885.000000	0.000593
3884.000000	0.000587
3883.000000	0.000560
3882.000000	0.000512
3881.000000	0.000459
3880.000000	0.000431
3879.000000	0.000445
3878.000000	0.000487
3877.000000	0.000527
3876.000000	0.000547
3875.000000	0.000551
3874.000000	0.000557
3873.000000	0.000578
3872.000000	0.000606
3871.000000	0.000624
3870.000000	0.000624
3869.000000	0.000615
3868.000000	0.000605
3867.000000	0.000589
3866.000000	0.000558
3865.000000	0.000517
3864.000000	0.000487
3863.000000	0.000479
3862.000000	0.000491
3861.000000	0.000509
3860.000000	0.000523
3859.000000	0.000526
3858.000000	0.000521
3857.000000	0.000510
3856.000000	0.000503
3855.000000	0.000504
3854.000000	0.000521
3853.000000	0.000536
3852.000000	0.000524
3851.000000	0.000500
3850.000000	0.000483
3849.000000	0.000478
3848.000000	0.000483
3847.000000	0.000494
3846.000000	0.000503
3845.000000	0.000503
3844.000000	0.000493
3843.000000	0.000474
3842.000000	0.000452
3841.000000	0.000432
3840.000000	0.000418
3839.000000	0.000418
3838.000000	0.000435
3837.000000	0.000461
3836.000000	0.000485
3835.000000	0.000498
3834.000000	0.000503
3833.000000	0.000501
3832.000000	0.000498
3831.000000	0.000499
3830.000000	0.000507
3829.000000	0.000515
3828.000000	0.000519
3827.000000	0.000517
3826.000000	0.000514
3825.000000	0.000514
3824.000000	0.000512
3823.000000	0.000495
3822.000000	0.000461
3821.000000	0.000431
3820.000000	0.000422
3819.000000	0.000428
3818.000000	0.000433
3817.000000	0.000430
3816.000000	0.000432
3815.000000	0.000452
3814.000000	0.000487
3813.000000	0.000518
3812.000000	0.000527
3811.000000	0.000508
3810.000000	0.000469
3809.000000	0.000423
3808.000000	0.000387
3807.000000	0.000378
3806.000000	0.000398
3805.000000	0.000431
3804.000000	0.000457
3803.000000	0.000457
3802.000000	0.000428
3801.000000	0.000384
3800.000000	0.000348
3799.000000	0.000334
3798.000000	0.000344
3797.000000	0.000372
3796.000000	0.000405
3795.000000	0.000431
3794.000000	0.000447
3793.000000	0.000456
3792.000000	0.000466
3791.000000	0.000473
3790.000000	0.000473
3789.000000	0.000466
3788.000000	0.000459
3787.000000	0.000461
3786.000000	0.000474
3785.000000	0.000490
3784.000000	0.000497
3783.000000	0.000494
3782.000000	0.000483
3781.000000	0.000474
3780.000000	0.000473
3779.000000	0.000482
3778.000000	0.000491
3777.000000	0.000493
3776.000000	0.000488
3775.000000	0.000482
3774.000000	0.000478
3773.000000	0.000473
3772.000000	0.000461
3771.000000	0.000439
3770.000000	0.000417
3769.000000	0.000407
3768.000000	0.000409
3767.000000	0.000419
3766.000000	0.000433
3765.000000	0.000453
3764.000000	0.000475
3763.000000	0.000488
3762.000000	0.000486
3761.000000	0.000471
3760.000000	0.000455
3759.000000	0.000445
3758.000000	0.000435
3757.000000	0.000425
3756.000000	0.000421
3755.000000	0.000429
3754.000000	0.000453
3753.000000	0.000488
3752.000000	0.000524
3751.000000	0.000551
3750.000000	0.000565
3749.000000	0.000573
3748.000000	0.000579
3747.000000	0.000575
3746.000000	0.000552
3745.000000	0.000511
3744.000000	0.000474
3743.000000	0.000458
3742.000000	0.000463
3741.000000	0.000478
3740.000000	0.000495
3739.000000	0.000507
3738.000000	0.000508
3737.000000	0.000493
3736.000000	0.000454
3735.000000	0.000397
3734.000000	0.000346
3733.000000	0.000327
3732.000000	0.000339
3731.000000	0.000367
3730.000000	0.000403
3729.000000	0.000445
3728.000000	0.000493
3727.000000	0.000539
3726.000000	0.000577
3725.000000	0.000601
3724.000000	0.000610
3723.000000	0.000602
3722.000000	0.000574
3721.000000	0.000527
3720.000000	0.000474
3719.000000	0.000431
3718.000000	0.000411
3717.000000	0.000413
3716.000000	0.000427
3715.000000	0.000441
3714.000000	0.000453
3713.000000	0.000475
3712.000000	0.000511
3711.000000	0.000543
3710.000000	0.000544
3709.000000	0.000510
3708.000000	0.000460
3707.000000	0.000418
3706.000000	0.000396
3705.000000	0.000390
3704.000000	0.000385
3703.000000	0.000373
3702.000000	0.000362
3701.000000	0.000362
3700.000000	0.000374
3699.000000	0.000391
3698.000000	0.000406
3697.000000	0.000417
3696.000000	0.000426
3695.000000	0.000436
3694.000000	0.000447
3693.000000	0.000454
3692.000000	0.000445
3691.000000	0.000415
3690.000000	0.000375
3689.000000	0.000355
3688.000000	0.000366
3687.000000	0.000392
3686.000000	0.000407
3685.000000	0.000401
3684.000000	0.000381
3683.000000	0.000362
3682.000000	0.000352
3681.000000	0.000360
3680.000000	0.000388
3679.000000	0.000432
3678.000000	0.000476
3677.000000	0.000505
3676.000000	0.000516
3675.000000	0.000518
3674.000000	0.000522
3673.000000	0.000525
3672.000000	0.000523
3671.000000	0.000513
3670.000000	0.000504
3669.000000	0.000498
3668.000000	0.000493
3667.000000	0.000482
3666.000000	0.000470
3665.000000	0.000466
3664.000000	0.000481
3663.000000	0.000514
3662.000000	0.000548
3661.000000	0.000565
3660.000000	0.000554
3659.000000	0.000522
3658.000000	0.000488
3657.000000	0.000477
3656.000000	0.000499
3655.000000	0.000541
3654.000000	0.000583
3653.000000	0.000611
3652.000000	0.000626
3651.000000	0.000639
3650.000000	0.000661
3649.000000	0.000681
3648.000000	0.000675
3647.000000	0.000638
3646.000000	0.000585
3645.000000	0.000528
3644.000000	0.000482
3643.000000	0.000459
3642.000000	0.000456
3641.000000	0.000457
3640.000000	0.000448
3639.000000	0.000429
3638.000000	0.000414
3637.000000	0.000415
3636.000000	0.000432
3635.000000	0.000463
3634.000000	0.000501
3633.000000	0.000542
3632.000000	0.000579
3631.000000	0.000604
3630.000000	0.000615
3629.000000	0.000615
3628.000000	0.000611
3627.000000	0.000608
3626.000000	0.000607
3625.000000	0.000604
3624.000000	0.000592
3623.000000	0.000566
3622.000000	0.000523
3621.000000	0.000465
3620.000000	0.000413
3619.000000	0.000401
3618.000000	0.000444
3617.000000	0.000522
3616.000000	0.000602
3615.000000	0.000662
3614.000000	0.000698
3613.000000	0.000723
3612.000000	0.000749
3611.000000	0.000779
3610.000000	0.000810
3609.000000	0.000831
3608.000000	0.000832
3607.000000	0.000814
3606.000000	0.000787
3605.000000	0.000764
3604.000000	0.000746
3603.000000	0.000731
3602.000000	0.000712
3601.000000	0.000690
3600.000000	0.000671
3599.000000	0.000661
3598.000000	0.000661
3597.000000	0.000671
3596.000000	0.000696
3595.000000	0.000731
3594.000000	0.000765
3593.000000	0.000782
3592.000000	0.000779
3591.000000	0.000767
3590.000000	0.000758
3589.000000	0.000756
3588.000000	0.000755
3587.000000	0.000745
3586.000000	0.000731
3585.000000	0.000726
3584.000000	0.000733
3583.000000	0.000747
3582.000000	0.000764
3581.000000	0.000779
3580.000000	0.000794
3579.000000	0.000805
3578.000000	0.000810
3577.000000	0.000811
3576.000000	0.000811
3575.000000	0.000818
3574.000000	0.000836
3573.000000	0.000863
3572.000000	0.000897
3571.000000	0.000936
3570.000000	0.000985
3569.000000	0.001049
3568.000000	0.001117
3567.000000	0.001161
3566.000000	0.001159
3565.000000	0.001124
3564.000000	0.001077
3563.000000	0.001033
3562.000000	0.000998
3561.000000	0.000979
3560.000000	0.000976
3559.000000	0.000981
3558.000000	0.000986
3557.000000	0.000986
3556.000000	0.000990
3555.000000	0.001005
3554.000000	0.001037
3553.000000	0.001080
3552.000000	0.001123
3551.000000	0.001156
3550.000000	0.001170
3549.000000	0.001168
3548.000000	0.001158
3547.000000	0.001147
3546.000000	0.001133
3545.000000	0.001119
3544.000000	0.001112
3543.000000	0.001122
3542.000000	0.001147
3541.000000	0.001172
3540.000000	0.001184
3539.000000	0.001181
3538.000000	0.001171
3537.000000	0.001162
3536.000000	0.001158
3535.000000	0.001158
3534.000000	0.001162
3533.000000	0.001163
3532.000000	0.001158
3531.000000	0.001151
3530.000000	0.001150
3529.000000	0.001163
3528.000000	0.001187
3527.000000	0.001215
3526.000000	0.001237
3525.000000	0.001252
3524.000000	0.001261
3523.000000	0.001263
3522.000000	0.001255
3521.000000	0.001239
3520.000000	0.001221
3519.000000	0.001206
3518.000000	0.001197
3517.000000	0.001194
3516.000000	0.001196
3515.000000	0.001202
3514.000000	0.001208
3513.000000	0.001210
3512.000000	0.001209
3511.000000	0.001204
3510.000000	0.001196
3509.000000	0.001185
3508.000000	0.001175
3507.000000	0.001173
3506.000000	0.001177
3505.000000	0.001180
3504.000000	0.001176
3503.000000	0.001169
3502.000000	0.001168
3501.000000	0.001177
3500.000000	0.001192
3499.000000	0.001202
3498.000000	0.001205
3497.000000	0.001202
3496.000000	0.001197
3495.000000	0.001189
3494.000000	0.001175
3493.000000	0.001159
3492.000000	0.001148
3491.000000	0.001150
3490.000000	0.001163
3489.000000	0.001179
3488.000000	0.001191
3487.000000	0.001204
3486.000000	0.001224
3485.000000	0.001255
3484.000000	0.001288
3483.000000	0.001309
3482.000000	0.001309
3481.000000	0.001288
3480.000000	0.001263
3479.000000	0.001246
3478.000000	0.001242
3477.000000	0.001242
3476.000000	0.001237
3475.000000	0.001229
3474.000000	0.001230
3473.000000	0.001247
3472.000000	0.001270
3471.000000	0.001283
3470.000000	0.001276
3469.000000	0.001251
3468.000000	0.001221
3467.000000	0.001202
3466.000000	0.001198
3465.000000	0.001210
3464.000000	0.001233
3463.000000	0.001262
3462.000000	0.001288
3461.000000	0.001303
3460.000000	0.001305
3459.000000	0.001302
3458.000000	0.001305
3457.000000	0.001316
3456.000000	0.001329
3455.000000	0.001334
3454.000000	0.001330
3453.000000	0.001325
3452.000000	0.001328
3451.000000	0.001345
3450.000000	0.001368
3449.000000	0.001383
3448.000000	0.001379
3447.000000	0.001362
3446.000000	0.001347
3445.000000	0.001349
3444.000000	0.001368
3443.000000	0.001387
3442.000000	0.001393
3441.000000	0.001381
3440.000000	0.001364
3439.000000	0.001352
3438.000000	0.001352
3437.000000	0.001359
3436.000000	0.001369
3435.000000	0.001377
3434.000000	0.001381
3433.000000	0.001383
3432.000000	0.001385
3431.000000	0.001388
3430.000000	0.001389
3429.000000	0.001384
3428.000000	0.001374
3427.000000	0.001364
3426.000000	0.001361
3425.000000	0.001370
3424.000000	0.001394
3423.000000	0.001428
3422.000000	0.001462
3421.000000	0.001485
3420.000000	0.001491
3419.000000	0.001480
3418.000000	0.001456
3417.000000	0.001431
3416.000000	0.001421
3415.000000	0.001432
3414.000000	0.001459
3413.000000	0.001485
3412.000000	0.001505
3411.000000	0.001523
3410.000000	0.001542
3409.000000	0.001560
3408.000000	0.001573
3407.000000	0.001574
3406.000000	0.001566
3405.000000	0.001554
3404.000000	0.001548
3403.000000	0.001555
3402.000000	0.001575
3401.000000	0.001595
3400.000000	0.001598
3399.000000	0.001581
3398.000000	0.001557
3397.000000	0.001544
3396.000000	0.001555
3395.000000	0.001583
3394.000000	0.001611
3393.000000	0.001621
3392.000000	0.001607
3391.000000	0.001577
3390.000000	0.001549
3389.000000	0.001535
3388.000000	0.001537
3387.000000	0.001550
3386.000000	0.001570
3385.000000	0.001592
3384.000000	0.001614
3383.000000	0.001628
3382.000000	0.001627
3381.000000	0.001613
3380.000000	0.001592
3379.000000	0.001573
3378.000000	0.001562
3377.000000	0.001561
3376.000000	0.001565
3375.000000	0.001570
3374.000000	0.001574
3373.000000	0.001577
3372.000000	0.001583
3371.000000	0.001595
3370.000000	0.001610
3369.000000	0.001625
3368.000000	0.001636
3367.000000	0.001643
3366.000000	0.001645
3365.000000	0.001642
3364.000000	0.001633
3363.000000	0.001622
3362.000000	0.001616
3361.000000	0.001617
3360.000000	0.001625
3359.000000	0.001639
3358.000000	0.001656
3357.000000	0.001675
3356.000000	0.001691
3355.000000	0.001700
3354.000000	0.001705
3353.000000	0.001708
3352.000000	0.001708
3351.000000	0.001703
3350.000000	0.001697
3349.000000	0.001692
3348.000000	0.001687
3347.000000	0.001679
3346.000000	0.001672
3345.000000	0.001673
3344.000000	0.001682
3343.000000	0.001693
3342.000000	0.001698
3341.000000	0.001695
3340.000000	0.001687
3339.000000	0.001682
3338.000000	0.001683
3337.000000	0.001689
3336.000000	0.001692
3335.000000	0.001691
3334.000000	0.001690
3333.000000	0.001697
3332.000000	0.001714
3331.000000	0.001727
3330.000000	0.001729
3329.000000	0.001721
3328.000000	0.001716
3327.000000	0.001718
3326.000000	0.001724
3325.000000	0.001729
3324.000000	0.001733
3323.000000	0.001736
3322.000000	0.001736
3321.000000	0.001731
3320.000000	0.001726
3319.000000	0.001732
3318.000000	0.001753
3317.000000	0.001787
3316.000000	0.001825
3315.000000	0.001851
3314.000000	0.001857
3313.000000	0.001842
3312.000000	0.001819
3311.000000	0.001804
3310.000000	0.001806
3309.000000	0.001823
3308.000000	0.001843
3307.000000	0.001858
3306.000000	0.001863
3305.000000	0.001860
3304.000000	0.001852
3303.000000	0.001842
3302.000000	0.001828
3301.000000	0.001807
3300.000000	0.001782
3299.000000	0.001762
3298.000000	0.001757
3297.000000	0.001770
3296.000000	0.001793
3295.000000	0.001819
3294.000000	0.001840
3293.000000	0.001852
3292.000000	0.001851
3291.000000	0.001836
3290.000000	0.001813
3289.000000	0.001795
3288.000000	0.001790
3287.000000	0.001799
3286.000000	0.001814
3285.000000	0.001827
3284.000000	0.001835
3283.000000	0.001841
3282.000000	0.001847
3281.000000	0.001852
3280.000000	0.001850
3279.000000	0.001836
3278.000000	0.001816
3277.000000	0.001799
3276.000000	0.001796
3275.000000	0.001813
3274.000000	0.001842
3273.000000	0.001864
3272.000000	0.001864
3271.000000	0.001841
3270.000000	0.001807
3269.000000	0.001784
3268.000000	0.001784
3267.000000	0.001809
3266.000000	0.001848
3265.000000	0.001885
3264.000000	0.001909
3263.000000	0.001918
3262.000000	0.001913
3261.000000	0.001895
3260.000000	0.001877
3259.000000	0.001869
3258.000000	0.001874
3257.000000	0.001877
3256.000000	0.001864
3255.000000	0.001839
3254.000000	0.001818
3253.000000	0.001812
3252.000000	0.001816
3251.000000	0.001816
3250.000000	0.001809
3249.000000	0.001802
3248.000000	0.001804
3247.000000	0.001816
3246.000000	0.001829
3245.000000	0.001833
3244.000000	0.001824
3243.000000	0.001807
3242.000000	0.001789
3241.000000	0.001776
3240.000000	0.001766
3239.000000	0.001755
3238.000000	0.001741
3237.000000	0.001727
3236.000000	0.001711
3235.000000	0.001694
3234.000000	0.001672
3233.000000	0.001649
3232.000000	0.001628
3231.000000	0.001612
3230.000000	0.001604
3229.000000	0.001606
3228.000000	0.001618
3227.000000	0.001635
3226.000000	0.001650
3225.000000	0.001659
3224.000000	0.001664
3223.000000	0.001672
3222.000000	0.001686
3221.000000	0.001701
3220.000000	0.001710
3219.000000	0.001712
3218.000000	0.001711
3217.000000	0.001707
3216.000000	0.001695
3215.000000	0.001681
3214.000000	0.001676
3213.000000	0.001685
3212.000000	0.001695
3211.000000	0.001687
3210.000000	0.001659
3209.000000	0.001626
3208.000000	0.001614
3207.000000	0.001634
3206.000000	0.001672
3205.000000	0.001703
3204.000000	0.001711
3203.000000	0.001699
3202.000000	0.001681
3201.000000	0.001668
3200.000000	0.001655
3199.000000	0.001637
3198.000000	0.001614
3197.000000	0.001597
3196.000000	0.001589
3195.000000	0.001588
3194.000000	0.001586
3193.000000	0.001576
3192.000000	0.001558
3191.000000	0.001540
3190.000000	0.001529
3189.000000	0.001528
3188.000000	0.001534
3187.000000	0.001536
3186.000000	0.001530
3185.000000	0.001518
3184.000000	0.001513
3183.000000	0.001526
3182.000000	0.001556
3181.000000	0.001591
3180.000000	0.001616
3179.000000	0.001619
3178.000000	0.001600
3177.000000	0.001570
3176.000000	0.001542
3175.000000	0.001524
3174.000000	0.001512
3173.000000	0.001499
3172.000000	0.001487
3171.000000	0.001483
3170.000000	0.001493
3169.000000	0.001507
3168.000000	0.001509
3167.000000	0.001496
3166.000000	0.001478
3165.000000	0.001469
3164.000000	0.001469
3163.000000	0.001468
3162.000000	0.001454
3161.000000	0.001431
3160.000000	0.001411
3159.000000	0.001404
3158.000000	0.001412
3157.000000	0.001427
3156.000000	0.001444
3155.000000	0.001462
3154.000000	0.001479
3153.000000	0.001487
3152.000000	0.001478
3151.000000	0.001453
3150.000000	0.001425
3149.000000	0.001406
3148.000000	0.001401
3147.000000	0.001409
3146.000000	0.001424
3145.000000	0.001439
3144.000000	0.001450
3143.000000	0.001456
3142.000000	0.001457
3141.000000	0.001451
3140.000000	0.001441
3139.000000	0.001433
3138.000000	0.001432
3137.000000	0.001436
3136.000000	0.001437
3135.000000	0.001425
3134.000000	0.001402
3133.000000	0.001375
3132.000000	0.001358
3131.000000	0.001360
3130.000000	0.001378
3129.000000	0.001401
3128.000000	0.001419
3127.000000	0.001427
3126.000000	0.001424
3125.000000	0.001407
3124.000000	0.001380
3123.000000	0.001352
3122.000000	0.001334
3121.000000	0.001331
3120.000000	0.001337
3119.000000	0.001346
3118.000000	0.001358
3117.000000	0.001373
3116.000000	0.001392
3115.000000	0.001415
3114.000000	0.001439
3113.000000	0.001458
3112.000000	0.001465
3111.000000	0.001455
3110.000000	0.001433
3109.000000	0.001404
3108.000000	0.001372
3107.000000	0.001342
3106.000000	0.001319
3105.000000	0.001313
3104.000000	0.001324
3103.000000	0.001342
3102.000000	0.001355
3101.000000	0.001351
3100.000000	0.001332
3099.000000	0.001308
3098.000000	0.001291
3097.000000	0.001289
3096.000000	0.001301
3095.000000	0.001320
3094.000000	0.001339
3093.000000	0.001354
3092.000000	0.001363
3091.000000	0.001362
3090.000000	0.001351
3089.000000	0.001335
3088.000000	0.001322
3087.000000	0.001318
3086.000000	0.001320
3085.000000	0.001318
3084.000000	0.001306
3083.000000	0.001285
3082.000000	0.001266
3081.000000	0.001258
3080.000000	0.001270
3079.000000	0.001299
3078.000000	0.001335
3077.000000	0.001361
3076.000000	0.001362
3075.000000	0.001335
3074.000000	0.001297
3073.000000	0.001266
3072.000000	0.001256
3071.000000	0.001264
3070.000000	0.001280
3069.000000	0.001295
3068.000000	0.001306
3067.000000	0.001315
3066.000000	0.001322
3065.000000	0.001329
3064.000000	0.001334
3063.000000	0.001338
3062.000000	0.001342
3061.000000	0.001346
3060.000000	0.001345
3059.000000	0.001341
3058.000000	0.001337
3057.000000	0.001339
3056.000000	0.001347
3055.000000	0.001357
3054.000000	0.001362
3053.000000	0.001356
3052.000000	0.001336
3051.000000	0.001313
3050.000000	0.001299
3049.000000	0.001302
3048.000000	0.001313
3047.000000	0.001321
3046.000000	0.001320
3045.000000	0.001316
3044.000000	0.001310
3043.000000	0.001301
3042.000000	0.001289
3041.000000	0.001275
3040.000000	0.001264
3039.000000	0.001255
3038.000000	0.001249
3037.000000	0.001245
3036.000000	0.001243
3035.000000	0.001245
3034.000000	0.001251
3033.000000	0.001258
3032.000000	0.001262
3031.000000	0.001257
3030.000000	0.001246
3029.000000	0.001237
3028.000000	0.001239
3027.000000	0.001250
3026.000000	0.001263
3025.000000	0.001266
3024.000000	0.001258
3023.000000	0.001247
3022.000000	0.001244
3021.000000	0.001254
3020.000000	0.001272
3019.000000	0.001287
3018.000000	0.001293
3017.000000	0.001293
3016.000000	0.001295
3015.000000	0.001305
3014.000000	0.001319
3013.000000	0.001325
3012.000000	0.001321
3011.000000	0.001312
3010.000000	0.001312
3009.000000	0.001333
3008.000000	0.001374
3007.000000	0.001424
3006.000000	0.001471
3005.000000	0.001503
3004.000000	0.001519
3003.000000	0.001523
3002.000000	0.001526
3001.000000	0.001533
3000.000000	0.001544
2999.000000	0.001556
2998.000000	0.001567
2997.000000	0.001583
2996.000000	0.001607
2995.000000	0.001642
2994.000000	0.001689
2993.000000	0.001740
2992.000000	0.001784
2991.000000	0.001819
2990.000000	0.001852
2989.000000	0.001889
2988.000000	0.001930
2987.000000	0.001969
2986.000000	0.002003
2985.000000	0.002037
2984.000000	0.002081
2983.000000	0.002142
2982.000000	0.002212
2981.000000	0.002278
2980.000000	0.002331
2979.000000	0.002377
2978.000000	0.002432
2977.000000	0.002512
2976.000000	0.002613
2975.000000	0.002720
2974.000000	0.002824
2973.000000	0.002922
2972.000000	0.003022
2971.000000	0.003132
2970.000000	0.003253
2969.000000	0.003377
2968.000000	0.003493
2967.000000	0.003592
2966.000000	0.003675
2965.000000	0.003755
2964.000000	0.003843
2963.000000	0.003938
2962.000000	0.004030
2961.000000	0.004106
2960.000000	0.004150
2959.000000	0.004160
2958.000000	0.004143
2957.000000	0.004112
2956.000000	0.004074
2955.000000	0.004029
2954.000000	0.003974
2953.000000	0.003912
2952.000000	0.003853
2951.000000	0.003807
2950.000000	0.003780
2949.000000	0.003768
2948.000000	0.003767
2947.000000	0.003774
2946.000000	0.003794
2945.000000	0.003832
2944.000000	0.003887
2943.000000	0.003955
2942.000000	0.004033
2941.000000	0.004119
2940.000000	0.004213
2939.000000	0.004313
2938.000000	0.004419
2937.000000	0.004528
2936.000000	0.004636
2935.000000	0.004738
2934.000000	0.004822
2933.000000	0.004879
2932.000000	0.004908
2931.000000	0.004918
2930.000000	0.004920
2929.000000	0.004914
2928.000000	0.004891
2927.000000	0.004849
2926.000000	0.004799
2925.000000	0.004756
2924.000000	0.004719
2923.000000	0.004671
2922.000000	0.004598
2921.000000	0.004507
2920.000000	0.004409
2919.000000	0.004317
2918.000000	0.004237
2917.000000	0.004176
2916.000000	0.004138
2915.000000	0.004116
2914.000000	0.004097
2913.000000	0.004074
2912.000000	0.004045
2911.000000	0.004014
2910.000000	0.003980
2909.000000	0.003941
2908.000000	0.003898
2907.000000	0.003852
2906.000000	0.003802
2905.000000	0.003746
2904.000000	0.003687
2903.000000	0.003625
2902.000000	0.003557
2901.000000	0.003484
2900.000000	0.003407
2899.000000	0.003329
2898.000000	0.003249
2897.000000	0.003169
2896.000000	0.003095
2895.000000	0.003033
2894.000000	0.002982
2893.000000	0.002934
2892.000000	0.002878
2891.000000	0.002814
2890.000000	0.002753
2889.000000	0.002707
2888.000000	0.002683
2887.000000	0.002674
2886.000000	0.002674
2885.000000	0.002677
2884.000000	0.002683
2883.000000	0.002699
2882.000000	0.002731
2881.000000	0.002784
2880.000000	0.002852
2879.000000	0.002922
2878.000000	0.002984
2877.000000	0.003038
2876.000000	0.003093
2875.000000	0.003154
2874.000000	0.003212
2873.000000	0.003254
2872.000000	0.003269
2871.000000	0.003260
2870.000000	0.003241
2869.000000	0.003225
2868.000000	0.003221
2867.000000	0.003231
2866.000000	0.003255
2865.000000	0.003293
2864.000000	0.003343
2863.000000	0.003402
2862.000000	0.003458
2861.000000	0.003502
2860.000000	0.003531
2859.000000	0.003548
2858.000000	0.003555
2857.000000	0.003551
2856.000000	0.003526
2855.000000	0.003471
2854.000000	0.003389
2853.000000	0.003287
2852.000000	0.003172
2851.000000	0.003051
2850.000000	0.002929
2849.000000	0.002817
2848.000000	0.002726
2847.000000	0.002657
2846.000000	0.002601
2845.000000	0.002549
2844.000000	0.002493
2843.000000	0.002434
2842.000000	0.002373
2841.000000	0.002313
2840.000000	0.002258
2839.000000	0.002211
2838.000000	0.002168
2837.000000	0.002125
2836.000000	0.002082
2835.000000	0.002045
2834.000000	0.002020
2833.000000	0.002010
2832.000000	0.002007
2831.000000	0.002004
2830.000000	0.001995
2829.000000	0.001980
2828.000000	0.001963
2827.000000	0.001949
2826.000000	0.001938
2825.000000	0.001931
2824.000000	0.001928
2823.000000	0.001929
2822.000000	0.001934
2821.000000	0.001937
2820.000000	0.001937
2819.000000	0.001929
2818.000000	0.001915
2817.000000	0.001898
2816.000000	0.001886
2815.000000	0.001878
2814.000000	0.001869
2813.000000	0.001852
2812.000000	0.001827
2811.000000	0.001802
2810.000000	0.001784
2809.000000	0.001775
2808.000000	0.001773
2807.000000	0.001777
2806.000000	0.001786
2805.000000	0.001790
2804.000000	0.001775
2803.000000	0.001742
2802.000000	0.001707
2801.000000	0.001691
2800.000000	0.001699
2799.000000	0.001721
2798.000000	0.001742
2797.000000	0.001751
2796.000000	0.001746
2795.000000	0.001733
2794.000000	0.001718
2793.000000	0.001709
2792.000000	0.001709
2791.000000	0.001718
2790.000000	0.001732
2789.000000	0.001742
2788.000000	0.001746
2787.000000	0.001742
2786.000000	0.001732
2785.000000	0.001714
2784.000000	0.001693
2783.000000	0.001679
2782.000000	0.001679
2781.000000	0.001693
2780.000000	0.001708
2779.000000	0.001713
2778.000000	0.001704
2777.000000	0.001684
2776.000000	0.001662
2775.000000	0.001646
2774.000000	0.001637
2773.000000	0.001635
2772.000000	0.001637
2771.000000	0.001640
2770.000000	0.001646
2769.000000	0.001651
2768.000000	0.001652
2767.000000	0.001645
2766.000000	0.001635
2765.000000	0.001633
2764.000000	0.001640
2763.000000	0.001652
2762.000000	0.001661
2761.000000	0.001664
2760.000000	0.001666
2759.000000	0.001673
2758.000000	0.001683
2757.000000	0.001688
2756.000000	0.001680
2755.000000	0.001659
2754.000000	0.001635
2753.000000	0.001616
2752.000000	0.001610
2751.000000	0.001616
2750.000000	0.001636
2749.000000	0.001664
2748.000000	0.001687
2747.000000	0.001692
2746.000000	0.001677
2745.000000	0.001654
2744.000000	0.001640
2743.000000	0.001641
2742.000000	0.001650
2741.000000	0.001654
2740.000000	0.001643
2739.000000	0.001620
2738.000000	0.001597
2737.000000	0.001580
2736.000000	0.001569
2735.000000	0.001560
2734.000000	0.001552
2733.000000	0.001551
2732.000000	0.001560
2731.000000	0.001577
2730.000000	0.001599
2729.000000	0.001624
2728.000000	0.001646
2727.000000	0.001656
2726.000000	0.001648
2725.000000	0.001632
2724.000000	0.001618
2723.000000	0.001616
2722.000000	0.001618
2721.000000	0.001619
2720.000000	0.001613
2719.000000	0.001606
2718.000000	0.001601
2717.000000	0.001598
2716.000000	0.001593
2715.000000	0.001582
2714.000000	0.001566
2713.000000	0.001552
2712.000000	0.001543
2711.000000	0.001541
2710.000000	0.001543
2709.000000	0.001552
2708.000000	0.001567
2707.000000	0.001586
2706.000000	0.001602
2705.000000	0.001616
2704.000000	0.001629
2703.000000	0.001643
2702.000000	0.001653
2701.000000	0.001656
2700.000000	0.001652
2699.000000	0.001649
2698.000000	0.001646
2697.000000	0.001635
2696.000000	0.001611
2695.000000	0.001578
2694.000000	0.001551
2693.000000	0.001542
2692.000000	0.001552
2691.000000	0.001567
2690.000000	0.001575
2689.000000	0.001572
2688.000000	0.001569
2687.000000	0.001573
2686.000000	0.001580
2685.000000	0.001584
2684.000000	0.001580
2683.000000	0.001574
2682.000000	0.001568
2681.000000	0.001564
2680.000000	0.001564
2679.000000	0.001567
2678.000000	0.001573
2677.000000	0.001578
2676.000000	0.001580
2675.000000	0.001580
2674.000000	0.001579
2673.000000	0.001575
2672.000000	0.001567
2671.000000	0.001557
2670.000000	0.001547
2669.000000	0.001538
2668.000000	0.001531
2667.000000	0.001530
2666.000000	0.001540
2665.000000	0.001562
2664.000000	0.001589
2663.000000	0.001611
2662.000000	0.001618
2661.000000	0.001612
2660.000000	0.001601
2659.000000	0.001596
2658.000000	0.001600
2657.000000	0.001610
2656.000000	0.001622
2655.000000	0.001635
2654.000000	0.001651
2653.000000	0.001663
2652.000000	0.001659
2651.000000	0.001634
2650.000000	0.001599
2649.000000	0.001573
2648.000000	0.001565
2647.000000	0.001568
2646.000000	0.001570
2645.000000	0.001563
2644.000000	0.001550
2643.000000	0.001539
2642.000000	0.001535
2641.000000	0.001536
2640.000000	0.001538
2639.000000	0.001537
2638.000000	0.001533
2637.000000	0.001528
2636.000000	0.001522
2635.000000	0.001512
2634.000000	0.001496
2633.000000	0.001475
2632.000000	0.001457
2631.000000	0.001454
2630.000000	0.001469
2629.000000	0.001497
2628.000000	0.001526
2627.000000	0.001547
2626.000000	0.001553
2625.000000	0.001539
2624.000000	0.001507
2623.000000	0.001470
2622.000000	0.001445
2621.000000	0.001436
2620.000000	0.001432
2619.000000	0.001423
2618.000000	0.001405
2617.000000	0.001387
2616.000000	0.001379
2615.000000	0.001389
2614.000000	0.001413
2613.000000	0.001442
2612.000000	0.001464
2611.000000	0.001481
2610.000000	0.001495
2609.000000	0.001505
2608.000000	0.001503
2607.000000	0.001483
2606.000000	0.001453
2605.000000	0.001422
2604.000000	0.001395
2603.000000	0.001369
2602.000000	0.001347
2601.000000	0.001331
2600.000000	0.001327
2599.000000	0.001333
2598.000000	0.001346
2597.000000	0.001360
2596.000000	0.001366
2595.000000	0.001361
2594.000000	0.001347
2593.000000	0.001333
2592.000000	0.001324
2591.000000	0.001323
2590.000000	0.001328
2589.000000	0.001340
2588.000000	0.001358
2587.000000	0.001379
2586.000000	0.001394
2585.000000	0.001395
2584.000000	0.001379
2583.000000	0.001359
2582.000000	0.001350
2581.000000	0.001348
2580.000000	0.001339
2579.000000	0.001317
2578.000000	0.001299
2577.000000	0.001301
2576.000000	0.001317
2575.000000	0.001328
2574.000000	0.001326
2573.000000	0.001323
2572.000000	0.001332
2571.000000	0.001347
2570.000000	0.001355
2569.000000	0.001349
2568.000000	0.001334
2567.000000	0.001318
2566.000000	0.001304
2565.000000	0.001290
2564.000000	0.001273
2563.000000	0.001254
2562.000000	0.001239
2561.000000	0.001236
2560.000000	0.001241
2559.000000	0.001246
2558.000000	0.001243
2557.000000	0.001238
2556.000000	0.001234
2555.000000	0.001231
2554.000000	0.001222
2553.000000	0.001204
2552.000000	0.001181
2551.000000	0.001165
2550.000000	0.001169
2549.000000	0.001198
2548.000000	0.001248
2547.000000	0.001309
2546.000000	0.001361
2545.000000	0.001389
2544.000000	0.001386
2543.000000	0.001361
2542.000000	0.001330
2541.000000	0.001304
2540.000000	0.001286
2539.000000	0.001279
2538.000000	0.001289
2537.000000	0.001319
2536.000000	0.001363
2535.000000	0.001402
2534.000000	0.001421
2533.000000	0.001417
2532.000000	0.001402
2531.000000	0.001395
2530.000000	0.001405
2529.000000	0.001424
2528.000000	0.001428
2527.000000	0.001403
2526.000000	0.001357
2525.000000	0.001312
2524.000000	0.001287
2523.000000	0.001293
2522.000000	0.001331
2521.000000	0.001391
2520.000000	0.001452
2519.000000	0.001499
2518.000000	0.001527
2517.000000	0.001544
2516.000000	0.001554
2515.000000	0.001561
2514.000000	0.001569
2513.000000	0.001580
2512.000000	0.001591
2511.000000	0.001596
2510.000000	0.001590
2509.000000	0.001571
2508.000000	0.001540
2507.000000	0.001501
2506.000000	0.001458
2505.000000	0.001416
2504.000000	0.001375
2503.000000	0.001338
2502.000000	0.001315
2501.000000	0.001309
2500.000000	0.001309
2499.000000	0.001299
2498.000000	0.001280
2497.000000	0.001269
2496.000000	0.001281
2495.000000	0.001309
2494.000000	0.001330
2493.000000	0.001325
2492.000000	0.001296
2491.000000	0.001258
2490.000000	0.001229
2489.000000	0.001212
2488.000000	0.001200
2487.000000	0.001188
2486.000000	0.001185
2485.000000	0.001199
2484.000000	0.001223
2483.000000	0.001236
2482.000000	0.001227
2481.000000	0.001208
2480.000000	0.001202
2479.000000	0.001219
2478.000000	0.001246
2477.000000	0.001257
2476.000000	0.001240
2475.000000	0.001205
2474.000000	0.001173
2473.000000	0.001164
2472.000000	0.001180
2471.000000	0.001208
2470.000000	0.001231
2469.000000	0.001235
2468.000000	0.001220
2467.000000	0.001196
2466.000000	0.001174
2465.000000	0.001167
2464.000000	0.001180
2463.000000	0.001207
2462.000000	0.001230
2461.000000	0.001230
2460.000000	0.001202
2459.000000	0.001166
2458.000000	0.001147
2457.000000	0.001156
2456.000000	0.001192
2455.000000	0.001246
2454.000000	0.001305
2453.000000	0.001347
2452.000000	0.001356
2451.000000	0.001335
2450.000000	0.001302
2449.000000	0.001270
2448.000000	0.001240
2447.000000	0.001212
2446.000000	0.001197
2445.000000	0.001202
2444.000000	0.001218
2443.000000	0.001225
2442.000000	0.001211
2441.000000	0.001180
2440.000000	0.001149
2439.000000	0.001135
2438.000000	0.001143
2437.000000	0.001166
2436.000000	0.001189
2435.000000	0.001209
2434.000000	0.001234
2433.000000	0.001263
2432.000000	0.001276
2431.000000	0.001256
2430.000000	0.001214
2429.000000	0.001178
2428.000000	0.001167
2427.000000	0.001180
2426.000000	0.001213
2425.000000	0.001262
2424.000000	0.001308
2423.000000	0.001326
2422.000000	0.001301
2421.000000	0.001249
2420.000000	0.001196
2419.000000	0.001156
2418.000000	0.001125
2417.000000	0.001099
2416.000000	0.001078
2415.000000	0.001069
2414.000000	0.001076
2413.000000	0.001090
2412.000000	0.001102
2411.000000	0.001099
2410.000000	0.001082
2409.000000	0.001065
2408.000000	0.001067
2407.000000	0.001094
2406.000000	0.001132
2405.000000	0.001156
2404.000000	0.001150
2403.000000	0.001124
2402.000000	0.001104
2401.000000	0.001106
2400.000000	0.001125
2399.000000	0.001137
2398.000000	0.001123
2397.000000	0.001091
2396.000000	0.001067
2395.000000	0.001073
2394.000000	0.001109
2393.000000	0.001149
2392.000000	0.001166
2391.000000	0.001158
2390.000000	0.001144
2389.000000	0.001140
2388.000000	0.001140
2387.000000	0.001125
2386.000000	0.001087
2385.000000	0.001034
2384.000000	0.000980
2383.000000	0.000937
2382.000000	0.000907
2381.000000	0.000886
2380.000000	0.000870
2379.000000	0.000869
2378.000000	0.000892
2377.000000	0.000935
2376.000000	0.000979
2375.000000	0.001005
2374.000000	0.001010
2373.000000	0.000998
2372.000000	0.000970
2371.000000	0.000940
2370.000000	0.000921
2369.000000	0.000901
2368.000000	0.000853
2367.000000	0.000790
2366.000000	0.000765
2365.000000	0.000812
2364.000000	0.000901
2363.000000	0.000988
2362.000000	0.001056
2361.000000	0.001105
2360.000000	0.001128
2359.000000	0.001123
2358.000000	0.001096
2357.000000	0.001060
2356.000000	0.001031
2355.000000	0.001030
2354.000000	0.001033
2353.000000	0.001003
2352.000000	0.000956
2351.000000	0.000949
2350.000000	0.000998
2349.000000	0.001075
2348.000000	0.001132
2347.000000	0.001136
2346.000000	0.001102
2345.000000	0.001095
2344.000000	0.001143
2343.000000	0.001201
2342.000000	0.001213
2341.000000	0.001174
2340.000000	0.001133
2339.000000	0.001131
2338.000000	0.001157
2337.000000	0.001181
2336.000000	0.001204
2335.000000	0.001238
2334.000000	0.001269
2333.000000	0.001268
2332.000000	0.001243
2331.000000	0.001221
2330.000000	0.001214
2329.000000	0.001216
2328.000000	0.001249
2327.000000	0.001333
2326.000000	0.001456
2325.000000	0.001564
2324.000000	0.001615
2323.000000	0.001601
2322.000000	0.001553
2321.000000	0.001516
2320.000000	0.001527
2319.000000	0.001582
2318.000000	0.001649
2317.000000	0.001680
2316.000000	0.001655
2315.000000	0.001582
2314.000000	0.001496
2313.000000	0.001427
2312.000000	0.001385
2311.000000	0.001351
2310.000000	0.001312
2309.000000	0.001274
2308.000000	0.001262
2307.000000	0.001274
2306.000000	0.001287
2305.000000	0.001276
2304.000000	0.001246
2303.000000	0.001218
2302.000000	0.001207
2301.000000	0.001210
2300.000000	0.001226
2299.000000	0.001252
2298.000000	0.001286
2297.000000	0.001325
2296.000000	0.001364
2295.000000	0.001399
2294.000000	0.001429
2293.000000	0.001449
2292.000000	0.001464
2291.000000	0.001478
2290.000000	0.001494
2289.000000	0.001510
2288.000000	0.001523
2287.000000	0.001530
2286.000000	0.001537
2285.000000	0.001555
2284.000000	0.001591
2283.000000	0.001638
2282.000000	0.001664
2281.000000	0.001634
2280.000000	0.001546
2279.000000	0.001442
2278.000000	0.001367
2277.000000	0.001323
2276.000000	0.001274
2275.000000	0.001198
2274.000000	0.001124
2273.000000	0.001101
2272.000000	0.001143
2271.000000	0.001221
2270.000000	0.001301
2269.000000	0.001369
2268.000000	0.001408
2267.000000	0.001389
2266.000000	0.001291
2265.000000	0.001145
2264.000000	0.001024
2263.000000	0.000982
2262.000000	0.001016
2261.000000	0.001083
2260.000000	0.001142
2259.000000	0.001178
2258.000000	0.001198
2257.000000	0.001216
2256.000000	0.001239
2255.000000	0.001266
2254.000000	0.001288
2253.000000	0.001298
2252.000000	0.001287
2251.000000	0.001246
2250.000000	0.001174
2249.000000	0.001082
2248.000000	0.001003
2247.000000	0.000968
2246.000000	0.000988
2245.000000	0.001038
2244.000000	0.001076
2243.000000	0.001080
2242.000000	0.001063
2241.000000	0.001057
2240.000000	0.001083
2239.000000	0.001130
2238.000000	0.001176
2237.000000	0.001194
2236.000000	0.001179
2235.000000	0.001155
2234.000000	0.001162
2233.000000	0.001216
2232.000000	0.001284
2231.000000	0.001311
2230.000000	0.001269
2229.000000	0.001170
2228.000000	0.001042
2227.000000	0.000930
2226.000000	0.000905
2225.000000	0.001015
2224.000000	0.001218
2223.000000	0.001386
2222.000000	0.001421
2221.000000	0.001333
2220.000000	0.001193
2219.000000	0.001037
2218.000000	0.000870
2217.000000	0.000725
2216.000000	0.000659
2215.000000	0.000680
2214.000000	0.000731
2213.000000	0.000757
2212.000000	0.000754
2211.000000	0.000744
2210.000000	0.000740
2209.000000	0.000754
2208.000000	0.000817
2207.000000	0.000944
2206.000000	0.001104
2205.000000	0.001236
2204.000000	0.001289
2203.000000	0.001253
2202.000000	0.001150
2201.000000	0.001033
2200.000000	0.000963
2199.000000	0.000982
2198.000000	0.001087
2197.000000	0.001235
2196.000000	0.001365
2195.000000	0.001411
2194.000000	0.001350
2193.000000	0.001219
2192.000000	0.001092
2191.000000	0.001020
2190.000000	0.001020
2189.000000	0.001084
2188.000000	0.001180
2187.000000	0.001228
2186.000000	0.001146
2185.000000	0.000948
2184.000000	0.000749
2183.000000	0.000641
2182.000000	0.000600
2181.000000	0.000560
2180.000000	0.000525
2179.000000	0.000548
2178.000000	0.000635
2177.000000	0.000733
2176.000000	0.000810
2175.000000	0.000867
2174.000000	0.000890
2173.000000	0.000853
2172.000000	0.000800
2171.000000	0.000848
2170.000000	0.001065
2169.000000	0.001375
2168.000000	0.001620
2167.000000	0.001705
2166.000000	0.001669
2165.000000	0.001629
2164.000000	0.001684
2163.000000	0.001831
2162.000000	0.001944
2161.000000	0.001863
2160.000000	0.001534
2159.000000	0.001078
2158.000000	0.000693
2157.000000	0.000485
2156.000000	0.000421
2155.000000	0.000420
2154.000000	0.000425
2153.000000	0.000429
2152.000000	0.000457
2151.000000	0.000520
2150.000000	0.000576
2149.000000	0.000547
2148.000000	0.000410
2147.000000	0.000239
2146.000000	0.000148
2145.000000	0.000195
2144.000000	0.000351
2143.000000	0.000545
2142.000000	0.000708
2141.000000	0.000794
2140.000000	0.000801
2139.000000	0.000769
2138.000000	0.000744
2137.000000	0.000737
2136.000000	0.000721
2135.000000	0.000680
2134.000000	0.000629
2133.000000	0.000596
2132.000000	0.000592
2131.000000	0.000605
2130.000000	0.000620
2129.000000	0.000628
2128.000000	0.000634
2127.000000	0.000644
2126.000000	0.000655
2125.000000	0.000670
2124.000000	0.000701
2123.000000	0.000768
2122.000000	0.000866
2121.000000	0.000965
2120.000000	0.001036
2119.000000	0.001080
2118.000000	0.001125
2117.000000	0.001186
2116.000000	0.001255
2115.000000	0.001310
2114.000000	0.001331
2113.000000	0.001307
2112.000000	0.001242
2111.000000	0.001157
2110.000000	0.001085
2109.000000	0.001051
2108.000000	0.001060
2107.000000	0.001090
2106.000000	0.001115
2105.000000	0.001130
2104.000000	0.001164
2103.000000	0.001242
2102.000000	0.001333
2101.000000	0.001357
2100.000000	0.001269
2099.000000	0.001121
2098.000000	0.001012
2097.000000	0.000984
2096.000000	0.001007
2095.000000	0.001039
2094.000000	0.001072
2093.000000	0.001105
2092.000000	0.001125
2091.000000	0.001123
2090.000000	0.001110
2089.000000	0.001094
2088.000000	0.001079
2087.000000	0.001084
2086.000000	0.001148
2085.000000	0.001282
2084.000000	0.001438
2083.000000	0.001544
2082.000000	0.001567
2081.000000	0.001519
2080.000000	0.001445
2079.000000	0.001400
2078.000000	0.001421
2077.000000	0.001490
2076.000000	0.001532
2075.000000	0.001484
2074.000000	0.001362
2073.000000	0.001252
2072.000000	0.001219
2071.000000	0.001253
2070.000000	0.001300
2069.000000	0.001316
2068.000000	0.001303
2067.000000	0.001285
2066.000000	0.001274
2065.000000	0.001253
2064.000000	0.001201
2063.000000	0.001130
2062.000000	0.001086
2061.000000	0.001096
2060.000000	0.001147
2059.000000	0.001205
2058.000000	0.001242
2057.000000	0.001237
2056.000000	0.001188
2055.000000	0.001153
2054.000000	0.001230
2053.000000	0.001454
2052.000000	0.001728
2051.000000	0.001891
2050.000000	0.001852
2049.000000	0.001650
2048.000000	0.001416
2047.000000	0.001286
2046.000000	0.001323
2045.000000	0.001480
2044.000000	0.001620
2043.000000	0.001625
2042.000000	0.001496
2041.000000	0.001318
2040.000000	0.001162
2039.000000	0.001054
2038.000000	0.001030
2037.000000	0.001127
2036.000000	0.001299
2035.000000	0.001410
2034.000000	0.001348
2033.000000	0.001102
2032.000000	0.000747
2031.000000	0.000396
2030.000000	0.000173
2029.000000	0.000149
2028.000000	0.000260
2027.000000	0.000359
2026.000000	0.000378
2025.000000	0.000383
2024.000000	0.000447
2023.000000	0.000552
2022.000000	0.000643
2021.000000	0.000703
2020.000000	0.000719
2019.000000	0.000649
2018.000000	0.000490
2017.000000	0.000351
2016.000000	0.000377
2015.000000	0.000593
2014.000000	0.000882
2013.000000	0.001099
2012.000000	0.001171
2011.000000	0.001117
2010.000000	0.001009
2009.000000	0.000911
2008.000000	0.000852
2007.000000	0.000831
2006.000000	0.000843
2005.000000	0.000878
2004.000000	0.000893
2003.000000	0.000848
2002.000000	0.000762
2001.000000	0.000713
2000.000000	0.000749
1999.000000	0.000828
1998.000000	0.000873
1997.000000	0.000859
1996.000000	0.000828
1995.000000	0.000820
1994.000000	0.000837
1993.000000	0.000860
1992.000000	0.000869
1991.000000	0.000866
1990.000000	0.000875
1989.000000	0.000922
1988.000000	0.001006
1987.000000	0.001085
1986.000000	0.001111
1985.000000	0.001063
1984.000000	0.000951
1983.000000	0.000796
1982.000000	0.000632
1981.000000	0.000492
1980.000000	0.000387
1979.000000	0.000312
1978.000000	0.000277
1977.000000	0.000309
1976.000000	0.000392
1975.000000	0.000477
1974.000000	0.000551
1973.000000	0.000660
1972.000000	0.000820
1971.000000	0.000959
1970.000000	0.000996
1969.000000	0.000950
1968.000000	0.000919
1967.000000	0.000962
1966.000000	0.001020
1965.000000	0.000994
1964.000000	0.000863
1963.000000	0.000697
1962.000000	0.000568
1961.000000	0.000483
1960.000000	0.000397
1959.000000	0.000285
1958.000000	0.000186
1957.000000	0.000170
1956.000000	0.000263
1955.000000	0.000431
1954.000000	0.000605
1953.000000	0.000725
1952.000000	0.000761
1951.000000	0.000729
1950.000000	0.000675
1949.000000	0.000640
1948.000000	0.000630
1947.000000	0.000631
1946.000000	0.000642
1945.000000	0.000666
1944.000000	0.000696
1943.000000	0.000714
1942.000000	0.000725
1941.000000	0.000753
1940.000000	0.000802
1939.000000	0.000843
1938.000000	0.000844
1937.000000	0.000803
1936.000000	0.000742
1935.000000	0.000678
1934.000000	0.000622
1933.000000	0.000581
1932.000000	0.000573
1931.000000	0.000606
1930.000000	0.000675
1929.000000	0.000753
1928.000000	0.000811
1927.000000	0.000828
1926.000000	0.000802
1925.000000	0.000741
1924.000000	0.000671
1923.000000	0.000628
1922.000000	0.000638
1921.000000	0.000694
1920.000000	0.000763
1919.000000	0.000806
1918.000000	0.000803
1917.000000	0.000762
1916.000000	0.000715
1915.000000	0.000688
1914.000000	0.000690
1913.000000	0.000715
1912.000000	0.000744
1911.000000	0.000761
1910.000000	0.000767
1909.000000	0.000762
1908.000000	0.000745
1907.000000	0.000713
1906.000000	0.000681
1905.000000	0.000666
1904.000000	0.000670
1903.000000	0.000670
1902.000000	0.000644
1901.000000	0.000610
1900.000000	0.000606
1899.000000	0.000647
1898.000000	0.000705
1897.000000	0.000748
1896.000000	0.000767
1895.000000	0.000779
1894.000000	0.000790
1893.000000	0.000779
1892.000000	0.000726
1891.000000	0.000648
1890.000000	0.000594
1889.000000	0.000595
1888.000000	0.000632
1887.000000	0.000665
1886.000000	0.000688
1885.000000	0.000725
1884.000000	0.000781
1883.000000	0.000820
1882.000000	0.000813
1881.000000	0.000771
1880.000000	0.000736
1879.000000	0.000722
1878.000000	0.000715
1877.000000	0.000694
1876.000000	0.000661
1875.000000	0.000621
1874.000000	0.000575
1873.000000	0.000520
1872.000000	0.000468
1871.000000	0.000442
1870.000000	0.000464
1869.000000	0.000531
1868.000000	0.000604
1867.000000	0.000649
1866.000000	0.000659
1865.000000	0.000651
1864.000000	0.000640
1863.000000	0.000627
1862.000000	0.000606
1861.000000	0.000581
1860.000000	0.000562
1859.000000	0.000553
1858.000000	0.000550
1857.000000	0.000554
1856.000000	0.000569
1855.000000	0.000595
1854.000000	0.000625
1853.000000	0.000653
1852.000000	0.000671
1851.000000	0.000660
1850.000000	0.000608
1849.000000	0.000531
1848.000000	0.000471
1847.000000	0.000453
1846.000000	0.000462
1845.000000	0.000476
1844.000000	0.000494
1843.000000	0.000518
1842.000000	0.000536
1841.000000	0.000534
1840.000000	0.000516
1839.000000	0.000494
1838.000000	0.000479
1837.000000	0.000468
1836.000000	0.000453
1835.000000	0.000437
1834.000000	0.000427
1833.000000	0.000418
1832.000000	0.000394
1831.000000	0.000359
1830.000000	0.000352
1829.000000	0.000388
1828.000000	0.000420
1827.000000	0.000407
1826.000000	0.000363
1825.000000	0.000334
1824.000000	0.000348
1823.000000	0.000395
1822.000000	0.000450
1821.000000	0.000493
1820.000000	0.000501
1819.000000	0.000474
1818.000000	0.000437
1817.000000	0.000422
1816.000000	0.000428
1815.000000	0.000425
1814.000000	0.000393
1813.000000	0.000349
1812.000000	0.000332
1811.000000	0.000367
1810.000000	0.000433
1809.000000	0.000490
1808.000000	0.000521
1807.000000	0.000548
1806.000000	0.000586
1805.000000	0.000629
1804.000000	0.000660
1803.000000	0.000680
1802.000000	0.000706
1801.000000	0.000747
1800.000000	0.000798
1799.000000	0.000847
1798.000000	0.000889
1797.000000	0.000923
1796.000000	0.000954
1795.000000	0.000976
1794.000000	0.000971
1793.000000	0.000936
1792.000000	0.000886
1791.000000	0.000838
1790.000000	0.000788
1789.000000	0.000726
1788.000000	0.000654
1787.000000	0.000585
1786.000000	0.000532
1785.000000	0.000500
1784.000000	0.000482
1783.000000	0.000466
1782.000000	0.000445
1781.000000	0.000440
1780.000000	0.000470
1779.000000	0.000526
1778.000000	0.000569
1777.000000	0.000568
1776.000000	0.000528
1775.000000	0.000478
1774.000000	0.000456
1773.000000	0.000493
1772.000000	0.000568
1771.000000	0.000609
1770.000000	0.000588
1769.000000	0.000551
1768.000000	0.000558
1767.000000	0.000620
1766.000000	0.000704
1765.000000	0.000773
1764.000000	0.000822
1763.000000	0.000878
1762.000000	0.000981
1761.000000	0.001137
1760.000000	0.001313
1759.000000	0.001494
1758.000000	0.001717
1757.000000	0.002039
1756.000000	0.002443
1755.000000	0.002839
1754.000000	0.003190
1753.000000	0.003546
1752.000000	0.003980
1751.000000	0.004500
1750.000000	0.005045
1749.000000	0.005574
1748.000000	0.006072
1747.000000	0.006508
1746.000000	0.006868
1745.000000	0.007184
1744.000000	0.007479
1743.000000	0.007743
1742.000000	0.007966
1741.000000	0.008155
1740.000000	0.008296
1739.000000	0.008348
1738.000000	0.008291
1737.000000	0.008155
1736.000000	0.007959
1735.000000	0.007704
1734.000000	0.007415
1733.000000	0.007120
1732.000000	0.006798
1731.000000	0.006435
1730.000000	0.006052
1729.000000	0.005672
1728.000000	0.005296
1727.000000	0.004909
1726.000000	0.004523
1725.000000	0.004165
1724.000000	0.003844
1723.000000	0.003542
1722.000000	0.003245
1721.000000	0.002952
1720.000000	0.002656
1719.000000	0.002372
1718.000000	0.002167
1717.000000	0.002065
1716.000000	0.001987
1715.000000	0.001893
1714.000000	0.001803
1713.000000	0.001735
1712.000000	0.001680
1711.000000	0.001620
1710.000000	0.001555
1709.000000	0.001493
1708.000000	0.001426
1707.000000	0.001353
1706.000000	0.001303
1705.000000	0.001301
1704.000000	0.001329
1703.000000	0.001358
1702.000000	0.001379
1701.000000	0.001399
1700.000000	0.001435
1699.000000	0.001466
1698.000000	0.001464
1697.000000	0.001461
1696.000000	0.001496
1695.000000	0.001571
1694.000000	0.001640
1693.000000	0.001681
1692.000000	0.001706
1691.000000	0.001720
1690.000000	0.001732
1689.000000	0.001756
1688.000000	0.001795
1687.000000	0.001829
1686.000000	0.001832
1685.000000	0.001815
1684.000000	0.001852
1683.000000	0.001941
1682.000000	0.002007
1681.000000	0.002046
1680.000000	0.002073
1679.000000	0.002096
1678.000000	0.002122
1677.000000	0.002154
1676.000000	0.002185
1675.000000	0.002208
1674.000000	0.002226
1673.000000	0.002250
1672.000000	0.002279
1671.000000	0.002304
1670.000000	0.002335
1669.000000	0.002399
1668.000000	0.002489
1667.000000	0.002565
1666.000000	0.002618
1665.000000	0.002658
1664.000000	0.002690
1663.000000	0.002723
1662.000000	0.002773
1661.000000	0.002840
1660.000000	0.002899
1659.000000	0.002921
1658.000000	0.002911
1657.000000	0.002902
1656.000000	0.002936
1655.000000	0.002996
1654.000000	0.003045
1653.000000	0.003069
1652.000000	0.003097
1651.000000	0.003077
1650.000000	0.003053
1649.000000	0.003062
1648.000000	0.003101
1647.000000	0.003135
1646.000000	0.003142
1645.000000	0.003142
1644.000000	0.003149
1643.000000	0.003165
1642.000000	0.003184
1641.000000	0.003195
1640.000000	0.003192
1639.000000	0.003187
1638.000000	0.003192
1637.000000	0.003200
1636.000000	0.003190
1635.000000	0.003149
1634.000000	0.003105
1633.000000	0.003081
1632.000000	0.003084
1631.000000	0.003087
1630.000000	0.003059
1629.000000	0.002997
1628.000000	0.002939
1627.000000	0.002911
1626.000000	0.002914
1625.000000	0.002924
1624.000000	0.002911
1623.000000	0.002852
1622.000000	0.002765
1621.000000	0.002698
1620.000000	0.002677
1619.000000	0.002688
1618.000000	0.002693
1617.000000	0.002655
1616.000000	0.002571
1615.000000	0.002465
1614.000000	0.002368
1613.000000	0.002300
1612.000000	0.002256
1611.000000	0.002212
1610.000000	0.002163
1609.000000	0.002116
1608.000000	0.002069
1607.000000	0.002008
1606.000000	0.001941
1605.000000	0.001894
1604.000000	0.001872
1603.000000	0.001851
1602.000000	0.001814
1601.000000	0.001771
1600.000000	0.001740
1599.000000	0.001722
1598.000000	0.001711
1597.000000	0.001701
1596.000000	0.001688
1595.000000	0.001668
1594.000000	0.001650
1593.000000	0.001647
1592.000000	0.001658
1591.000000	0.001663
1590.000000	0.001646
1589.000000	0.001620
1588.000000	0.001605
1587.000000	0.001606
1586.000000	0.001617
1585.000000	0.001634
1584.000000	0.001647
1583.000000	0.001641
1582.000000	0.001608
1581.000000	0.001567
1580.000000	0.001544
1579.000000	0.001551
1578.000000	0.001582
1577.000000	0.001621
1576.000000	0.001648
1575.000000	0.001657
1574.000000	0.001662
1573.000000	0.001691
1572.000000	0.001735
1571.000000	0.001763
1570.000000	0.001768
1569.000000	0.001789
1568.000000	0.001839
1567.000000	0.001884
1566.000000	0.001915
1565.000000	0.001942
1564.000000	0.001974
1563.000000	0.002013
1562.000000	0.002068
1561.000000	0.002129
1560.000000	0.002169
1559.000000	0.002191
1558.000000	0.002199
1557.000000	0.002227
1556.000000	0.002269
1555.000000	0.002324
1554.000000	0.002389
1553.000000	0.002445
1552.000000	0.002475
1551.000000	0.002498
1550.000000	0.002557
1549.000000	0.002666
1548.000000	0.002782
1547.000000	0.002855
1546.000000	0.002891
1545.000000	0.002946
1544.000000	0.003057
1543.000000	0.003217
1542.000000	0.003395
1541.000000	0.003548
1540.000000	0.003638
1539.000000	0.003669
1538.000000	0.003689
1537.000000	0.003728
1536.000000	0.003791
1535.000000	0.003862
1534.000000	0.003943
1533.000000	0.004056
1532.000000	0.004193
1531.000000	0.004314
1530.000000	0.004390
1529.000000	0.004419
1528.000000	0.004435
1527.000000	0.004488
1526.000000	0.004596
1525.000000	0.004730
1524.000000	0.004844
1523.000000	0.004920
1522.000000	0.004981
1521.000000	0.005053
1520.000000	0.005128
1519.000000	0.005185
1518.000000	0.005233
1517.000000	0.005296
1516.000000	0.005385
1515.000000	0.005489
1514.000000	0.005596
1513.000000	0.005693
1512.000000	0.005764
1511.000000	0.005805
1510.000000	0.005837
1509.000000	0.005892
1508.000000	0.005995
1507.000000	0.006150
1506.000000	0.006339
1505.000000	0.006504
1504.000000	0.006581
1503.000000	0.006612
1502.000000	0.006654
1501.000000	0.006726
1500.000000	0.006809
1499.000000	0.006888
1498.000000	0.006991
1497.000000	0.007144
1496.000000	0.007306
1495.000000	0.007422
1494.000000	0.007492
1493.000000	0.007533
1492.000000	0.007555
1491.000000	0.007591
1490.000000	0.007703
1489.000000	0.007899
1488.000000	0.008116
1487.000000	0.008314
1486.000000	0.008487
1485.000000	0.008645
1484.000000	0.008788
1483.000000	0.008916
1482.000000	0.009057
1481.000000	0.009229
1480.000000	0.009407
1479.000000	0.009553
1478.000000	0.009676
1477.000000	0.009821
1476.000000	0.010008
1475.000000	0.010225
1474.000000	0.010474
1473.000000	0.010772
1472.000000	0.011084
1471.000000	0.011355
1470.000000	0.011584
1469.000000	0.011790
1468.000000	0.011980
1467.000000	0.012161
1466.000000	0.012356
1465.000000	0.012573
1464.000000	0.012766
1463.000000	0.012890
1462.000000	0.012963
1461.000000	0.013022
1460.000000	0.013086
1459.000000	0.013184
1458.000000	0.013406
1457.000000	0.013777
1456.000000	0.014099
1455.000000	0.014249
1454.000000	0.014319
1453.000000	0.014397
1452.000000	0.014490
1451.000000	0.014578
1450.000000	0.014669
1449.000000	0.014796
1448.000000	0.014964
1447.000000	0.015144
1446.000000	0.015315
1445.000000	0.015474
1444.000000	0.015612
1443.000000	0.015734
1442.000000	0.015867
1441.000000	0.016022
1440.000000	0.016175
1439.000000	0.016304
1438.000000	0.016448
1437.000000	0.016676
1436.000000	0.016954
1435.000000	0.017172
1434.000000	0.017313
1433.000000	0.017422
1432.000000	0.017514
1431.000000	0.017595
1430.000000	0.017709
1429.000000	0.017896
1428.000000	0.018115
1427.000000	0.018301
1426.000000	0.018452
1425.000000	0.018607
1424.000000	0.018756
1423.000000	0.018841
1422.000000	0.018863
1421.000000	0.018876
1420.000000	0.018917
1419.000000	0.018976
1418.000000	0.019028
1417.000000	0.019064
1416.000000	0.019071
1415.000000	0.019037
1414.000000	0.018971
1413.000000	0.018884
1412.000000	0.018768
1411.000000	0.018607
1410.000000	0.018410
1409.000000	0.018192
1408.000000	0.017942
1407.000000	0.017657
1406.000000	0.017377
1405.000000	0.017145
1404.000000	0.016962
1403.000000	0.016808
1402.000000	0.016681
1401.000000	0.016579
1400.000000	0.016486
1399.000000	0.016381
1398.000000	0.016270
1397.000000	0.016165
1396.000000	0.016063
1395.000000	0.015960
1394.000000	0.015876
1393.000000	0.015822
1392.000000	0.015762
1391.000000	0.015659
1390.000000	0.015516
1389.000000	0.015349
1388.000000	0.015168
1387.000000	0.014982
1386.000000	0.014815
1385.000000	0.014676
1384.000000	0.014545
1383.000000	0.014399
1382.000000	0.014238
1381.000000	0.014070
1380.000000	0.013894
1379.000000	0.013711
1378.000000	0.013526
1377.000000	0.013332
1376.000000	0.013120
1375.000000	0.012899
1374.000000	0.012704
1373.000000	0.012549
1372.000000	0.012406
1371.000000	0.012245
1370.000000	0.012065
1369.000000	0.011892
1368.000000	0.011742
1367.000000	0.011604
1366.000000	0.011459
1365.000000	0.011294
1364.000000	0.011115
1363.000000	0.010953
1362.000000	0.010835
1361.000000	0.010766
1360.000000	0.010725
1359.000000	0.010690
1358.000000	0.010653
1357.000000	0.010610
1356.000000	0.010559
1355.000000	0.010501
1354.000000	0.010432
1353.000000	0.010340
1352.000000	0.010223
1351.000000	0.010099
1350.000000	0.009986
1349.000000	0.009890
1348.000000	0.009809
1347.000000	0.009743
1346.000000	0.009696
1345.000000	0.009660
1344.000000	0.009615
1343.000000	0.009547
1342.000000	0.009470
1341.000000	0.009409
1340.000000	0.009393
1339.000000	0.009422
1338.000000	0.009480
1337.000000	0.009545
1336.000000	0.009597
1335.000000	0.009626
1334.000000	0.009626
1333.000000	0.009593
1332.000000	0.009532
1331.000000	0.009459
1330.000000	0.009385
1329.000000	0.009307
1328.000000	0.009213
1327.000000	0.009110
1326.000000	0.009017
1325.000000	0.008945
1324.000000	0.008882
1323.000000	0.008809
1322.000000	0.008723
1321.000000	0.008632
1320.000000	0.008547
1319.000000	0.008464
1318.000000	0.008379
1317.000000	0.008286
1316.000000	0.008183
1315.000000	0.008078
1314.000000	0.007989
1313.000000	0.007923
1312.000000	0.007869
1311.000000	0.007809
1310.000000	0.007737
1309.000000	0.007659
1308.000000	0.007585
1307.000000	0.007516
1306.000000	0.007446
1305.000000	0.007368
1304.000000	0.007276
1303.000000	0.007174
1302.000000	0.007071
1301.000000	0.006975
1300.000000	0.006888
1299.000000	0.006805
1298.000000	0.006722
1297.000000	0.006640
1296.000000	0.006561
1295.000000	0.006484
1294.000000	0.006408
1293.000000	0.006332
1292.000000	0.006268
1291.000000	0.006229
1290.000000	0.006212
1289.000000	0.006192
1288.000000	0.006156
1287.000000	0.006113
1286.000000	0.006080
1285.000000	0.006051
1284.000000	0.006007
1283.000000	0.005941
1282.000000	0.005874
1281.000000	0.005825
1280.000000	0.005801
1279.000000	0.005798
1278.000000	0.005814
1277.000000	0.005840
1276.000000	0.005868
1275.000000	0.005894
1274.000000	0.005931
1273.000000	0.005993
1272.000000	0.006088
1271.000000	0.006210
1270.000000	0.006349
1269.000000	0.006500
1268.000000	0.006668
1267.000000	0.006854
1266.000000	0.007048
1265.000000	0.007223
1264.000000	0.007359
1263.000000	0.007462
1262.000000	0.007565
1261.000000	0.007699
1260.000000	0.007868
1259.000000	0.008047
1258.000000	0.008211
1257.000000	0.008347
1256.000000	0.008456
1255.000000	0.008534
1254.000000	0.008578
1253.000000	0.008593
1252.000000	0.008593
1251.000000	0.008586
1250.000000	0.008574
1249.000000	0.008552
1248.000000	0.008523
1247.000000	0.008496
1246.000000	0.008486
1245.000000	0.008496
1244.000000	0.008519
1243.000000	0.008541
1242.000000	0.008543
1241.000000	0.008510
1240.000000	0.008449
1239.000000	0.008386
1238.000000	0.008338
1237.000000	0.008294
1236.000000	0.008225
1235.000000	0.008127
1234.000000	0.008022
1233.000000	0.007931
1232.000000	0.007853
1231.000000	0.007768
1230.000000	0.007664
1229.000000	0.007536
1228.000000	0.007381
1227.000000	0.007198
1226.000000	0.006993
1225.000000	0.006769
1224.000000	0.006538
1223.000000	0.006316
1222.000000	0.006119
1221.000000	0.005952
1220.000000	0.005804
1219.000000	0.005666
1218.000000	0.005535
1217.000000	0.005413
1216.000000	0.005302
1215.000000	0.005200
1214.000000	0.005103
1213.000000	0.005006
1212.000000	0.004914
1211.000000	0.004844
1210.000000	0.004809
1209.000000	0.004804
1208.000000	0.004807
1207.000000	0.004803
1206.000000	0.004796
1205.000000	0.004799
1204.000000	0.004818
1203.000000	0.004851
1202.000000	0.004884
1201.000000	0.004908
1200.000000	0.004927
1199.000000	0.004958
1198.000000	0.005017
1197.000000	0.005100
1196.000000	0.005191
1195.000000	0.005277
1194.000000	0.005361
1193.000000	0.005451
1192.000000	0.005555
1191.000000	0.005675
1190.000000	0.005801
1189.000000	0.005919
1188.000000	0.006021
1187.000000	0.006120
1186.000000	0.006241
1185.000000	0.006389
1184.000000	0.006547
1183.000000	0.006698
1182.000000	0.006847
1181.000000	0.007012
1180.000000	0.007206
1179.000000	0.007423
1178.000000	0.007647
1177.000000	0.007867
1176.000000	0.008080
1175.000000	0.008286
1174.000000	0.008486
1173.000000	0.008680
1172.000000	0.008869
1171.000000	0.009053
1170.000000	0.009227
1169.000000	0.009385
1168.000000	0.009530
1167.000000	0.009670
1166.000000	0.009805
1165.000000	0.009922
1164.000000	0.010005
1163.000000	0.010055
1162.000000	0.010081
1161.000000	0.010090
1160.000000	0.010080
1159.000000	0.010053
1158.000000	0.010014
1157.000000	0.009960
1156.000000	0.009879
1155.000000	0.009763
1154.000000	0.009615
1153.000000	0.009437
1152.000000	0.009232
1151.000000	0.009008
1150.000000	0.008777
1149.000000	0.008540
1148.000000	0.008287
1147.000000	0.008014
1146.000000	0.007727
1145.000000	0.007441
1144.000000	0.007166
1143.000000	0.006909
1142.000000	0.006671
1141.000000	0.006449
1140.000000	0.006235
1139.000000	0.006027
1138.000000	0.005824
1137.000000	0.005622
1136.000000	0.005419
1135.000000	0.005227
1134.000000	0.005060
1133.000000	0.004916
1132.000000	0.004784
1131.000000	0.004660
1130.000000	0.004554
1129.000000	0.004466
1128.000000	0.004390
1127.000000	0.004325
1126.000000	0.004285
1125.000000	0.004280
1124.000000	0.004307
1123.000000	0.004356
1122.000000	0.004425
1121.000000	0.004512
1120.000000	0.004614
1119.000000	0.004730
1118.000000	0.004868
1117.000000	0.005034
1116.000000	0.005229
1115.000000	0.005439
1114.000000	0.005648
1113.000000	0.005843
1112.000000	0.006026
1111.000000	0.006202
1110.000000	0.006362
1109.000000	0.006477
1108.000000	0.006526
1107.000000	0.006522
1106.000000	0.006500
1105.000000	0.006475
1104.000000	0.006440
1103.000000	0.006388
1102.000000	0.006335
1101.000000	0.006308
1100.000000	0.006318
1099.000000	0.006366
1098.000000	0.006438
1097.000000	0.006512
1096.000000	0.006568
1095.000000	0.006610
1094.000000	0.006657
1093.000000	0.006705
1092.000000	0.006725
1091.000000	0.006690
1090.000000	0.006609
1089.000000	0.006503
1088.000000	0.006379
1087.000000	0.006222
1086.000000	0.006025
1085.000000	0.005797
1084.000000	0.005566
1083.000000	0.005367
1082.000000	0.005221
1081.000000	0.005113
1080.000000	0.005005
1079.000000	0.004874
1078.000000	0.004737
1077.000000	0.004622
1076.000000	0.004532
1075.000000	0.004452
1074.000000	0.004374
1073.000000	0.004295
1072.000000	0.004212
1071.000000	0.004124
1070.000000	0.004040
1069.000000	0.003982
1068.000000	0.003962
1067.000000	0.003969
1066.000000	0.003983
1065.000000	0.003993
1064.000000	0.004004
1063.000000	0.004022
1062.000000	0.004051
1061.000000	0.004081
1060.000000	0.004091
1059.000000	0.004056
1058.000000	0.003972
1057.000000	0.003859
1056.000000	0.003742
1055.000000	0.003626
1054.000000	0.003511
1053.000000	0.003406
1052.000000	0.003339
1051.000000	0.003324
1050.000000	0.003345
1049.000000	0.003371
1048.000000	0.003391
1047.000000	0.003417
1046.000000	0.003461
1045.000000	0.003519
1044.000000	0.003574
1043.000000	0.003611
1042.000000	0.003630
1041.000000	0.003648
1040.000000	0.003689
1039.000000	0.003762
1038.000000	0.003840
1037.000000	0.003883
1036.000000	0.003876
1035.000000	0.003842
1034.000000	0.003817
1033.000000	0.003811
1032.000000	0.003805
1031.000000	0.003780
1030.000000	0.003736
1029.000000	0.003700
1028.000000	0.003701
1027.000000	0.003747
1026.000000	0.003819
1025.000000	0.003887
1024.000000	0.003939
1023.000000	0.003988
1022.000000	0.004045
1021.000000	0.004096
1020.000000	0.004121
1019.000000	0.004112
1018.000000	0.004076
1017.000000	0.004028
1016.000000	0.003977
1015.000000	0.003926
1014.000000	0.003879
1013.000000	0.003836
1012.000000	0.003797
1011.000000	0.003756
1010.000000	0.003701
1009.000000	0.003630
1008.000000	0.003558
1007.000000	0.003506
1006.000000	0.003473
1005.000000	0.003436
1004.000000	0.003376
1003.000000	0.003297
1002.000000	0.003221
1001.000000	0.003162
1000.000000	0.003123
999.000000	0.003099
998.000000	0.003082
997.000000	0.003061
996.000000	0.003027
995.000000	0.002979
994.000000	0.002921
993.000000	0.002865
992.000000	0.002828
991.000000	0.002824
990.000000	0.002844
989.000000	0.002859
988.000000	0.002851
987.000000	0.002832
986.000000	0.002830
985.000000	0.002856
984.000000	0.002894
983.000000	0.002912
982.000000	0.002897
981.000000	0.002864
980.000000	0.002840
979.000000	0.002840
978.000000	0.002851
977.000000	0.002861
976.000000	0.002876
975.000000	0.002910
974.000000	0.002958
973.000000	0.003001
972.000000	0.003028
971.000000	0.003048
970.000000	0.003071
969.000000	0.003093
968.000000	0.003109
967.000000	0.003121
966.000000	0.003134
965.000000	0.003145
964.000000	0.003149
963.000000	0.003140
962.000000	0.003110
961.000000	0.003053
960.000000	0.002985
959.000000	0.002934
958.000000	0.002902
957.000000	0.002865
956.000000	0.002802
955.000000	0.002727
954.000000	0.002660
953.000000	0.002595
952.000000	0.002514
951.000000	0.002433
950.000000	0.002388
949.000000	0.002390
948.000000	0.002400
947.000000	0.002369
946.000000	0.002287
945.000000	0.002185
944.000000	0.002103
943.000000	0.002059
942.000000	0.002040
941.000000	0.002020
940.000000	0.001985
939.000000	0.001934
938.000000	0.001870
937.000000	0.001791
936.000000	0.001708
935.000000	0.001648
934.000000	0.001626
933.000000	0.001628
932.000000	0.001632
931.000000	0.001638
930.000000	0.001655
929.000000	0.001669
928.000000	0.001648
927.000000	0.001580
926.000000	0.001490
925.000000	0.001418
924.000000	0.001380
923.000000	0.001370
922.000000	0.001367
921.000000	0.001354
920.000000	0.001326
919.000000	0.001286
918.000000	0.001245
917.000000	0.001201
916.000000	0.001147
915.000000	0.001083
914.000000	0.001024
913.000000	0.000984
912.000000	0.000967
911.000000	0.000959
910.000000	0.000942
909.000000	0.000904
908.000000	0.000853
907.000000	0.000804
906.000000	0.000763
905.000000	0.000713
904.000000	0.000639
903.000000	0.000543
902.000000	0.000448
901.000000	0.000375
900.000000	0.000335
899.000000	0.000324
898.000000	0.000335
897.000000	0.000360
896.000000	0.000388
895.000000	0.000405
894.000000	0.000405
893.000000	0.000403
892.000000	0.000429
891.000000	0.000491
890.000000	0.000569
889.000000	0.000674
888.000000	0.000894
887.000000	0.001343
886.000000	0.002052
885.000000	0.002912
884.000000	0.003761
883.000000	0.004516
882.000000	0.005230
881.000000	0.006028
880.000000	0.006997
879.000000	0.008112
878.000000	0.009261
877.000000	0.010322
876.000000	0.011205
875.000000	0.011842
874.000000	0.012149
873.000000	0.012047
872.000000	0.011525
871.000000	0.010665
870.000000	0.009612
869.000000	0.008513
868.000000	0.007480
867.000000	0.006569
866.000000	0.005786
865.000000	0.005116
864.000000	0.004555
863.000000	0.004110
862.000000	0.003755
861.000000	0.003432
860.000000	0.003106
859.000000	0.002789
858.000000	0.002503
857.000000	0.002243
856.000000	0.002010
855.000000	0.001830
854.000000	0.001719
853.000000	0.001649
852.000000	0.001594
851.000000	0.001584
850.000000	0.001669
849.000000	0.001820
848.000000	0.001926
847.000000	0.001892
846.000000	0.001721
845.000000	0.001491
844.000000	0.001288
843.000000	0.001168
842.000000	0.001138
841.000000	0.001161
840.000000	0.001175
839.000000	0.001148
838.000000	0.001099
837.000000	0.001072
836.000000	0.001086
835.000000	0.001120
834.000000	0.001134
833.000000	0.001110
832.000000	0.001057
831.000000	0.001004
830.000000	0.000970
829.000000	0.000956
828.000000	0.000953
827.000000	0.000947
826.000000	0.000922
825.000000	0.000868
824.000000	0.000805
823.000000	0.000768
822.000000	0.000765
821.000000	0.000760
820.000000	0.000712
819.000000	0.000632
818.000000	0.000570
817.000000	0.000563
816.000000	0.000596
815.000000	0.000624
814.000000	0.000608
813.000000	0.000536
812.000000	0.000435
811.000000	0.000342
810.000000	0.000287
809.000000	0.000274
808.000000	0.000297
807.000000	0.000345
806.000000	0.000399
805.000000	0.000435
804.000000	0.000448
803.000000	0.000462
802.000000	0.000497
801.000000	0.000537
800.000000	0.000544
799.000000	0.000510
798.000000	0.000463
797.000000	0.000444
796.000000	0.000472
795.000000	0.000531
794.000000	0.000594
793.000000	0.000634
792.000000	0.000645
791.000000	0.000638
790.000000	0.000631
789.000000	0.000629
788.000000	0.000627
787.000000	0.000626
786.000000	0.000634
785.000000	0.000667
784.000000	0.000721
783.000000	0.000773
782.000000	0.000787
781.000000	0.000758
780.000000	0.000722
779.000000	0.000729
778.000000	0.000790
777.000000	0.000864
776.000000	0.000902
775.000000	0.000880
774.000000	0.000817
773.000000	0.000758
772.000000	0.000748
771.000000	0.000801
770.000000	0.000881
769.000000	0.000939
768.000000	0.000960
767.000000	0.000962
766.000000	0.000963
765.000000	0.000963
764.000000	0.000960
763.000000	0.000972
762.000000	0.001010
761.000000	0.001068
760.000000	0.001132
759.000000	0.001189
758.000000	0.001225
757.000000	0.001235
756.000000	0.001239
755.000000	0.001263
754.000000	0.001297
753.000000	0.001299
752.000000	0.001252
751.000000	0.001194
750.000000	0.001173
749.000000	0.001198
748.000000	0.001242
747.000000	0.001279
746.000000	0.001304
745.000000	0.001326
744.000000	0.001358
743.000000	0.001399
742.000000	0.001422
741.000000	0.001402
740.000000	0.001350
739.000000	0.001300
738.000000	0.001275
737.000000	0.001274
736.000000	0.001303
735.000000	0.001369
734.000000	0.001448
733.000000	0.001496
732.000000	0.001512
731.000000	0.001536
730.000000	0.001582
729.000000	0.001612
728.000000	0.001608
727.000000	0.001607
726.000000	0.001646
725.000000	0.001700
724.000000	0.001716
723.000000	0.001686
722.000000	0.001659
721.000000	0.001688
720.000000	0.001806
719.000000	0.002030
718.000000	0.002380
717.000000	0.002878
716.000000	0.003549
715.000000	0.004383
714.000000	0.005249
713.000000	0.005901
712.000000	0.006114
711.000000	0.005853
710.000000	0.005289
709.000000	0.004667
708.000000	0.004164
707.000000	0.003840
706.000000	0.003676
705.000000	0.003617
704.000000	0.003599
703.000000	0.003570
702.000000	0.003511
701.000000	0.003444
700.000000	0.003417
699.000000	0.003452
698.000000	0.003511
697.000000	0.003533
696.000000	0.003503
695.000000	0.003476
694.000000	0.003503
693.000000	0.003569
692.000000	0.003622
691.000000	0.003618
690.000000	0.003546
689.000000	0.003427
688.000000	0.003319
687.000000	0.003289
686.000000	0.003323
685.000000	0.003339
684.000000	0.003300
683.000000	0.003266
682.000000	0.003294
681.000000	0.003347
680.000000	0.003358
679.000000	0.003308
678.000000	0.003216
677.000000	0.003124
676.000000	0.003075
675.000000	0.003091
674.000000	0.003131
673.000000	0.003108
672.000000	0.002958
671.000000	0.002667
670.000000	0.002218
669.000000	0.001649
668.000000	0.001311
667.000000	0.001507
666.000000	0.001817
665.000000	0.002066
664.000000	0.002234
663.000000	0.002255
662.000000	0.002121
661.000000	0.001909
660.000000	0.001696
659.000000	0.001506
658.000000	0.001355
657.000000	0.001304
656.000000	0.001383
655.000000	0.001540
654.000000	0.001714
653.000000	0.001893
652.000000	0.002067
651.000000	0.002216
650.000000	0.002348
649.000000	0.002516
648.000000	0.002722
647.000000	0.002892
646.000000	0.002980
645.000000	0.003023
644.000000	0.003084
643.000000	0.003180
642.000000	0.003299
641.000000	0.003432
640.000000	0.003579
639.000000	0.003716
638.000000	0.003810
637.000000	0.003830
636.000000	0.003751
635.000000	0.003590
634.000000	0.003443
633.000000	0.003417
632.000000	0.003530
631.000000	0.003702
630.000000	0.003838
629.000000	0.003903
628.000000	0.003925
627.000000	0.003952
626.000000	0.004025
625.000000	0.004120
624.000000	0.004154
623.000000	0.004070
622.000000	0.003917
621.000000	0.003792
620.000000	0.003740
619.000000	0.003748
618.000000	0.003803
617.000000	0.003902
616.000000	0.004014
615.000000	0.004092
614.000000	0.004132
613.000000	0.004181
612.000000	0.004274
611.000000	0.004408
610.000000	0.004561
609.000000	0.004695
608.000000	0.004748
607.000000	0.004685
606.000000	0.004560
605.000000	0.004464
604.000000	0.004421
603.000000	0.004372
602.000000	0.004252
601.000000	0.004046
600.000000	0.003775
599.000000	0.003486
598.000000	0.003243
597.000000	0.003092
596.000000	0.003019
595.000000	0.002974
594.000000	0.002925
593.000000	0.002881
592.000000	0.002839
591.000000	0.002778
590.000000	0.002691
589.000000	0.002580
588.000000	0.002436
587.000000	0.002270
586.000000	0.002158
585.000000	0.002181
584.000000	0.002306
583.000000	0.002389
582.000000	0.002351
581.000000	0.002263
580.000000	0.002233
579.000000	0.002248
578.000000	0.002203
577.000000	0.002052
576.000000	0.001856
575.000000	0.001704
574.000000	0.001628
573.000000	0.001602
572.000000	0.001590
571.000000	0.001592
570.000000	0.001634
569.000000	0.001712
568.000000	0.001772
567.000000	0.001749
566.000000	0.001649
565.000000	0.001532
564.000000	0.001433
563.000000	0.001340
562.000000	0.001260
561.000000	0.001254
560.000000	0.001361
559.000000	0.001541
558.000000	0.001710
557.000000	0.001805
556.000000	0.001807
555.000000	0.001723
554.000000	0.001605
553.000000	0.001537
552.000000	0.001574
551.000000	0.001701
550.000000	0.001861
549.000000	0.002012
548.000000	0.002117
547.000000	0.002127
546.000000	0.002017
545.000000	0.001835
544.000000	0.001676
543.000000	0.001608
542.000000	0.001639
541.000000	0.001728
540.000000	0.001805
539.000000	0.001817
538.000000	0.001787
537.000000	0.001794
536.000000	0.001875
535.000000	0.001967
534.000000	0.001993
533.000000	0.001966
532.000000	0.001957
531.000000	0.001969
530.000000	0.001926
529.000000	0.001789
528.000000	0.001640
527.000000	0.001592
526.000000	0.001639
525.000000	0.001668
524.000000	0.001621
523.000000	0.001571
522.000000	0.001608
521.000000	0.001693
520.000000	0.001685
519.000000	0.001514
518.000000	0.001305
517.000000	0.001258
516.000000	0.001426
515.000000	0.001674
514.000000	0.001834
513.000000	0.001830
512.000000	0.001698
511.000000	0.001546
510.000000	0.001482
509.000000	0.001533
508.000000	0.001637
507.000000	0.001718
506.000000	0.001761
505.000000	0.001815
504.000000	0.001911
503.000000	0.002031
502.000000	0.002127
501.000000	0.002149
500.000000	0.002068
499.000000	0.001902
498.000000	0.001735
497.000000	0.001669
496.000000	0.001719
495.000000	0.001790
494.000000	0.001781
493.000000	0.001693
492.000000	0.001612
491.000000	0.001619
490.000000	0.001741
489.000000	0.001940
488.000000	0.002123
487.000000	0.002186
486.000000	0.002103
485.000000	0.001975
484.000000	0.001940
483.000000	0.002030
482.000000	0.002150
481.000000	0.002190
480.000000	0.002097
479.000000	0.001882
478.000000	0.001642
477.000000	0.001509
476.000000	0.001522
475.000000	0.001582
474.000000	0.001603
473.000000	0.001627
472.000000	0.001719
471.000000	0.001820
470.000000	0.001858
469.000000	0.001879
468.000000	0.001955
467.000000	0.002029
466.000000	0.002000
465.000000	0.001883
464.000000	0.001759
463.000000	0.001630
462.000000	0.001425
461.000000	0.001144
460.000000	0.000854
459.000000	0.000582
458.000000	0.000364
457.000000	0.000316
456.000000	0.000475
455.000000	0.000665
454.000000	0.000665
453.000000	0.000466
452.000000	0.000296
451.000000	0.000311
450.000000	0.000404
