PE UV       SUBTECH     SPECTRUM    ASCII       PEDS        4.00        
   -1
3C-H10-C021.Sample.Raw.asc
22/03/18
16:30:05.00
22/03/18
16:30:05.00
Administrator

250.000000
1
Lambda 750
750N8071901
PerkinElmer UV WinLab 6.0.4.0738 / 1.61.00 Lambda 900

0
0
3350/servo 860.8/2
0
0
UV/VIS
1
1
1
CommonBeamDepol,150mm sphere / downward view
0
0
0
0
Program
Program
3350/servo 860.8/2
3350/0.2 860.8/0.2
3350/0.2 860.8/0.2
0
1
 
 
 
0
 
860.8
319.2
860.8
Front
100
on
 
 
0
0
0
 
0
 
 
 
0
 
 
0
0
0
0
0
 
 
 
 
0
0


0
0
#HDR
-1
-1
#GR
nm
%R
1.0
0.0
2500.000000
-10.000000
226
8
48.633186
12.418619
#DATA
2500.000000	16.951943
2490.000000	12.418619
2480.000000	12.911332
2470.000000	14.968394
2460.000000	15.350594
2450.000000	15.798316
2440.000000	15.929894
2430.000000	18.095387
2420.000000	16.946579
2410.000000	17.932993
2400.000000	17.343249
2390.000000	16.669578
2380.000000	17.681509
2370.000000	16.981429
2360.000000	16.986385
2350.000000	18.444461
2340.000000	18.824996
2330.000000	18.294684
2320.000000	17.740787
2310.000000	16.746253
2300.000000	16.914057
2290.000000	17.503437
2280.000000	17.287914
2270.000000	16.492681
2260.000000	17.044538
2250.000000	18.469919
2240.000000	19.201173
2230.000000	19.518215
2220.000000	19.051809
2210.000000	19.938609
2200.000000	19.089806
2190.000000	18.840459
2180.000000	18.586097
2170.000000	18.844528
2160.000000	19.131296
2150.000000	19.191984
2140.000000	19.378385
2130.000000	20.309696
2120.000000	20.835146
2110.000000	21.502482
2100.000000	21.392352
2090.000000	21.335064
2080.000000	21.244843
2070.000000	20.921093
2060.000000	19.976991
2050.000000	19.631087
2040.000000	19.041784
2030.000000	19.277837
2020.000000	19.624985
2010.000000	19.791182
2000.000000	19.337475
1990.000000	18.873303
1980.000000	18.439646
1970.000000	17.983801
1960.000000	17.490011
1950.000000	16.974995
1940.000000	16.567070
1930.000000	17.191185
1920.000000	18.011265
1910.000000	19.507650
1900.000000	22.117398
1890.000000	24.944482
1880.000000	28.070251
1870.000000	30.700199
1860.000000	31.933374
1850.000000	32.368427
1840.000000	32.149738
1830.000000	31.983819
1820.000000	31.757541
1810.000000	31.504820
1800.000000	31.217690
1790.000000	30.861457
1780.000000	30.552068
1770.000000	30.291620
1760.000000	30.008968
1750.000000	29.617758
1740.000000	29.250449
1730.000000	29.032671
1720.000000	29.347700
1710.000000	30.117699
1700.000000	30.555985
1690.000000	30.953853
1680.000000	31.991010
1670.000000	33.322869
1660.000000	34.349896
1650.000000	34.793869
1640.000000	34.615060
1630.000000	34.325434
1620.000000	33.870960
1610.000000	33.285871
1600.000000	32.758417
1590.000000	32.267145
1580.000000	31.844190
1570.000000	31.459681
1560.000000	31.138898
1550.000000	30.848694
1540.000000	30.327604
1530.000000	29.621122
1520.000000	29.139549
1510.000000	28.917437
1500.000000	28.793792
1490.000000	28.773398
1480.000000	29.050171
1470.000000	29.341434
1460.000000	29.658102
1450.000000	30.153772
1440.000000	30.876259
1430.000000	31.747747
1420.000000	32.893789
1410.000000	34.604878
1400.000000	36.901115
1390.000000	39.242019
1380.000000	40.909134
1370.000000	41.726159
1360.000000	42.258521
1350.000000	42.673319
1340.000000	42.967770
1330.000000	43.284888
1320.000000	43.812631
1310.000000	44.365878
1300.000000	44.721511
1290.000000	44.912484
1280.000000	44.866882
1270.000000	44.664577
1260.000000	44.663829
1250.000000	44.670184
1240.000000	44.505815
1230.000000	44.273323
1220.000000	43.978423
1210.000000	43.567186
1200.000000	43.155037
1190.000000	43.029070
1180.000000	43.337654
1170.000000	44.065830
1160.000000	44.938966
1150.000000	45.650535
1140.000000	46.243915
1130.000000	46.685359
1120.000000	46.902492
1110.000000	46.931662
1100.000000	46.993668
1090.000000	47.028910
1080.000000	47.010050
1070.000000	46.989249
1060.000000	46.941630
1050.000000	46.943178
1040.000000	46.942009
1030.000000	46.952798
1020.000000	47.070683
1010.000000	47.379253
1000.000000	47.773885
990.000000	47.921233
980.000000	47.959215
970.000000	48.031876
960.000000	48.158885
950.000000	48.228762
940.000000	48.253412
930.000000	48.240558
920.000000	48.229774
910.000000	48.308334
900.000000	48.460078
890.000000	48.633186
880.000000	48.600274
870.000000	48.469088
860.000000	48.583328
850.000000	48.468819
840.000000	48.105469
830.000000	48.283493
820.000000	48.322924
810.000000	48.246471
800.000000	48.287797
790.000000	48.334904
780.000000	48.272142
770.000000	48.264745
760.000000	48.249877
750.000000	48.356686
740.000000	48.359480
730.000000	48.263295
720.000000	48.255344
710.000000	48.238995
700.000000	48.177696
690.000000	48.062256
680.000000	48.065696
670.000000	48.088394
660.000000	47.995236
650.000000	47.971182
640.000000	47.838071
630.000000	47.811495
620.000000	47.772788
610.000000	47.679477
600.000000	47.525521
590.000000	47.421167
580.000000	47.319993
570.000000	47.170346
560.000000	47.027027
550.000000	46.859697
540.000000	46.551335
530.000000	46.176906
520.000000	45.792757
510.000000	45.301123
500.000000	44.690501
490.000000	44.006127
480.000000	43.376033
470.000000	42.733236
460.000000	41.843057
450.000000	40.781481
440.000000	39.636708
430.000000	38.204426
420.000000	36.500552
410.000000	34.716802
400.000000	33.129349
390.000000	31.937120
380.000000	30.895227
370.000000	29.895761
360.000000	28.885513
350.000000	27.858863
340.000000	26.879239
330.000000	25.737628
320.000000	24.686358
310.000000	23.834024
300.000000	22.218427
290.000000	19.590951
280.000000	17.666543
270.000000	17.436305
260.000000	17.375460
250.000000	16.129093
