PE UV       SUBTECH     SPECTRUM    ASCII       PEDS        4.00        
   -1
3C-H10-F018.Sample.Raw.asc
22/03/21
15:44:20.00
22/03/21
15:44:20.00
Administrator

250.000000
1
Lambda 750
750N8071901
PerkinElmer UV WinLab 6.0.4.0738 / 1.61.00 Lambda 900

0
0
3350/servo 860.8/2
0
0
UV/VIS
1
1
1
CommonBeamDepol,150mm sphere / downward view
0
0
0
0
Program
Program
3350/servo 860.8/2
3350/0.2 860.8/0.2
3350/0.2 860.8/0.2
0
1
 
 
 
0
 
860.8
319.2
860.8
Front
100
on
 
 
0
0
0
 
0
 
 
 
0
 
 
0
0
0
0
0
 
 
 
 
0
0


0
0
#HDR
-1
-1
#GR
nm
%R
1.0
0.0
2500.000000
-10.000000
226
8
41.746962
10.347016
#DATA
2500.000000	11.508947
2490.000000	11.752695
2480.000000	10.347016
2470.000000	14.936100
2460.000000	13.672337
2450.000000	12.934461
2440.000000	15.729278
2430.000000	14.120201
2420.000000	13.175097
2410.000000	14.093584
2400.000000	15.178686
2390.000000	14.234023
2380.000000	15.082765
2370.000000	15.728174
2360.000000	16.207356
2350.000000	15.103986
2340.000000	15.364362
2330.000000	13.722343
2320.000000	14.765024
2310.000000	15.698340
2300.000000	15.190683
2290.000000	15.778486
2280.000000	14.836389
2270.000000	15.034438
2260.000000	14.764995
2250.000000	16.110716
2240.000000	16.313407
2230.000000	17.319516
2220.000000	17.400796
2210.000000	17.044223
2200.000000	16.216750
2190.000000	15.964659
2180.000000	15.623912
2170.000000	16.290793
2160.000000	16.722116
2150.000000	16.910042
2140.000000	16.861318
2130.000000	17.805219
2120.000000	18.006717
2110.000000	18.214004
2100.000000	18.838838
2090.000000	18.420250
2080.000000	18.107565
2070.000000	17.867244
2060.000000	17.365226
2050.000000	17.110177
2040.000000	16.544300
2030.000000	16.865807
2020.000000	16.901101
2010.000000	17.168178
2000.000000	17.085560
1990.000000	16.649459
1980.000000	16.272094
1970.000000	15.897531
1960.000000	15.513820
1950.000000	15.279156
1940.000000	14.827070
1930.000000	15.373860
1920.000000	15.931775
1910.000000	17.162902
1900.000000	19.460244
1890.000000	22.084072
1880.000000	24.667953
1870.000000	26.893551
1860.000000	28.075891
1850.000000	28.581887
1840.000000	28.408391
1830.000000	28.357527
1820.000000	28.060728
1810.000000	27.803816
1800.000000	27.591581
1790.000000	27.290047
1780.000000	27.052752
1770.000000	26.677921
1760.000000	26.335446
1750.000000	26.018372
1740.000000	25.670730
1730.000000	25.506622
1720.000000	25.854531
1710.000000	26.529602
1700.000000	27.009799
1690.000000	27.287534
1680.000000	28.221022
1670.000000	29.492542
1660.000000	30.438541
1650.000000	30.826512
1640.000000	30.733778
1630.000000	30.503860
1620.000000	30.100231
1610.000000	29.589127
1600.000000	29.080794
1590.000000	28.614354
1580.000000	28.183682
1570.000000	27.894087
1560.000000	27.654023
1550.000000	27.391201
1540.000000	26.881294
1530.000000	26.326921
1520.000000	25.925511
1510.000000	25.672983
1500.000000	25.569165
1490.000000	25.585584
1480.000000	25.801493
1470.000000	26.072146
1460.000000	26.412268
1450.000000	26.935350
1440.000000	27.478627
1430.000000	28.208488
1420.000000	29.200522
1410.000000	30.801029
1400.000000	32.946301
1390.000000	34.979549
1380.000000	36.347309
1370.000000	37.066263
1360.000000	37.549164
1350.000000	37.934006
1340.000000	38.233448
1330.000000	38.635192
1320.000000	39.167843
1310.000000	39.643139
1300.000000	39.946416
1290.000000	39.993188
1280.000000	39.838911
1270.000000	39.707997
1260.000000	39.697257
1250.000000	39.734987
1240.000000	39.580032
1230.000000	39.375090
1220.000000	39.071802
1210.000000	38.645056
1200.000000	38.322845
1190.000000	38.158145
1180.000000	38.388471
1170.000000	39.052090
1160.000000	39.766306
1150.000000	40.408420
1140.000000	40.907887
1130.000000	41.285399
1120.000000	41.462274
1110.000000	41.440106
1100.000000	41.373108
1090.000000	41.308072
1080.000000	41.307865
1070.000000	41.237560
1060.000000	41.125112
1050.000000	41.080901
1040.000000	41.056134
1030.000000	41.035691
1020.000000	41.109955
1010.000000	41.312883
1000.000000	41.562015
990.000000	41.615263
980.000000	41.597691
970.000000	41.609262
960.000000	41.639295
950.000000	41.687869
940.000000	41.734574
930.000000	41.637107
920.000000	41.499282
910.000000	41.595524
900.000000	41.690042
890.000000	41.746962
880.000000	41.681192
870.000000	41.521943
860.000000	41.341784
850.000000	40.922142
840.000000	39.999463
830.000000	39.934170
820.000000	39.886955
810.000000	39.961528
800.000000	39.933001
790.000000	39.923320
780.000000	39.869613
770.000000	39.884479
760.000000	39.819027
750.000000	39.744598
740.000000	39.732596
730.000000	39.667497
720.000000	39.603508
710.000000	39.596010
700.000000	39.543089
690.000000	39.452671
680.000000	39.412266
670.000000	39.348132
660.000000	39.242909
650.000000	39.144766
640.000000	39.079368
630.000000	38.985916
620.000000	38.931822
610.000000	38.831743
600.000000	38.684876
590.000000	38.571863
580.000000	38.432750
570.000000	38.281066
560.000000	38.204869
550.000000	38.055893
540.000000	37.797868
530.000000	37.490934
520.000000	37.129691
510.000000	36.701663
500.000000	36.281264
490.000000	35.853094
480.000000	35.321498
470.000000	34.781146
460.000000	34.156660
450.000000	33.408792
440.000000	32.469567
430.000000	31.433157
420.000000	29.990907
410.000000	28.359892
400.000000	27.092769
390.000000	26.208079
380.000000	25.514106
370.000000	24.895927
360.000000	24.441028
350.000000	23.805274
340.000000	22.897547
330.000000	22.390229
320.000000	21.599695
310.000000	20.550647
300.000000	19.433045
290.000000	17.050931
280.000000	15.417192
270.000000	15.133953
260.000000	14.996760
250.000000	13.990949
