PE UV       SUBTECH     SPECTRUM    ASCII       PEDS        4.00        
   -1
3C-H10-008.Sample.Raw.asc
22/02/23
17:09:20.00
22/02/23
17:09:20.00
Administrator

250.000000
1
Lambda 750
750N8071901
PerkinElmer UV WinLab 6.0.4.0738 / 1.61.00 Lambda 900

0
0
3350/servo 860.8/2
0
0
UV/VIS
1
1
1
CommonBeamDepol,150mm sphere / downward view
0
0
0
0
Program
Program
3350/servo 860.8/2
3350/0.2 860.8/0.2
3350/0.2 860.8/0.2
0
1
 
 
 
0
 
860.8
319.2
860.8
Front
100
on
 
 
0
0
0
 
0
 
 
 
0
 
 
0
0
0
0
0
 
 
 
 
0
0


0
0
#HDR
-1
-1
#GR
nm
%R
1.0
0.0
2500.000000
-10.000000
226
8
48.496549
8.573929
#DATA
2500.000000	8.573929
2490.000000	16.937472
2480.000000	11.858467
2470.000000	14.020533
2460.000000	17.580476
2450.000000	17.672783
2440.000000	18.609470
2430.000000	18.235044
2420.000000	17.134994
2410.000000	19.783313
2400.000000	17.457609
2390.000000	22.297055
2380.000000	20.655936
2370.000000	18.865137
2360.000000	19.083458
2350.000000	20.946416
2340.000000	19.144853
2330.000000	19.896261
2320.000000	18.731050
2310.000000	20.286749
2300.000000	20.327355
2290.000000	17.481638
2280.000000	17.131678
2270.000000	18.350830
2260.000000	17.199318
2250.000000	18.688873
2240.000000	19.539617
2230.000000	20.664692
2220.000000	20.555735
2210.000000	19.725494
2200.000000	18.805784
2190.000000	19.557517
2180.000000	17.841628
2170.000000	19.827326
2160.000000	20.686802
2150.000000	18.807464
2140.000000	20.869479
2130.000000	21.504295
2120.000000	20.427486
2110.000000	21.261773
2100.000000	23.376409
2090.000000	22.704007
2080.000000	21.432094
2070.000000	21.020481
2060.000000	20.731258
2050.000000	20.103887
2040.000000	19.920119
2030.000000	20.184919
2020.000000	20.443292
2010.000000	20.729896
2000.000000	19.980121
1990.000000	20.161252
1980.000000	19.854016
1970.000000	18.951345
1960.000000	18.297038
1950.000000	17.674201
1940.000000	17.520576
1930.000000	17.911680
1920.000000	19.238673
1910.000000	19.905543
1900.000000	21.939949
1890.000000	25.776406
1880.000000	28.470976
1870.000000	31.410628
1860.000000	32.712877
1850.000000	32.693476
1840.000000	32.821532
1830.000000	32.822239
1820.000000	32.238762
1810.000000	32.381625
1800.000000	32.115470
1790.000000	31.820440
1780.000000	31.344467
1770.000000	31.108479
1760.000000	30.807110
1750.000000	30.394491
1740.000000	30.011403
1730.000000	29.370831
1720.000000	30.079272
1710.000000	30.676228
1700.000000	31.360310
1690.000000	31.655709
1680.000000	32.631144
1670.000000	33.831301
1660.000000	34.747407
1650.000000	35.369236
1640.000000	35.404632
1630.000000	34.998031
1620.000000	34.461955
1610.000000	33.859240
1600.000000	33.462553
1590.000000	32.825404
1580.000000	32.382492
1570.000000	31.957393
1560.000000	31.797118
1550.000000	31.502130
1540.000000	31.039126
1530.000000	30.417511
1520.000000	29.872651
1510.000000	29.601144
1500.000000	29.390859
1490.000000	29.310137
1480.000000	29.608781
1470.000000	29.805098
1460.000000	30.127183
1450.000000	30.644624
1440.000000	31.391802
1430.000000	32.142092
1420.000000	33.255968
1410.000000	34.517430
1400.000000	36.656850
1390.000000	39.597980
1380.000000	41.344533
1370.000000	42.057276
1360.000000	42.489099
1350.000000	42.707233
1340.000000	42.339222
1330.000000	42.160830
1320.000000	42.821692
1310.000000	44.478972
1300.000000	46.030729
1290.000000	46.832797
1280.000000	46.801574
1270.000000	46.308953
1260.000000	45.757136
1250.000000	45.425718
1240.000000	45.391381
1230.000000	45.203898
1220.000000	44.957553
1210.000000	44.552079
1200.000000	44.181570
1190.000000	44.013711
1180.000000	44.282321
1170.000000	44.794370
1160.000000	45.567633
1150.000000	46.367711
1140.000000	47.201791
1130.000000	47.646109
1120.000000	47.631934
1110.000000	47.329737
1100.000000	47.253030
1090.000000	47.592507
1080.000000	47.513272
1070.000000	47.399601
1060.000000	47.344864
1050.000000	47.075274
1040.000000	46.833752
1030.000000	46.730321
1020.000000	46.997121
1010.000000	47.548102
1000.000000	48.327343
990.000000	48.496549
980.000000	48.229889
970.000000	48.266080
960.000000	48.231365
950.000000	48.159233
940.000000	48.150221
930.000000	47.938385
920.000000	47.891981
910.000000	47.801400
900.000000	47.646741
890.000000	48.108453
880.000000	47.893619
870.000000	47.412880
860.000000	47.378255
850.000000	47.374637
840.000000	47.843072
830.000000	47.911014
820.000000	47.792410
810.000000	47.819651
800.000000	47.809333
790.000000	47.745759
780.000000	47.705013
770.000000	47.859668
760.000000	47.924230
750.000000	47.891052
740.000000	47.743935
730.000000	47.651175
720.000000	47.694315
710.000000	47.757347
700.000000	47.754096
690.000000	47.631912
680.000000	47.465478
670.000000	47.511166
660.000000	47.475136
650.000000	47.459005
640.000000	47.288217
630.000000	47.146083
620.000000	47.185905
610.000000	47.121017
600.000000	46.954195
590.000000	46.848904
580.000000	46.708812
570.000000	46.554454
560.000000	46.371667
550.000000	46.107460
540.000000	45.906084
530.000000	45.599904
520.000000	45.255270
510.000000	44.843514
500.000000	44.424656
490.000000	43.887793
480.000000	43.192376
470.000000	42.500237
460.000000	41.709810
450.000000	40.631988
440.000000	39.437532
430.000000	38.147536
420.000000	36.480147
410.000000	34.695045
400.000000	33.204976
390.000000	32.099170
380.000000	30.976650
370.000000	29.837858
360.000000	28.770710
350.000000	27.669610
340.000000	26.837449
330.000000	25.714922
320.000000	24.772373
310.000000	23.657490
300.000000	21.533071
290.000000	18.895537
280.000000	17.100390
270.000000	16.793102
260.000000	16.790669
250.000000	15.503814
