PE UV       SUBTECH     SPECTRUM    ASCII       PEDS        4.00        
   -1
3C-N10-F023.Sample.Raw.asc
22/03/25
15:55:34.00
22/03/25
15:55:34.00
Administrator

250.000000
1
Lambda 750
750N8071901
PerkinElmer UV WinLab 6.0.4.0738 / 1.61.00 Lambda 900

0
0
3350/servo 860.8/2
0
0
UV/VIS
1
1
1
CommonBeamDepol,150mm sphere / downward view
0
0
0
0
Program
Program
3350/servo 860.8/2
3350/0.2 860.8/0.2
3350/0.2 860.8/0.2
0
1
 
 
 
0
 
860.8
319.2
860.8
Front
100
on
 
 
0
0
0
 
0
 
 
 
0
 
 
0
0
0
0
0
 
 
 
 
0
0


0
0
#HDR
-1
-1
#GR
nm
%R
1.0
0.0
2500.000000
-10.000000
226
8
40.998456
9.293211
#DATA
2500.000000	9.293211
2490.000000	10.683910
2480.000000	10.951434
2470.000000	12.164558
2460.000000	10.976124
2450.000000	12.621655
2440.000000	13.531269
2430.000000	11.823739
2420.000000	14.966304
2410.000000	14.447937
2400.000000	14.009805
2390.000000	14.524266
2380.000000	15.206478
2370.000000	13.794639
2360.000000	13.542893
2350.000000	14.565434
2340.000000	12.290166
2330.000000	13.517217
2320.000000	14.412127
2310.000000	13.641158
2300.000000	12.834936
2290.000000	13.138914
2280.000000	13.107861
2270.000000	13.601391
2260.000000	13.409448
2250.000000	14.010435
2240.000000	14.914474
2230.000000	15.205502
2220.000000	15.631473
2210.000000	15.146322
2200.000000	14.573554
2190.000000	15.172581
2180.000000	14.558119
2170.000000	14.450749
2160.000000	15.022014
2150.000000	14.847942
2140.000000	15.402643
2130.000000	15.918475
2120.000000	16.983072
2110.000000	17.210805
2100.000000	17.035652
2090.000000	16.578238
2080.000000	16.789335
2070.000000	16.130941
2060.000000	15.443026
2050.000000	15.330903
2040.000000	15.168234
2030.000000	15.217636
2020.000000	15.316649
2010.000000	15.341944
2000.000000	15.441419
1990.000000	15.070729
1980.000000	14.564522
1970.000000	14.047722
1960.000000	13.567781
1950.000000	13.279331
1940.000000	13.171287
1930.000000	13.356977
1920.000000	14.407933
1910.000000	15.719757
1900.000000	17.750885
1890.000000	20.481237
1880.000000	23.014694
1870.000000	25.133278
1860.000000	26.141627
1850.000000	26.453250
1840.000000	26.699011
1830.000000	26.469184
1820.000000	26.149686
1810.000000	25.953929
1800.000000	25.680233
1790.000000	25.496320
1780.000000	25.193472
1770.000000	24.933318
1760.000000	24.546025
1750.000000	24.280202
1740.000000	23.966913
1730.000000	23.787478
1720.000000	24.139995
1710.000000	24.729402
1700.000000	25.112956
1690.000000	25.528324
1680.000000	26.384127
1670.000000	27.539931
1660.000000	28.432870
1650.000000	28.701022
1640.000000	28.592570
1630.000000	28.391310
1620.000000	27.941651
1610.000000	27.434749
1600.000000	26.997883
1590.000000	26.615679
1580.000000	26.247123
1570.000000	25.910338
1560.000000	25.630983
1550.000000	25.377155
1540.000000	24.981152
1530.000000	24.410813
1520.000000	23.945754
1510.000000	23.706216
1500.000000	23.631242
1490.000000	23.637774
1480.000000	23.792056
1470.000000	24.054402
1460.000000	24.335899
1450.000000	24.777540
1440.000000	25.399578
1430.000000	26.119439
1420.000000	27.055125
1410.000000	28.542339
1400.000000	30.526655
1390.000000	32.550742
1380.000000	33.870087
1370.000000	34.472817
1360.000000	34.892689
1350.000000	35.262295
1340.000000	35.500262
1330.000000	35.812846
1320.000000	36.361365
1310.000000	36.892540
1300.000000	37.254658
1290.000000	37.395964
1280.000000	37.333695
1270.000000	37.248280
1260.000000	37.182088
1250.000000	37.157898
1240.000000	37.025092
1230.000000	36.884971
1220.000000	36.629092
1210.000000	36.334984
1200.000000	36.026049
1190.000000	35.925568
1180.000000	36.183792
1170.000000	36.766886
1160.000000	37.488876
1150.000000	38.071335
1140.000000	38.517678
1130.000000	38.868174
1120.000000	39.080968
1110.000000	39.157438
1100.000000	39.198472
1090.000000	39.226974
1080.000000	39.215310
1070.000000	39.200993
1060.000000	39.146476
1050.000000	39.107152
1040.000000	39.102366
1030.000000	39.136094
1020.000000	39.251752
1010.000000	39.540244
1000.000000	39.842380
990.000000	39.983358
980.000000	39.988495
970.000000	40.040899
960.000000	40.220480
950.000000	40.371992
940.000000	40.366683
930.000000	40.348884
920.000000	40.262151
910.000000	40.384764
900.000000	40.634796
890.000000	40.672711
880.000000	40.628012
870.000000	40.768566
860.000000	40.998456
850.000000	40.539865
840.000000	39.791053
830.000000	39.810400
820.000000	39.879852
810.000000	39.945184
800.000000	40.022001
790.000000	40.053894
780.000000	39.983516
770.000000	39.934202
760.000000	39.963666
750.000000	39.992747
740.000000	40.030427
730.000000	40.100160
720.000000	40.191482
710.000000	40.167447
700.000000	40.156033
690.000000	40.151724
680.000000	40.190040
670.000000	40.240737
660.000000	40.232881
650.000000	40.243037
640.000000	40.186134
630.000000	40.166556
620.000000	40.132396
610.000000	40.103937
600.000000	40.061237
590.000000	40.023846
580.000000	39.980401
570.000000	39.881514
560.000000	39.763438
550.000000	39.641279
540.000000	39.423175
530.000000	39.131526
520.000000	38.807771
510.000000	38.453614
500.000000	38.033856
490.000000	37.615980
480.000000	37.126054
470.000000	36.600651
460.000000	35.953642
450.000000	35.132464
440.000000	34.137269
430.000000	32.849166
420.000000	31.059719
410.000000	28.976736
400.000000	27.289381
390.000000	26.271530
380.000000	25.577926
370.000000	24.901884
360.000000	24.085771
350.000000	23.314416
340.000000	22.420024
330.000000	21.328457
320.000000	20.254950
310.000000	19.275558
300.000000	17.840861
290.000000	15.604847
280.000000	14.212121
270.000000	14.072419
260.000000	13.902380
250.000000	12.781034
