PE UV       SUBTECH     SPECTRUM    ASCII       PEDS        4.00        
   -1
3C-N10-F025.Sample.Raw.asc
22/03/25
16:01:18.00
22/03/25
16:01:18.00
Administrator

250.000000
1
Lambda 750
750N8071901
PerkinElmer UV WinLab 6.0.4.0738 / 1.61.00 Lambda 900

0
0
3350/servo 860.8/2
0
0
UV/VIS
1
1
1
CommonBeamDepol,150mm sphere / downward view
0
0
0
0
Program
Program
3350/servo 860.8/2
3350/0.2 860.8/0.2
3350/0.2 860.8/0.2
0
1
 
 
 
0
 
860.8
319.2
860.8
Front
100
on
 
 
0
0
0
 
0
 
 
 
0
 
 
0
0
0
0
0
 
 
 
 
0
0


0
0
#HDR
-1
-1
#GR
nm
%R
1.0
0.0
2500.000000
-10.000000
226
8
40.584099
9.776229
#DATA
2500.000000	9.776229
2490.000000	12.979303
2480.000000	10.483012
2470.000000	11.244282
2460.000000	11.130289
2450.000000	11.302086
2440.000000	12.642045
2430.000000	13.438400
2420.000000	13.006355
2410.000000	14.383703
2400.000000	13.728651
2390.000000	14.038768
2380.000000	14.450308
2370.000000	13.451023
2360.000000	12.928714
2350.000000	13.091606
2340.000000	13.415860
2330.000000	14.395871
2320.000000	13.633353
2310.000000	12.158873
2300.000000	12.138468
2290.000000	12.521636
2280.000000	12.529354
2270.000000	13.453092
2260.000000	13.176574
2250.000000	13.589066
2240.000000	14.293802
2230.000000	15.216972
2220.000000	15.343051
2210.000000	15.327562
2200.000000	14.349193
2190.000000	14.766185
2180.000000	14.219836
2170.000000	13.952139
2160.000000	14.595458
2150.000000	14.361166
2140.000000	15.275692
2130.000000	16.220913
2120.000000	15.900357
2110.000000	16.765871
2100.000000	16.495048
2090.000000	16.825626
2080.000000	16.426127
2070.000000	15.982913
2060.000000	15.379060
2050.000000	15.135006
2040.000000	14.783896
2030.000000	14.751183
2020.000000	15.139156
2010.000000	15.037319
2000.000000	14.864637
1990.000000	14.547716
1980.000000	14.180123
1970.000000	13.500462
1960.000000	13.270109
1950.000000	12.798217
1940.000000	12.820806
1930.000000	13.260741
1920.000000	13.970182
1910.000000	15.278991
1900.000000	17.178744
1890.000000	20.024681
1880.000000	22.504984
1870.000000	24.346720
1860.000000	25.551016
1850.000000	25.945269
1840.000000	25.960580
1830.000000	25.896337
1820.000000	25.585363
1810.000000	25.379372
1800.000000	25.149933
1790.000000	24.886034
1780.000000	24.656938
1770.000000	24.355905
1760.000000	24.074516
1750.000000	23.750379
1740.000000	23.385795
1730.000000	23.175670
1720.000000	23.594960
1710.000000	24.213263
1700.000000	24.595103
1690.000000	24.866216
1680.000000	25.754543
1670.000000	26.974976
1660.000000	27.755919
1650.000000	28.046512
1640.000000	27.974973
1630.000000	27.754664
1620.000000	27.381688
1610.000000	26.879890
1600.000000	26.445779
1590.000000	26.054718
1580.000000	25.641168
1570.000000	25.316403
1560.000000	25.050867
1550.000000	24.843886
1540.000000	24.455470
1530.000000	23.858033
1520.000000	23.432438
1510.000000	23.187456
1500.000000	23.116155
1490.000000	23.098380
1480.000000	23.290179
1470.000000	23.570994
1460.000000	23.834120
1450.000000	24.253128
1440.000000	24.854201
1430.000000	25.580815
1420.000000	26.495235
1410.000000	27.933770
1400.000000	29.908563
1390.000000	31.864311
1380.000000	33.196355
1370.000000	33.820208
1360.000000	34.236388
1350.000000	34.605180
1340.000000	34.825764
1330.000000	35.140574
1320.000000	35.732639
1310.000000	36.310379
1300.000000	36.739711
1290.000000	36.908061
1280.000000	36.878328
1270.000000	36.802256
1260.000000	36.747547
1250.000000	36.734502
1240.000000	36.617347
1230.000000	36.476711
1220.000000	36.225922
1210.000000	35.884577
1200.000000	35.599128
1190.000000	35.506895
1180.000000	35.786900
1170.000000	36.371276
1160.000000	37.070090
1150.000000	37.662122
1140.000000	38.094773
1130.000000	38.402326
1120.000000	38.607513
1110.000000	38.772665
1100.000000	38.814497
1090.000000	38.826244
1080.000000	38.792757
1070.000000	38.759201
1060.000000	38.707168
1050.000000	38.653569
1040.000000	38.620755
1030.000000	38.643821
1020.000000	38.729604
1010.000000	39.018655
1000.000000	39.337970
990.000000	39.462572
980.000000	39.483600
970.000000	39.555584
960.000000	39.714436
950.000000	39.825910
940.000000	39.872644
930.000000	39.882159
920.000000	39.847967
910.000000	39.894261
900.000000	40.030025
890.000000	40.198293
880.000000	40.229692
870.000000	40.579028
860.000000	40.584099
850.000000	39.947825
840.000000	39.565362
830.000000	39.637777
820.000000	39.639393
810.000000	39.718683
800.000000	39.830619
790.000000	39.819544
780.000000	39.847526
770.000000	39.844102
760.000000	39.928370
750.000000	39.941478
740.000000	39.925585
730.000000	39.945890
720.000000	40.022020
710.000000	40.062002
700.000000	40.096606
690.000000	40.110391
680.000000	40.129831
670.000000	40.106830
660.000000	40.146770
650.000000	40.165734
640.000000	40.136023
630.000000	40.107951
620.000000	40.137279
610.000000	40.085051
600.000000	40.047233
590.000000	40.072852
580.000000	40.020702
570.000000	39.893803
560.000000	39.818078
550.000000	39.689165
540.000000	39.509069
530.000000	39.269572
520.000000	38.963030
510.000000	38.613179
500.000000	38.215098
490.000000	37.794894
480.000000	37.291296
470.000000	36.756686
460.000000	36.143416
450.000000	35.333905
440.000000	34.321144
430.000000	33.027242
420.000000	31.264942
410.000000	29.226399
400.000000	27.538275
390.000000	26.562118
380.000000	25.843059
370.000000	25.133285
360.000000	24.450975
350.000000	23.677249
340.000000	22.822654
330.000000	21.693619
320.000000	20.909188
310.000000	19.974703
300.000000	18.164103
290.000000	15.905463
280.000000	14.513770
270.000000	14.446129
260.000000	14.369847
250.000000	13.267426
