PE UV       SUBTECH     SPECTRUM    ASCII       PEDS        4.00        
   -1
3C-N10-C002.Sample.Raw.asc
22/02/28
16:00:25.00
22/02/28
16:00:25.00
Administrator

250.000000
1
Lambda 750
750N8071901
PerkinElmer UV WinLab 6.0.4.0738 / 1.61.00 Lambda 900

0
0
3350/servo 860.8/2
0
0
UV/VIS
1
1
1
CommonBeamDepol,150mm sphere / downward view
0
0
0
0
Program
Program
3350/servo 860.8/2
3350/0.2 860.8/0.2
3350/0.2 860.8/0.2
0
1
 
 
 
0
 
860.8
319.2
860.8
Front
100
on
 
 
0
0
0
 
0
 
 
 
0
 
 
0
0
0
0
0
 
 
 
 
0
0


0
0
#HDR
-1
-1
#GR
nm
%R
1.0
0.0
2500.000000
-10.000000
226
8
42.272315
1.326857
#DATA
2500.000000	1.326857
2490.000000	9.979456
2480.000000	13.143060
2470.000000	8.358385
2460.000000	12.924563
2450.000000	17.264870
2440.000000	10.060734
2430.000000	10.806649
2420.000000	8.855448
2410.000000	17.988791
2400.000000	13.826179
2390.000000	14.549444
2380.000000	15.282120
2370.000000	13.910784
2360.000000	16.276387
2350.000000	16.902574
2340.000000	9.976714
2330.000000	15.984683
2320.000000	14.020227
2310.000000	14.194452
2300.000000	14.686566
2290.000000	12.908240
2280.000000	15.796596
2270.000000	14.190272
2260.000000	11.026594
2250.000000	13.419965
2240.000000	15.848740
2230.000000	15.716562
2220.000000	17.056762
2210.000000	14.887651
2200.000000	14.034782
2190.000000	14.410450
2180.000000	15.666075
2170.000000	14.991198
2160.000000	14.787719
2150.000000	15.748219
2140.000000	15.855541
2130.000000	15.422920
2120.000000	16.072636
2110.000000	17.962587
2100.000000	17.481669
2090.000000	17.550150
2080.000000	17.521925
2070.000000	16.518352
2060.000000	15.403607
2050.000000	14.976754
2040.000000	15.062216
2030.000000	15.173831
2020.000000	15.095884
2010.000000	15.544886
2000.000000	14.907479
1990.000000	14.782940
1980.000000	14.629986
1970.000000	14.225350
1960.000000	13.830683
1950.000000	13.267564
1940.000000	13.098468
1930.000000	13.247605
1920.000000	14.550547
1910.000000	16.051827
1900.000000	18.026683
1890.000000	20.665027
1880.000000	23.591004
1870.000000	25.208907
1860.000000	26.743548
1850.000000	26.333493
1840.000000	26.756235
1830.000000	26.949202
1820.000000	26.550166
1810.000000	26.297704
1800.000000	25.970946
1790.000000	25.823190
1780.000000	25.516698
1770.000000	24.987130
1760.000000	24.777902
1750.000000	24.546959
1740.000000	24.469816
1730.000000	24.053703
1720.000000	24.345491
1710.000000	24.823843
1700.000000	25.303370
1690.000000	25.911490
1680.000000	26.677421
1670.000000	27.910885
1660.000000	28.436107
1650.000000	28.995381
1640.000000	28.921704
1630.000000	28.642946
1620.000000	28.332512
1610.000000	27.789140
1600.000000	27.204075
1590.000000	26.935040
1580.000000	26.414718
1570.000000	25.960095
1560.000000	25.760538
1550.000000	25.377874
1540.000000	24.930197
1530.000000	24.459782
1520.000000	24.120919
1510.000000	23.853876
1500.000000	23.631528
1490.000000	23.708783
1480.000000	23.743576
1470.000000	24.062035
1460.000000	24.353251
1450.000000	24.716210
1440.000000	25.231109
1430.000000	25.591858
1420.000000	25.966455
1410.000000	27.392941
1400.000000	29.935355
1390.000000	33.003408
1380.000000	34.782470
1370.000000	35.253957
1360.000000	35.369843
1350.000000	35.139758
1340.000000	35.082077
1330.000000	35.523750
1320.000000	36.924922
1310.000000	38.245637
1300.000000	39.032487
1290.000000	39.430796
1280.000000	39.107886
1270.000000	38.737737
1260.000000	38.548737
1250.000000	38.505575
1240.000000	38.437305
1230.000000	38.330287
1220.000000	37.867516
1210.000000	37.486430
1200.000000	37.217797
1190.000000	37.213833
1180.000000	37.575372
1170.000000	38.054626
1160.000000	38.776853
1150.000000	39.378940
1140.000000	39.891830
1130.000000	40.150902
1120.000000	40.196815
1110.000000	40.478021
1100.000000	40.603776
1090.000000	40.710829
1080.000000	40.677017
1070.000000	40.598478
1060.000000	40.478530
1050.000000	40.421251
1040.000000	40.291547
1030.000000	40.157242
1020.000000	40.224780
1010.000000	40.754010
1000.000000	41.449371
990.000000	41.740679
980.000000	41.566929
970.000000	41.608963
960.000000	41.690591
950.000000	41.575154
940.000000	41.632815
930.000000	41.500377
920.000000	41.283854
910.000000	41.531605
900.000000	41.880053
890.000000	41.886710
880.000000	41.590309
870.000000	41.725094
860.000000	42.045170
850.000000	41.904233
840.000000	42.118228
830.000000	41.921202
820.000000	42.072370
810.000000	42.106536
800.000000	41.945386
790.000000	42.010296
780.000000	42.007663
770.000000	41.923793
760.000000	41.934377
750.000000	42.036859
740.000000	42.047220
730.000000	42.052427
720.000000	42.054328
710.000000	42.092882
700.000000	42.212191
690.000000	42.259176
680.000000	42.238875
670.000000	42.272315
660.000000	42.163031
650.000000	42.050686
640.000000	42.085530
630.000000	42.045691
620.000000	41.967378
610.000000	41.914323
600.000000	41.841020
590.000000	41.805922
580.000000	41.695586
570.000000	41.558694
560.000000	41.401522
550.000000	41.212095
540.000000	41.015194
530.000000	40.866209
520.000000	40.675018
510.000000	40.489647
500.000000	40.261485
490.000000	39.848347
480.000000	39.264639
470.000000	38.677561
460.000000	38.034489
450.000000	37.187075
440.000000	36.131594
430.000000	34.798245
420.000000	33.174030
410.000000	31.276859
400.000000	29.600024
390.000000	28.608207
380.000000	27.790106
370.000000	26.767300
360.000000	25.709528
350.000000	24.802518
340.000000	23.819305
330.000000	22.893444
320.000000	21.555547
310.000000	20.059157
300.000000	18.501870
290.000000	16.608779
280.000000	15.388307
270.000000	15.344450
260.000000	15.302765
250.000000	14.141079
