PE UV       SUBTECH     SPECTRUM    ASCII       PEDS        4.00        
   -1
3C-N10-F007.Sample.Raw.asc
22/03/02
16:03:53.00
22/03/02
16:03:53.00
Administrator

250.000000
1
Lambda 750
750N8071901
PerkinElmer UV WinLab 6.0.4.0738 / 1.61.00 Lambda 900

0
0
3350/servo 860.8/2
0
0
UV/VIS
1
1
1
CommonBeamDepol,150mm sphere / downward view
0
0
0
0
Program
Program
3350/servo 860.8/2
3350/0.2 860.8/0.2
3350/0.2 860.8/0.2
0
1
 
 
 
0
 
860.8
319.2
860.8
Front
100
on
 
 
0
0
0
 
0
 
 
 
0
 
 
0
0
0
0
0
 
 
 
 
0
0


0
0
#HDR
-1
-1
#GR
nm
%R
1.0
0.0
2500.000000
-10.000000
226
8
43.200312
3.817861
#DATA
2500.000000	9.168413
2490.000000	10.110668
2480.000000	14.334167
2470.000000	3.817861
2460.000000	13.735375
2450.000000	16.807936
2440.000000	19.797393
2430.000000	9.775627
2420.000000	12.389749
2410.000000	16.257984
2400.000000	16.592305
2390.000000	16.181332
2380.000000	12.691760
2370.000000	15.257779
2360.000000	15.279317
2350.000000	14.676797
2340.000000	19.306131
2330.000000	12.810976
2320.000000	13.784859
2310.000000	13.051150
2300.000000	13.619677
2290.000000	12.713536
2280.000000	14.411522
2270.000000	11.890783
2260.000000	12.641591
2250.000000	14.621059
2240.000000	17.138072
2230.000000	15.147608
2220.000000	17.537958
2210.000000	15.246020
2200.000000	17.081439
2190.000000	17.168504
2180.000000	16.766192
2170.000000	16.674459
2160.000000	15.153288
2150.000000	16.451096
2140.000000	16.939077
2130.000000	18.716179
2120.000000	18.266883
2110.000000	17.920474
2100.000000	18.814997
2090.000000	18.522090
2080.000000	17.455184
2070.000000	17.537221
2060.000000	15.519830
2050.000000	15.159919
2040.000000	16.207979
2030.000000	15.790056
2020.000000	16.619007
2010.000000	16.621637
2000.000000	16.373379
1990.000000	15.940410
1980.000000	15.210542
1970.000000	15.253098
1960.000000	14.066652
1950.000000	14.406328
1940.000000	14.386939
1930.000000	14.299045
1920.000000	15.385990
1910.000000	15.994829
1900.000000	18.040778
1890.000000	21.789160
1880.000000	24.112614
1870.000000	26.545150
1860.000000	27.942694
1850.000000	27.789243
1840.000000	27.972644
1830.000000	27.620021
1820.000000	27.657834
1810.000000	27.459537
1800.000000	27.310294
1790.000000	26.809130
1780.000000	26.495052
1770.000000	25.995541
1760.000000	25.826073
1750.000000	25.451034
1740.000000	25.378828
1730.000000	24.790288
1720.000000	25.314108
1710.000000	26.048478
1700.000000	26.381648
1690.000000	26.809192
1680.000000	27.622707
1670.000000	28.885575
1660.000000	29.354229
1650.000000	29.896453
1640.000000	29.928306
1630.000000	29.681688
1620.000000	29.361487
1610.000000	28.860645
1600.000000	28.142538
1590.000000	27.765927
1580.000000	27.376047
1570.000000	27.222350
1560.000000	26.930496
1550.000000	26.754813
1540.000000	26.241894
1530.000000	25.520590
1520.000000	25.169818
1510.000000	25.045427
1500.000000	24.755117
1490.000000	24.821116
1480.000000	24.831282
1470.000000	25.146276
1460.000000	25.532697
1450.000000	25.985311
1440.000000	26.522777
1430.000000	26.847954
1420.000000	27.308479
1410.000000	28.721064
1400.000000	31.574092
1390.000000	34.363905
1380.000000	35.855989
1370.000000	36.157673
1360.000000	36.276925
1350.000000	36.229996
1340.000000	36.466719
1330.000000	36.884162
1320.000000	38.012647
1310.000000	39.251079
1300.000000	39.959044
1290.000000	40.116701
1280.000000	39.922325
1270.000000	39.540668
1260.000000	39.393190
1250.000000	39.288725
1240.000000	39.347008
1230.000000	39.171561
1220.000000	38.802614
1210.000000	38.500418
1200.000000	38.098884
1190.000000	38.042164
1180.000000	38.383751
1170.000000	39.000983
1160.000000	39.788312
1150.000000	40.177595
1140.000000	40.520033
1130.000000	41.127712
1120.000000	41.441382
1110.000000	41.553659
1100.000000	41.629905
1090.000000	41.596961
1080.000000	41.308585
1070.000000	41.209912
1060.000000	41.219239
1050.000000	41.182849
1040.000000	41.238167
1030.000000	41.221940
1020.000000	41.327068
1010.000000	41.798339
1000.000000	42.615727
990.000000	42.942385
980.000000	42.728256
970.000000	42.617424
960.000000	42.699134
950.000000	42.825330
940.000000	42.606666
930.000000	42.550424
920.000000	42.679908
910.000000	42.396305
900.000000	42.253804
890.000000	42.630354
880.000000	43.200312
870.000000	42.792648
860.000000	42.228384
850.000000	42.421916
840.000000	42.498156
830.000000	42.444617
820.000000	42.427976
810.000000	42.336509
800.000000	42.558313
790.000000	42.579841
780.000000	42.629601
770.000000	42.755226
760.000000	42.813033
750.000000	42.761494
740.000000	42.814813
730.000000	42.810860
720.000000	42.820570
710.000000	42.792259
700.000000	42.868221
690.000000	42.924348
680.000000	42.997995
670.000000	42.840621
660.000000	42.950122
650.000000	42.927009
640.000000	42.854016
630.000000	42.827451
620.000000	42.759009
610.000000	42.652319
600.000000	42.524838
590.000000	42.487288
580.000000	42.381151
570.000000	42.204821
560.000000	42.145302
550.000000	42.047563
540.000000	41.771121
530.000000	41.566952
520.000000	41.388942
510.000000	41.032668
500.000000	40.577941
490.000000	40.154031
480.000000	39.656936
470.000000	39.046217
460.000000	38.371728
450.000000	37.402137
440.000000	36.249899
430.000000	34.910593
420.000000	33.154776
410.000000	31.046945
400.000000	29.085434
390.000000	28.010044
380.000000	27.382762
370.000000	26.643376
360.000000	25.722801
350.000000	24.379655
340.000000	23.317854
330.000000	22.523609
320.000000	21.851614
310.000000	20.458948
300.000000	18.674659
290.000000	16.636183
280.000000	15.126340
270.000000	14.945774
260.000000	14.915235
250.000000	13.888673
