PE UV       SUBTECH     SPECTRUM    ASCII       PEDS        4.00        
   -1
3C-N10-C008.Sample.Raw.asc
22/02/28
16:22:20.00
22/02/28
16:22:20.00
Administrator

250.000000
1
Lambda 750
750N8071901
PerkinElmer UV WinLab 6.0.4.0738 / 1.61.00 Lambda 900

0
0
3350/servo 860.8/2
0
0
UV/VIS
1
1
1
CommonBeamDepol,150mm sphere / downward view
0
0
0
0
Program
Program
3350/servo 860.8/2
3350/0.2 860.8/0.2
3350/0.2 860.8/0.2
0
1
 
 
 
0
 
860.8
319.2
860.8
Front
100
on
 
 
0
0
0
 
0
 
 
 
0
 
 
0
0
0
0
0
 
 
 
 
0
0


0
0
#HDR
-1
-1
#GR
nm
%R
1.0
0.0
2500.000000
-10.000000
226
8
44.574869
6.815938
#DATA
2500.000000	6.815938
2490.000000	9.275017
2480.000000	13.915585
2470.000000	10.533799
2460.000000	13.903021
2450.000000	11.113509
2440.000000	13.507030
2430.000000	7.192420
2420.000000	13.381490
2410.000000	13.401802
2400.000000	16.679937
2390.000000	12.971029
2380.000000	16.011805
2370.000000	16.863989
2360.000000	15.924663
2350.000000	18.966454
2340.000000	12.646980
2330.000000	15.958231
2320.000000	14.749650
2310.000000	14.589344
2300.000000	14.713217
2290.000000	14.715176
2280.000000	13.725515
2270.000000	11.953938
2260.000000	12.011886
2250.000000	15.084589
2240.000000	16.332237
2230.000000	16.407643
2220.000000	17.334945
2210.000000	14.468335
2200.000000	15.667920
2190.000000	14.844812
2180.000000	16.027068
2170.000000	15.853066
2160.000000	16.228505
2150.000000	15.916498
2140.000000	17.859977
2130.000000	15.578534
2120.000000	16.800658
2110.000000	17.202811
2100.000000	17.694360
2090.000000	16.648521
2080.000000	17.383783
2070.000000	16.669394
2060.000000	16.678917
2050.000000	15.611421
2040.000000	15.591337
2030.000000	15.520796
2020.000000	16.354940
2010.000000	16.605749
2000.000000	15.967143
1990.000000	14.795207
1980.000000	14.745636
1970.000000	14.568184
1960.000000	14.013404
1950.000000	13.588385
1940.000000	13.661885
1930.000000	13.652181
1920.000000	14.980045
1910.000000	16.713358
1900.000000	18.618729
1890.000000	21.399687
1880.000000	23.800929
1870.000000	26.476422
1860.000000	27.842554
1850.000000	27.980176
1840.000000	28.021961
1830.000000	28.077688
1820.000000	27.494907
1810.000000	27.429850
1800.000000	27.177476
1790.000000	26.647348
1780.000000	26.207997
1770.000000	25.860383
1760.000000	25.889356
1750.000000	25.697346
1740.000000	25.237381
1730.000000	25.135185
1720.000000	25.264527
1710.000000	25.925426
1700.000000	26.592570
1690.000000	26.983831
1680.000000	27.782848
1670.000000	28.919937
1660.000000	29.686476
1650.000000	30.075699
1640.000000	30.000834
1630.000000	30.000768
1620.000000	29.521244
1610.000000	28.759834
1600.000000	28.269141
1590.000000	27.704301
1580.000000	27.364189
1570.000000	27.026331
1560.000000	26.803746
1550.000000	26.482627
1540.000000	26.140120
1530.000000	25.405004
1520.000000	25.033318
1510.000000	24.850757
1500.000000	24.555407
1490.000000	24.576985
1480.000000	24.658918
1470.000000	24.969867
1460.000000	25.281982
1450.000000	25.690946
1440.000000	26.181262
1430.000000	26.519366
1420.000000	26.973582
1410.000000	28.430968
1400.000000	31.130480
1390.000000	34.170639
1380.000000	36.077878
1370.000000	36.726258
1360.000000	36.692307
1350.000000	36.632477
1340.000000	36.515206
1330.000000	37.074696
1320.000000	38.551327
1310.000000	39.952637
1300.000000	40.856112
1290.000000	41.211436
1280.000000	41.026277
1270.000000	40.645824
1260.000000	40.377902
1250.000000	40.219765
1240.000000	39.928531
1230.000000	39.789367
1220.000000	39.702426
1210.000000	39.282206
1200.000000	38.958617
1190.000000	39.073226
1180.000000	39.449267
1170.000000	39.742276
1160.000000	40.478785
1150.000000	41.338283
1140.000000	41.943461
1130.000000	42.133821
1120.000000	42.069900
1110.000000	42.140843
1100.000000	42.330860
1090.000000	42.346489
1080.000000	42.337732
1070.000000	42.335892
1060.000000	42.197257
1050.000000	42.063105
1040.000000	41.893163
1030.000000	41.764917
1020.000000	41.784669
1010.000000	42.314269
1000.000000	42.981460
990.000000	43.235208
980.000000	43.075685
970.000000	43.079560
960.000000	43.107614
950.000000	43.112683
940.000000	42.995022
930.000000	42.826029
920.000000	42.841929
910.000000	43.091162
900.000000	43.231942
890.000000	43.383930
880.000000	42.767642
870.000000	42.426804
860.000000	42.410562
850.000000	43.235672
840.000000	44.531347
830.000000	44.269350
820.000000	44.430307
810.000000	44.440774
800.000000	44.308806
790.000000	44.226739
780.000000	44.279185
770.000000	44.344409
760.000000	44.432542
750.000000	44.515475
740.000000	44.478975
730.000000	44.574869
720.000000	44.533984
710.000000	44.423452
700.000000	44.452114
690.000000	44.488240
680.000000	44.530570
670.000000	44.470165
660.000000	44.394915
650.000000	44.441319
640.000000	44.399320
630.000000	44.360217
620.000000	44.299646
610.000000	44.254037
600.000000	44.118796
590.000000	44.051894
580.000000	43.876408
570.000000	43.766804
560.000000	43.639261
550.000000	43.426418
540.000000	43.227467
530.000000	43.007455
520.000000	42.786159
510.000000	42.537683
500.000000	42.273774
490.000000	41.902937
480.000000	41.279336
470.000000	40.574553
460.000000	39.869402
450.000000	39.069220
440.000000	37.966199
430.000000	36.546524
420.000000	34.834555
410.000000	32.805861
400.000000	31.113397
390.000000	30.041361
380.000000	29.153234
370.000000	28.161369
360.000000	26.962340
350.000000	25.657697
340.000000	24.522927
330.000000	23.713662
320.000000	22.377228
310.000000	21.056785
300.000000	19.517677
290.000000	17.505350
280.000000	16.072939
270.000000	16.071061
260.000000	16.074654
250.000000	14.796713
