PE UV       SUBTECH     SPECTRUM    ASCII       PEDS        4.00        
   -1
3G-H10-C029.Sample.Raw.asc
22/04/19
16:55:54.00
22/04/19
16:55:54.00
Administrator

250.000000
1
Lambda 750
750N8071901
PerkinElmer UV WinLab 6.0.4.0738 / 1.61.00 Lambda 900

0
0
3350/servo 860.8/2
0
0
UV/VIS
1
1
1
CommonBeamDepol,150mm sphere / downward view
0
0
0
0
Program
Program
3350/servo 860.8/2
3350/0.2 860.8/0.2
3350/0.2 860.8/0.2
0
1
 
 
 
0
 
860.8
319.2
860.8
Front
100
on
 
 
0
0
0
 
0
 
 
 
0
 
 
0
0
0
0
0
 
 
 
 
0
0


0
0
#HDR
-1
-1
#GR
nm
%R
1.0
0.0
2500.000000
-10.000000
226
8
65.099389
16.983475
#DATA
2500.000000	24.962675
2490.000000	18.211583
2480.000000	23.023256
2470.000000	25.941361
2460.000000	30.292355
2450.000000	30.211814
2440.000000	29.894354
2430.000000	29.218208
2420.000000	28.738368
2410.000000	30.028514
2400.000000	31.978560
2390.000000	29.885035
2380.000000	29.073817
2370.000000	27.182234
2360.000000	32.504745
2350.000000	31.009867
2340.000000	31.722559
2330.000000	31.045068
2320.000000	29.316974
2310.000000	28.453634
2300.000000	29.149931
2290.000000	28.223439
2280.000000	27.367562
2270.000000	28.026177
2260.000000	27.259721
2250.000000	30.463827
2240.000000	31.889644
2230.000000	29.861624
2220.000000	31.210701
2210.000000	32.493413
2200.000000	32.034387
2190.000000	31.760321
2180.000000	31.757937
2170.000000	30.404295
2160.000000	31.424290
2150.000000	31.094033
2140.000000	33.561858
2130.000000	32.699430
2120.000000	34.370364
2110.000000	34.585546
2100.000000	34.942572
2090.000000	35.347304
2080.000000	33.736142
2070.000000	33.644960
2060.000000	33.474741
2050.000000	32.772270
2040.000000	31.932480
2030.000000	32.606464
2020.000000	32.652179
2010.000000	33.274733
2000.000000	32.680916
1990.000000	31.709330
1980.000000	30.611411
1970.000000	29.709957
1960.000000	28.659236
1950.000000	27.847405
1940.000000	28.419177
1930.000000	29.257636
1920.000000	31.308572
1910.000000	32.536543
1900.000000	36.183208
1890.000000	39.640685
1880.000000	43.196814
1870.000000	46.606921
1860.000000	47.411872
1850.000000	47.960432
1840.000000	47.911853
1830.000000	47.616040
1820.000000	47.191421
1810.000000	47.276226
1800.000000	46.851467
1790.000000	46.050546
1780.000000	45.772183
1770.000000	45.592517
1760.000000	45.223192
1750.000000	44.672531
1740.000000	44.317475
1730.000000	44.140602
1720.000000	44.580843
1710.000000	45.528366
1700.000000	45.814064
1690.000000	46.369423
1680.000000	47.806927
1670.000000	49.034373
1660.000000	50.026365
1650.000000	50.529308
1640.000000	50.421686
1630.000000	50.094034
1620.000000	49.566177
1610.000000	49.072985
1600.000000	48.593716
1590.000000	48.085400
1580.000000	47.547829
1570.000000	47.127222
1560.000000	46.785668
1550.000000	46.371954
1540.000000	45.998099
1530.000000	45.193259
1520.000000	44.639861
1510.000000	44.374767
1500.000000	44.258891
1490.000000	44.262359
1480.000000	44.566653
1470.000000	44.909445
1460.000000	45.377751
1450.000000	45.859300
1440.000000	46.665294
1430.000000	47.445260
1420.000000	48.230615
1410.000000	49.749953
1400.000000	52.358640
1390.000000	55.221189
1380.000000	57.040625
1370.000000	57.691103
1360.000000	57.960701
1350.000000	58.234849
1340.000000	58.284827
1330.000000	58.859039
1320.000000	59.875778
1310.000000	61.067984
1300.000000	61.708167
1290.000000	62.047311
1280.000000	61.833022
1270.000000	61.495164
1260.000000	61.386145
1250.000000	61.238335
1240.000000	60.854743
1230.000000	60.695316
1220.000000	60.515831
1210.000000	60.143144
1200.000000	59.893436
1190.000000	59.852721
1180.000000	60.043098
1170.000000	60.676601
1160.000000	61.648963
1150.000000	62.321727
1140.000000	63.003618
1130.000000	63.389839
1120.000000	63.575530
1110.000000	63.571552
1100.000000	63.764941
1090.000000	63.762618
1080.000000	63.630380
1070.000000	63.414432
1060.000000	63.379843
1050.000000	63.451271
1040.000000	63.465921
1030.000000	63.382235
1020.000000	63.430392
1010.000000	63.839712
1000.000000	64.539842
990.000000	64.705184
980.000000	64.436118
970.000000	64.511164
960.000000	64.661933
950.000000	64.929292
940.000000	64.910559
930.000000	64.738845
920.000000	64.690998
910.000000	64.674208
900.000000	64.638365
890.000000	64.460825
880.000000	64.569761
870.000000	64.531530
860.000000	64.001183
850.000000	65.099389
840.000000	64.831865
830.000000	64.405991
820.000000	64.488067
810.000000	64.174555
800.000000	63.752724
790.000000	63.907516
780.000000	63.929396
770.000000	64.017599
760.000000	64.014628
750.000000	63.971212
740.000000	63.797511
730.000000	63.648262
720.000000	63.461701
710.000000	63.301356
700.000000	63.085894
690.000000	62.589711
680.000000	62.366678
670.000000	62.142766
660.000000	61.983210
650.000000	61.651681
640.000000	61.295141
630.000000	60.933631
620.000000	60.672520
610.000000	60.220804
600.000000	59.858677
590.000000	59.562842
580.000000	59.060829
570.000000	58.635204
560.000000	58.278098
550.000000	57.680986
540.000000	57.061241
530.000000	56.524747
520.000000	55.930221
510.000000	55.208177
500.000000	54.394533
490.000000	53.650003
480.000000	52.834766
470.000000	51.874641
460.000000	50.858670
450.000000	49.603141
440.000000	48.222346
430.000000	46.877351
420.000000	45.329389
410.000000	43.823074
400.000000	42.568188
390.000000	41.570538
380.000000	40.231919
370.000000	38.768981
360.000000	37.696344
350.000000	36.754064
340.000000	35.114428
330.000000	33.616733
320.000000	32.595384
310.000000	30.651011
300.000000	27.928689
290.000000	23.388547
280.000000	19.933697
270.000000	19.011628
260.000000	18.483887
250.000000	16.983475
