PE UV       SUBTECH     SPECTRUM    ASCII       PEDS        4.00        
   -1
3G-H10-C024.Sample.Raw.asc
22/04/19
16:41:51.00
22/04/19
16:41:51.00
Administrator

250.000000
1
Lambda 750
750N8071901
PerkinElmer UV WinLab 6.0.4.0738 / 1.61.00 Lambda 900

0
0
3350/servo 860.8/2
0
0
UV/VIS
1
1
1
CommonBeamDepol,150mm sphere / downward view
0
0
0
0
Program
Program
3350/servo 860.8/2
3350/0.2 860.8/0.2
3350/0.2 860.8/0.2
0
1
 
 
 
0
 
860.8
319.2
860.8
Front
100
on
 
 
0
0
0
 
0
 
 
 
0
 
 
0
0
0
0
0
 
 
 
 
0
0


0
0
#HDR
-1
-1
#GR
nm
%R
1.0
0.0
2500.000000
-10.000000
226
8
63.728385
16.533261
#DATA
2500.000000	23.552268
2490.000000	20.743571
2480.000000	19.598309
2470.000000	26.880563
2460.000000	26.301149
2450.000000	28.117274
2440.000000	25.857349
2430.000000	28.011783
2420.000000	29.484013
2410.000000	28.226168
2400.000000	29.903296
2390.000000	30.196131
2380.000000	27.091557
2370.000000	26.435013
2360.000000	28.904001
2350.000000	28.021752
2340.000000	28.877277
2330.000000	27.768047
2320.000000	28.924882
2310.000000	28.507480
2300.000000	28.240224
2290.000000	25.128912
2280.000000	27.074227
2270.000000	27.946777
2260.000000	28.050432
2250.000000	27.254417
2240.000000	28.931670
2230.000000	29.078642
2220.000000	30.638969
2210.000000	30.023535
2200.000000	30.301831
2190.000000	29.546607
2180.000000	29.788745
2170.000000	28.141519
2160.000000	28.902505
2150.000000	28.167136
2140.000000	31.777864
2130.000000	32.480395
2120.000000	33.096255
2110.000000	32.717477
2100.000000	33.691011
2090.000000	32.922677
2080.000000	32.710274
2070.000000	32.463261
2060.000000	31.603127
2050.000000	31.012139
2040.000000	30.228655
2030.000000	30.997613
2020.000000	31.142152
2010.000000	30.954929
2000.000000	30.348573
1990.000000	30.034433
1980.000000	29.260498
1970.000000	28.630740
1960.000000	27.742146
1950.000000	27.129088
1940.000000	26.473035
1930.000000	27.217822
1920.000000	28.797643
1910.000000	31.023066
1900.000000	34.454363
1890.000000	38.014332
1880.000000	41.509227
1870.000000	44.377989
1860.000000	45.631118
1850.000000	45.695809
1840.000000	45.681296
1830.000000	45.628238
1820.000000	45.061965
1810.000000	45.392386
1800.000000	44.706589
1790.000000	44.271390
1780.000000	44.013252
1770.000000	43.580742
1760.000000	43.342129
1750.000000	42.886690
1740.000000	42.307343
1730.000000	42.291555
1720.000000	42.687294
1710.000000	43.440469
1700.000000	43.827398
1690.000000	44.629605
1680.000000	45.878258
1670.000000	47.094138
1660.000000	47.997582
1650.000000	48.720142
1640.000000	48.407750
1630.000000	48.070220
1620.000000	47.662868
1610.000000	47.068577
1600.000000	46.521297
1590.000000	46.094757
1580.000000	45.644343
1570.000000	45.081265
1560.000000	44.685526
1550.000000	44.296394
1540.000000	43.777461
1530.000000	43.081478
1520.000000	42.659339
1510.000000	42.354395
1500.000000	42.159492
1490.000000	42.289510
1480.000000	42.468057
1470.000000	42.895966
1460.000000	43.299042
1450.000000	43.888211
1440.000000	44.657203
1430.000000	45.334304
1420.000000	46.259458
1410.000000	47.746343
1400.000000	50.378014
1390.000000	53.390837
1380.000000	55.250917
1370.000000	55.845136
1360.000000	56.128628
1350.000000	56.428122
1340.000000	56.532137
1330.000000	57.153279
1320.000000	58.378528
1310.000000	59.602975
1300.000000	60.133451
1290.000000	60.265961
1280.000000	60.032232
1270.000000	59.545289
1260.000000	59.412516
1250.000000	59.319357
1240.000000	59.272512
1230.000000	59.116115
1220.000000	58.817127
1210.000000	58.289893
1200.000000	57.996517
1190.000000	57.877306
1180.000000	58.088092
1170.000000	58.952830
1160.000000	59.871062
1150.000000	60.554621
1140.000000	61.260188
1130.000000	61.672172
1120.000000	61.861868
1110.000000	61.948703
1100.000000	62.061699
1090.000000	62.083392
1080.000000	61.992000
1070.000000	61.898519
1060.000000	61.807986
1050.000000	61.851500
1040.000000	61.909842
1030.000000	61.808003
1020.000000	61.890758
1010.000000	62.244488
1000.000000	62.789125
990.000000	62.979754
980.000000	62.785458
970.000000	63.006864
960.000000	63.104618
950.000000	63.310739
940.000000	63.252979
930.000000	63.106701
920.000000	63.094282
910.000000	63.151555
900.000000	63.424136
890.000000	63.549351
880.000000	63.192029
870.000000	62.161862
860.000000	62.636643
850.000000	63.728385
840.000000	63.473839
830.000000	63.443613
820.000000	63.502191
810.000000	63.303644
800.000000	63.171877
790.000000	63.086166
780.000000	62.911680
770.000000	63.129970
760.000000	63.145638
750.000000	62.984531
740.000000	62.852833
730.000000	62.840726
720.000000	62.840568
710.000000	62.667037
700.000000	62.479833
690.000000	62.163811
680.000000	61.975642
670.000000	61.894256
660.000000	61.650815
650.000000	61.395047
640.000000	61.197374
630.000000	60.854736
620.000000	60.567477
610.000000	60.174121
600.000000	59.848981
590.000000	59.587074
580.000000	59.200561
570.000000	58.888593
560.000000	58.588023
550.000000	58.038353
540.000000	57.523268
530.000000	57.051820
520.000000	56.555237
510.000000	55.894202
500.000000	55.106554
490.000000	54.346066
480.000000	53.565623
470.000000	52.616475
460.000000	51.551502
450.000000	50.165206
440.000000	48.676770
430.000000	47.276026
420.000000	45.623405
410.000000	44.051826
400.000000	42.738507
390.000000	41.702389
380.000000	40.481769
370.000000	39.045601
360.000000	37.740766
350.000000	36.575658
340.000000	34.751118
330.000000	33.313376
320.000000	32.584760
310.000000	30.581444
300.000000	27.604913
290.000000	22.839862
280.000000	19.203681
270.000000	18.207573
260.000000	17.797523
250.000000	16.533261
