PE UV       SUBTECH     SPECTRUM    ASCII       PEDS        4.00        
   -1
3G-H10-C002.Sample.Raw.asc
22/03/04
15:18:46.00
22/03/04
15:18:46.00
Administrator

250.000000
1
Lambda 750
750N8071901
PerkinElmer UV WinLab 6.0.4.0738 / 1.61.00 Lambda 900

0
0
3350/servo 860.8/2
0
0
UV/VIS
1
1
1
CommonBeamDepol,150mm sphere / downward view
0
0
0
0
Program
Program
3350/servo 860.8/2
3350/0.2 860.8/0.2
3350/0.2 860.8/0.2
0
1
 
 
 
0
 
860.8
319.2
860.8
Front
100
on
 
 
0
0
0
 
0
 
 
 
0
 
 
0
0
0
0
0
 
 
 
 
0
0


0
0
#HDR
-1
-1
#GR
nm
%R
1.0
0.0
2500.000000
-10.000000
226
8
65.614756
16.554613
#DATA
2500.000000	34.201738
2490.000000	25.216439
2480.000000	27.364889
2470.000000	28.965882
2460.000000	34.947122
2450.000000	28.775539
2440.000000	27.134388
2430.000000	28.560290
2420.000000	29.694031
2410.000000	25.081184
2400.000000	31.629023
2390.000000	33.801522
2380.000000	33.063308
2370.000000	31.366895
2360.000000	31.820602
2350.000000	29.586697
2340.000000	29.763987
2330.000000	26.925918
2320.000000	28.613048
2310.000000	31.492239
2300.000000	32.292740
2290.000000	31.695794
2280.000000	30.464019
2270.000000	29.394929
2260.000000	29.869744
2250.000000	32.860427
2240.000000	31.603343
2230.000000	34.042527
2220.000000	33.257617
2210.000000	32.927994
2200.000000	33.058779
2190.000000	32.263925
2180.000000	31.650888
2170.000000	33.066974
2160.000000	32.898819
2150.000000	33.502509
2140.000000	35.325825
2130.000000	36.661107
2120.000000	36.472863
2110.000000	36.049935
2100.000000	36.439224
2090.000000	37.281446
2080.000000	35.639603
2070.000000	34.850376
2060.000000	34.934250
2050.000000	34.442484
2040.000000	33.624761
2030.000000	33.716412
2020.000000	33.499045
2010.000000	33.886997
2000.000000	33.407468
1990.000000	32.941804
1980.000000	32.548961
1970.000000	31.807392
1960.000000	31.163354
1950.000000	29.930162
1940.000000	30.230477
1930.000000	30.738356
1920.000000	31.782861
1910.000000	33.931955
1900.000000	36.887157
1890.000000	41.449216
1880.000000	45.099950
1870.000000	47.400541
1860.000000	48.892420
1850.000000	49.333111
1840.000000	49.184902
1830.000000	48.849331
1820.000000	48.758748
1810.000000	48.526619
1800.000000	48.174145
1790.000000	47.710896
1780.000000	47.382791
1770.000000	46.855302
1760.000000	46.594667
1750.000000	46.008713
1740.000000	45.538153
1730.000000	45.347900
1720.000000	45.844888
1710.000000	46.776508
1700.000000	47.117830
1690.000000	47.835371
1680.000000	48.990289
1670.000000	50.433198
1660.000000	51.443339
1650.000000	51.988600
1640.000000	51.743651
1630.000000	51.327970
1620.000000	50.845391
1610.000000	50.380733
1600.000000	49.721617
1590.000000	49.201133
1580.000000	48.858386
1570.000000	48.400759
1560.000000	48.126063
1550.000000	47.733214
1540.000000	47.255320
1530.000000	46.508450
1520.000000	46.082431
1510.000000	45.779235
1500.000000	45.710831
1490.000000	45.704808
1480.000000	45.980430
1470.000000	46.401360
1460.000000	46.948129
1450.000000	47.316197
1440.000000	48.025399
1430.000000	48.739436
1420.000000	49.581300
1410.000000	50.863829
1400.000000	53.391564
1390.000000	56.282963
1380.000000	58.042354
1370.000000	58.797100
1360.000000	59.032761
1350.000000	59.364256
1340.000000	59.947269
1330.000000	61.040509
1320.000000	62.125879
1310.000000	62.640635
1300.000000	62.802865
1290.000000	62.628905
1280.000000	62.585536
1270.000000	62.369768
1260.000000	62.311473
1250.000000	62.321590
1240.000000	62.144600
1230.000000	61.883586
1220.000000	61.757284
1210.000000	61.458225
1200.000000	61.041573
1190.000000	60.737719
1180.000000	60.941978
1170.000000	62.000905
1160.000000	62.740156
1150.000000	63.357985
1140.000000	63.756290
1130.000000	64.299077
1120.000000	64.673197
1110.000000	64.723090
1100.000000	64.836511
1090.000000	64.754219
1080.000000	64.618251
1070.000000	64.583148
1060.000000	64.471130
1050.000000	64.387180
1040.000000	64.411363
1030.000000	64.294855
1020.000000	64.265041
1010.000000	64.611502
1000.000000	65.067558
990.000000	65.199088
980.000000	65.100444
970.000000	65.111153
960.000000	65.328619
950.000000	65.345194
940.000000	65.157446
930.000000	65.239286
920.000000	65.266494
910.000000	65.187140
900.000000	65.305480
890.000000	65.581576
880.000000	65.614756
870.000000	65.223185
860.000000	64.637173
850.000000	65.078779
840.000000	65.176437
830.000000	65.159934
820.000000	65.218744
810.000000	65.117180
800.000000	65.230493
790.000000	65.032986
780.000000	64.885669
770.000000	64.847823
760.000000	64.712371
750.000000	64.591238
740.000000	64.558054
730.000000	64.393270
720.000000	64.143851
710.000000	64.018856
700.000000	63.757986
690.000000	63.551191
680.000000	63.225359
670.000000	62.969967
660.000000	62.761420
650.000000	62.566995
640.000000	62.203915
630.000000	61.860171
620.000000	61.593780
610.000000	61.214700
600.000000	60.804578
590.000000	60.493491
580.000000	60.148687
570.000000	59.704083
560.000000	59.256126
550.000000	58.748029
540.000000	58.186155
530.000000	57.576811
520.000000	56.971893
510.000000	56.306018
500.000000	55.684332
490.000000	54.959542
480.000000	54.081219
470.000000	53.190927
460.000000	52.153081
450.000000	50.962882
440.000000	49.635204
430.000000	48.207920
420.000000	46.552213
410.000000	44.929149
400.000000	43.625986
390.000000	42.414357
380.000000	41.228605
370.000000	39.778584
360.000000	38.176932
350.000000	36.911383
340.000000	35.435084
330.000000	33.738076
320.000000	32.526331
310.000000	30.464620
300.000000	27.474059
290.000000	22.916419
280.000000	19.334405
270.000000	18.450927
260.000000	18.058116
250.000000	16.554613
