PE UV       SUBTECH     SPECTRUM    ASCII       PEDS        4.00        
   -1
3G-H10-C008.Sample.Raw.asc
22/03/04
15:38:24.00
22/03/04
15:38:24.00
Administrator

250.000000
1
Lambda 750
750N8071901
PerkinElmer UV WinLab 6.0.4.0738 / 1.61.00 Lambda 900

0
0
3350/servo 860.8/2
0
0
UV/VIS
1
1
1
CommonBeamDepol,150mm sphere / downward view
0
0
0
0
Program
Program
3350/servo 860.8/2
3350/0.2 860.8/0.2
3350/0.2 860.8/0.2
0
1
 
 
 
0
 
860.8
319.2
860.8
Front
100
on
 
 
0
0
0
 
0
 
 
 
0
 
 
0
0
0
0
0
 
 
 
 
0
0


0
0
#HDR
-1
-1
#GR
nm
%R
1.0
0.0
2500.000000
-10.000000
226
8
65.474189
16.879213
#DATA
2500.000000	22.807060
2490.000000	23.684670
2480.000000	26.172284
2470.000000	26.042871
2460.000000	26.646167
2450.000000	22.745601
2440.000000	25.224447
2430.000000	29.781862
2420.000000	28.701786
2410.000000	28.593078
2400.000000	30.007385
2390.000000	27.495465
2380.000000	31.881686
2370.000000	32.562271
2360.000000	29.845978
2350.000000	32.479426
2340.000000	32.219959
2330.000000	26.407040
2320.000000	28.542286
2310.000000	29.968267
2300.000000	30.405332
2290.000000	29.037834
2280.000000	28.839069
2270.000000	30.478307
2260.000000	30.710309
2250.000000	30.652114
2240.000000	31.118921
2230.000000	32.318173
2220.000000	34.437027
2210.000000	32.073682
2200.000000	31.893920
2190.000000	33.425850
2180.000000	32.178739
2170.000000	32.121614
2160.000000	32.298018
2150.000000	31.719462
2140.000000	32.425448
2130.000000	34.609601
2120.000000	34.988965
2110.000000	35.853455
2100.000000	35.467182
2090.000000	35.061025
2080.000000	35.311537
2070.000000	33.988070
2060.000000	34.098578
2050.000000	33.257638
2040.000000	32.293237
2030.000000	32.399118
2020.000000	33.407967
2010.000000	33.522327
2000.000000	32.758147
1990.000000	32.175462
1980.000000	32.038228
1970.000000	30.560537
1960.000000	30.457879
1950.000000	29.332665
1940.000000	29.022659
1930.000000	30.264703
1920.000000	31.566978
1910.000000	33.740566
1900.000000	36.769970
1890.000000	40.753333
1880.000000	44.166485
1870.000000	46.943781
1860.000000	48.317580
1850.000000	48.712304
1840.000000	48.421086
1830.000000	48.151165
1820.000000	47.878865
1810.000000	47.717916
1800.000000	47.243605
1790.000000	46.718822
1780.000000	46.617815
1770.000000	46.212141
1760.000000	45.726830
1750.000000	45.448871
1740.000000	44.967448
1730.000000	44.639819
1720.000000	45.089006
1710.000000	46.077615
1700.000000	46.703809
1690.000000	47.021557
1680.000000	48.251601
1670.000000	49.768855
1660.000000	50.875227
1650.000000	51.224983
1640.000000	51.090261
1630.000000	50.812105
1620.000000	50.373530
1610.000000	49.708701
1600.000000	49.106041
1590.000000	48.602702
1580.000000	48.144877
1570.000000	47.694043
1560.000000	47.439634
1550.000000	47.227637
1540.000000	46.703577
1530.000000	45.877628
1520.000000	45.340094
1510.000000	45.124625
1500.000000	44.944942
1490.000000	44.908205
1480.000000	45.215528
1470.000000	45.673962
1460.000000	46.100547
1450.000000	46.630631
1440.000000	47.333521
1430.000000	48.083007
1420.000000	48.923757
1410.000000	50.281074
1400.000000	52.934952
1390.000000	55.789393
1380.000000	57.643770
1370.000000	58.385454
1360.000000	58.597854
1350.000000	58.987804
1340.000000	59.583936
1330.000000	60.588114
1320.000000	61.705507
1310.000000	62.418733
1300.000000	62.665214
1290.000000	62.445152
1280.000000	62.296657
1270.000000	62.040108
1260.000000	62.028600
1250.000000	61.996231
1240.000000	61.852973
1230.000000	61.659288
1220.000000	61.523092
1210.000000	61.031545
1200.000000	60.660035
1190.000000	60.316798
1180.000000	60.572013
1170.000000	61.369686
1160.000000	62.272930
1150.000000	63.030518
1140.000000	63.725971
1130.000000	64.243788
1120.000000	64.461217
1110.000000	64.454295
1100.000000	64.285027
1090.000000	64.299554
1080.000000	64.387294
1070.000000	64.525879
1060.000000	64.387394
1050.000000	64.164750
1040.000000	64.120174
1030.000000	64.030763
1020.000000	64.002500
1010.000000	64.354788
1000.000000	64.777225
990.000000	64.923376
980.000000	64.909416
970.000000	64.985910
960.000000	64.998287
950.000000	65.005369
940.000000	65.063385
930.000000	65.115507
920.000000	64.897859
910.000000	64.955608
900.000000	65.134316
890.000000	65.474189
880.000000	64.839215
870.000000	64.671712
860.000000	64.677293
850.000000	64.887956
840.000000	64.925646
830.000000	64.858039
820.000000	64.632098
810.000000	64.667120
800.000000	64.674974
790.000000	64.805762
780.000000	64.512099
770.000000	64.492883
760.000000	64.350287
750.000000	64.225022
740.000000	64.278689
730.000000	64.051928
720.000000	63.734042
710.000000	63.598418
700.000000	63.247868
690.000000	62.936944
680.000000	62.729918
670.000000	62.319325
660.000000	62.115210
650.000000	61.797432
640.000000	61.409898
630.000000	61.160296
620.000000	60.912974
610.000000	60.493054
600.000000	59.944654
590.000000	59.531469
580.000000	59.178830
570.000000	58.749940
560.000000	58.281415
550.000000	57.696466
540.000000	57.148998
530.000000	56.472590
520.000000	55.863884
510.000000	55.246151
500.000000	54.510390
490.000000	53.725997
480.000000	52.892323
470.000000	51.879764
460.000000	50.844609
450.000000	49.812891
440.000000	48.513594
430.000000	47.016422
420.000000	45.550941
410.000000	44.064259
400.000000	42.854142
390.000000	41.683764
380.000000	40.585806
370.000000	39.559633
360.000000	38.249479
350.000000	36.645607
340.000000	35.379903
330.000000	34.015991
320.000000	32.511200
310.000000	30.638774
300.000000	28.211464
290.000000	23.653604
280.000000	19.912675
270.000000	18.815181
260.000000	18.437684
250.000000	16.879213
