PE UV       SUBTECH     SPECTRUM    ASCII       PEDS        4.00        
   -1
3G-H10-C017.Sample.Raw.asc
22/04/19
16:22:06.00
22/04/19
16:22:06.00
Administrator

250.000000
1
Lambda 750
750N8071901
PerkinElmer UV WinLab 6.0.4.0738 / 1.61.00 Lambda 900

0
0
3350/servo 860.8/2
0
0
UV/VIS
1
1
1
CommonBeamDepol,150mm sphere / downward view
0
0
0
0
Program
Program
3350/servo 860.8/2
3350/0.2 860.8/0.2
3350/0.2 860.8/0.2
0
1
 
 
 
0
 
860.8
319.2
860.8
Front
100
on
 
 
0
0
0
 
0
 
 
 
0
 
 
0
0
0
0
0
 
 
 
 
0
0


0
0
#HDR
-1
-1
#GR
nm
%R
1.0
0.0
2500.000000
-10.000000
226
8
66.607843
16.687138
#DATA
2500.000000	25.588638
2490.000000	21.779870
2480.000000	22.193757
2470.000000	28.069021
2460.000000	27.689422
2450.000000	29.413628
2440.000000	24.455275
2430.000000	31.753288
2420.000000	27.083035
2410.000000	33.290168
2400.000000	31.533147
2390.000000	34.544430
2380.000000	32.539456
2370.000000	29.161946
2360.000000	32.552512
2350.000000	30.418099
2340.000000	29.776473
2330.000000	31.028746
2320.000000	29.640656
2310.000000	31.567645
2300.000000	31.055736
2290.000000	26.998137
2280.000000	30.399984
2270.000000	29.546554
2260.000000	28.956747
2250.000000	29.956181
2240.000000	32.569513
2230.000000	32.107999
2220.000000	33.134851
2210.000000	33.001842
2200.000000	31.779248
2190.000000	32.174916
2180.000000	33.158834
2170.000000	31.278724
2160.000000	32.496111
2150.000000	32.754327
2140.000000	34.922372
2130.000000	35.413421
2120.000000	35.557239
2110.000000	35.589409
2100.000000	35.641074
2090.000000	36.033351
2080.000000	35.659644
2070.000000	34.495884
2060.000000	34.398607
2050.000000	33.266989
2040.000000	33.247403
2030.000000	33.193333
2020.000000	33.668824
2010.000000	33.967107
2000.000000	33.399789
1990.000000	32.321985
1980.000000	31.607742
1970.000000	30.666372
1960.000000	29.886586
1950.000000	28.842704
1940.000000	28.767007
1930.000000	29.623152
1920.000000	31.910236
1910.000000	33.669732
1900.000000	36.908269
1890.000000	40.347712
1880.000000	43.991314
1870.000000	46.761414
1860.000000	48.614153
1850.000000	48.818388
1840.000000	48.345804
1830.000000	48.586338
1820.000000	47.885892
1810.000000	47.768192
1800.000000	47.758890
1790.000000	47.040326
1780.000000	46.680975
1770.000000	46.330104
1760.000000	45.793931
1750.000000	45.623946
1740.000000	45.193952
1730.000000	44.754159
1720.000000	45.148908
1710.000000	46.157305
1700.000000	46.549509
1690.000000	47.159197
1680.000000	48.706287
1670.000000	49.738630
1660.000000	50.767143
1650.000000	51.303654
1640.000000	51.074785
1630.000000	50.857858
1620.000000	50.392782
1610.000000	49.946982
1600.000000	49.317775
1590.000000	48.787184
1580.000000	48.307548
1570.000000	47.835190
1560.000000	47.623405
1550.000000	47.315799
1540.000000	46.797837
1530.000000	45.976827
1520.000000	45.481953
1510.000000	45.210471
1500.000000	45.033271
1490.000000	45.102705
1480.000000	45.326967
1470.000000	45.747859
1460.000000	46.103466
1450.000000	46.743977
1440.000000	47.480237
1430.000000	48.285775
1420.000000	49.088793
1410.000000	50.599401
1400.000000	53.144960
1390.000000	56.063202
1380.000000	57.870625
1370.000000	58.428978
1360.000000	58.738757
1350.000000	59.004761
1340.000000	59.372925
1330.000000	60.115439
1320.000000	61.178689
1310.000000	62.118589
1300.000000	62.533607
1290.000000	62.689669
1280.000000	62.397401
1270.000000	62.139273
1260.000000	62.152767
1250.000000	62.018144
1240.000000	61.930816
1230.000000	61.575174
1220.000000	61.245975
1210.000000	60.889871
1200.000000	60.546028
1190.000000	60.413785
1180.000000	60.618177
1170.000000	61.525256
1160.000000	62.707960
1150.000000	63.232347
1140.000000	63.692492
1130.000000	64.080633
1120.000000	64.347993
1110.000000	64.629709
1100.000000	64.744353
1090.000000	64.754801
1080.000000	64.548615
1070.000000	64.408495
1060.000000	64.338200
1050.000000	64.314248
1040.000000	64.254376
1030.000000	64.221363
1020.000000	64.373693
1010.000000	64.713601
1000.000000	65.267429
990.000000	65.427080
980.000000	65.191737
970.000000	65.345232
960.000000	65.506096
950.000000	65.650838
940.000000	65.684465
930.000000	65.549411
920.000000	65.438564
910.000000	65.524677
900.000000	65.565942
890.000000	65.850274
880.000000	65.949258
870.000000	65.152728
860.000000	65.581452
850.000000	66.607843
840.000000	65.140905
830.000000	65.164721
820.000000	65.192514
810.000000	65.147275
800.000000	64.752456
790.000000	64.714199
780.000000	64.707407
770.000000	64.881541
760.000000	64.778792
750.000000	64.686137
740.000000	64.523680
730.000000	64.230049
720.000000	64.167260
710.000000	64.039581
700.000000	63.740294
690.000000	63.323104
680.000000	63.111221
670.000000	62.959214
660.000000	62.786297
650.000000	62.464053
640.000000	62.144683
630.000000	61.697699
620.000000	61.358641
610.000000	60.935596
600.000000	60.607107
590.000000	60.280130
580.000000	59.721382
570.000000	59.307079
560.000000	58.921556
550.000000	58.295174
540.000000	57.718765
530.000000	57.175477
520.000000	56.560187
510.000000	55.860525
500.000000	55.036785
490.000000	54.240976
480.000000	53.435091
470.000000	52.555992
460.000000	51.522020
450.000000	50.327363
440.000000	48.954643
430.000000	47.371295
420.000000	45.885291
410.000000	44.415531
400.000000	43.085787
390.000000	41.939601
380.000000	40.774059
370.000000	39.352495
360.000000	37.952806
350.000000	36.873002
340.000000	35.420191
330.000000	33.565983
320.000000	32.480191
310.000000	30.893169
300.000000	28.000583
290.000000	23.158532
280.000000	19.542478
270.000000	18.389119
260.000000	17.929624
250.000000	16.687138
