PE UV       SUBTECH     SPECTRUM    ASCII       PEDS        4.00        
   -1
3G-N10-F020.Sample.Raw.asc
22/04/20
16:23:06.00
22/04/20
16:23:06.00
Administrator

250.000000
1
Lambda 750
750N8071901
PerkinElmer UV WinLab 6.0.4.0738 / 1.61.00 Lambda 900

0
0
3350/servo 860.8/2
0
0
UV/VIS
1
1
1
CommonBeamDepol,150mm sphere / downward view
0
0
0
0
Program
Program
3350/servo 860.8/2
3350/0.2 860.8/0.2
3350/0.2 860.8/0.2
0
1
 
 
 
0
 
860.8
319.2
860.8
Front
100
on
 
 
0
0
0
 
0
 
 
 
0
 
 
0
0
0
0
0
 
 
 
 
0
0


0
0
#HDR
-1
-1
#GR
nm
%R
1.0
0.0
2500.000000
-10.000000
226
8
65.614348
10.830417
#DATA
2500.000000	10.830417
2490.000000	17.978183
2480.000000	17.778426
2470.000000	12.975193
2460.000000	21.413399
2450.000000	14.485740
2440.000000	16.740905
2430.000000	11.816504
2420.000000	13.287296
2410.000000	19.628596
2400.000000	20.427616
2390.000000	20.094745
2380.000000	18.626106
2370.000000	19.621643
2360.000000	17.538517
2350.000000	16.838028
2340.000000	18.732144
2330.000000	18.214055
2320.000000	19.241093
2310.000000	17.921170
2300.000000	17.492461
2290.000000	18.044445
2280.000000	18.634224
2270.000000	20.005731
2260.000000	17.953804
2250.000000	18.828857
2240.000000	19.175337
2230.000000	23.194102
2220.000000	23.520488
2210.000000	20.758745
2200.000000	20.631850
2190.000000	20.588982
2180.000000	20.516832
2170.000000	19.333312
2160.000000	19.449379
2150.000000	20.846400
2140.000000	24.154083
2130.000000	24.101677
2120.000000	24.010735
2110.000000	24.747672
2100.000000	24.637545
2090.000000	23.831652
2080.000000	23.516672
2070.000000	22.716799
2060.000000	22.660015
2050.000000	22.435622
2040.000000	21.087078
2030.000000	21.213427
2020.000000	22.214307
2010.000000	22.376995
2000.000000	21.829939
1990.000000	21.565118
1980.000000	20.452286
1970.000000	19.566542
1960.000000	19.070890
1950.000000	18.251592
1940.000000	18.281725
1930.000000	18.782003
1920.000000	20.153742
1910.000000	21.961511
1900.000000	26.668523
1890.000000	31.175138
1880.000000	36.036655
1870.000000	39.899707
1860.000000	41.441959
1850.000000	42.152984
1840.000000	42.435047
1830.000000	42.221586
1820.000000	41.477044
1810.000000	41.366491
1800.000000	40.408824
1790.000000	40.085394
1780.000000	39.928271
1770.000000	39.040254
1760.000000	38.145824
1750.000000	38.018403
1740.000000	37.166848
1730.000000	36.805743
1720.000000	37.391013
1710.000000	38.503990
1700.000000	39.307472
1690.000000	40.028553
1680.000000	41.881572
1670.000000	43.873355
1660.000000	45.484707
1650.000000	45.971512
1640.000000	45.752183
1630.000000	45.339010
1620.000000	44.931858
1610.000000	43.847236
1600.000000	42.792865
1590.000000	42.078892
1580.000000	41.428765
1570.000000	40.822341
1560.000000	40.389008
1550.000000	39.915383
1540.000000	39.144612
1530.000000	38.183931
1520.000000	37.380625
1510.000000	36.945461
1500.000000	36.612997
1490.000000	36.788373
1480.000000	37.085011
1470.000000	37.722738
1460.000000	38.314807
1450.000000	38.935987
1440.000000	40.133177
1430.000000	41.336793
1420.000000	42.875318
1410.000000	45.178681
1400.000000	48.712781
1390.000000	52.541482
1380.000000	54.927891
1370.000000	56.024537
1360.000000	56.640747
1350.000000	57.214157
1340.000000	57.494184
1330.000000	58.198660
1320.000000	59.759260
1310.000000	61.131420
1300.000000	61.800953
1290.000000	61.822480
1280.000000	61.470584
1270.000000	61.161541
1260.000000	61.059172
1250.000000	60.940474
1240.000000	60.809788
1230.000000	60.448762
1220.000000	59.920545
1210.000000	59.287372
1200.000000	58.715935
1190.000000	58.662450
1180.000000	59.312654
1170.000000	60.145686
1160.000000	61.343370
1150.000000	62.271114
1140.000000	62.803817
1130.000000	63.595461
1120.000000	64.103388
1110.000000	64.220554
1100.000000	64.440513
1090.000000	64.344412
1080.000000	64.106329
1070.000000	64.020270
1060.000000	63.959213
1050.000000	63.919215
1040.000000	63.690273
1030.000000	63.725311
1020.000000	63.925519
1010.000000	64.393821
1000.000000	64.989028
990.000000	65.169591
980.000000	65.033403
970.000000	65.164067
960.000000	65.286974
950.000000	65.406648
940.000000	65.552071
930.000000	65.299473
920.000000	65.048773
910.000000	65.146174
900.000000	65.399608
890.000000	65.568804
880.000000	65.474592
870.000000	65.016054
860.000000	64.344939
850.000000	64.819861
840.000000	65.614348
830.000000	65.117053
820.000000	64.999650
810.000000	64.917893
800.000000	64.912507
790.000000	64.768551
780.000000	64.613092
770.000000	64.770360
760.000000	64.534950
750.000000	64.421502
740.000000	64.255678
730.000000	64.145170
720.000000	63.927629
710.000000	63.748225
700.000000	63.587942
690.000000	63.354378
680.000000	63.103448
670.000000	62.880496
660.000000	62.535356
650.000000	62.180312
640.000000	61.800476
630.000000	61.375086
620.000000	60.882272
610.000000	60.293473
600.000000	59.774178
590.000000	59.268603
580.000000	58.755916
570.000000	58.103170
560.000000	57.494278
550.000000	56.779651
540.000000	55.923220
530.000000	55.120297
520.000000	54.254460
510.000000	53.323510
500.000000	52.228445
490.000000	50.870184
480.000000	49.414223
470.000000	47.894473
460.000000	46.071294
450.000000	44.001225
440.000000	41.669869
430.000000	39.238424
420.000000	36.774939
410.000000	34.695068
400.000000	33.275566
390.000000	31.994329
380.000000	30.578344
370.000000	29.008947
360.000000	27.597511
350.000000	26.799418
340.000000	25.470137
330.000000	24.127205
320.000000	22.937901
310.000000	21.218026
300.000000	19.519456
290.000000	17.077898
280.000000	15.683877
270.000000	15.419886
260.000000	15.526544
250.000000	15.090145
