PE UV       SUBTECH     SPECTRUM    ASCII       PEDS        4.00        
   -1
3G-N10-F013.Sample.Raw.asc
22/04/20
15:58:49.00
22/04/20
15:58:49.00
Administrator

250.000000
1
Lambda 750
750N8071901
PerkinElmer UV WinLab 6.0.4.0738 / 1.61.00 Lambda 900

0
0
3350/servo 860.8/2
0
0
UV/VIS
1
1
1
CommonBeamDepol,150mm sphere / downward view
0
0
0
0
Program
Program
3350/servo 860.8/2
3350/0.2 860.8/0.2
3350/0.2 860.8/0.2
0
1
 
 
 
0
 
860.8
319.2
860.8
Front
100
on
 
 
0
0
0
 
0
 
 
 
0
 
 
0
0
0
0
0
 
 
 
 
0
0


0
0
#HDR
-1
-1
#GR
nm
%R
1.0
0.0
2500.000000
-10.000000
226
8
65.627305
10.304367
#DATA
2500.000000	18.012899
2490.000000	18.767766
2480.000000	15.190973
2470.000000	10.304367
2460.000000	20.737707
2450.000000	18.998751
2440.000000	23.127492
2430.000000	13.345638
2420.000000	14.427025
2410.000000	21.216165
2400.000000	15.987137
2390.000000	16.527517
2380.000000	18.717127
2370.000000	21.367907
2360.000000	19.770180
2350.000000	19.181669
2340.000000	17.886321
2330.000000	21.327877
2320.000000	19.457067
2310.000000	20.158778
2300.000000	20.795423
2290.000000	17.252323
2280.000000	14.913392
2270.000000	19.006504
2260.000000	18.569240
2250.000000	20.645222
2240.000000	22.066140
2230.000000	22.289981
2220.000000	21.839289
2210.000000	21.359887
2200.000000	21.111351
2190.000000	21.218946
2180.000000	20.746480
2170.000000	18.492229
2160.000000	19.797019
2150.000000	22.575967
2140.000000	22.953386
2130.000000	24.580952
2120.000000	25.897684
2110.000000	23.569302
2100.000000	23.366531
2090.000000	23.820904
2080.000000	24.504508
2070.000000	24.363534
2060.000000	24.084820
2050.000000	22.114046
2040.000000	21.113054
2030.000000	21.666434
2020.000000	22.594023
2010.000000	22.526535
2000.000000	22.140163
1990.000000	21.299844
1980.000000	20.415489
1970.000000	20.030081
1960.000000	19.182816
1950.000000	18.757600
1940.000000	18.638257
1930.000000	18.631706
1920.000000	20.094758
1910.000000	22.219168
1900.000000	27.167893
1890.000000	31.875718
1880.000000	36.443791
1870.000000	39.646416
1860.000000	41.414490
1850.000000	42.588805
1840.000000	42.564699
1830.000000	42.304338
1820.000000	41.780695
1810.000000	41.275478
1800.000000	40.601106
1790.000000	40.504612
1780.000000	40.099853
1770.000000	39.206238
1760.000000	38.882160
1750.000000	37.799346
1740.000000	36.909921
1730.000000	37.141845
1720.000000	37.841438
1710.000000	39.085985
1700.000000	39.650911
1690.000000	40.132734
1680.000000	41.870652
1670.000000	44.150262
1660.000000	45.427482
1650.000000	46.277612
1640.000000	46.360527
1630.000000	45.564418
1620.000000	45.097964
1610.000000	44.107921
1600.000000	43.123725
1590.000000	42.417442
1580.000000	41.595785
1570.000000	41.106106
1560.000000	40.824599
1550.000000	40.259381
1540.000000	39.391099
1530.000000	38.555029
1520.000000	37.765581
1510.000000	37.216901
1500.000000	37.022606
1490.000000	37.057136
1480.000000	37.273452
1470.000000	37.875730
1460.000000	38.494178
1450.000000	39.301979
1440.000000	40.428199
1430.000000	41.533172
1420.000000	43.034836
1410.000000	45.354295
1400.000000	48.976793
1390.000000	52.827323
1380.000000	55.109765
1370.000000	56.324192
1360.000000	57.034335
1350.000000	57.525051
1340.000000	57.862819
1330.000000	58.549336
1320.000000	60.063733
1310.000000	61.299940
1300.000000	62.085101
1290.000000	62.335763
1280.000000	62.126513
1270.000000	61.625844
1260.000000	61.539963
1250.000000	61.474331
1240.000000	61.201305
1230.000000	60.882418
1220.000000	60.324301
1210.000000	59.750949
1200.000000	59.223911
1190.000000	59.120577
1180.000000	59.631291
1170.000000	60.564518
1160.000000	61.742698
1150.000000	62.818246
1140.000000	63.587776
1130.000000	64.177990
1120.000000	64.504194
1110.000000	64.740462
1100.000000	64.597555
1090.000000	64.598052
1080.000000	64.559580
1070.000000	64.449261
1060.000000	64.320518
1050.000000	64.266616
1040.000000	64.054807
1030.000000	64.075873
1020.000000	64.262582
1010.000000	64.656410
1000.000000	65.311009
990.000000	65.404822
980.000000	65.267912
970.000000	65.386046
960.000000	65.515516
950.000000	65.627305
940.000000	65.590589
930.000000	65.504704
920.000000	65.190548
910.000000	65.180462
900.000000	65.329977
890.000000	65.220768
880.000000	65.448677
870.000000	65.547128
860.000000	65.105614
850.000000	64.667118
840.000000	64.998915
830.000000	64.729406
820.000000	64.690145
810.000000	64.883974
800.000000	64.854943
790.000000	64.720769
780.000000	64.534426
770.000000	64.564464
760.000000	64.359977
750.000000	64.345917
740.000000	64.156414
730.000000	64.036528
720.000000	63.799303
710.000000	63.651753
700.000000	63.578203
690.000000	63.365358
680.000000	63.115655
670.000000	62.725067
660.000000	62.373208
650.000000	62.133956
640.000000	61.675926
630.000000	61.234634
620.000000	60.784039
610.000000	60.217365
600.000000	59.664673
590.000000	59.162832
580.000000	58.690911
570.000000	58.097707
560.000000	57.465138
550.000000	56.769921
540.000000	55.861615
530.000000	55.010936
520.000000	54.191062
510.000000	53.270841
500.000000	52.189564
490.000000	50.819234
480.000000	49.330761
470.000000	47.857909
460.000000	46.060199
450.000000	44.012864
440.000000	41.789424
430.000000	39.421231
420.000000	36.942822
410.000000	34.857893
400.000000	33.512107
390.000000	32.345136
380.000000	30.947423
370.000000	29.297885
360.000000	27.744388
350.000000	26.655676
340.000000	25.311054
330.000000	24.075361
320.000000	23.284167
310.000000	21.874237
300.000000	19.623030
290.000000	17.288869
280.000000	15.810512
270.000000	15.543899
260.000000	15.589359
250.000000	15.056438
