PE UV       SUBTECH     SPECTRUM    ASCII       PEDS        4.00        
   -1
3S-H10-F012.Sample.Raw.asc
22/03/29
14:50:01.00
22/03/29
14:50:01.00
Administrator

250.000000
1
Lambda 750
750N8071901
PerkinElmer UV WinLab 6.0.4.0738 / 1.61.00 Lambda 900

0
0
3350/servo 860.8/2
0
0
UV/VIS
1
1
1
CommonBeamDepol,150mm sphere / downward view
0
0
0
0
Program
Program
3350/servo 860.8/2
3350/0.2 860.8/0.2
3350/0.2 860.8/0.2
0
1
 
 
 
0
 
860.8
319.2
860.8
Front
100
on
 
 
0
0
0
 
0
 
 
 
0
 
 
0
0
0
0
0
 
 
 
 
0
0


0
0
#HDR
-1
-1
#GR
nm
%R
1.0
0.0
2500.000000
-10.000000
226
8
43.420214
5.219652
#DATA
2500.000000	6.487032
2490.000000	7.406424
2480.000000	5.946398
2470.000000	5.219652
2460.000000	8.266245
2450.000000	5.357910
2440.000000	6.714879
2430.000000	5.857975
2420.000000	7.724090
2410.000000	8.217818
2400.000000	8.776355
2390.000000	7.570873
2380.000000	8.072297
2370.000000	6.905830
2360.000000	8.871518
2350.000000	8.757213
2340.000000	8.031283
2330.000000	8.068269
2320.000000	7.530648
2310.000000	7.311670
2300.000000	6.813390
2290.000000	7.673717
2280.000000	7.489216
2270.000000	7.969880
2260.000000	8.650878
2250.000000	9.320856
2240.000000	10.325642
2230.000000	10.598574
2220.000000	11.284811
2210.000000	10.926412
2200.000000	10.002596
2190.000000	9.573322
2180.000000	9.810372
2170.000000	9.399723
2160.000000	10.136731
2150.000000	11.041090
2140.000000	10.882632
2130.000000	11.501056
2120.000000	12.282948
2110.000000	12.172640
2100.000000	12.729706
2090.000000	12.455265
2080.000000	12.827891
2070.000000	12.156267
2060.000000	11.628445
2050.000000	10.419808
2040.000000	10.096712
2030.000000	10.370809
2020.000000	10.862944
2010.000000	10.960986
2000.000000	10.591101
1990.000000	10.148680
1980.000000	9.500912
1970.000000	9.078073
1960.000000	8.406326
1950.000000	7.962284
1940.000000	8.056198
1930.000000	8.430328
1920.000000	9.449583
1910.000000	10.682364
1900.000000	13.470915
1890.000000	17.072822
1880.000000	20.665449
1870.000000	23.194573
1860.000000	24.492483
1850.000000	25.040779
1840.000000	25.047281
1830.000000	24.807295
1820.000000	24.289156
1810.000000	23.994924
1800.000000	23.560994
1790.000000	23.148013
1780.000000	22.848512
1770.000000	22.144409
1760.000000	21.493558
1750.000000	21.200525
1740.000000	20.682991
1730.000000	20.082661
1720.000000	20.426983
1710.000000	21.422074
1700.000000	22.402935
1690.000000	23.371921
1680.000000	24.838438
1670.000000	26.679104
1660.000000	27.863804
1650.000000	28.424758
1640.000000	28.264014
1630.000000	27.956328
1620.000000	27.451370
1610.000000	26.841975
1600.000000	26.243978
1590.000000	25.677914
1580.000000	25.202614
1570.000000	24.713099
1560.000000	24.306470
1550.000000	23.936648
1540.000000	23.317188
1530.000000	22.542527
1520.000000	21.959682
1510.000000	21.714052
1500.000000	21.532075
1490.000000	21.450730
1480.000000	21.716581
1470.000000	21.969432
1460.000000	22.306243
1450.000000	22.812111
1440.000000	23.619858
1430.000000	24.683424
1420.000000	26.127052
1410.000000	28.020760
1400.000000	30.403001
1390.000000	32.779563
1380.000000	34.445012
1370.000000	35.500318
1360.000000	36.331003
1350.000000	36.910583
1340.000000	37.242514
1330.000000	37.425096
1320.000000	37.750570
1310.000000	38.251980
1300.000000	38.638653
1290.000000	38.861129
1280.000000	38.838834
1270.000000	38.714678
1260.000000	38.642354
1250.000000	38.567100
1240.000000	38.221847
1230.000000	37.654841
1220.000000	37.066387
1210.000000	36.611195
1200.000000	36.331490
1190.000000	36.468278
1180.000000	37.024187
1170.000000	37.894008
1160.000000	38.845431
1150.000000	39.706544
1140.000000	40.321257
1130.000000	40.789375
1120.000000	41.132882
1110.000000	41.286753
1100.000000	41.338490
1090.000000	41.303020
1080.000000	41.246448
1070.000000	41.245831
1060.000000	41.292742
1050.000000	41.300642
1040.000000	41.278880
1030.000000	41.375649
1020.000000	41.509112
1010.000000	41.909546
1000.000000	42.291381
990.000000	42.357852
980.000000	42.416022
970.000000	42.547315
960.000000	42.628839
950.000000	42.733049
940.000000	42.745793
930.000000	42.675012
920.000000	42.724342
910.000000	42.806896
900.000000	42.875097
890.000000	43.144865
880.000000	43.248351
870.000000	43.288912
860.000000	43.420214
850.000000	43.045780
840.000000	42.009486
830.000000	41.937045
820.000000	41.976413
810.000000	41.905363
800.000000	41.876895
790.000000	41.777340
780.000000	41.681254
770.000000	41.748600
760.000000	41.638888
750.000000	41.547647
740.000000	41.499292
730.000000	41.375065
720.000000	41.244164
710.000000	41.120774
700.000000	40.972882
690.000000	40.707134
680.000000	40.483286
670.000000	40.195007
660.000000	39.948794
650.000000	39.723879
640.000000	39.346123
630.000000	38.986308
620.000000	38.626952
610.000000	38.219958
600.000000	37.858077
590.000000	37.506737
580.000000	37.148421
570.000000	36.735032
560.000000	36.320825
550.000000	35.856787
540.000000	35.248543
530.000000	34.557060
520.000000	33.790651
510.000000	32.894387
500.000000	31.963847
490.000000	30.963259
480.000000	29.900932
470.000000	28.659030
460.000000	27.113665
450.000000	25.339012
440.000000	23.370079
430.000000	21.180358
420.000000	18.945037
410.000000	17.230865
400.000000	16.206786
390.000000	15.311792
380.000000	14.266437
370.000000	13.268604
360.000000	12.412125
350.000000	11.485841
340.000000	10.681497
330.000000	9.922843
320.000000	9.352449
310.000000	9.069062
300.000000	8.533651
290.000000	7.859507
280.000000	7.498826
270.000000	7.378754
260.000000	7.396789
250.000000	7.428661
