PE UV       SUBTECH     SPECTRUM    ASCII       PEDS        4.00        
   -1
3S-N10-F013.Sample.Raw.asc
22/03/30
16:22:44.00
22/03/30
16:22:44.00
Administrator

250.000000
1
Lambda 750
750N8071901
PerkinElmer UV WinLab 6.0.4.0738 / 1.61.00 Lambda 900

0
0
3350/servo 860.8/2
0
0
UV/VIS
1
1
1
CommonBeamDepol,150mm sphere / downward view
0
0
0
0
Program
Program
3350/servo 860.8/2
3350/0.2 860.8/0.2
3350/0.2 860.8/0.2
0
1
 
 
 
0
 
860.8
319.2
860.8
Front
100
on
 
 
0
0
0
 
0
 
 
 
0
 
 
0
0
0
0
0
 
 
 
 
0
0


0
0
#HDR
-1
-1
#GR
nm
%R
1.0
0.0
2500.000000
-10.000000
226
8
63.061071
6.094038
#DATA
2500.000000	6.094038
2490.000000	11.205249
2480.000000	12.489231
2470.000000	11.160957
2460.000000	10.411101
2450.000000	14.593784
2440.000000	11.979960
2430.000000	10.712120
2420.000000	11.376941
2410.000000	13.304074
2400.000000	12.785222
2390.000000	14.053616
2380.000000	13.113433
2370.000000	13.594143
2360.000000	14.606653
2350.000000	14.253574
2340.000000	13.840297
2330.000000	14.454520
2320.000000	13.108312
2310.000000	13.570537
2300.000000	13.215426
2290.000000	14.207154
2280.000000	13.370820
2270.000000	12.532256
2260.000000	13.413008
2250.000000	14.475992
2240.000000	16.197694
2230.000000	17.495176
2220.000000	17.726488
2210.000000	16.898539
2200.000000	16.682402
2190.000000	16.114760
2180.000000	15.251059
2170.000000	15.500742
2160.000000	15.970272
2150.000000	17.028980
2140.000000	17.483928
2130.000000	18.486085
2120.000000	19.307105
2110.000000	19.503617
2100.000000	19.584931
2090.000000	19.635231
2080.000000	19.570778
2070.000000	18.402014
2060.000000	17.511327
2050.000000	16.478596
2040.000000	15.595640
2030.000000	16.084886
2020.000000	16.858417
2010.000000	16.977467
2000.000000	16.449114
1990.000000	15.967500
1980.000000	14.874377
1970.000000	14.047697
1960.000000	13.140514
1950.000000	12.694885
1940.000000	12.457008
1930.000000	13.290500
1920.000000	14.417981
1910.000000	16.807171
1900.000000	21.510700
1890.000000	26.736142
1880.000000	32.164104
1870.000000	36.227886
1860.000000	38.260413
1850.000000	38.943159
1840.000000	39.024016
1830.000000	38.556526
1820.000000	38.017428
1810.000000	37.694468
1800.000000	37.086475
1790.000000	36.568469
1780.000000	36.097036
1770.000000	35.393245
1760.000000	34.582683
1750.000000	33.951751
1740.000000	33.432061
1730.000000	32.965383
1720.000000	33.644477
1710.000000	34.981739
1700.000000	35.756034
1690.000000	36.491289
1680.000000	38.268561
1670.000000	40.567956
1660.000000	42.344855
1650.000000	42.948325
1640.000000	42.767100
1630.000000	42.177047
1620.000000	41.480190
1610.000000	40.530356
1600.000000	39.600790
1590.000000	38.671408
1580.000000	37.918991
1570.000000	37.265897
1560.000000	36.715322
1550.000000	36.214306
1540.000000	35.371427
1530.000000	34.238980
1520.000000	33.389905
1510.000000	32.868476
1500.000000	32.561584
1490.000000	32.550104
1480.000000	32.881993
1470.000000	33.351107
1460.000000	33.937184
1450.000000	34.753772
1440.000000	35.941677
1430.000000	37.655295
1420.000000	40.075944
1410.000000	43.190274
1400.000000	46.480114
1390.000000	49.505031
1380.000000	51.693577
1370.000000	52.924217
1360.000000	53.935604
1350.000000	54.904789
1340.000000	55.689132
1330.000000	56.279603
1320.000000	56.998901
1310.000000	57.949321
1300.000000	58.627327
1290.000000	58.875745
1280.000000	58.810241
1270.000000	58.652393
1260.000000	58.515739
1250.000000	58.362124
1240.000000	58.036144
1230.000000	57.678769
1220.000000	57.264517
1210.000000	56.639922
1200.000000	56.137971
1190.000000	55.901120
1180.000000	56.322577
1170.000000	57.322850
1160.000000	58.616729
1150.000000	59.732888
1140.000000	60.518780
1130.000000	61.122508
1120.000000	61.507625
1110.000000	61.635288
1100.000000	61.722182
1090.000000	61.694061
1080.000000	61.656631
1070.000000	61.529759
1060.000000	61.389162
1050.000000	61.324448
1040.000000	61.217011
1030.000000	61.153750
1020.000000	61.172508
1010.000000	61.333046
1000.000000	61.552562
990.000000	61.703614
980.000000	61.786013
970.000000	61.883152
960.000000	62.074258
950.000000	62.167141
940.000000	62.231459
930.000000	62.222192
920.000000	62.245054
910.000000	62.320930
900.000000	62.483965
890.000000	62.662404
880.000000	62.751475
870.000000	62.947891
860.000000	63.061071
850.000000	62.507092
840.000000	61.863722
830.000000	61.956618
820.000000	61.980236
810.000000	61.838106
800.000000	61.849164
790.000000	61.817263
780.000000	61.791885
770.000000	61.664539
760.000000	61.500254
750.000000	61.479971
740.000000	61.391392
730.000000	61.198088
720.000000	61.096038
710.000000	60.922424
700.000000	60.676198
690.000000	60.477511
680.000000	60.229808
670.000000	59.848313
660.000000	59.522856
650.000000	59.087878
640.000000	58.628148
630.000000	58.124714
620.000000	57.614424
610.000000	57.020233
600.000000	56.525374
590.000000	56.049826
580.000000	55.479231
570.000000	54.898782
560.000000	54.408186
550.000000	53.829015
540.000000	53.122770
530.000000	52.395532
520.000000	51.658820
510.000000	50.839641
500.000000	49.799303
490.000000	48.431238
480.000000	46.853774
470.000000	45.024541
460.000000	42.880709
450.000000	40.325089
440.000000	37.366505
430.000000	34.031235
420.000000	30.607557
410.000000	27.958351
400.000000	26.616938
390.000000	25.607257
380.000000	24.292384
370.000000	22.552342
360.000000	20.719330
350.000000	19.202723
340.000000	17.712574
330.000000	16.229230
320.000000	14.974182
310.000000	13.658805
300.000000	11.819320
290.000000	10.110067
280.000000	9.380080
270.000000	9.182096
260.000000	9.346518
250.000000	9.503756
