PE UV       SUBTECH     SPECTRUM    ASCII       PEDS        4.00        
   -1
3S-N10-F014.Sample.Raw.asc
22/03/30
16:25:32.00
22/03/30
16:25:32.00
Administrator

250.000000
1
Lambda 750
750N8071901
PerkinElmer UV WinLab 6.0.4.0738 / 1.61.00 Lambda 900

0
0
3350/servo 860.8/2
0
0
UV/VIS
1
1
1
CommonBeamDepol,150mm sphere / downward view
0
0
0
0
Program
Program
3350/servo 860.8/2
3350/0.2 860.8/0.2
3350/0.2 860.8/0.2
0
1
 
 
 
0
 
860.8
319.2
860.8
Front
100
on
 
 
0
0
0
 
0
 
 
 
0
 
 
0
0
0
0
0
 
 
 
 
0
0


0
0
#HDR
-1
-1
#GR
nm
%R
1.0
0.0
2500.000000
-10.000000
226
8
62.778567
9.229187
#DATA
2500.000000	9.404686
2490.000000	11.776387
2480.000000	10.719392
2470.000000	11.073294
2460.000000	9.741934
2450.000000	11.834846
2440.000000	12.967079
2430.000000	11.481347
2420.000000	13.682728
2410.000000	12.792434
2400.000000	12.568799
2390.000000	14.400027
2380.000000	13.122417
2370.000000	13.912452
2360.000000	15.298475
2350.000000	14.899407
2340.000000	11.988163
2330.000000	14.310668
2320.000000	13.048426
2310.000000	13.730891
2300.000000	13.464374
2290.000000	14.160792
2280.000000	13.473877
2270.000000	12.047991
2260.000000	12.796829
2250.000000	15.159579
2240.000000	15.537818
2230.000000	17.572838
2220.000000	17.595722
2210.000000	17.013816
2200.000000	16.375257
2190.000000	15.637035
2180.000000	15.575162
2170.000000	15.292830
2160.000000	15.596989
2150.000000	17.153481
2140.000000	17.875271
2130.000000	18.468418
2120.000000	18.799017
2110.000000	19.279031
2100.000000	19.794589
2090.000000	19.476906
2080.000000	19.461113
2070.000000	18.522633
2060.000000	17.318560
2050.000000	16.463550
2040.000000	15.380941
2030.000000	16.063409
2020.000000	16.701922
2010.000000	16.939625
2000.000000	16.522433
1990.000000	15.860096
1980.000000	14.899509
1970.000000	13.793346
1960.000000	13.125442
1950.000000	12.555538
1940.000000	12.220490
1930.000000	13.092768
1920.000000	14.454522
1910.000000	16.923192
1900.000000	21.371650
1890.000000	26.804195
1880.000000	31.894762
1870.000000	36.023553
1860.000000	38.185169
1850.000000	38.804976
1840.000000	38.930623
1830.000000	38.497747
1820.000000	38.060794
1810.000000	37.545136
1800.000000	37.010474
1790.000000	36.618384
1780.000000	35.981276
1770.000000	35.293167
1760.000000	34.521900
1750.000000	33.898469
1740.000000	33.336945
1730.000000	32.883803
1720.000000	33.535115
1710.000000	34.797923
1700.000000	35.570919
1690.000000	36.344860
1680.000000	38.152017
1670.000000	40.576367
1660.000000	42.255180
1650.000000	42.926191
1640.000000	42.709145
1630.000000	42.147471
1620.000000	41.403741
1610.000000	40.472917
1600.000000	39.465461
1590.000000	38.566029
1580.000000	37.829927
1570.000000	37.155575
1560.000000	36.644084
1550.000000	36.158542
1540.000000	35.265710
1530.000000	34.165024
1520.000000	33.328452
1510.000000	32.768983
1500.000000	32.476947
1490.000000	32.446470
1480.000000	32.803645
1470.000000	33.279771
1460.000000	33.833955
1450.000000	34.657993
1440.000000	35.824570
1430.000000	37.553265
1420.000000	39.973148
1410.000000	43.098525
1400.000000	46.411962
1390.000000	49.477719
1380.000000	51.615200
1370.000000	52.809368
1360.000000	53.862971
1350.000000	54.859820
1340.000000	55.637893
1330.000000	56.240850
1320.000000	56.986233
1310.000000	57.933996
1300.000000	58.658289
1290.000000	58.906255
1280.000000	58.841930
1270.000000	58.683040
1260.000000	58.493977
1250.000000	58.304183
1240.000000	58.004031
1230.000000	57.635936
1220.000000	57.218251
1210.000000	56.579211
1200.000000	56.063095
1190.000000	55.861703
1180.000000	56.274849
1170.000000	57.289593
1160.000000	58.590624
1150.000000	59.685248
1140.000000	60.502229
1130.000000	61.133840
1120.000000	61.483309
1110.000000	61.586148
1100.000000	61.676388
1090.000000	61.672145
1080.000000	61.616909
1070.000000	61.506757
1060.000000	61.331284
1050.000000	61.217091
1040.000000	61.166792
1030.000000	61.081775
1020.000000	61.058672
1010.000000	61.198194
1000.000000	61.438835
990.000000	61.572627
980.000000	61.666617
970.000000	61.776522
960.000000	61.930365
950.000000	62.037273
940.000000	62.056108
930.000000	62.003213
920.000000	62.004022
910.000000	62.083026
900.000000	62.237615
890.000000	62.481741
880.000000	62.587340
870.000000	62.778567
860.000000	62.762306
850.000000	62.176296
840.000000	61.847014
830.000000	62.009939
820.000000	62.017782
810.000000	61.989884
800.000000	61.848104
790.000000	61.764198
780.000000	61.798740
770.000000	61.644118
760.000000	61.540818
750.000000	61.511400
740.000000	61.445304
730.000000	61.205713
720.000000	61.057998
710.000000	60.992830
700.000000	60.693548
690.000000	60.438577
680.000000	60.201203
670.000000	59.807644
660.000000	59.436419
650.000000	59.055302
640.000000	58.638500
630.000000	58.044583
620.000000	57.441825
610.000000	56.883335
600.000000	56.409201
590.000000	55.939204
580.000000	55.327533
570.000000	54.752006
560.000000	54.202823
550.000000	53.631237
540.000000	52.962707
530.000000	52.212142
520.000000	51.456549
510.000000	50.582282
500.000000	49.481699
490.000000	48.148263
480.000000	46.585343
470.000000	44.675498
460.000000	42.468413
450.000000	39.942026
440.000000	37.015892
430.000000	33.656792
420.000000	30.164259
410.000000	27.571166
400.000000	26.215782
390.000000	25.183247
380.000000	23.888062
370.000000	22.246942
360.000000	20.437393
350.000000	18.775380
340.000000	17.423846
330.000000	16.179236
320.000000	14.943750
310.000000	13.561235
300.000000	11.774883
290.000000	10.057973
280.000000	9.365548
270.000000	9.229187
260.000000	9.334571
250.000000	9.465456
