PE UV       SUBTECH     SPECTRUM    ASCII       PEDS        4.00        
   -1
3S-N10-C028.Sample.Cycle1.Raw.asc
22/03/29
16:44:28.00
22/03/29
16:44:28.00
Administrator

250.000000
1
Lambda 750
750N8071901
PerkinElmer UV WinLab 6.0.4.0738 / 1.61.00 Lambda 900

0
0
3350/servo 860.8/2
0
0
UV/VIS
1
1
1
CommonBeamDepol,150mm sphere / downward view
0
0
0
0
Program
Program
3350/servo 860.8/2
3350/0.2 860.8/0.2
3350/0.2 860.8/0.2
0
1
 
 
 
0
 
860.8
319.2
860.8
Front
100
on
 
 
0
0
0
 
0
 
 
 
0
 
 
0
0
0
0
0
 
 
 
 
0
0


0
0
#HDR
-1
-1
#GR
nm
%R
1.0
0.0
2500.000000
-10.000000
226
8
53.324661
15.408509
#DATA
2500.000000	23.023230
2490.000000	23.134498
2480.000000	22.809693
2470.000000	21.800639
2460.000000	23.868681
2450.000000	24.396319
2440.000000	23.588680
2430.000000	24.397593
2420.000000	25.553022
2410.000000	26.201637
2400.000000	26.499612
2390.000000	25.905439
2380.000000	25.909101
2370.000000	26.700103
2360.000000	25.358879
2350.000000	26.755760
2340.000000	26.208813
2330.000000	27.184985
2320.000000	26.305620
2310.000000	25.618023
2300.000000	25.427593
2290.000000	25.044566
2280.000000	24.288699
2270.000000	25.183286
2260.000000	26.251767
2250.000000	26.954004
2240.000000	27.762931
2230.000000	28.706107
2220.000000	29.293257
2210.000000	28.993253
2200.000000	28.595451
2190.000000	27.798293
2180.000000	28.473716
2170.000000	27.834806
2160.000000	28.381559
2150.000000	29.126398
2140.000000	29.085891
2130.000000	29.721024
2120.000000	30.639114
2110.000000	31.003196
2100.000000	31.384518
2090.000000	31.071204
2080.000000	31.151393
2070.000000	30.578336
2060.000000	30.076672
2050.000000	28.913893
2040.000000	28.436850
2030.000000	28.723013
2020.000000	28.980752
2010.000000	29.159227
2000.000000	28.542424
1990.000000	27.944305
1980.000000	27.177530
1970.000000	26.399570
1960.000000	25.574156
1950.000000	25.085618
1940.000000	24.923674
1930.000000	25.406301
1920.000000	26.742416
1910.000000	28.743906
1900.000000	31.565152
1890.000000	34.957342
1880.000000	38.024444
1870.000000	39.939099
1860.000000	40.721500
1850.000000	41.351036
1840.000000	41.330904
1830.000000	41.384767
1820.000000	40.964574
1810.000000	40.785648
1800.000000	40.459576
1790.000000	40.281746
1780.000000	40.149802
1770.000000	39.775397
1760.000000	39.602907
1750.000000	39.335029
1740.000000	39.023304
1730.000000	38.891311
1720.000000	39.123216
1710.000000	39.829051
1700.000000	40.173820
1690.000000	40.429367
1680.000000	41.302505
1670.000000	42.430751
1660.000000	43.112723
1650.000000	43.382888
1640.000000	43.278722
1630.000000	42.992532
1620.000000	42.623800
1610.000000	42.272789
1600.000000	41.927844
1590.000000	41.606859
1580.000000	41.290505
1570.000000	40.976288
1560.000000	40.698354
1550.000000	40.398566
1540.000000	39.874674
1530.000000	39.309629
1520.000000	38.944687
1510.000000	38.802279
1500.000000	38.733225
1490.000000	38.748435
1480.000000	38.915295
1470.000000	39.124306
1460.000000	39.396573
1450.000000	39.814813
1440.000000	40.461207
1430.000000	41.216410
1420.000000	42.171007
1410.000000	43.365203
1400.000000	44.892121
1390.000000	46.392085
1380.000000	47.436057
1370.000000	47.949310
1360.000000	48.325057
1350.000000	48.453291
1340.000000	48.419128
1330.000000	48.376397
1320.000000	48.567488
1310.000000	48.961811
1300.000000	49.278279
1290.000000	49.426542
1280.000000	49.368947
1270.000000	49.216625
1260.000000	49.167503
1250.000000	49.226548
1240.000000	49.176718
1230.000000	49.026551
1220.000000	48.832636
1210.000000	48.623294
1200.000000	48.434245
1190.000000	48.472479
1180.000000	48.748866
1170.000000	49.183813
1160.000000	49.662348
1150.000000	50.120738
1140.000000	50.472364
1130.000000	50.688095
1120.000000	50.826834
1110.000000	50.873033
1100.000000	50.944497
1090.000000	51.027259
1080.000000	51.014761
1070.000000	51.036954
1060.000000	51.086663
1050.000000	51.117862
1040.000000	51.177685
1030.000000	51.331520
1020.000000	51.514472
1010.000000	51.837920
1000.000000	52.174760
990.000000	52.274966
980.000000	52.312990
970.000000	52.427241
960.000000	52.537613
950.000000	52.730248
940.000000	52.821587
930.000000	52.784322
920.000000	52.807080
910.000000	52.860467
900.000000	52.922314
890.000000	53.186924
880.000000	53.324661
870.000000	53.300254
860.000000	53.153864
850.000000	52.548488
840.000000	51.496003
830.000000	51.567521
820.000000	51.760169
810.000000	51.720956
800.000000	51.700867
790.000000	51.749184
780.000000	51.766572
770.000000	51.844155
760.000000	51.839716
750.000000	51.867056
740.000000	51.810740
730.000000	51.801065
720.000000	51.751252
710.000000	51.813847
700.000000	51.834928
690.000000	51.760535
680.000000	51.683464
670.000000	51.623517
660.000000	51.595263
650.000000	51.614618
640.000000	51.549422
630.000000	51.459781
620.000000	51.452548
610.000000	51.409322
600.000000	51.354729
590.000000	51.306933
580.000000	51.309709
570.000000	51.251075
560.000000	51.181087
550.000000	51.074703
540.000000	50.822793
530.000000	50.503607
520.000000	50.069771
510.000000	49.603664
500.000000	49.138248
490.000000	48.673028
480.000000	48.299016
470.000000	47.977087
460.000000	47.380314
450.000000	46.525202
440.000000	45.725238
430.000000	44.706352
420.000000	43.379140
410.000000	42.016817
400.000000	40.783322
390.000000	39.783797
380.000000	38.792572
370.000000	37.832185
360.000000	36.893035
350.000000	35.508456
340.000000	34.030959
330.000000	32.397515
320.000000	30.788780
310.000000	29.299946
300.000000	26.817133
290.000000	21.912398
280.000000	18.154245
270.000000	17.169561
260.000000	16.858123
250.000000	15.408509
