PE UV       SUBTECH     SPECTRUM    ASCII       PEDS        4.00        
   -1
3S-N10-F007.Sample.Raw.asc
22/03/03
16:57:34.00
22/03/03
16:57:34.00
Administrator

250.000000
1
Lambda 750
750N8071901
PerkinElmer UV WinLab 6.0.4.0738 / 1.61.00 Lambda 900

0
0
3350/servo 860.8/2
0
0
UV/VIS
1
1
1
CommonBeamDepol,150mm sphere / downward view
0
0
0
0
Program
Program
3350/servo 860.8/2
3350/0.2 860.8/0.2
3350/0.2 860.8/0.2
0
1
 
 
 
0
 
860.8
319.2
860.8
Front
100
on
 
 
0
0
0
 
0
 
 
 
0
 
 
0
0
0
0
0
 
 
 
 
0
0


0
0
#HDR
-1
-1
#GR
nm
%R
1.0
0.0
2500.000000
-10.000000
226
8
69.488950
10.858872
#DATA
2500.000000	16.464547
2490.000000	14.296614
2480.000000	16.102748
2470.000000	12.028457
2460.000000	19.752535
2450.000000	17.822171
2440.000000	17.683243
2430.000000	17.203733
2420.000000	21.578543
2410.000000	12.984754
2400.000000	18.729368
2390.000000	18.783119
2380.000000	15.831697
2370.000000	15.094731
2360.000000	16.730766
2350.000000	19.838069
2340.000000	22.368574
2330.000000	19.326759
2320.000000	15.632677
2310.000000	22.178414
2300.000000	17.110244
2290.000000	17.569150
2280.000000	18.003117
2270.000000	17.911778
2260.000000	19.174625
2250.000000	18.341844
2240.000000	20.025393
2230.000000	21.688077
2220.000000	22.068369
2210.000000	20.115196
2200.000000	20.376301
2190.000000	21.541440
2180.000000	20.291348
2170.000000	20.691248
2160.000000	20.720207
2150.000000	21.525762
2140.000000	23.048950
2130.000000	22.173004
2120.000000	23.676314
2110.000000	24.441325
2100.000000	25.995751
2090.000000	23.546301
2080.000000	23.933184
2070.000000	24.248184
2060.000000	22.632669
2050.000000	21.353806
2040.000000	20.348001
2030.000000	20.516514
2020.000000	21.225914
2010.000000	21.469395
2000.000000	20.676170
1990.000000	20.101062
1980.000000	19.538999
1970.000000	18.174898
1960.000000	16.920437
1950.000000	16.168864
1940.000000	15.790250
1930.000000	16.488234
1920.000000	18.673905
1910.000000	21.865893
1900.000000	26.193904
1890.000000	32.172316
1880.000000	37.772154
1870.000000	42.147491
1860.000000	44.688589
1850.000000	45.539075
1840.000000	45.317172
1830.000000	45.164916
1820.000000	44.912437
1810.000000	44.493842
1800.000000	43.533920
1790.000000	42.613445
1780.000000	41.954284
1770.000000	41.259314
1760.000000	40.866982
1750.000000	40.085784
1740.000000	39.057455
1730.000000	38.789446
1720.000000	39.658626
1710.000000	41.105488
1700.000000	41.846590
1690.000000	42.840829
1680.000000	44.667654
1670.000000	47.164553
1660.000000	48.678169
1650.000000	49.442876
1640.000000	49.405062
1630.000000	48.889311
1620.000000	48.112374
1610.000000	46.907232
1600.000000	45.883827
1590.000000	44.888714
1580.000000	43.885558
1570.000000	43.285943
1560.000000	42.739952
1550.000000	42.349655
1540.000000	41.594007
1530.000000	40.380388
1520.000000	39.317251
1510.000000	38.678722
1500.000000	38.216046
1490.000000	38.061813
1480.000000	38.548454
1470.000000	39.171394
1460.000000	39.752124
1450.000000	40.636849
1440.000000	41.800407
1430.000000	43.049879
1420.000000	44.858253
1410.000000	47.767537
1400.000000	51.970213
1390.000000	56.501158
1380.000000	59.494168
1370.000000	60.436661
1360.000000	61.263147
1350.000000	62.069519
1340.000000	62.584266
1330.000000	63.584472
1320.000000	65.064012
1310.000000	66.293870
1300.000000	66.629016
1290.000000	66.624316
1280.000000	66.527893
1270.000000	66.347246
1260.000000	66.247415
1250.000000	65.846766
1240.000000	65.398970
1230.000000	65.212991
1220.000000	64.914216
1210.000000	64.404520
1200.000000	63.618339
1190.000000	63.174055
1180.000000	63.653758
1170.000000	64.627574
1160.000000	65.989357
1150.000000	67.293277
1140.000000	68.560717
1130.000000	69.333635
1120.000000	69.410481
1110.000000	69.246850
1100.000000	69.323482
1090.000000	69.283037
1080.000000	69.114793
1070.000000	69.114917
1060.000000	69.110155
1050.000000	68.976111
1040.000000	68.883866
1030.000000	68.718043
1020.000000	68.691592
1010.000000	68.979025
1000.000000	69.297103
990.000000	69.427459
980.000000	69.266068
970.000000	69.237334
960.000000	69.422298
950.000000	69.484574
940.000000	69.488950
930.000000	69.211879
920.000000	68.901512
910.000000	68.933468
900.000000	69.030780
890.000000	69.166437
880.000000	68.833817
870.000000	68.501057
860.000000	67.777877
850.000000	67.909269
840.000000	68.819252
830.000000	68.778088
820.000000	68.692262
810.000000	68.478679
800.000000	68.449594
790.000000	68.255715
780.000000	68.332372
770.000000	68.324228
760.000000	68.125995
750.000000	68.135716
740.000000	68.083236
730.000000	67.730549
720.000000	67.656410
710.000000	67.522429
700.000000	67.263334
690.000000	67.130763
680.000000	66.773519
670.000000	66.503107
660.000000	66.217821
650.000000	65.739080
640.000000	65.285690
630.000000	64.796930
620.000000	64.183418
610.000000	63.593996
600.000000	63.100764
590.000000	62.515086
580.000000	61.823783
570.000000	61.181508
560.000000	60.584170
550.000000	59.790776
540.000000	58.967999
530.000000	58.108271
520.000000	57.282104
510.000000	56.274642
500.000000	55.254650
490.000000	54.180454
480.000000	52.644407
470.000000	50.565167
460.000000	48.248895
450.000000	45.694395
440.000000	42.514392
430.000000	38.889145
420.000000	35.292685
410.000000	32.508880
400.000000	31.080755
390.000000	29.952676
380.000000	28.536461
370.000000	26.877091
360.000000	24.996716
350.000000	23.249123
340.000000	21.549227
330.000000	19.816600
320.000000	18.541834
310.000000	16.972194
300.000000	14.037765
290.000000	11.935137
280.000000	11.033442
270.000000	10.858872
260.000000	10.871873
250.000000	11.041501
