PE UV       SUBTECH     SPECTRUM    ASCII       PEDS        4.00        
   -1
3S-N10-C019.Sample.Cycle1.Raw.asc
22/03/29
16:18:00.00
22/03/29
16:18:00.00
Administrator

250.000000
1
Lambda 750
750N8071901
PerkinElmer UV WinLab 6.0.4.0738 / 1.61.00 Lambda 900

0
0
3350/servo 860.8/2
0
0
UV/VIS
1
1
1
CommonBeamDepol,150mm sphere / downward view
0
0
0
0
Program
Program
3350/servo 860.8/2
3350/0.2 860.8/0.2
3350/0.2 860.8/0.2
0
1
 
 
 
0
 
860.8
319.2
860.8
Front
100
on
 
 
0
0
0
 
0
 
 
 
0
 
 
0
0
0
0
0
 
 
 
 
0
0


0
0
#HDR
-1
-1
#GR
nm
%R
1.0
0.0
2500.000000
-10.000000
226
8
52.069201
14.432918
#DATA
2500.000000	22.429170
2490.000000	23.258373
2480.000000	21.749542
2470.000000	21.853001
2460.000000	23.379555
2450.000000	24.404463
2440.000000	25.410213
2430.000000	25.750993
2420.000000	26.685216
2410.000000	26.816761
2400.000000	26.620080
2390.000000	27.562593
2380.000000	27.407280
2370.000000	25.613234
2360.000000	26.612951
2350.000000	26.713613
2340.000000	26.018563
2330.000000	27.393773
2320.000000	27.237556
2310.000000	26.530668
2300.000000	25.874661
2290.000000	24.881522
2280.000000	25.378440
2270.000000	25.664442
2260.000000	25.424345
2250.000000	26.985336
2240.000000	28.081587
2230.000000	28.587657
2220.000000	29.435333
2210.000000	29.113136
2200.000000	28.781067
2190.000000	28.272277
2180.000000	28.241910
2170.000000	27.726838
2160.000000	28.485408
2150.000000	29.929295
2140.000000	29.766815
2130.000000	30.019952
2120.000000	30.968256
2110.000000	31.003196
2100.000000	31.341279
2090.000000	31.613306
2080.000000	31.565535
2070.000000	31.021707
2060.000000	30.153458
2050.000000	29.221458
2040.000000	28.817259
2030.000000	28.776504
2020.000000	29.284882
2010.000000	29.365972
2000.000000	28.903571
1990.000000	28.296691
1980.000000	27.585733
1970.000000	26.908780
1960.000000	25.972534
1950.000000	25.332113
1940.000000	25.355214
1930.000000	25.849091
1920.000000	27.259375
1910.000000	28.842937
1900.000000	31.788537
1890.000000	35.039111
1880.000000	37.607499
1870.000000	39.615418
1860.000000	40.442031
1850.000000	40.935648
1840.000000	41.113218
1830.000000	40.792641
1820.000000	40.494516
1810.000000	40.345408
1800.000000	40.087309
1790.000000	39.907954
1780.000000	39.709590
1770.000000	39.436960
1760.000000	39.151602
1750.000000	38.949337
1740.000000	38.684360
1730.000000	38.441128
1720.000000	38.718586
1710.000000	39.288616
1700.000000	39.723415
1690.000000	40.000788
1680.000000	40.750761
1670.000000	41.885883
1660.000000	42.534277
1650.000000	42.710935
1640.000000	42.633476
1630.000000	42.416218
1620.000000	42.080259
1610.000000	41.739320
1600.000000	41.348986
1590.000000	41.059888
1580.000000	40.757323
1570.000000	40.485520
1560.000000	40.228192
1550.000000	39.922825
1540.000000	39.465941
1530.000000	38.907810
1520.000000	38.585242
1510.000000	38.473267
1500.000000	38.339399
1490.000000	38.361002
1480.000000	38.536160
1470.000000	38.723170
1460.000000	38.932967
1450.000000	39.360628
1440.000000	39.958539
1430.000000	40.667262
1420.000000	41.552346
1410.000000	42.658547
1400.000000	44.089812
1390.000000	45.548990
1380.000000	46.522153
1370.000000	47.038992
1360.000000	47.360452
1350.000000	47.483636
1340.000000	47.432834
1330.000000	47.360958
1320.000000	47.534103
1310.000000	47.887121
1300.000000	48.224435
1290.000000	48.393859
1280.000000	48.324389
1270.000000	48.168766
1260.000000	48.168690
1250.000000	48.247605
1240.000000	48.262570
1230.000000	48.070268
1220.000000	47.762335
1210.000000	47.466897
1200.000000	47.305781
1190.000000	47.373239
1180.000000	47.678979
1170.000000	48.127130
1160.000000	48.588415
1150.000000	48.986571
1140.000000	49.319464
1130.000000	49.556203
1120.000000	49.693363
1110.000000	49.724752
1100.000000	49.798932
1090.000000	49.826716
1080.000000	49.830120
1070.000000	49.844525
1060.000000	49.889263
1050.000000	49.932537
1040.000000	49.986179
1030.000000	50.086868
1020.000000	50.256654
1010.000000	50.613312
1000.000000	50.938274
990.000000	51.048309
980.000000	51.116070
970.000000	51.198522
960.000000	51.235830
950.000000	51.354814
940.000000	51.401190
930.000000	51.463075
920.000000	51.508376
910.000000	51.517624
900.000000	51.614063
890.000000	51.999521
880.000000	52.069201
870.000000	52.059568
860.000000	51.927732
850.000000	51.195774
840.000000	50.428708
830.000000	50.398929
820.000000	50.421570
810.000000	50.533367
800.000000	50.628462
790.000000	50.608394
780.000000	50.556209
770.000000	50.617721
760.000000	50.599709
750.000000	50.570448
740.000000	50.578428
730.000000	50.574627
720.000000	50.527306
710.000000	50.498746
700.000000	50.541097
690.000000	50.431465
680.000000	50.390706
670.000000	50.368644
660.000000	50.288896
650.000000	50.241111
640.000000	50.142227
630.000000	50.028116
620.000000	49.930626
610.000000	49.847239
600.000000	49.798617
590.000000	49.750773
580.000000	49.692816
570.000000	49.595472
560.000000	49.540599
550.000000	49.441732
540.000000	49.205047
530.000000	48.907913
520.000000	48.469811
510.000000	47.946673
500.000000	47.481475
490.000000	47.020670
480.000000	46.615946
470.000000	46.195334
460.000000	45.547126
450.000000	44.786946
440.000000	43.930369
430.000000	42.817625
420.000000	41.469649
410.000000	40.106130
400.000000	38.936654
390.000000	37.959441
380.000000	36.935878
370.000000	36.014634
360.000000	35.147463
350.000000	33.792836
340.000000	32.456042
330.000000	30.849969
320.000000	29.236673
310.000000	28.047071
300.000000	25.359100
290.000000	20.679816
280.000000	17.151406
270.000000	16.275886
260.000000	15.892647
250.000000	14.432918
