PE UV       SUBTECH     SPECTRUM    ASCII       PEDS        4.00        
   -1
Hull_1568_side2.Sample.asc
23/09/08
12:01:49.00
23/09/08
12:01:49.00
Administrator

250.000000
1
Lambda 750
750N8071901
PerkinElmer UV WinLab 6.0.4.0738 / 1.61.00 Lambda 900

0
0
3350/servo 860.8/2
0
0
UV/VIS
1
1
1
CommonBeamDepol,150mm sphere / downward view
0
0
0
0
Program
Program
3350/servo 860.8/2
3350/0.2 860.8/0.2
3350/0.2 860.8/0.2
0
1
 
 
 
0
 
860.8
319.2
860.8
Front
100
on
 
 
0
0
0
 
0
 
 
 
0
 
 
0
0
0
0
0
 
 
 
 
0
0


0
0
#HDR
-1
-1
#GR
nm
%R
1.0
0.0
2500.000000
-10.000000
226
8
73.054272
8.690050
#DATA
2500.000000	17.110570
2490.000000	18.926062
2480.000000	19.319390
2470.000000	19.471888
2460.000000	19.933838
2450.000000	14.194441
2440.000000	21.024797
2430.000000	27.562426
2420.000000	22.513623
2410.000000	22.348872
2400.000000	21.375873
2390.000000	27.412275
2380.000000	21.583435
2370.000000	23.913608
2360.000000	24.308815
2350.000000	21.318804
2340.000000	21.827945
2330.000000	21.289775
2320.000000	20.396807
2310.000000	19.440440
2300.000000	20.454279
2290.000000	20.605219
2280.000000	22.435232
2270.000000	22.421115
2260.000000	28.603190
2250.000000	28.379177
2240.000000	27.227894
2230.000000	29.827522
2220.000000	24.998231
2210.000000	26.358593
2200.000000	25.771312
2190.000000	25.760464
2180.000000	25.720110
2170.000000	29.172144
2160.000000	28.526266
2150.000000	28.676989
2140.000000	31.386624
2130.000000	29.688163
2120.000000	31.764717
2110.000000	32.633414
2100.000000	30.511284
2090.000000	30.113621
2080.000000	26.516189
2070.000000	25.927719
2060.000000	24.878175
2050.000000	26.157495
2040.000000	26.849766
2030.000000	25.660781
2020.000000	25.862782
2010.000000	23.220524
2000.000000	21.660041
1990.000000	20.940989
1980.000000	19.695917
1970.000000	17.526882
1960.000000	17.814451
1950.000000	18.532293
1940.000000	21.015275
1930.000000	25.125153
1920.000000	31.340980
1910.000000	37.454590
1900.000000	43.490382
1890.000000	48.068924
1880.000000	50.940873
1870.000000	52.473713
1860.000000	52.319384
1850.000000	52.482672
1840.000000	51.848364
1830.000000	51.874922
1820.000000	51.075061
1810.000000	50.871272
1800.000000	50.421094
1790.000000	49.891664
1780.000000	49.585751
1770.000000	49.019344
1760.000000	48.160565
1750.000000	47.990845
1740.000000	48.552976
1730.000000	49.649053
1720.000000	50.339546
1710.000000	51.010227
1700.000000	52.339181
1690.000000	53.977446
1680.000000	55.307828
1670.000000	56.052813
1660.000000	56.158507
1650.000000	56.047200
1640.000000	55.461654
1630.000000	54.264509
1620.000000	53.660849
1610.000000	52.820159
1600.000000	52.186568
1590.000000	51.763966
1580.000000	51.113123
1570.000000	50.661440
1560.000000	49.813343
1550.000000	48.838308
1540.000000	47.999003
1530.000000	47.074700
1520.000000	46.818970
1510.000000	46.674927
1500.000000	46.224841
1490.000000	46.667621
1480.000000	46.883082
1470.000000	47.409439
1460.000000	48.420499
1450.000000	49.810550
1440.000000	51.623073
1430.000000	54.067295
1420.000000	57.107040
1410.000000	59.994292
1400.000000	62.223371
1390.000000	63.425905
1380.000000	64.063196
1370.000000	64.808399
1360.000000	65.647254
1350.000000	66.301566
1340.000000	66.823618
1330.000000	67.140147
1320.000000	67.270935
1310.000000	67.499430
1300.000000	67.976880
1290.000000	67.948661
1280.000000	68.168638
1270.000000	68.202293
1260.000000	68.063652
1250.000000	67.938146
1240.000000	67.528128
1230.000000	67.437944
1220.000000	67.349423
1210.000000	67.090400
1200.000000	67.017900
1190.000000	67.251380
1180.000000	67.994306
1170.000000	68.790974
1160.000000	68.989875
1150.000000	69.464851
1140.000000	70.178784
1130.000000	70.451450
1120.000000	70.493337
1110.000000	70.772930
1100.000000	70.816408
1090.000000	70.877715
1080.000000	70.467133
1070.000000	70.661611
1060.000000	70.878478
1050.000000	70.631850
1040.000000	70.545194
1030.000000	70.504418
1020.000000	70.732323
1010.000000	70.744206
1000.000000	71.034328
990.000000	71.018619
980.000000	71.074840
970.000000	71.239695
960.000000	71.543988
950.000000	71.598991
940.000000	71.925045
930.000000	71.510559
920.000000	71.912726
910.000000	72.304349
900.000000	71.790208
890.000000	72.437367
880.000000	72.264074
870.000000	72.211341
860.000000	71.459755
850.000000	71.930987
840.000000	71.615153
830.000000	72.377537
820.000000	72.197632
810.000000	72.306979
800.000000	72.354136
790.000000	72.736470
780.000000	72.422387
770.000000	73.054272
760.000000	72.090610
750.000000	72.528861
740.000000	72.531488
730.000000	72.583569
720.000000	72.763093
710.000000	72.728635
700.000000	72.878047
690.000000	72.882571
680.000000	72.866107
670.000000	72.631527
660.000000	72.621462
650.000000	72.601912
640.000000	72.503704
630.000000	72.389208
620.000000	72.065761
610.000000	71.763706
600.000000	71.713951
590.000000	71.442338
580.000000	70.912150
570.000000	70.495217
560.000000	69.965694
550.000000	69.493143
540.000000	68.761501
530.000000	68.068918
520.000000	67.216533
510.000000	66.332147
500.000000	65.318254
490.000000	63.906297
480.000000	62.250879
470.000000	60.727528
460.000000	58.602221
450.000000	56.449119
440.000000	53.841571
430.000000	50.637045
420.000000	46.970036
410.000000	43.204875
400.000000	38.985612
390.000000	35.316870
380.000000	31.558641
370.000000	27.714338
360.000000	23.794766
350.000000	21.389378
340.000000	18.730704
330.000000	17.137886
320.000000	14.528939
310.000000	13.899707
300.000000	11.059490
290.000000	9.495656
280.000000	8.690050
270.000000	9.422799
260.000000	9.670296
250.000000	10.408587
