PE UV       SUBTECH     SPECTRUM    ASCII       PEDS        4.00        
   -1
S-11768-009.Sample.Raw.asc
23/01/26
17:00:10.00
23/01/26
17:00:10.00
Administrator

250.000000
1
Lambda 750
750N8071901
PerkinElmer UV WinLab 6.0.4.0738 / 1.61.00 Lambda 900

0
0
3350/servo 860.8/2
0
0
UV/VIS
1
1
1
CommonBeamDepol,150mm sphere / downward view
0
0
0
0
Program
Program
3350/servo 860.8/2
3350/0.2 860.8/0.2
3350/0.2 860.8/0.2
0
1
 
 
 
0
 
860.8
319.2
860.8
Front
100
on
 
 
0
0
0
 
0
 
 
 
0
 
 
0
0
0
0
0
 
 
 
 
0
0


0
0
#HDR
-1
-1
#GR
nm
%R
1.0
0.0
2500.000000
-10.000000
226
8
86.553698
15.689898
#DATA
2500.000000	24.137571
2490.000000	24.285871
2480.000000	24.218889
2470.000000	22.769926
2460.000000	23.877512
2450.000000	24.312675
2440.000000	24.700489
2430.000000	27.789013
2420.000000	26.920717
2410.000000	27.217156
2400.000000	28.055652
2390.000000	27.324415
2380.000000	26.278186
2370.000000	27.607229
2360.000000	28.523878
2350.000000	28.030177
2340.000000	26.742260
2330.000000	26.848658
2320.000000	26.156717
2310.000000	25.813175
2300.000000	25.365629
2290.000000	25.700923
2280.000000	27.293377
2270.000000	28.628288
2260.000000	30.763381
2250.000000	31.952543
2240.000000	32.506498
2230.000000	31.648905
2220.000000	30.926278
2210.000000	30.040234
2200.000000	29.960195
2190.000000	28.968100
2180.000000	29.902754
2170.000000	31.049786
2160.000000	32.915733
2150.000000	33.794686
2140.000000	35.498623
2130.000000	35.317527
2120.000000	35.909198
2110.000000	36.493582
2100.000000	35.573343
2090.000000	34.429176
2080.000000	33.083380
2070.000000	31.081554
2060.000000	30.722266
2050.000000	31.078992
2040.000000	32.071749
2030.000000	32.381106
2020.000000	31.289137
2010.000000	30.220116
2000.000000	29.041915
1990.000000	27.872828
1980.000000	26.271317
1970.000000	25.367712
1960.000000	25.311234
1950.000000	25.963133
1940.000000	28.009310
1930.000000	31.955390
1920.000000	37.027347
1910.000000	43.828951
1900.000000	49.680821
1890.000000	53.629281
1880.000000	55.944597
1870.000000	56.983515
1860.000000	56.906684
1850.000000	56.546905
1840.000000	56.463702
1830.000000	55.969280
1820.000000	55.742706
1810.000000	55.465003
1800.000000	55.081722
1790.000000	54.553459
1780.000000	54.097817
1770.000000	53.541227
1760.000000	53.098242
1750.000000	52.521184
1740.000000	52.804784
1730.000000	54.090477
1720.000000	54.920585
1710.000000	55.388306
1700.000000	56.505376
1690.000000	58.569035
1680.000000	60.129479
1670.000000	60.923268
1660.000000	60.955234
1650.000000	60.687565
1640.000000	60.257007
1630.000000	59.703123
1620.000000	58.983650
1610.000000	58.210616
1600.000000	57.651797
1590.000000	57.053877
1580.000000	56.554660
1570.000000	56.220449
1560.000000	55.659403
1550.000000	54.587719
1540.000000	53.663921
1530.000000	53.155483
1520.000000	52.862022
1510.000000	52.754856
1500.000000	52.994793
1490.000000	53.421995
1480.000000	53.788332
1470.000000	54.453315
1460.000000	55.474937
1450.000000	56.789023
1440.000000	58.358451
1430.000000	60.320003
1420.000000	62.842516
1410.000000	65.670070
1400.000000	67.952180
1390.000000	69.366171
1380.000000	69.809381
1370.000000	70.226395
1360.000000	70.708761
1350.000000	71.128323
1340.000000	71.959960
1330.000000	73.391666
1320.000000	74.646846
1310.000000	75.353027
1300.000000	75.639401
1290.000000	75.594574
1280.000000	75.520037
1270.000000	75.328882
1260.000000	75.395957
1250.000000	75.444080
1240.000000	75.428626
1230.000000	75.054441
1220.000000	74.570287
1210.000000	74.459277
1200.000000	74.741371
1190.000000	75.322175
1180.000000	75.678686
1170.000000	76.545693
1160.000000	77.270926
1150.000000	77.812604
1140.000000	78.052185
1130.000000	78.231672
1120.000000	78.233844
1110.000000	78.421323
1100.000000	78.445337
1090.000000	78.343620
1080.000000	78.278808
1070.000000	78.225578
1060.000000	78.107933
1050.000000	77.966357
1040.000000	77.812538
1030.000000	77.778404
1020.000000	78.209416
1010.000000	78.618544
1000.000000	78.826064
990.000000	78.843385
980.000000	79.050133
970.000000	79.390923
960.000000	79.522292
950.000000	79.654510
940.000000	79.827168
930.000000	79.919391
920.000000	80.241908
910.000000	80.303824
900.000000	80.623710
890.000000	80.807137
880.000000	80.849922
870.000000	81.050867
860.000000	81.466027
850.000000	84.675930
840.000000	85.219027
830.000000	84.937347
820.000000	84.993698
810.000000	85.173880
800.000000	85.418920
790.000000	85.525479
780.000000	85.521846
770.000000	85.780328
760.000000	85.708287
750.000000	86.088363
740.000000	85.965120
730.000000	86.312489
720.000000	86.301650
710.000000	86.416376
700.000000	86.499728
690.000000	86.516974
680.000000	86.449504
670.000000	86.459007
660.000000	86.549059
650.000000	86.553698
640.000000	86.415799
630.000000	86.270924
620.000000	85.989096
610.000000	85.793588
600.000000	85.422097
590.000000	85.110760
580.000000	84.539217
570.000000	84.210284
560.000000	83.634759
550.000000	82.803263
540.000000	81.957720
530.000000	81.157717
520.000000	80.135627
510.000000	78.975897
500.000000	77.544117
490.000000	75.855077
480.000000	73.954010
470.000000	72.052600
460.000000	69.811054
450.000000	67.137129
440.000000	63.966311
430.000000	60.453178
420.000000	56.184898
410.000000	51.905307
400.000000	47.467288
390.000000	43.426774
380.000000	39.381927
370.000000	35.239093
360.000000	31.395073
350.000000	28.393052
340.000000	25.494996
330.000000	23.471591
320.000000	21.712647
310.000000	20.220895
300.000000	18.942406
290.000000	16.582663
280.000000	15.689898
270.000000	15.734672
260.000000	16.447134
250.000000	16.551990
