PE UV       SUBTECH     SPECTRUM    ASCII       PEDS        4.00        
   -1
S-11753-001.Sample.Raw.asc
22/12/23
12:06:04.00
22/12/23
12:06:04.00
Administrator

250.000000
1
Lambda 750
750N8071901
PerkinElmer UV WinLab 6.0.4.0738 / 1.61.00 Lambda 900

0
0
3350/servo 860.8/2
0
0
UV/VIS
1
1
1
CommonBeamDepol,150mm sphere / downward view
0
0
0
0
Program
Program
3350/servo 860.8/2
3350/0.2 860.8/0.2
3350/0.2 860.8/0.2
0
1
 
 
 
0
 
860.8
319.2
860.8
Front
100
on
 
 
0
0
0
 
0
 
 
 
0
 
 
0
0
0
0
0
 
 
 
 
0
0


0
0
#HDR
-1
-1
#GR
nm
%R
1.0
0.0
2500.000000
-10.000000
226
8
69.702868
23.092291
#DATA
2500.000000	32.893505
2490.000000	34.532972
2480.000000	32.900818
2470.000000	32.332075
2460.000000	34.748488
2450.000000	35.290983
2440.000000	36.305651
2430.000000	36.960555
2420.000000	38.239756
2410.000000	37.534833
2400.000000	38.380106
2390.000000	37.849159
2380.000000	38.177881
2370.000000	36.788264
2360.000000	38.549641
2350.000000	38.428771
2340.000000	37.895081
2330.000000	36.497066
2320.000000	37.872515
2310.000000	36.468173
2300.000000	37.589081
2290.000000	37.454602
2280.000000	38.570033
2270.000000	39.066173
2260.000000	40.208811
2250.000000	41.530653
2240.000000	41.283275
2230.000000	40.938580
2220.000000	41.222907
2210.000000	40.028329
2200.000000	39.411182
2190.000000	39.473446
2180.000000	41.060161
2170.000000	40.901328
2160.000000	42.532692
2150.000000	43.104493
2140.000000	43.652534
2130.000000	43.760230
2120.000000	43.767742
2110.000000	43.792422
2100.000000	43.883993
2090.000000	42.465711
2080.000000	41.668436
2070.000000	40.890029
2060.000000	40.307719
2050.000000	40.194205
2040.000000	41.416994
2030.000000	41.327378
2020.000000	40.988506
2010.000000	39.877430
2000.000000	38.689355
1990.000000	38.154300
1980.000000	37.458295
1970.000000	36.726772
1960.000000	36.467825
1950.000000	37.117229
1940.000000	38.434588
1930.000000	40.961372
1920.000000	44.009300
1910.000000	47.662430
1900.000000	50.627565
1890.000000	52.427933
1880.000000	53.192772
1870.000000	53.919299
1860.000000	53.913050
1850.000000	53.720891
1840.000000	53.730822
1830.000000	53.507460
1820.000000	53.409203
1810.000000	53.380098
1800.000000	53.492034
1790.000000	53.366777
1780.000000	53.144529
1770.000000	52.992193
1760.000000	52.719655
1750.000000	52.576440
1740.000000	52.724953
1730.000000	53.192946
1720.000000	53.650913
1710.000000	53.864331
1700.000000	54.251267
1690.000000	54.950869
1680.000000	55.722215
1670.000000	56.005283
1660.000000	55.983668
1650.000000	55.918830
1640.000000	55.747971
1630.000000	55.511103
1620.000000	55.199184
1610.000000	55.061501
1600.000000	54.937910
1590.000000	54.632173
1580.000000	54.473393
1570.000000	54.230275
1560.000000	54.110267
1550.000000	53.637347
1540.000000	53.320828
1530.000000	53.143781
1520.000000	53.025812
1510.000000	53.014590
1500.000000	53.128519
1490.000000	53.212279
1480.000000	53.353072
1470.000000	53.630518
1460.000000	54.132234
1450.000000	54.674689
1440.000000	55.347403
1430.000000	56.009104
1420.000000	57.103583
1410.000000	58.449319
1400.000000	59.413155
1390.000000	59.982883
1380.000000	60.186813
1370.000000	60.189060
1360.000000	60.266093
1350.000000	59.963737
1340.000000	59.725158
1330.000000	60.522139
1320.000000	61.462750
1310.000000	62.228617
1300.000000	62.440884
1290.000000	62.552728
1280.000000	62.358003
1270.000000	62.171132
1260.000000	62.204649
1250.000000	62.359997
1240.000000	62.411915
1230.000000	62.245469
1220.000000	62.115002
1210.000000	62.076699
1200.000000	62.232183
1190.000000	62.482507
1180.000000	62.652758
1170.000000	62.993880
1160.000000	63.241251
1150.000000	63.402212
1140.000000	63.531258
1130.000000	63.596953
1120.000000	63.748316
1110.000000	63.840677
1100.000000	63.967637
1090.000000	63.994766
1080.000000	63.883565
1070.000000	63.873487
1060.000000	63.939860
1050.000000	64.090926
1040.000000	64.078351
1030.000000	64.234551
1020.000000	64.612942
1010.000000	64.964061
1000.000000	65.021276
990.000000	65.153657
980.000000	65.234348
970.000000	65.438840
960.000000	65.595604
950.000000	65.652433
940.000000	65.706584
930.000000	65.834210
920.000000	66.028355
910.000000	66.106088
900.000000	66.526339
890.000000	66.283213
880.000000	66.311688
870.000000	66.656283
860.000000	66.232462
850.000000	67.412944
840.000000	67.600488
830.000000	67.547354
820.000000	67.611288
810.000000	68.028478
800.000000	68.089679
790.000000	68.208705
780.000000	68.423738
770.000000	68.229630
760.000000	68.250049
750.000000	68.640267
740.000000	68.659845
730.000000	68.820386
720.000000	69.051849
710.000000	69.020875
700.000000	69.032922
690.000000	69.153593
680.000000	69.292384
670.000000	69.456625
660.000000	69.433893
650.000000	69.545665
640.000000	69.574402
630.000000	69.612497
620.000000	69.612770
610.000000	69.702868
600.000000	69.600656
590.000000	69.627309
580.000000	69.645149
570.000000	69.665355
560.000000	69.543135
550.000000	69.404951
540.000000	69.322182
530.000000	69.119867
520.000000	68.872486
510.000000	68.667342
500.000000	68.307057
490.000000	67.992088
480.000000	67.527977
470.000000	67.124166
460.000000	66.474834
450.000000	65.694147
440.000000	64.367168
430.000000	63.192789
420.000000	61.509329
410.000000	59.601758
400.000000	57.010736
390.000000	54.382467
380.000000	51.484102
370.000000	47.855612
360.000000	43.963632
350.000000	40.379893
340.000000	37.242960
330.000000	33.248229
320.000000	30.752730
310.000000	28.572099
300.000000	28.589164
290.000000	25.514047
280.000000	23.107444
270.000000	23.096219
260.000000	23.092291
250.000000	23.095662
