PE UV       SUBTECH     SPECTRUM    ASCII       PEDS        4.00        
   -1
S-11775-009.Sample.Raw.asc
23/01/26
18:13:18.00
23/01/26
18:13:18.00
Administrator

250.000000
1
Lambda 750
750N8071901
PerkinElmer UV WinLab 6.0.4.0738 / 1.61.00 Lambda 900

0
0
3350/servo 860.8/2
0
0
UV/VIS
1
1
1
CommonBeamDepol,150mm sphere / downward view
0
0
0
0
Program
Program
3350/servo 860.8/2
3350/0.2 860.8/0.2
3350/0.2 860.8/0.2
0
1
 
 
 
0
 
860.8
319.2
860.8
Front
100
on
 
 
0
0
0
 
0
 
 
 
0
 
 
0
0
0
0
0
 
 
 
 
0
0


0
0
#HDR
-1
-1
#GR
nm
%R
1.0
0.0
2500.000000
-10.000000
226
8
58.209145
12.820839
#DATA
2500.000000	18.742080
2490.000000	18.161836
2480.000000	21.504202
2470.000000	23.360487
2460.000000	21.728088
2450.000000	20.930413
2440.000000	22.084920
2430.000000	22.603256
2420.000000	24.021488
2410.000000	24.840766
2400.000000	23.181262
2390.000000	23.284420
2380.000000	20.312844
2370.000000	22.139637
2360.000000	22.791022
2350.000000	23.068167
2340.000000	21.270333
2330.000000	22.665010
2320.000000	21.276417
2310.000000	22.522393
2300.000000	21.834027
2290.000000	22.946262
2280.000000	23.045037
2270.000000	23.947294
2260.000000	25.156024
2250.000000	27.843633
2240.000000	28.422940
2230.000000	28.436806
2220.000000	28.857298
2210.000000	28.253487
2200.000000	28.273754
2190.000000	27.503354
2180.000000	28.331070
2170.000000	29.040910
2160.000000	29.082149
2150.000000	29.221691
2140.000000	30.650399
2130.000000	30.429760
2120.000000	31.135768
2110.000000	31.573455
2100.000000	31.173248
2090.000000	30.254036
2080.000000	29.906101
2070.000000	29.094202
2060.000000	29.276397
2050.000000	29.597622
2040.000000	30.250723
2030.000000	30.252471
2020.000000	29.719989
2010.000000	29.343075
2000.000000	28.895406
1990.000000	28.176464
1980.000000	27.205628
1970.000000	26.496893
1960.000000	26.525697
1950.000000	26.571878
1940.000000	27.479228
1930.000000	29.210524
1920.000000	31.926772
1910.000000	34.919336
1900.000000	37.000669
1890.000000	38.538947
1880.000000	39.808262
1870.000000	39.983393
1860.000000	39.839812
1850.000000	39.779178
1840.000000	39.741627
1830.000000	39.503832
1820.000000	39.435494
1810.000000	39.270531
1800.000000	39.026830
1790.000000	38.722998
1780.000000	38.575448
1770.000000	38.121778
1760.000000	37.884823
1750.000000	37.382045
1740.000000	37.054040
1730.000000	37.702343
1720.000000	38.425552
1710.000000	38.733030
1700.000000	39.283962
1690.000000	40.261419
1680.000000	41.034058
1670.000000	41.780546
1660.000000	42.220894
1650.000000	42.284998
1640.000000	42.237785
1630.000000	42.128016
1620.000000	42.008416
1610.000000	41.754084
1600.000000	41.584292
1590.000000	41.452606
1580.000000	41.329652
1570.000000	41.295479
1560.000000	41.093821
1550.000000	40.722702
1540.000000	40.452916
1530.000000	40.285965
1520.000000	40.095622
1510.000000	40.006012
1500.000000	40.008606
1490.000000	40.038006
1480.000000	40.150824
1470.000000	40.252503
1460.000000	40.445630
1450.000000	40.766376
1440.000000	41.123729
1430.000000	41.639701
1420.000000	42.783546
1410.000000	44.078908
1400.000000	45.354923
1390.000000	45.801376
1380.000000	45.946480
1370.000000	46.076291
1360.000000	46.029865
1350.000000	45.972523
1340.000000	46.220257
1330.000000	46.892639
1320.000000	47.587517
1310.000000	47.909392
1300.000000	48.096687
1290.000000	48.042648
1280.000000	47.988353
1270.000000	47.615282
1260.000000	47.674441
1250.000000	47.683896
1240.000000	47.802030
1230.000000	47.736856
1220.000000	47.448066
1210.000000	47.274797
1200.000000	47.296518
1190.000000	47.601739
1180.000000	47.766870
1170.000000	48.084138
1160.000000	48.408072
1150.000000	48.452209
1140.000000	48.724642
1130.000000	48.854313
1120.000000	49.061264
1110.000000	49.070284
1100.000000	49.112216
1090.000000	49.074740
1080.000000	49.180771
1070.000000	49.171157
1060.000000	49.220104
1050.000000	49.319823
1040.000000	49.266680
1030.000000	49.372525
1020.000000	49.778107
1010.000000	50.014595
1000.000000	50.070956
990.000000	49.934420
980.000000	50.114066
970.000000	50.277985
960.000000	50.383081
950.000000	50.416272
940.000000	50.513120
930.000000	50.366678
920.000000	50.446496
910.000000	50.784839
900.000000	50.645328
890.000000	50.937715
880.000000	50.739657
870.000000	51.174123
860.000000	51.125941
850.000000	57.792406
840.000000	58.209145
830.000000	58.062699
820.000000	58.032565
810.000000	57.980028
800.000000	58.072155
790.000000	58.038097
780.000000	58.002127
770.000000	57.861560
760.000000	57.674373
750.000000	57.833827
740.000000	57.699682
730.000000	57.567259
720.000000	57.432995
710.000000	57.411407
700.000000	57.095537
690.000000	56.936129
680.000000	56.690597
670.000000	56.473578
660.000000	56.271007
650.000000	56.157276
640.000000	55.835966
630.000000	55.517589
620.000000	55.145972
610.000000	54.744979
600.000000	54.272619
590.000000	53.809467
580.000000	53.216816
570.000000	52.676340
560.000000	52.053474
550.000000	51.106216
540.000000	50.371515
530.000000	49.675655
520.000000	48.803382
510.000000	47.618811
500.000000	46.423278
490.000000	45.367980
480.000000	44.188371
470.000000	42.770821
460.000000	41.250876
450.000000	39.879194
440.000000	38.245150
430.000000	36.937893
420.000000	35.419461
410.000000	34.302177
400.000000	34.521254
390.000000	35.685365
380.000000	36.337023
370.000000	35.644708
360.000000	33.112133
350.000000	28.366181
340.000000	23.496219
330.000000	20.090578
320.000000	17.557956
310.000000	17.232507
300.000000	15.723526
290.000000	13.226286
280.000000	12.820839
270.000000	13.265826
260.000000	14.393270
250.000000	15.015422
