PE UV       SUBTECH     SPECTRUM    ASCII       PEDS        4.00        
   -1
S-11775-002.Sample.Raw.asc
23/01/26
17:53:19.00
23/01/26
17:53:19.00
Administrator

250.000000
1
Lambda 750
750N8071901
PerkinElmer UV WinLab 6.0.4.0738 / 1.61.00 Lambda 900

0
0
3350/servo 860.8/2
0
0
UV/VIS
1
1
1
CommonBeamDepol,150mm sphere / downward view
0
0
0
0
Program
Program
3350/servo 860.8/2
3350/0.2 860.8/0.2
3350/0.2 860.8/0.2
0
1
 
 
 
0
 
860.8
319.2
860.8
Front
100
on
 
 
0
0
0
 
0
 
 
 
0
 
 
0
0
0
0
0
 
 
 
 
0
0


0
0
#HDR
-1
-1
#GR
nm
%R
1.0
0.0
2500.000000
-10.000000
226
8
77.203304
14.110998
#DATA
2500.000000	27.081604
2490.000000	29.310627
2480.000000	29.882127
2470.000000	27.986208
2460.000000	31.639878
2450.000000	30.894429
2440.000000	32.462994
2430.000000	33.437687
2420.000000	31.986121
2410.000000	35.617377
2400.000000	33.837386
2390.000000	33.355789
2380.000000	32.846245
2370.000000	33.377875
2360.000000	34.941732
2350.000000	34.062841
2340.000000	33.521379
2330.000000	32.931812
2320.000000	32.309519
2310.000000	32.191462
2300.000000	31.833146
2290.000000	33.154241
2280.000000	33.281658
2270.000000	35.812191
2260.000000	36.714260
2250.000000	37.770019
2240.000000	38.702321
2230.000000	38.110673
2220.000000	37.778822
2210.000000	35.991516
2200.000000	36.046995
2190.000000	35.629639
2180.000000	36.448591
2170.000000	37.309148
2160.000000	38.593867
2150.000000	39.588861
2140.000000	40.640624
2130.000000	40.637508
2120.000000	40.849623
2110.000000	40.940712
2100.000000	40.903612
2090.000000	40.073998
2080.000000	39.032214
2070.000000	37.635074
2060.000000	37.319202
2050.000000	37.271482
2040.000000	38.331497
2030.000000	38.334198
2020.000000	37.415976
2010.000000	36.625856
2000.000000	35.525503
1990.000000	34.023904
1980.000000	32.924761
1970.000000	32.215995
1960.000000	32.049188
1950.000000	32.583465
1940.000000	34.396331
1930.000000	37.231173
1920.000000	42.202411
1910.000000	47.225266
1900.000000	50.881126
1890.000000	53.565325
1880.000000	55.247175
1870.000000	55.383672
1860.000000	55.646136
1850.000000	55.510611
1840.000000	55.510391
1830.000000	55.303397
1820.000000	54.951151
1810.000000	54.517762
1800.000000	54.337533
1790.000000	53.964439
1780.000000	53.743405
1770.000000	53.395998
1760.000000	52.934001
1750.000000	52.721787
1740.000000	53.085048
1730.000000	54.042308
1720.000000	54.686271
1710.000000	55.001809
1700.000000	55.712459
1690.000000	56.855737
1680.000000	57.893126
1670.000000	58.298717
1660.000000	58.338918
1650.000000	58.247766
1640.000000	57.896633
1630.000000	57.572040
1620.000000	57.068169
1610.000000	56.659598
1600.000000	56.291603
1590.000000	55.993255
1580.000000	55.740207
1570.000000	55.755192
1560.000000	55.478412
1550.000000	54.815183
1540.000000	54.309749
1530.000000	53.972295
1520.000000	53.698170
1510.000000	53.522073
1500.000000	53.663520
1490.000000	53.977462
1480.000000	54.312914
1470.000000	54.696617
1460.000000	55.170901
1450.000000	55.880425
1440.000000	56.741448
1430.000000	57.810040
1420.000000	59.577449
1410.000000	61.567332
1400.000000	63.342479
1390.000000	64.182268
1380.000000	64.173053
1370.000000	64.623995
1360.000000	64.644399
1350.000000	64.632724
1340.000000	65.153794
1330.000000	66.604645
1320.000000	67.747398
1310.000000	68.328223
1300.000000	68.636456
1290.000000	68.763423
1280.000000	68.742186
1270.000000	68.348543
1260.000000	68.244041
1250.000000	68.257915
1240.000000	68.542235
1230.000000	68.518524
1220.000000	68.167437
1210.000000	67.892969
1200.000000	68.044746
1190.000000	68.563067
1180.000000	68.624538
1170.000000	69.091289
1160.000000	69.554987
1150.000000	69.743794
1140.000000	70.008891
1130.000000	70.017438
1120.000000	69.927144
1110.000000	69.836474
1100.000000	69.778555
1090.000000	69.833448
1080.000000	69.692289
1070.000000	69.539664
1060.000000	69.330359
1050.000000	69.177061
1040.000000	68.886918
1030.000000	68.780082
1020.000000	69.113123
1010.000000	69.440792
1000.000000	69.415811
990.000000	69.353420
980.000000	69.404866
970.000000	69.568685
960.000000	69.511226
950.000000	69.659773
940.000000	69.856410
930.000000	69.675086
920.000000	69.692859
910.000000	69.715136
900.000000	70.068144
890.000000	70.032835
880.000000	70.196027
870.000000	70.414565
860.000000	70.862955
850.000000	77.203304
840.000000	77.062258
830.000000	76.813999
820.000000	76.955035
810.000000	77.014783
800.000000	76.907011
790.000000	76.782548
780.000000	77.042280
770.000000	76.943829
760.000000	76.639143
750.000000	76.902745
740.000000	76.740482
730.000000	76.756522
720.000000	76.465188
710.000000	76.440744
700.000000	76.209035
690.000000	76.039582
680.000000	75.973748
670.000000	75.753030
660.000000	75.408184
650.000000	75.194978
640.000000	74.679647
630.000000	74.223880
620.000000	73.622655
610.000000	72.968340
600.000000	72.295441
590.000000	71.515612
580.000000	70.491630
570.000000	69.685836
560.000000	68.549232
550.000000	67.161604
540.000000	65.873324
530.000000	64.536632
520.000000	62.911856
510.000000	61.033105
500.000000	59.063011
490.000000	57.298774
480.000000	55.356034
470.000000	52.928151
460.000000	50.535228
450.000000	47.829042
440.000000	45.069835
430.000000	42.633106
420.000000	39.946235
410.000000	37.157875
400.000000	34.248586
390.000000	31.471348
380.000000	28.464222
370.000000	25.748109
360.000000	22.923283
350.000000	20.546799
340.000000	18.365097
330.000000	17.056935
320.000000	15.241138
310.000000	14.110998
300.000000	15.115302
290.000000	14.495848
280.000000	14.230395
270.000000	14.826186
260.000000	15.781503
250.000000	16.493272
