PE UV       SUBTECH     SPECTRUM    ASCII       PEDS        4.00        
   -1
S-11771-009.Sample.Raw.asc
23/01/26
17:38:45.00
23/01/26
17:38:45.00
Administrator

250.000000
1
Lambda 750
750N8071901
PerkinElmer UV WinLab 6.0.4.0738 / 1.61.00 Lambda 900

0
0
3350/servo 860.8/2
0
0
UV/VIS
1
1
1
CommonBeamDepol,150mm sphere / downward view
0
0
0
0
Program
Program
3350/servo 860.8/2
3350/0.2 860.8/0.2
3350/0.2 860.8/0.2
0
1
 
 
 
0
 
860.8
319.2
860.8
Front
100
on
 
 
0
0
0
 
0
 
 
 
0
 
 
0
0
0
0
0
 
 
 
 
0
0


0
0
#HDR
-1
-1
#GR
nm
%R
1.0
0.0
2500.000000
-10.000000
226
8
45.570624
16.117932
#DATA
2500.000000	18.072043
2490.000000	18.618321
2480.000000	20.432002
2470.000000	17.433158
2460.000000	18.401611
2450.000000	16.511857
2440.000000	18.599518
2430.000000	20.006347
2420.000000	21.512692
2410.000000	23.150820
2400.000000	20.700457
2390.000000	19.510095
2380.000000	18.806311
2370.000000	19.167583
2360.000000	19.916216
2350.000000	20.466697
2340.000000	18.436592
2330.000000	17.106499
2320.000000	18.089568
2310.000000	19.668529
2300.000000	18.344160
2290.000000	19.675632
2280.000000	19.089297
2270.000000	20.026638
2260.000000	21.568436
2250.000000	23.364581
2240.000000	24.575720
2230.000000	24.454135
2220.000000	24.938240
2210.000000	25.026030
2200.000000	24.565999
2190.000000	24.283036
2180.000000	24.407084
2170.000000	24.604388
2160.000000	25.169546
2150.000000	25.060090
2140.000000	26.013940
2130.000000	26.432745
2120.000000	26.384108
2110.000000	26.585794
2100.000000	26.415669
2090.000000	26.431939
2080.000000	26.229172
2070.000000	25.782466
2060.000000	25.750453
2050.000000	25.583937
2040.000000	26.353424
2030.000000	26.395182
2020.000000	26.342296
2010.000000	25.753291
2000.000000	25.534689
1990.000000	25.118662
1980.000000	24.495754
1970.000000	23.988492
1960.000000	24.067633
1950.000000	24.083477
1940.000000	24.554080
1930.000000	25.228496
1920.000000	26.941511
1910.000000	28.724660
1900.000000	30.214590
1890.000000	31.051632
1880.000000	31.512375
1870.000000	31.413257
1860.000000	31.556025
1850.000000	31.577832
1840.000000	31.358435
1830.000000	31.508714
1820.000000	31.416301
1810.000000	31.281914
1800.000000	31.132868
1790.000000	30.954955
1780.000000	30.638664
1770.000000	30.474218
1760.000000	30.160951
1750.000000	29.644638
1740.000000	29.454783
1730.000000	29.871416
1720.000000	30.429735
1710.000000	30.735067
1700.000000	31.024546
1690.000000	31.524942
1680.000000	32.250497
1670.000000	32.823810
1660.000000	33.164851
1650.000000	33.341760
1640.000000	33.293904
1630.000000	33.376913
1620.000000	33.235697
1610.000000	33.062345
1600.000000	33.106499
1590.000000	32.981414
1580.000000	32.942810
1570.000000	32.954355
1560.000000	32.829742
1550.000000	32.633045
1540.000000	32.529444
1530.000000	32.415974
1520.000000	32.378830
1510.000000	32.167027
1500.000000	32.259653
1490.000000	32.259034
1480.000000	32.240409
1470.000000	32.294993
1460.000000	32.370690
1450.000000	32.497968
1440.000000	32.528498
1430.000000	32.593954
1420.000000	33.166394
1410.000000	34.098676
1400.000000	35.058033
1390.000000	35.419241
1380.000000	35.364669
1370.000000	35.406844
1360.000000	35.265562
1350.000000	35.172017
1340.000000	35.251319
1330.000000	35.807686
1320.000000	36.427661
1310.000000	36.738018
1300.000000	36.904651
1290.000000	36.859614
1280.000000	36.810782
1270.000000	36.474059
1260.000000	36.473354
1250.000000	36.509546
1240.000000	36.708774
1230.000000	36.577323
1220.000000	36.410102
1210.000000	36.254961
1200.000000	36.257495
1190.000000	36.508588
1180.000000	36.553955
1170.000000	36.768690
1160.000000	36.970940
1150.000000	37.126621
1140.000000	37.290332
1130.000000	37.419916
1120.000000	37.465739
1110.000000	37.435564
1100.000000	37.424643
1090.000000	37.541043
1080.000000	37.633253
1070.000000	37.643729
1060.000000	37.656781
1050.000000	37.694932
1040.000000	37.626554
1030.000000	37.869136
1020.000000	38.232945
1010.000000	38.538255
1000.000000	38.511186
990.000000	38.464512
980.000000	38.534858
970.000000	38.631750
960.000000	38.522505
950.000000	38.573571
940.000000	38.611574
930.000000	38.627245
920.000000	38.690504
910.000000	38.849350
900.000000	39.056158
890.000000	39.176318
880.000000	39.147142
870.000000	39.432147
860.000000	39.905329
850.000000	45.358007
840.000000	45.492916
830.000000	45.463289
820.000000	45.438676
810.000000	45.408807
800.000000	45.311595
790.000000	45.570624
780.000000	45.531004
770.000000	45.555865
760.000000	45.324595
750.000000	45.535152
740.000000	45.449391
730.000000	45.531465
720.000000	45.348276
710.000000	45.494609
700.000000	45.405612
690.000000	45.343813
680.000000	45.320386
670.000000	45.238434
660.000000	45.343729
650.000000	45.430838
640.000000	45.340212
630.000000	45.304384
620.000000	45.267036
610.000000	45.212839
600.000000	45.101941
590.000000	45.155205
580.000000	45.025951
570.000000	45.023272
560.000000	44.915394
550.000000	44.714446
540.000000	44.691699
530.000000	44.662008
520.000000	44.575617
510.000000	44.198138
500.000000	43.820624
490.000000	43.937052
480.000000	43.587628
470.000000	43.067623
460.000000	42.543733
450.000000	42.317241
440.000000	41.644438
430.000000	40.998496
420.000000	40.140506
410.000000	39.503380
400.000000	39.862527
390.000000	41.228522
380.000000	42.028880
370.000000	41.180944
360.000000	37.291271
350.000000	32.322705
340.000000	27.066556
330.000000	22.744306
320.000000	20.666064
310.000000	19.852109
300.000000	23.315517
290.000000	17.917456
280.000000	16.359731
270.000000	16.117932
260.000000	16.773999
250.000000	16.570425
