PE UV       SUBTECH     SPECTRUM    ASCII       PEDS        4.00        
   -1
S-11768-007.Sample.Raw.asc
23/01/26
16:54:12.00
23/01/26
16:54:12.00
Administrator

250.000000
1
Lambda 750
750N8071901
PerkinElmer UV WinLab 6.0.4.0738 / 1.61.00 Lambda 900

0
0
3350/servo 860.8/2
0
0
UV/VIS
1
1
1
CommonBeamDepol,150mm sphere / downward view
0
0
0
0
Program
Program
3350/servo 860.8/2
3350/0.2 860.8/0.2
3350/0.2 860.8/0.2
0
1
 
 
 
0
 
860.8
319.2
860.8
Front
100
on
 
 
0
0
0
 
0
 
 
 
0
 
 
0
0
0
0
0
 
 
 
 
0
0


0
0
#HDR
-1
-1
#GR
nm
%R
1.0
0.0
2500.000000
-10.000000
226
8
83.569515
15.283478
#DATA
2500.000000	21.647755
2490.000000	22.720816
2480.000000	22.637592
2470.000000	21.279380
2460.000000	24.328871
2450.000000	23.018018
2440.000000	22.023981
2430.000000	24.705767
2420.000000	25.152389
2410.000000	27.608860
2400.000000	26.671584
2390.000000	25.433580
2380.000000	24.436408
2370.000000	24.093609
2360.000000	24.871150
2350.000000	26.581797
2340.000000	25.055991
2330.000000	23.506576
2320.000000	24.786349
2310.000000	24.329248
2300.000000	23.243402
2290.000000	24.575288
2280.000000	25.200007
2270.000000	27.024853
2260.000000	28.591763
2250.000000	30.089903
2240.000000	30.340072
2230.000000	29.402742
2220.000000	29.030509
2210.000000	28.003342
2200.000000	27.663071
2190.000000	27.251633
2180.000000	28.873988
2170.000000	29.415788
2160.000000	30.481225
2150.000000	31.588351
2140.000000	32.213744
2130.000000	32.649613
2120.000000	33.331284
2110.000000	34.396200
2100.000000	33.083496
2090.000000	31.963017
2080.000000	30.999582
2070.000000	28.933058
2060.000000	28.683339
2050.000000	28.746611
2040.000000	29.814830
2030.000000	29.756597
2020.000000	29.356189
2010.000000	28.078462
2000.000000	27.229699
1990.000000	26.226258
1980.000000	24.707396
1970.000000	23.866678
1960.000000	23.670654
1950.000000	24.209553
1940.000000	26.413219
1930.000000	29.571252
1920.000000	34.090162
1910.000000	40.269488
1900.000000	46.074597
1890.000000	49.653154
1880.000000	51.860452
1870.000000	53.102639
1860.000000	52.989038
1850.000000	52.473252
1840.000000	52.224878
1830.000000	51.869472
1820.000000	51.799849
1810.000000	51.734292
1800.000000	51.431934
1790.000000	50.977328
1780.000000	50.379440
1770.000000	49.967578
1760.000000	49.529078
1750.000000	49.090330
1740.000000	49.045710
1730.000000	50.206457
1720.000000	51.087311
1710.000000	51.390665
1700.000000	52.385854
1690.000000	54.279892
1680.000000	55.794466
1670.000000	56.642789
1660.000000	56.773596
1650.000000	56.379191
1640.000000	55.904832
1630.000000	55.486420
1620.000000	54.931121
1610.000000	54.255196
1600.000000	53.779875
1590.000000	53.246178
1580.000000	52.668246
1570.000000	52.231991
1560.000000	51.668703
1550.000000	50.711397
1540.000000	49.818099
1530.000000	49.363876
1520.000000	49.196979
1510.000000	49.077743
1500.000000	49.305834
1490.000000	49.543743
1480.000000	49.884013
1470.000000	50.463870
1460.000000	51.416350
1450.000000	52.694371
1440.000000	54.213982
1430.000000	56.062079
1420.000000	58.363889
1410.000000	60.978905
1400.000000	63.047858
1390.000000	64.486138
1380.000000	65.052436
1370.000000	65.034369
1360.000000	65.618288
1350.000000	66.035873
1340.000000	66.808388
1330.000000	68.229049
1320.000000	69.713427
1310.000000	70.616352
1300.000000	70.876065
1290.000000	70.769487
1280.000000	70.574745
1270.000000	70.403492
1260.000000	70.638468
1250.000000	70.753673
1240.000000	70.605970
1230.000000	70.065166
1220.000000	69.482172
1210.000000	69.589837
1200.000000	70.022810
1190.000000	70.537140
1180.000000	70.803612
1170.000000	71.626677
1160.000000	72.256869
1150.000000	72.589439
1140.000000	72.906841
1130.000000	73.004186
1120.000000	73.265262
1110.000000	73.508501
1100.000000	73.381100
1090.000000	73.243196
1080.000000	73.174420
1070.000000	73.091422
1060.000000	72.897216
1050.000000	72.786465
1040.000000	72.557146
1030.000000	72.676196
1020.000000	73.163483
1010.000000	73.666253
1000.000000	73.744244
990.000000	73.840346
980.000000	74.150216
970.000000	74.484972
960.000000	74.521248
950.000000	74.816072
940.000000	75.179061
930.000000	75.320338
920.000000	75.417518
910.000000	75.932198
900.000000	76.100116
890.000000	76.266704
880.000000	76.349203
870.000000	76.357129
860.000000	76.633591
850.000000	81.177947
840.000000	82.032323
830.000000	81.936134
820.000000	82.234187
810.000000	82.309027
800.000000	82.495682
790.000000	82.472698
780.000000	82.547259
770.000000	82.880356
760.000000	82.693672
750.000000	82.859288
740.000000	82.985356
730.000000	82.997137
720.000000	83.133022
710.000000	83.238421
700.000000	83.300565
690.000000	83.340700
680.000000	83.569515
670.000000	83.489015
660.000000	83.473268
650.000000	83.470413
640.000000	83.426379
630.000000	83.221279
620.000000	83.058851
610.000000	82.730854
600.000000	82.484181
590.000000	82.104383
580.000000	81.553246
570.000000	81.048875
560.000000	80.450364
550.000000	79.544708
540.000000	78.566174
530.000000	77.782837
520.000000	76.835010
510.000000	75.611830
500.000000	74.171795
490.000000	72.395859
480.000000	70.419267
470.000000	68.577264
460.000000	66.316727
450.000000	63.638037
440.000000	60.512921
430.000000	57.068447
420.000000	52.916749
410.000000	48.703625
400.000000	44.630375
390.000000	40.600187
380.000000	36.844334
370.000000	33.044572
360.000000	29.227349
350.000000	26.500523
340.000000	24.075281
330.000000	21.939115
320.000000	19.937100
310.000000	19.042803
300.000000	18.149755
290.000000	16.031820
280.000000	15.283478
270.000000	15.333136
260.000000	15.963956
250.000000	16.160594
