PE UV       SUBTECH     SPECTRUM    ASCII       PEDS        4.00        
   -1
TTChevreUK 62.Sample.asc
18/02/28
14:46:28.00
18/02/28
14:46:28.00
Administrator

200.000000
1
Lambda 750
750N8071901
PerkinElmer UV WinLab 6.0.4.0738 / 1.61.00 Lambda 900

0
0
3350/servo 860.8/2
0
0
UV/VIS
1
1
1
CommonBeamDepol,150mm sphere / downward view
0
0
0
0
Program
Program
3350/servo 860.8/2
3350/0.2 860.8/0.2
3350/0.2 860.8/0.2
0
1
 
 
 
0
 
860.8
319.2
860.8
Front
100
on
 
 
0
0
0
 
0
 
 
 
0
 
 
0
0
0
0
0
 
 
 
 
0
0


0
0
#HDR
-1
-1
#GR
nm
%T
1.0
0.0
2350.000000
-1.000000
2151
8
41.757512
0.306020
#DATA
2350.000000	12.618800
2349.000000	12.829692
2348.000000	12.559965
2347.000000	13.446057
2346.000000	12.882243
2345.000000	12.852212
2344.000000	12.940798
2343.000000	12.355204
2342.000000	12.587940
2341.000000	12.887143
2340.000000	12.804783
2339.000000	13.506674
2338.000000	13.313665
2337.000000	13.260647
2336.000000	13.165153
2335.000000	13.749694
2334.000000	13.378100
2333.000000	13.446742
2332.000000	13.881838
2331.000000	13.639928
2330.000000	13.325273
2329.000000	13.431483
2328.000000	13.043825
2327.000000	13.506855
2326.000000	13.466787
2325.000000	13.300721
2324.000000	13.145522
2323.000000	12.800729
2322.000000	13.251196
2321.000000	13.276055
2320.000000	13.194802
2319.000000	13.184973
2318.000000	13.112416
2317.000000	13.184678
2316.000000	12.821662
2315.000000	12.579874
2314.000000	12.885885
2313.000000	12.697619
2312.000000	12.531829
2311.000000	12.660697
2310.000000	12.784950
2309.000000	12.589088
2308.000000	12.281759
2307.000000	12.260389
2306.000000	12.054480
2305.000000	12.101743
2304.000000	12.006474
2303.000000	12.105829
2302.000000	12.094772
2301.000000	12.057550
2300.000000	11.973498
2299.000000	11.864676
2298.000000	11.696328
2297.000000	11.446950
2296.000000	11.312981
2295.000000	11.392793
2294.000000	11.602802
2293.000000	11.551836
2292.000000	11.433378
2291.000000	11.496780
2290.000000	11.478026
2289.000000	11.533950
2288.000000	11.373811
2287.000000	11.346179
2286.000000	11.342602
2285.000000	11.261164
2284.000000	11.371069
2283.000000	11.383102
2282.000000	11.272633
2281.000000	11.431580
2280.000000	11.333718
2279.000000	11.287348
2278.000000	11.161920
2277.000000	11.158036
2276.000000	11.220277
2275.000000	11.371762
2274.000000	11.611807
2273.000000	11.595054
2272.000000	11.537750
2271.000000	11.562943
2270.000000	11.494368
2269.000000	11.481643
2268.000000	11.547818
2267.000000	11.762494
2266.000000	11.916419
2265.000000	11.905826
2264.000000	12.099684
2263.000000	12.180975
2262.000000	12.232960
2261.000000	12.306794
2260.000000	12.311074
2259.000000	12.501200
2258.000000	12.810914
2257.000000	13.022808
2256.000000	13.242701
2255.000000	13.365858
2254.000000	13.414898
2253.000000	13.535728
2252.000000	13.603922
2251.000000	13.862323
2250.000000	14.168338
2249.000000	14.343710
2248.000000	14.416642
2247.000000	14.451971
2246.000000	14.744643
2245.000000	14.943890
2244.000000	15.006666
2243.000000	15.176876
2242.000000	15.333454
2241.000000	15.437865
2240.000000	15.475028
2239.000000	15.583230
2238.000000	15.800904
2237.000000	15.899110
2236.000000	16.019021
2235.000000	16.064849
2234.000000	16.023132
2233.000000	16.192707
2232.000000	16.233873
2231.000000	16.116970
2230.000000	16.185042
2229.000000	16.260586
2228.000000	16.360952
2227.000000	16.392149
2226.000000	16.278043
2225.000000	16.195226
2224.000000	16.141956
2223.000000	16.191807
2222.000000	16.267062
2221.000000	16.266202
2220.000000	16.227484
2219.000000	16.151892
2218.000000	16.210826
2217.000000	16.198994
2216.000000	16.069135
2215.000000	16.061246
2214.000000	16.027003
2213.000000	15.862538
2212.000000	15.924764
2211.000000	15.844604
2210.000000	15.765036
2209.000000	15.838168
2208.000000	15.883375
2207.000000	15.774579
2206.000000	15.609603
2205.000000	15.525069
2204.000000	15.447080
2203.000000	15.340908
2202.000000	15.283457
2201.000000	15.284056
2200.000000	15.132124
2199.000000	15.139157
2198.000000	15.041011
2197.000000	15.007683
2196.000000	14.862769
2195.000000	14.778694
2194.000000	14.785195
2193.000000	14.779753
2192.000000	14.644254
2191.000000	14.623087
2190.000000	14.503592
2189.000000	14.493061
2188.000000	14.279626
2187.000000	14.387782
2186.000000	14.503828
2185.000000	14.310045
2184.000000	14.214851
2183.000000	14.274146
2182.000000	14.324798
2181.000000	14.183679
2180.000000	14.005341
2179.000000	14.028266
2178.000000	14.026990
2177.000000	14.087897
2176.000000	14.155157
2175.000000	14.128747
2174.000000	13.979898
2173.000000	14.078915
2172.000000	14.135524
2171.000000	14.199073
2170.000000	14.144424
2169.000000	14.330863
2168.000000	14.341437
2167.000000	14.465131
2166.000000	14.328264
2165.000000	14.363834
2164.000000	14.541443
2163.000000	14.653197
2162.000000	14.693321
2161.000000	14.867336
2160.000000	14.977306
2159.000000	15.007757
2158.000000	15.152458
2157.000000	15.350002
2156.000000	15.446144
2155.000000	15.539553
2154.000000	15.745915
2153.000000	15.758175
2152.000000	15.883138
2151.000000	15.898036
2150.000000	16.006415
2149.000000	16.196778
2148.000000	16.417475
2147.000000	16.488256
2146.000000	16.590503
2145.000000	16.688403
2144.000000	16.874919
2143.000000	16.809605
2142.000000	16.997133
2141.000000	17.164993
2140.000000	17.370989
2139.000000	17.491836
2138.000000	17.562776
2137.000000	17.575191
2136.000000	17.852062
2135.000000	17.677384
2134.000000	17.913549
2133.000000	17.661449
2132.000000	17.988540
2131.000000	18.281787
2130.000000	18.383076
2129.000000	18.303913
2128.000000	18.348981
2127.000000	18.456925
2126.000000	18.413660
2125.000000	18.424878
2124.000000	18.757080
2123.000000	18.663865
2122.000000	18.653448
2121.000000	18.693215
2120.000000	18.615837
2119.000000	18.800512
2118.000000	18.737356
2117.000000	18.806844
2116.000000	18.954589
2115.000000	19.051079
2114.000000	19.049506
2113.000000	19.024014
2112.000000	19.067069
2111.000000	18.913542
2110.000000	18.946205
2109.000000	19.014789
2108.000000	19.036996
2107.000000	19.092741
2106.000000	19.042193
2105.000000	19.017636
2104.000000	19.034693
2103.000000	19.162435
2102.000000	19.127816
2101.000000	19.119947
2100.000000	19.230428
2099.000000	19.120808
2098.000000	19.133368
2097.000000	19.066010
2096.000000	19.119613
2095.000000	19.120673
2094.000000	19.202350
2093.000000	19.125681
2092.000000	19.236187
2091.000000	19.185074
2090.000000	19.054482
2089.000000	19.013134
2088.000000	19.078372
2087.000000	19.095023
2086.000000	19.019129
2085.000000	19.019734
2084.000000	18.996168
2083.000000	18.859751
2082.000000	18.881828
2081.000000	18.824270
2080.000000	18.710821
2079.000000	18.694391
2078.000000	18.575136
2077.000000	18.529773
2076.000000	18.390711
2075.000000	18.362782
2074.000000	18.345328
2073.000000	18.204736
2072.000000	18.082307
2071.000000	18.034746
2070.000000	17.922427
2069.000000	17.757639
2068.000000	17.643973
2067.000000	17.504159
2066.000000	17.392415
2065.000000	17.318667
2064.000000	17.155360
2063.000000	17.007303
2062.000000	16.866066
2061.000000	16.763765
2060.000000	16.643860
2059.000000	16.530738
2058.000000	16.445832
2057.000000	16.340620
2056.000000	16.189424
2055.000000	16.081902
2054.000000	15.972352
2053.000000	15.817752
2052.000000	15.702457
2051.000000	15.626047
2050.000000	15.573823
2049.000000	15.466842
2048.000000	15.387225
2047.000000	15.364752
2046.000000	15.298009
2045.000000	15.207843
2044.000000	15.178186
2043.000000	15.176565
2042.000000	15.191176
2041.000000	15.188834
2040.000000	15.177448
2039.000000	15.219708
2038.000000	15.290279
2037.000000	15.334741
2036.000000	15.373346
2035.000000	15.475340
2034.000000	15.606492
2033.000000	15.673877
2032.000000	15.736619
2031.000000	15.832803
2030.000000	15.971427
2029.000000	16.090731
2028.000000	16.202866
2027.000000	16.366687
2026.000000	16.512215
2025.000000	16.577829
2024.000000	16.658764
2023.000000	16.746912
2022.000000	16.770600
2021.000000	16.827956
2020.000000	16.934899
2019.000000	16.977728
2018.000000	17.026674
2017.000000	17.103580
2016.000000	17.132867
2015.000000	17.143632
2014.000000	17.113877
2013.000000	17.085595
2012.000000	17.106689
2011.000000	17.107023
2010.000000	17.072926
2009.000000	17.023404
2008.000000	17.025763
2007.000000	17.003285
2006.000000	16.907796
2005.000000	16.824849
2004.000000	16.764784
2003.000000	16.712294
2002.000000	16.670058
2001.000000	16.566768
2000.000000	16.481105
1999.000000	16.436724
1998.000000	16.402961
1997.000000	16.319548
1996.000000	16.254985
1995.000000	16.203877
1994.000000	16.083064
1993.000000	15.954246
1992.000000	15.882953
1991.000000	15.811595
1990.000000	15.723040
1989.000000	15.635980
1988.000000	15.594932
1987.000000	15.543801
1986.000000	15.469894
1985.000000	15.375284
1984.000000	15.267108
1983.000000	15.202437
1982.000000	15.171093
1981.000000	15.102660
1980.000000	15.029986
1979.000000	14.932565
1978.000000	14.862445
1977.000000	14.790775
1976.000000	14.668914
1975.000000	14.590625
1974.000000	14.540369
1973.000000	14.495292
1972.000000	14.468757
1971.000000	14.350430
1970.000000	14.286828
1969.000000	14.258646
1968.000000	14.234893
1967.000000	14.179202
1966.000000	14.118260
1965.000000	14.012264
1964.000000	13.937925
1963.000000	13.907436
1962.000000	13.850868
1961.000000	13.775130
1960.000000	13.692986
1959.000000	13.612731
1958.000000	13.556340
1957.000000	13.488282
1956.000000	13.499197
1955.000000	13.451678
1954.000000	13.410472
1953.000000	13.343449
1952.000000	13.318826
1951.000000	13.295405
1950.000000	13.281870
1949.000000	13.245963
1948.000000	13.195956
1947.000000	13.261917
1946.000000	13.226782
1945.000000	13.201235
1944.000000	13.214556
1943.000000	13.228271
1942.000000	13.253680
1941.000000	13.279441
1940.000000	13.364055
1939.000000	13.447249
1938.000000	13.478422
1937.000000	13.583659
1936.000000	13.688465
1935.000000	13.760645
1934.000000	13.775448
1933.000000	13.881712
1932.000000	14.036617
1931.000000	14.168153
1930.000000	14.310385
1929.000000	14.386952
1928.000000	14.680331
1927.000000	14.785393
1926.000000	14.915940
1925.000000	15.105556
1924.000000	15.294069
1923.000000	15.540480
1922.000000	15.717693
1921.000000	16.027746
1920.000000	16.264017
1919.000000	16.522844
1918.000000	16.682424
1917.000000	16.961587
1916.000000	17.154569
1915.000000	17.574741
1914.000000	17.885422
1913.000000	18.152861
1912.000000	18.385461
1911.000000	18.785779
1910.000000	19.117288
1909.000000	19.422853
1908.000000	19.748003
1907.000000	20.126230
1906.000000	20.496920
1905.000000	20.910957
1904.000000	21.238330
1903.000000	21.569628
1902.000000	21.974920
1901.000000	22.436805
1900.000000	22.879871
1899.000000	23.327907
1898.000000	23.696853
1897.000000	24.047520
1896.000000	24.482345
1895.000000	24.884382
1894.000000	25.261379
1893.000000	25.712755
1892.000000	26.155266
1891.000000	26.552214
1890.000000	26.897792
1889.000000	27.246156
1888.000000	27.620135
1887.000000	27.990810
1886.000000	28.314547
1885.000000	28.642412
1884.000000	29.002874
1883.000000	29.312199
1882.000000	29.580944
1881.000000	29.889914
1880.000000	30.149238
1879.000000	30.366928
1878.000000	30.598701
1877.000000	30.878132
1876.000000	31.067755
1875.000000	31.258869
1874.000000	31.457427
1873.000000	31.609691
1872.000000	31.776764
1871.000000	31.919482
1870.000000	32.061644
1869.000000	32.219840
1868.000000	32.309997
1867.000000	32.376057
1866.000000	32.460564
1865.000000	32.543432
1864.000000	32.630894
1863.000000	32.685255
1862.000000	32.745786
1861.000000	32.809125
1860.000000	32.827566
1859.000000	32.845879
1858.000000	32.849182
1857.000000	32.902056
1856.000000	32.905900
1855.000000	32.936854
1854.000000	32.959283
1853.000000	32.964504
1852.000000	32.955911
1851.000000	32.973755
1850.000000	32.992564
1849.000000	32.934578
1848.000000	32.949341
1847.000000	32.936565
1846.000000	32.898532
1845.000000	32.902386
1844.000000	32.879331
1843.000000	32.846511
1842.000000	32.849558
1841.000000	32.814792
1840.000000	32.774733
1839.000000	32.741082
1838.000000	32.706449
1837.000000	32.639828
1836.000000	32.608634
1835.000000	32.579331
1834.000000	32.514029
1833.000000	32.472019
1832.000000	32.438684
1831.000000	32.368053
1830.000000	32.321192
1829.000000	32.278623
1828.000000	32.239793
1827.000000	32.213554
1826.000000	32.180685
1825.000000	32.167651
1824.000000	32.128327
1823.000000	32.074893
1822.000000	32.034065
1821.000000	31.991976
1820.000000	31.950833
1819.000000	31.901693
1818.000000	31.869116
1817.000000	31.835205
1816.000000	31.788593
1815.000000	31.766120
1814.000000	31.732434
1813.000000	31.689724
1812.000000	31.655820
1811.000000	31.623150
1810.000000	31.585723
1809.000000	31.556265
1808.000000	31.522637
1807.000000	31.488116
1806.000000	31.456548
1805.000000	31.426030
1804.000000	31.393498
1803.000000	31.365980
1802.000000	31.341800
1801.000000	31.313975
1800.000000	31.290373
1799.000000	31.261186
1798.000000	31.219364
1797.000000	31.193552
1796.000000	31.173328
1795.000000	31.163004
1794.000000	31.157013
1793.000000	31.135851
1792.000000	31.099125
1791.000000	31.071817
1790.000000	31.073543
1789.000000	31.035999
1788.000000	31.000016
1787.000000	30.987949
1786.000000	30.979299
1785.000000	30.925578
1784.000000	30.884912
1783.000000	30.855405
1782.000000	30.812473
1781.000000	30.773300
1780.000000	30.726153
1779.000000	30.703975
1778.000000	30.661002
1777.000000	30.620560
1776.000000	30.564687
1775.000000	30.500639
1774.000000	30.409029
1773.000000	30.363645
1772.000000	30.318761
1771.000000	30.248419
1770.000000	30.177352
1769.000000	30.111427
1768.000000	30.049801
1767.000000	30.005715
1766.000000	29.939850
1765.000000	29.880599
1764.000000	29.827677
1763.000000	29.749014
1762.000000	29.685476
1761.000000	29.627069
1760.000000	29.542695
1759.000000	29.499341
1758.000000	29.444824
1757.000000	29.380339
1756.000000	29.343039
1755.000000	29.262385
1754.000000	29.195530
1753.000000	29.136896
1752.000000	29.086027
1751.000000	29.023450
1750.000000	28.936392
1749.000000	28.888959
1748.000000	28.820560
1747.000000	28.743335
1746.000000	28.686126
1745.000000	28.626912
1744.000000	28.571240
1743.000000	28.499203
1742.000000	28.433985
1741.000000	28.381665
1740.000000	28.331512
1739.000000	28.263348
1738.000000	28.218777
1737.000000	28.190281
1736.000000	28.159931
1735.000000	28.116302
1734.000000	28.086830
1733.000000	28.074394
1732.000000	28.057242
1731.000000	28.063166
1730.000000	28.061965
1729.000000	28.076665
1728.000000	28.123829
1727.000000	28.148068
1726.000000	28.219286
1725.000000	28.284817
1724.000000	28.359024
1723.000000	28.413003
1722.000000	28.486724
1721.000000	28.582949
1720.000000	28.664181
1719.000000	28.770898
1718.000000	28.846990
1717.000000	28.936198
1716.000000	29.029924
1715.000000	29.105751
1714.000000	29.165531
1713.000000	29.267408
1712.000000	29.332598
1711.000000	29.385282
1710.000000	29.422479
1709.000000	29.491380
1708.000000	29.551050
1707.000000	29.566299
1706.000000	29.628241
1705.000000	29.658508
1704.000000	29.684132
1703.000000	29.694192
1702.000000	29.698021
1701.000000	29.738242
1700.000000	29.759243
1699.000000	29.776381
1698.000000	29.843387
1697.000000	29.871375
1696.000000	29.879613
1695.000000	29.927616
1694.000000	29.952900
1693.000000	30.005086
1692.000000	30.081181
1691.000000	30.124530
1690.000000	30.234648
1689.000000	30.322603
1688.000000	30.427086
1687.000000	30.548387
1686.000000	30.699127
1685.000000	30.810503
1684.000000	30.942831
1683.000000	31.100317
1682.000000	31.264961
1681.000000	31.438113
1680.000000	31.596573
1679.000000	31.718730
1678.000000	31.920144
1677.000000	32.082741
1676.000000	32.259326
1675.000000	32.430559
1674.000000	32.606444
1673.000000	32.762960
1672.000000	32.927402
1671.000000	33.077356
1670.000000	33.252967
1669.000000	33.438552
1668.000000	33.547450
1667.000000	33.647512
1666.000000	33.755898
1665.000000	33.874685
1664.000000	33.961517
1663.000000	34.039339
1662.000000	34.116611
1661.000000	34.180846
1660.000000	34.248239
1659.000000	34.313160
1658.000000	34.370810
1657.000000	34.406168
1656.000000	34.444482
1655.000000	34.468571
1654.000000	34.486718
1653.000000	34.512745
1652.000000	34.533357
1651.000000	34.525426
1650.000000	34.538839
1649.000000	34.524334
1648.000000	34.493659
1647.000000	34.501231
1646.000000	34.483876
1645.000000	34.478192
1644.000000	34.468113
1643.000000	34.423599
1642.000000	34.412156
1641.000000	34.385446
1640.000000	34.378959
1639.000000	34.342627
1638.000000	34.310277
1637.000000	34.286750
1636.000000	34.239751
1635.000000	34.203719
1634.000000	34.170350
1633.000000	34.118472
1632.000000	34.080570
1631.000000	34.034805
1630.000000	34.002106
1629.000000	33.963523
1628.000000	33.935315
1627.000000	33.891787
1626.000000	33.833211
1625.000000	33.792425
1624.000000	33.740818
1623.000000	33.704359
1622.000000	33.665104
1621.000000	33.607286
1620.000000	33.553254
1619.000000	33.513888
1618.000000	33.470053
1617.000000	33.411563
1616.000000	33.347135
1615.000000	33.303601
1614.000000	33.253115
1613.000000	33.194266
1612.000000	33.140372
1611.000000	33.085961
1610.000000	33.025676
1609.000000	32.976484
1608.000000	32.929460
1607.000000	32.865982
1606.000000	32.803015
1605.000000	32.744477
1604.000000	32.669924
1603.000000	32.607571
1602.000000	32.556955
1601.000000	32.500863
1600.000000	32.440996
1599.000000	32.384587
1598.000000	32.336812
1597.000000	32.276788
1596.000000	32.220267
1595.000000	32.175498
1594.000000	32.115983
1593.000000	32.067123
1592.000000	32.022991
1591.000000	31.958386
1590.000000	31.908705
1589.000000	31.859248
1588.000000	31.803449
1587.000000	31.751169
1586.000000	31.709688
1585.000000	31.674037
1584.000000	31.627929
1583.000000	31.582837
1582.000000	31.538169
1581.000000	31.495228
1580.000000	31.454735
1579.000000	31.409578
1578.000000	31.369203
1577.000000	31.312400
1576.000000	31.262652
1575.000000	31.222279
1574.000000	31.173787
1573.000000	31.132813
1572.000000	31.096714
1571.000000	31.058514
1570.000000	31.018732
1569.000000	30.982840
1568.000000	30.944867
1567.000000	30.893127
1566.000000	30.855966
1565.000000	30.848867
1564.000000	30.815963
1563.000000	30.782760
1562.000000	30.766724
1561.000000	30.737997
1560.000000	30.708461
1559.000000	30.682037
1558.000000	30.655871
1557.000000	30.637626
1556.000000	30.603583
1555.000000	30.585800
1554.000000	30.542485
1553.000000	30.525424
1552.000000	30.497898
1551.000000	30.458742
1550.000000	30.421161
1549.000000	30.386999
1548.000000	30.342087
1547.000000	30.288367
1546.000000	30.249590
1545.000000	30.179205
1544.000000	30.111751
1543.000000	30.046974
1542.000000	29.977766
1541.000000	29.909610
1540.000000	29.833001
1539.000000	29.742151
1538.000000	29.669242
1537.000000	29.577489
1536.000000	29.485907
1535.000000	29.402630
1534.000000	29.307512
1533.000000	29.219473
1532.000000	29.138629
1531.000000	29.074128
1530.000000	29.019451
1529.000000	28.981642
1528.000000	28.983608
1527.000000	28.928835
1526.000000	28.825424
1525.000000	28.734207
1524.000000	28.651989
1523.000000	28.556882
1522.000000	28.500801
1521.000000	28.470530
1520.000000	28.403601
1519.000000	28.352169
1518.000000	28.310092
1517.000000	28.248929
1516.000000	28.212192
1515.000000	28.175574
1514.000000	28.144593
1513.000000	28.103708
1512.000000	28.076113
1511.000000	28.020503
1510.000000	28.011251
1509.000000	27.992682
1508.000000	27.967557
1507.000000	27.931400
1506.000000	27.900705
1505.000000	27.878854
1504.000000	27.856965
1503.000000	27.839086
1502.000000	27.823103
1501.000000	27.836996
1500.000000	27.837503
1499.000000	27.826516
1498.000000	27.867802
1497.000000	27.896792
1496.000000	27.874964
1495.000000	27.885493
1494.000000	27.903536
1493.000000	27.938584
1492.000000	27.944797
1491.000000	27.987820
1490.000000	28.029645
1489.000000	28.087122
1488.000000	28.128478
1487.000000	28.176599
1486.000000	28.234624
1485.000000	28.326272
1484.000000	28.368144
1483.000000	28.440285
1482.000000	28.478862
1481.000000	28.553609
1480.000000	28.624728
1479.000000	28.697779
1478.000000	28.777393
1477.000000	28.851524
1476.000000	28.932072
1475.000000	28.997562
1474.000000	29.059714
1473.000000	29.129633
1472.000000	29.222677
1471.000000	29.293305
1470.000000	29.346837
1469.000000	29.396914
1468.000000	29.439785
1467.000000	29.483576
1466.000000	29.538868
1465.000000	29.608457
1464.000000	29.657802
1463.000000	29.714984
1462.000000	29.748493
1461.000000	29.769339
1460.000000	29.853840
1459.000000	29.907857
1458.000000	29.958879
1457.000000	29.993467
1456.000000	30.063404
1455.000000	30.134869
1454.000000	30.171143
1453.000000	30.200015
1452.000000	30.247120
1451.000000	30.331454
1450.000000	30.396219
1449.000000	30.446810
1448.000000	30.478222
1447.000000	30.548204
1446.000000	30.616472
1445.000000	30.716697
1444.000000	30.781478
1443.000000	30.825973
1442.000000	30.896099
1441.000000	30.955436
1440.000000	31.035920
1439.000000	31.131892
1438.000000	31.230135
1437.000000	31.307394
1436.000000	31.370231
1435.000000	31.449726
1434.000000	31.520231
1433.000000	31.609911
1432.000000	31.708319
1431.000000	31.808423
1430.000000	31.891614
1429.000000	31.982834
1428.000000	32.095210
1427.000000	32.212258
1426.000000	32.322506
1425.000000	32.446958
1424.000000	32.574758
1423.000000	32.706441
1422.000000	32.833866
1421.000000	32.982502
1420.000000	33.118198
1419.000000	33.257896
1418.000000	33.400362
1417.000000	33.512585
1416.000000	33.648981
1415.000000	33.830912
1414.000000	33.986370
1413.000000	34.143888
1412.000000	34.317306
1411.000000	34.483605
1410.000000	34.621540
1409.000000	34.770018
1408.000000	34.940738
1407.000000	35.105083
1406.000000	35.259460
1405.000000	35.416437
1404.000000	35.555277
1403.000000	35.692465
1402.000000	35.816282
1401.000000	35.957525
1400.000000	36.098286
1399.000000	36.231924
1398.000000	36.362829
1397.000000	36.496635
1396.000000	36.632255
1395.000000	36.751416
1394.000000	36.899180
1393.000000	37.030927
1392.000000	37.146009
1391.000000	37.260828
1390.000000	37.361565
1389.000000	37.472168
1388.000000	37.589775
1387.000000	37.692054
1386.000000	37.801868
1385.000000	37.899855
1384.000000	37.984849
1383.000000	38.084904
1382.000000	38.174280
1381.000000	38.248567
1380.000000	38.304393
1379.000000	38.365026
1378.000000	38.437818
1377.000000	38.500416
1376.000000	38.553551
1375.000000	38.589568
1374.000000	38.634569
1373.000000	38.687205
1372.000000	38.740524
1371.000000	38.790505
1370.000000	38.823941
1369.000000	38.868720
1368.000000	38.918563
1367.000000	38.964226
1366.000000	39.008450
1365.000000	39.060878
1364.000000	39.112625
1363.000000	39.157906
1362.000000	39.205758
1361.000000	39.260589
1360.000000	39.330747
1359.000000	39.396652
1358.000000	39.441957
1357.000000	39.467879
1356.000000	39.508810
1355.000000	39.569971
1354.000000	39.622651
1353.000000	39.668668
1352.000000	39.727774
1351.000000	39.781273
1350.000000	39.821235
1349.000000	39.867859
1348.000000	39.932224
1347.000000	40.007552
1346.000000	40.043636
1345.000000	40.070606
1344.000000	40.129422
1343.000000	40.180777
1342.000000	40.208896
1341.000000	40.251551
1340.000000	40.296942
1339.000000	40.336567
1338.000000	40.356558
1337.000000	40.407123
1336.000000	40.470686
1335.000000	40.504589
1334.000000	40.527720
1333.000000	40.558210
1332.000000	40.588991
1331.000000	40.600431
1330.000000	40.620739
1329.000000	40.661493
1328.000000	40.672939
1327.000000	40.682263
1326.000000	40.679895
1325.000000	40.709475
1324.000000	40.749963
1323.000000	40.755400
1322.000000	40.781768
1321.000000	40.797390
1320.000000	40.793374
1319.000000	40.791318
1318.000000	40.836095
1317.000000	40.822802
1316.000000	40.843180
1315.000000	40.849653
1314.000000	40.836305
1313.000000	40.852177
1312.000000	40.880414
1311.000000	40.903944
1310.000000	40.895680
1309.000000	40.904841
1308.000000	40.896706
1307.000000	40.898679
1306.000000	40.913831
1305.000000	40.929626
1304.000000	40.921101
1303.000000	40.915244
1302.000000	40.913037
1301.000000	40.935171
1300.000000	40.953461
1299.000000	40.944981
1298.000000	40.944272
1297.000000	40.937851
1296.000000	40.927663
1295.000000	40.926194
1294.000000	40.910068
1293.000000	40.905458
1292.000000	40.916175
1291.000000	40.907494
1290.000000	40.877990
1289.000000	40.879928
1288.000000	40.851438
1287.000000	40.838982
1286.000000	40.827320
1285.000000	40.826496
1284.000000	40.836161
1283.000000	40.825604
1282.000000	40.808588
1281.000000	40.816250
1280.000000	40.805216
1279.000000	40.801448
1278.000000	40.762818
1277.000000	40.774308
1276.000000	40.764113
1275.000000	40.774882
1274.000000	40.776163
1273.000000	40.757417
1272.000000	40.768918
1271.000000	40.766335
1270.000000	40.775768
1269.000000	40.793323
1268.000000	40.828151
1267.000000	40.834029
1266.000000	40.800729
1265.000000	40.817674
1264.000000	40.792771
1263.000000	40.781960
1262.000000	40.803725
1261.000000	40.826972
1260.000000	40.837707
1259.000000	40.856753
1258.000000	40.818250
1257.000000	40.820164
1256.000000	40.818869
1255.000000	40.855531
1254.000000	40.845043
1253.000000	40.852073
1252.000000	40.842758
1251.000000	40.847837
1250.000000	40.826040
1249.000000	40.827389
1248.000000	40.820203
1247.000000	40.803112
1246.000000	40.785075
1245.000000	40.794377
1244.000000	40.787625
1243.000000	40.755016
1242.000000	40.705794
1241.000000	40.694890
1240.000000	40.677959
1239.000000	40.669431
1238.000000	40.655566
1237.000000	40.595957
1236.000000	40.581141
1235.000000	40.559675
1234.000000	40.513320
1233.000000	40.490454
1232.000000	40.468583
1231.000000	40.456740
1230.000000	40.431051
1229.000000	40.383104
1228.000000	40.366322
1227.000000	40.333421
1226.000000	40.328029
1225.000000	40.288920
1224.000000	40.276184
1223.000000	40.245518
1222.000000	40.180910
1221.000000	40.160462
1220.000000	40.133848
1219.000000	40.106929
1218.000000	40.089058
1217.000000	40.072267
1216.000000	40.063739
1215.000000	40.041839
1214.000000	40.026807
1213.000000	39.971535
1212.000000	39.950489
1211.000000	39.930696
1210.000000	39.895306
1209.000000	39.825341
1208.000000	39.791545
1207.000000	39.777066
1206.000000	39.727788
1205.000000	39.696110
1204.000000	39.684770
1203.000000	39.644361
1202.000000	39.581820
1201.000000	39.553952
1200.000000	39.552091
1199.000000	39.498963
1198.000000	39.456515
1197.000000	39.434825
1196.000000	39.422546
1195.000000	39.390072
1194.000000	39.362186
1193.000000	39.324562
1192.000000	39.301118
1191.000000	39.286095
1190.000000	39.248704
1189.000000	39.202530
1188.000000	39.201869
1187.000000	39.205627
1186.000000	39.184027
1185.000000	39.178932
1184.000000	39.191003
1183.000000	39.203357
1182.000000	39.223787
1181.000000	39.248120
1180.000000	39.278089
1179.000000	39.307894
1178.000000	39.348719
1177.000000	39.375946
1176.000000	39.419496
1175.000000	39.478777
1174.000000	39.522644
1173.000000	39.564777
1172.000000	39.626695
1171.000000	39.688213
1170.000000	39.741931
1169.000000	39.794491
1168.000000	39.858817
1167.000000	39.932320
1166.000000	39.990630
1165.000000	40.053643
1164.000000	40.125443
1163.000000	40.198251
1162.000000	40.264194
1161.000000	40.320543
1160.000000	40.388086
1159.000000	40.454979
1158.000000	40.509452
1157.000000	40.563287
1156.000000	40.618717
1155.000000	40.676259
1154.000000	40.710399
1153.000000	40.761929
1152.000000	40.796786
1151.000000	40.819556
1150.000000	40.854580
1149.000000	40.902779
1148.000000	40.961877
1147.000000	41.008010
1146.000000	41.052016
1145.000000	41.084211
1144.000000	41.122321
1143.000000	41.157445
1142.000000	41.191756
1141.000000	41.236545
1140.000000	41.268129
1139.000000	41.292918
1138.000000	41.325888
1137.000000	41.370717
1136.000000	41.414224
1135.000000	41.448338
1134.000000	41.474097
1133.000000	41.511094
1132.000000	41.543871
1131.000000	41.537604
1130.000000	41.544823
1129.000000	41.570789
1128.000000	41.597580
1127.000000	41.636790
1126.000000	41.654239
1125.000000	41.663829
1124.000000	41.684240
1123.000000	41.690596
1122.000000	41.715145
1121.000000	41.723717
1120.000000	41.722387
1119.000000	41.729798
1118.000000	41.740860
1117.000000	41.746484
1116.000000	41.736088
1115.000000	41.734360
1114.000000	41.719418
1113.000000	41.712219
1112.000000	41.720013
1111.000000	41.726840
1110.000000	41.728720
1109.000000	41.732686
1108.000000	41.740035
1107.000000	41.751557
1106.000000	41.748262
1105.000000	41.746086
1104.000000	41.753465
1103.000000	41.750378
1102.000000	41.757512
1101.000000	41.718138
1100.000000	41.695772
1099.000000	41.712722
1098.000000	41.723204
1097.000000	41.732052
1096.000000	41.729144
1095.000000	41.717336
1094.000000	41.722736
1093.000000	41.709882
1092.000000	41.710750
1091.000000	41.696391
1090.000000	41.703498
1089.000000	41.695082
1088.000000	41.693485
1087.000000	41.692139
1086.000000	41.670739
1085.000000	41.653444
1084.000000	41.656134
1083.000000	41.656177
1082.000000	41.653614
1081.000000	41.667576
1080.000000	41.669032
1079.000000	41.629683
1078.000000	41.618502
1077.000000	41.615937
1076.000000	41.616270
1075.000000	41.602522
1074.000000	41.601566
1073.000000	41.611822
1072.000000	41.568125
1071.000000	41.554715
1070.000000	41.571501
1069.000000	41.541342
1068.000000	41.552601
1067.000000	41.532108
1066.000000	41.522868
1065.000000	41.527471
1064.000000	41.494979
1063.000000	41.484708
1062.000000	41.483293
1061.000000	41.472649
1060.000000	41.471430
1059.000000	41.495462
1058.000000	41.441919
1057.000000	41.433463
1056.000000	41.426903
1055.000000	41.421645
1054.000000	41.410047
1053.000000	41.422256
1052.000000	41.384300
1051.000000	41.364107
1050.000000	41.377756
1049.000000	41.393048
1048.000000	41.359906
1047.000000	41.332149
1046.000000	41.318445
1045.000000	41.340477
1044.000000	41.322407
1043.000000	41.330547
1042.000000	41.280000
1041.000000	41.285328
1040.000000	41.299399
1039.000000	41.276939
1038.000000	41.259161
1037.000000	41.249188
1036.000000	41.263883
1035.000000	41.250322
1034.000000	41.243327
1033.000000	41.245438
1032.000000	41.245473
1031.000000	41.244502
1030.000000	41.234131
1029.000000	41.226991
1028.000000	41.216293
1027.000000	41.215008
1026.000000	41.196904
1025.000000	41.205761
1024.000000	41.204299
1023.000000	41.205570
1022.000000	41.190890
1021.000000	41.190275
1020.000000	41.200185
1019.000000	41.196613
1018.000000	41.202545
1017.000000	41.204451
1016.000000	41.213936
1015.000000	41.193306
1014.000000	41.203206
1013.000000	41.208271
1012.000000	41.198957
1011.000000	41.208814
1010.000000	41.205847
1009.000000	41.212393
1008.000000	41.204432
1007.000000	41.208841
1006.000000	41.204254
1005.000000	41.227442
1004.000000	41.245357
1003.000000	41.226747
1002.000000	41.239159
1001.000000	41.245488
1000.000000	41.249652
999.000000	41.247652
998.000000	41.234965
997.000000	41.254168
996.000000	41.258683
995.000000	41.253258
994.000000	41.256795
993.000000	41.267822
992.000000	41.260999
991.000000	41.250770
990.000000	41.250629
989.000000	41.279572
988.000000	41.276660
987.000000	41.280017
986.000000	41.291452
985.000000	41.292409
984.000000	41.305991
983.000000	41.317073
982.000000	41.333120
981.000000	41.344255
980.000000	41.362137
979.000000	41.381775
978.000000	41.400136
977.000000	41.408740
976.000000	41.410731
975.000000	41.408483
974.000000	41.407595
973.000000	41.422053
972.000000	41.430366
971.000000	41.429974
970.000000	41.425959
969.000000	41.428503
968.000000	41.434072
967.000000	41.438587
966.000000	41.447670
965.000000	41.461981
964.000000	41.466172
963.000000	41.480190
962.000000	41.478675
961.000000	41.474883
960.000000	41.481618
959.000000	41.478208
958.000000	41.486337
957.000000	41.494502
956.000000	41.491793
955.000000	41.497691
954.000000	41.502655
953.000000	41.495286
952.000000	41.484988
951.000000	41.491567
950.000000	41.499731
949.000000	41.492170
948.000000	41.504241
947.000000	41.515066
946.000000	41.507826
945.000000	41.505698
944.000000	41.502132
943.000000	41.493862
942.000000	41.506639
941.000000	41.508110
940.000000	41.506440
939.000000	41.484530
938.000000	41.470340
937.000000	41.472927
936.000000	41.452987
935.000000	41.471810
934.000000	41.484675
933.000000	41.475952
932.000000	41.470213
931.000000	41.476714
930.000000	41.468956
929.000000	41.437957
928.000000	41.447277
927.000000	41.452629
926.000000	41.456051
925.000000	41.445729
924.000000	41.426943
923.000000	41.413723
922.000000	41.416537
921.000000	41.432874
920.000000	41.406108
919.000000	41.381198
918.000000	41.410535
917.000000	41.408738
916.000000	41.396818
915.000000	41.401669
914.000000	41.375384
913.000000	41.368984
912.000000	41.387695
911.000000	41.404021
910.000000	41.371193
909.000000	41.374692
908.000000	41.382858
907.000000	41.360920
906.000000	41.394083
905.000000	41.371771
904.000000	41.357360
903.000000	41.381727
902.000000	41.368704
901.000000	41.391278
900.000000	41.403712
899.000000	41.385133
898.000000	41.382428
897.000000	41.396664
896.000000	41.382294
895.000000	41.359567
894.000000	41.370519
893.000000	41.407805
892.000000	41.385503
891.000000	41.439341
890.000000	41.404187
889.000000	41.387662
888.000000	41.416560
887.000000	41.406438
886.000000	41.407084
885.000000	41.419523
884.000000	41.372754
883.000000	41.356471
882.000000	41.401965
881.000000	41.377132
880.000000	41.382342
879.000000	41.346348
878.000000	41.377644
877.000000	41.386361
876.000000	41.384141
875.000000	41.418433
874.000000	41.440711
873.000000	41.343580
872.000000	41.348641
871.000000	41.446214
870.000000	41.408768
869.000000	41.422144
868.000000	41.364570
867.000000	41.305353
866.000000	41.396873
865.000000	41.386027
864.000000	41.297762
863.000000	41.265218
862.000000	41.249022
861.000000	41.274150
860.000000	41.296736
859.000000	41.347747
858.000000	41.398390
857.000000	41.491379
856.000000	41.352649
855.000000	41.301752
854.000000	41.282755
853.000000	41.071658
852.000000	41.176752
851.000000	41.198625
850.000000	41.357081
849.000000	41.401788
848.000000	41.076132
847.000000	41.280341
846.000000	41.140534
845.000000	41.242583
844.000000	41.064846
843.000000	41.125931
842.000000	41.204152
841.000000	41.131294
840.000000	41.139219
839.000000	41.095127
838.000000	40.939266
837.000000	41.152374
836.000000	41.054254
835.000000	41.139553
834.000000	41.214331
833.000000	41.062945
832.000000	40.974054
831.000000	40.953904
830.000000	41.008057
829.000000	41.099153
828.000000	40.986669
827.000000	41.026172
826.000000	41.055456
825.000000	40.939246
824.000000	40.934714
823.000000	40.868464
822.000000	40.931763
821.000000	40.905319
820.000000	40.841595
819.000000	40.767441
818.000000	40.755687
817.000000	40.829585
816.000000	40.840468
815.000000	40.857705
814.000000	40.905371
813.000000	40.836885
812.000000	40.751159
811.000000	40.809359
810.000000	40.802377
809.000000	40.783250
808.000000	40.763386
807.000000	40.775989
806.000000	40.788834
805.000000	40.766205
804.000000	40.754941
803.000000	40.773305
802.000000	40.754150
801.000000	40.747246
800.000000	40.715149
799.000000	40.700344
798.000000	40.784402
797.000000	40.576749
796.000000	40.652767
795.000000	40.665757
794.000000	40.647514
793.000000	40.654958
792.000000	40.649219
791.000000	40.628407
790.000000	40.598585
789.000000	40.614461
788.000000	40.582371
787.000000	40.529648
786.000000	40.578050
785.000000	40.531454
784.000000	40.522873
783.000000	40.558302
782.000000	40.526361
781.000000	40.536181
780.000000	40.507010
779.000000	40.477511
778.000000	40.426537
777.000000	40.413366
776.000000	40.493696
775.000000	40.488599
774.000000	40.442777
773.000000	40.419632
772.000000	40.443050
771.000000	40.353152
770.000000	40.417476
769.000000	40.385187
768.000000	40.356257
767.000000	40.366852
766.000000	40.355593
765.000000	40.245171
764.000000	40.283826
763.000000	40.356618
762.000000	40.293097
761.000000	40.242730
760.000000	40.243154
759.000000	40.203990
758.000000	40.155079
757.000000	40.172146
756.000000	40.228245
755.000000	40.198802
754.000000	40.185403
753.000000	40.121399
752.000000	40.108423
751.000000	40.096380
750.000000	40.059525
749.000000	40.062384
748.000000	40.083284
747.000000	40.012294
746.000000	39.980756
745.000000	40.020215
744.000000	40.013065
743.000000	39.958867
742.000000	39.912310
741.000000	39.964028
740.000000	39.953366
739.000000	39.913958
738.000000	39.883587
737.000000	39.852705
736.000000	39.842219
735.000000	39.860196
734.000000	39.804858
733.000000	39.777068
732.000000	39.811941
731.000000	39.800156
730.000000	39.711387
729.000000	39.666427
728.000000	39.676271
727.000000	39.695529
726.000000	39.702515
725.000000	39.709432
724.000000	39.643721
723.000000	39.586873
722.000000	39.624785
721.000000	39.660794
720.000000	39.597007
719.000000	39.553954
718.000000	39.532913
717.000000	39.539199
716.000000	39.504151
715.000000	39.481757
714.000000	39.453888
713.000000	39.419805
712.000000	39.414260
711.000000	39.379989
710.000000	39.358139
709.000000	39.361064
708.000000	39.334050
707.000000	39.297454
706.000000	39.301477
705.000000	39.269540
704.000000	39.210090
703.000000	39.194858
702.000000	39.195181
701.000000	39.190376
700.000000	39.178984
699.000000	39.154951
698.000000	39.147476
697.000000	39.124427
696.000000	39.072312
695.000000	39.037756
694.000000	38.995765
693.000000	39.006497
692.000000	38.997962
691.000000	38.955936
690.000000	38.906918
689.000000	38.861579
688.000000	38.807483
687.000000	38.781137
686.000000	38.792914
685.000000	38.783873
684.000000	38.733057
683.000000	38.688109
682.000000	38.653141
681.000000	38.612784
680.000000	38.584703
679.000000	38.614290
678.000000	38.584253
677.000000	38.556817
676.000000	38.571918
675.000000	38.509759
674.000000	38.454972
673.000000	38.424741
672.000000	38.393347
671.000000	38.356778
670.000000	38.338779
669.000000	38.317880
668.000000	38.275180
667.000000	38.252787
666.000000	38.249131
665.000000	38.236727
664.000000	38.173467
663.000000	38.140356
662.000000	38.083533
661.000000	38.079397
660.000000	38.078084
659.000000	38.005373
658.000000	37.994941
657.000000	37.974490
656.000000	37.945058
655.000000	37.932276
654.000000	37.880984
653.000000	37.869704
652.000000	37.833976
651.000000	37.781755
650.000000	37.729811
649.000000	37.737121
648.000000	37.704181
647.000000	37.649283
646.000000	37.611149
645.000000	37.618131
644.000000	37.589338
643.000000	37.558032
642.000000	37.506889
641.000000	37.450275
640.000000	37.429793
639.000000	37.392579
638.000000	37.337974
637.000000	37.299196
636.000000	37.274682
635.000000	37.267012
634.000000	37.207754
633.000000	37.184623
632.000000	37.148582
631.000000	37.096801
630.000000	37.089034
629.000000	37.039071
628.000000	37.061509
627.000000	36.994687
626.000000	36.949260
625.000000	36.895976
624.000000	36.876997
623.000000	36.862984
622.000000	36.767621
621.000000	36.751016
620.000000	36.707182
619.000000	36.688662
618.000000	36.646130
617.000000	36.638432
616.000000	36.575307
615.000000	36.539524
614.000000	36.429063
613.000000	36.416970
612.000000	36.414976
611.000000	36.372235
610.000000	36.338330
609.000000	36.326660
608.000000	36.254221
607.000000	36.205237
606.000000	36.166020
605.000000	36.132093
604.000000	36.098365
603.000000	36.040036
602.000000	35.996429
601.000000	35.996638
600.000000	35.922755
599.000000	35.885946
598.000000	35.852964
597.000000	35.817826
596.000000	35.738167
595.000000	35.718500
594.000000	35.657628
593.000000	35.625874
592.000000	35.577181
591.000000	35.563887
590.000000	35.462119
589.000000	35.441776
588.000000	35.443714
587.000000	35.342099
586.000000	35.341861
585.000000	35.272948
584.000000	35.218493
583.000000	35.205224
582.000000	35.129396
581.000000	35.098877
580.000000	35.033961
579.000000	34.995565
578.000000	34.925406
577.000000	34.880220
576.000000	34.853464
575.000000	34.839583
574.000000	34.743285
573.000000	34.692558
572.000000	34.653816
571.000000	34.636509
570.000000	34.591614
569.000000	34.530509
568.000000	34.477126
567.000000	34.391604
566.000000	34.359336
565.000000	34.292388
564.000000	34.285961
563.000000	34.219187
562.000000	34.143511
561.000000	34.100507
560.000000	34.045890
559.000000	34.026947
558.000000	33.940369
557.000000	33.914570
556.000000	33.875475
555.000000	33.778277
554.000000	33.728317
553.000000	33.693361
552.000000	33.644589
551.000000	33.621418
550.000000	33.558923
549.000000	33.474317
548.000000	33.418357
547.000000	33.363464
546.000000	33.301842
545.000000	33.255284
544.000000	33.185222
543.000000	33.107832
542.000000	33.031853
541.000000	33.001393
540.000000	32.938958
539.000000	32.893215
538.000000	32.814577
537.000000	32.763658
536.000000	32.683756
535.000000	32.614327
534.000000	32.571387
533.000000	32.497712
532.000000	32.455281
531.000000	32.377381
530.000000	32.303701
529.000000	32.244019
528.000000	32.156298
527.000000	32.108506
526.000000	32.033587
525.000000	31.966931
524.000000	31.872219
523.000000	31.829335
522.000000	31.749918
521.000000	31.680993
520.000000	31.613055
519.000000	31.541019
518.000000	31.479266
517.000000	31.402115
516.000000	31.325930
515.000000	31.272631
514.000000	31.192223
513.000000	31.119366
512.000000	31.017451
511.000000	30.926119
510.000000	30.871330
509.000000	30.812584
508.000000	30.715477
507.000000	30.640157
506.000000	30.563893
505.000000	30.484132
504.000000	30.397468
503.000000	30.308365
502.000000	30.205271
501.000000	30.118142
500.000000	30.027696
499.000000	29.940168
498.000000	29.860518
497.000000	29.772911
496.000000	29.702235
495.000000	29.614337
494.000000	29.500945
493.000000	29.397570
492.000000	29.301020
491.000000	29.228724
490.000000	29.157481
489.000000	29.048993
488.000000	28.944510
487.000000	28.837906
486.000000	28.722231
485.000000	28.617562
484.000000	28.523379
483.000000	28.432517
482.000000	28.338281
481.000000	28.253188
480.000000	28.137580
479.000000	28.024885
478.000000	27.885096
477.000000	27.756472
476.000000	27.658764
475.000000	27.564919
474.000000	27.421748
473.000000	27.285189
472.000000	27.180253
471.000000	27.063429
470.000000	26.946858
469.000000	26.826268
468.000000	26.684797
467.000000	26.562608
466.000000	26.441031
465.000000	26.314915
464.000000	26.186396
463.000000	26.056762
462.000000	25.922427
461.000000	25.789501
460.000000	25.665488
459.000000	25.527300
458.000000	25.381168
457.000000	25.237369
456.000000	25.090996
455.000000	24.963566
454.000000	24.815267
453.000000	24.653328
452.000000	24.518623
451.000000	24.366619
450.000000	24.207018
449.000000	24.059261
448.000000	23.899350
447.000000	23.744775
446.000000	23.598365
445.000000	23.454867
444.000000	23.293623
443.000000	23.121211
442.000000	22.975561
441.000000	22.830942
440.000000	22.638786
439.000000	22.463555
438.000000	22.307150
437.000000	22.149686
436.000000	21.992304
435.000000	21.809708
434.000000	21.660083
433.000000	21.500078
432.000000	21.337747
431.000000	21.161377
430.000000	20.988791
429.000000	20.796710
428.000000	20.629361
427.000000	20.450184
426.000000	20.282922
425.000000	20.104093
424.000000	19.916179
423.000000	19.744894
422.000000	19.568288
421.000000	19.394984
420.000000	19.228875
419.000000	19.060704
418.000000	18.904455
417.000000	18.752756
416.000000	18.595415
415.000000	18.431149
414.000000	18.293386
413.000000	18.152586
412.000000	18.024119
411.000000	17.875004
410.000000	17.764526
409.000000	17.623760
408.000000	17.506914
407.000000	17.379043
406.000000	17.286309
405.000000	17.167496
404.000000	17.038264
403.000000	16.924221
402.000000	16.801571
401.000000	16.672292
400.000000	16.566005
399.000000	16.436423
398.000000	16.314105
397.000000	16.168253
396.000000	16.049522
395.000000	15.874552
394.000000	15.757961
393.000000	15.603852
392.000000	15.459953
391.000000	15.318871
390.000000	15.192202
389.000000	15.020814
388.000000	14.864782
387.000000	14.691022
386.000000	14.509008
385.000000	14.362734
384.000000	14.208107
383.000000	14.031850
382.000000	13.869078
381.000000	13.693961
380.000000	13.451823
379.000000	13.311148
378.000000	13.110578
377.000000	12.951783
376.000000	12.809867
375.000000	12.649300
374.000000	12.501133
373.000000	12.276115
372.000000	12.070218
371.000000	11.954623
370.000000	11.772129
369.000000	11.617962
368.000000	11.432345
367.000000	11.237965
366.000000	11.058412
365.000000	10.904907
364.000000	10.726144
363.000000	10.546269
362.000000	10.379528
361.000000	10.255359
360.000000	10.099614
359.000000	9.928116
358.000000	9.758374
357.000000	9.590923
356.000000	9.435722
355.000000	9.264756
354.000000	9.123692
353.000000	8.912261
352.000000	8.753539
351.000000	8.654742
350.000000	8.513835
349.000000	8.322386
348.000000	8.154889
347.000000	8.064418
346.000000	7.892498
345.000000	7.645265
344.000000	7.570565
343.000000	7.475384
342.000000	7.196499
341.000000	7.138997
340.000000	6.993691
339.000000	6.810354
338.000000	6.669194
337.000000	6.542982
336.000000	6.392619
335.000000	6.257231
334.000000	6.123248
333.000000	6.060440
332.000000	5.825182
331.000000	5.721016
330.000000	5.580843
329.000000	5.454388
328.000000	5.365841
327.000000	5.181772
326.000000	5.101076
325.000000	4.971368
324.000000	4.863625
323.000000	4.788538
322.000000	4.692100
321.000000	4.576475
320.000000	4.428948
319.000000	4.346429
318.000000	4.270417
317.000000	4.149176
316.000000	4.042067
315.000000	3.938143
314.000000	3.812869
313.000000	3.673692
312.000000	3.577800
311.000000	3.427926
310.000000	3.291402
309.000000	3.158871
308.000000	3.044958
307.000000	2.874383
306.000000	2.698100
305.000000	2.519608
304.000000	2.328131
303.000000	2.173845
302.000000	1.995217
301.000000	1.784153
300.000000	1.594700
299.000000	1.418189
298.000000	1.227754
297.000000	1.081084
296.000000	0.951610
295.000000	0.853821
294.000000	0.747326
293.000000	0.680257
292.000000	0.635804
291.000000	0.601136
290.000000	0.568932
289.000000	0.546756
288.000000	0.519899
287.000000	0.525449
286.000000	0.537553
285.000000	0.532038
284.000000	0.531101
283.000000	0.543761
282.000000	0.545484
281.000000	0.533317
280.000000	0.532847
279.000000	0.540590
278.000000	0.552829
277.000000	0.552357
276.000000	0.556502
275.000000	0.552992
274.000000	0.567209
273.000000	0.566260
272.000000	0.567458
271.000000	0.581530
270.000000	0.567733
269.000000	0.572045
268.000000	0.582485
267.000000	0.584406
266.000000	0.596768
265.000000	0.604929
264.000000	0.614462
263.000000	0.610284
262.000000	0.612776
261.000000	0.620171
260.000000	0.615923
259.000000	0.630070
258.000000	0.641429
257.000000	0.633963
256.000000	0.629403
255.000000	0.652423
254.000000	0.647685
253.000000	0.625044
252.000000	0.628233
251.000000	0.629887
250.000000	0.614310
249.000000	0.605861
248.000000	0.597761
247.000000	0.600930
246.000000	0.591235
245.000000	0.564676
244.000000	0.554985
243.000000	0.542312
242.000000	0.529269
241.000000	0.516202
240.000000	0.517039
239.000000	0.537260
238.000000	0.560356
237.000000	0.572193
236.000000	0.584840
235.000000	0.607272
234.000000	0.627935
233.000000	0.637453
232.000000	0.641672
231.000000	0.637178
230.000000	0.630534
229.000000	0.621183
228.000000	0.597243
227.000000	0.562651
226.000000	0.539065
225.000000	0.529683
224.000000	0.507906
223.000000	0.457198
222.000000	0.425314
221.000000	0.404761
220.000000	0.387158
219.000000	0.371658
218.000000	0.363033
217.000000	0.359999
216.000000	0.359452
215.000000	0.350627
214.000000	0.358529
213.000000	0.344561
212.000000	0.333798
211.000000	0.340334
210.000000	0.306020
209.000000	0.307487
208.000000	0.318909
207.000000	0.311252
206.000000	0.309261
205.000000	0.321933
204.000000	0.341983
203.000000	0.392697
202.000000	0.400444
201.000000	0.384817
200.000000	0.433355
