PE UV       SUBTECH     SPECTRUM    ASCII       PEDS        4.00        
   -1
TTChevreUK 42.Sample.asc
18/02/28
14:23:01.00
18/02/28
14:23:01.00
Administrator

200.000000
1
Lambda 750
750N8071901
PerkinElmer UV WinLab 6.0.4.0738 / 1.61.00 Lambda 900

0
0
3350/servo 860.8/2
0
0
UV/VIS
1
1
1
CommonBeamDepol,150mm sphere / downward view
0
0
0
0
Program
Program
3350/servo 860.8/2
3350/0.2 860.8/0.2
3350/0.2 860.8/0.2
0
1
 
 
 
0
 
860.8
319.2
860.8
Front
100
on
 
 
0
0
0
 
0
 
 
 
0
 
 
0
0
0
0
0
 
 
 
 
0
0


0
0
#HDR
-1
-1
#GR
nm
%T
1.0
0.0
2350.000000
-1.000000
2151
8
42.364076
0.262760
#DATA
2350.000000	12.478488
2349.000000	12.262380
2348.000000	12.153292
2347.000000	13.070389
2346.000000	12.659713
2345.000000	12.478956
2344.000000	12.252403
2343.000000	12.204196
2342.000000	12.239960
2341.000000	12.394926
2340.000000	12.521292
2339.000000	12.763700
2338.000000	12.684789
2337.000000	12.614942
2336.000000	13.058950
2335.000000	13.086319
2334.000000	13.192382
2333.000000	13.087164
2332.000000	13.414303
2331.000000	13.068692
2330.000000	12.773867
2329.000000	12.914183
2328.000000	12.940198
2327.000000	12.876312
2326.000000	12.822632
2325.000000	13.077749
2324.000000	12.651251
2323.000000	12.611460
2322.000000	12.713718
2321.000000	12.979867
2320.000000	12.721529
2319.000000	12.778214
2318.000000	12.518543
2317.000000	12.681853
2316.000000	12.405918
2315.000000	12.390723
2314.000000	12.443617
2313.000000	12.362085
2312.000000	12.195346
2311.000000	12.179589
2310.000000	12.046609
2309.000000	12.024586
2308.000000	11.982224
2307.000000	11.807785
2306.000000	11.899371
2305.000000	11.887042
2304.000000	11.750850
2303.000000	11.731971
2302.000000	11.729234
2301.000000	11.486236
2300.000000	11.467429
2299.000000	11.614769
2298.000000	11.216386
2297.000000	11.166378
2296.000000	11.218910
2295.000000	11.168719
2294.000000	11.266193
2293.000000	11.158279
2292.000000	10.975510
2291.000000	11.091525
2290.000000	10.929788
2289.000000	10.795577
2288.000000	10.888412
2287.000000	11.074760
2286.000000	11.195743
2285.000000	10.912204
2284.000000	10.832820
2283.000000	10.738934
2282.000000	10.845925
2281.000000	10.995463
2280.000000	10.913318
2279.000000	10.793267
2278.000000	10.812914
2277.000000	10.969169
2276.000000	10.873443
2275.000000	10.895512
2274.000000	10.852426
2273.000000	11.015953
2272.000000	11.237686
2271.000000	11.186460
2270.000000	11.272610
2269.000000	11.251233
2268.000000	11.247113
2267.000000	11.369273
2266.000000	11.456881
2265.000000	11.557489
2264.000000	11.806062
2263.000000	11.834378
2262.000000	11.879632
2261.000000	12.006996
2260.000000	12.074059
2259.000000	12.352224
2258.000000	12.652765
2257.000000	12.809611
2256.000000	12.930102
2255.000000	12.968530
2254.000000	13.053875
2253.000000	13.256793
2252.000000	13.543308
2251.000000	13.698946
2250.000000	13.817580
2249.000000	13.932786
2248.000000	14.020855
2247.000000	14.233380
2246.000000	14.359010
2245.000000	14.472997
2244.000000	14.619803
2243.000000	14.750357
2242.000000	14.950569
2241.000000	15.073655
2240.000000	15.142129
2239.000000	15.401625
2238.000000	15.473222
2237.000000	15.521601
2236.000000	15.683638
2235.000000	15.706003
2234.000000	15.737266
2233.000000	15.720782
2232.000000	15.812370
2231.000000	15.848933
2230.000000	15.815888
2229.000000	15.956139
2228.000000	16.060846
2227.000000	16.033840
2226.000000	15.970855
2225.000000	16.018941
2224.000000	15.964951
2223.000000	15.895578
2222.000000	15.873729
2221.000000	15.842424
2220.000000	15.873298
2219.000000	15.787351
2218.000000	15.786473
2217.000000	15.798305
2216.000000	15.688656
2215.000000	15.728500
2214.000000	15.804399
2213.000000	15.752115
2212.000000	15.643511
2211.000000	15.519195
2210.000000	15.423938
2209.000000	15.321131
2208.000000	15.312468
2207.000000	15.184220
2206.000000	15.206198
2205.000000	15.103544
2204.000000	15.024715
2203.000000	14.988171
2202.000000	14.915389
2201.000000	14.957490
2200.000000	14.867825
2199.000000	14.823800
2198.000000	14.766326
2197.000000	14.739169
2196.000000	14.593820
2195.000000	14.449262
2194.000000	14.383162
2193.000000	14.397655
2192.000000	14.312473
2191.000000	14.230866
2190.000000	14.222519
2189.000000	14.031161
2188.000000	13.939363
2187.000000	13.921418
2186.000000	14.029188
2185.000000	13.912882
2184.000000	13.961493
2183.000000	13.949017
2182.000000	13.934985
2181.000000	13.820905
2180.000000	13.807939
2179.000000	13.856696
2178.000000	13.755279
2177.000000	13.803952
2176.000000	13.679079
2175.000000	13.821348
2174.000000	13.830983
2173.000000	13.795844
2172.000000	13.962132
2171.000000	13.889885
2170.000000	13.953919
2169.000000	13.997016
2168.000000	14.201338
2167.000000	14.179288
2166.000000	14.059625
2165.000000	14.244238
2164.000000	14.382676
2163.000000	14.448212
2162.000000	14.443095
2161.000000	14.496270
2160.000000	14.760436
2159.000000	14.872653
2158.000000	14.803934
2157.000000	14.922075
2156.000000	15.153154
2155.000000	15.290030
2154.000000	15.448627
2153.000000	15.357273
2152.000000	15.508369
2151.000000	15.680795
2150.000000	15.797686
2149.000000	15.887553
2148.000000	16.134701
2147.000000	16.384032
2146.000000	16.305759
2145.000000	16.403135
2144.000000	16.588063
2143.000000	16.676084
2142.000000	16.837982
2141.000000	16.912660
2140.000000	16.943276
2139.000000	17.097581
2138.000000	17.166693
2137.000000	17.316765
2136.000000	17.482655
2135.000000	17.534401
2134.000000	17.776108
2133.000000	17.435216
2132.000000	17.894585
2131.000000	17.929986
2130.000000	18.059044
2129.000000	18.028045
2128.000000	17.942740
2127.000000	18.057458
2126.000000	18.094928
2125.000000	18.158992
2124.000000	18.171969
2123.000000	18.327791
2122.000000	18.446059
2121.000000	18.256628
2120.000000	18.214710
2119.000000	18.389123
2118.000000	18.503202
2117.000000	18.479090
2116.000000	18.527971
2115.000000	18.698033
2114.000000	18.716229
2113.000000	18.434148
2112.000000	18.682396
2111.000000	18.579653
2110.000000	18.574282
2109.000000	18.719635
2108.000000	18.659173
2107.000000	18.740695
2106.000000	18.788791
2105.000000	18.705129
2104.000000	18.830106
2103.000000	18.810325
2102.000000	18.727970
2101.000000	18.804282
2100.000000	18.856363
2099.000000	18.848456
2098.000000	18.790546
2097.000000	18.816382
2096.000000	18.830810
2095.000000	18.859099
2094.000000	18.910981
2093.000000	18.789808
2092.000000	18.807519
2091.000000	18.771888
2090.000000	18.693394
2089.000000	18.686556
2088.000000	18.690724
2087.000000	18.699689
2086.000000	18.733746
2085.000000	18.739145
2084.000000	18.683630
2083.000000	18.578288
2082.000000	18.449994
2081.000000	18.359311
2080.000000	18.321447
2079.000000	18.278122
2078.000000	18.162441
2077.000000	18.224388
2076.000000	18.058921
2075.000000	17.988101
2074.000000	17.881658
2073.000000	17.880709
2072.000000	17.777309
2071.000000	17.646786
2070.000000	17.545119
2069.000000	17.393124
2068.000000	17.331957
2067.000000	17.174101
2066.000000	16.992799
2065.000000	16.925265
2064.000000	16.811962
2063.000000	16.598156
2062.000000	16.478106
2061.000000	16.356699
2060.000000	16.193887
2059.000000	16.136727
2058.000000	16.029337
2057.000000	15.940435
2056.000000	15.898753
2055.000000	15.685799
2054.000000	15.546149
2053.000000	15.451487
2052.000000	15.329791
2051.000000	15.224116
2050.000000	15.140684
2049.000000	15.108304
2048.000000	15.049037
2047.000000	14.981812
2046.000000	14.912275
2045.000000	14.824349
2044.000000	14.819170
2043.000000	14.804700
2042.000000	14.824631
2041.000000	14.912122
2040.000000	14.939942
2039.000000	14.894608
2038.000000	14.937737
2037.000000	15.000354
2036.000000	15.088819
2035.000000	15.168584
2034.000000	15.212706
2033.000000	15.283089
2032.000000	15.388773
2031.000000	15.472937
2030.000000	15.599012
2029.000000	15.724392
2028.000000	15.863091
2027.000000	15.996254
2026.000000	16.098871
2025.000000	16.218772
2024.000000	16.269018
2023.000000	16.308403
2022.000000	16.414215
2021.000000	16.481043
2020.000000	16.557259
2019.000000	16.620403
2018.000000	16.663125
2017.000000	16.710515
2016.000000	16.696117
2015.000000	16.685919
2014.000000	16.712409
2013.000000	16.717368
2012.000000	16.717312
2011.000000	16.681812
2010.000000	16.670681
2009.000000	16.644330
2008.000000	16.589563
2007.000000	16.542802
2006.000000	16.467156
2005.000000	16.397418
2004.000000	16.338033
2003.000000	16.287934
2002.000000	16.211330
2001.000000	16.159684
2000.000000	16.108328
1999.000000	16.015804
1998.000000	15.962940
1997.000000	15.915825
1996.000000	15.850274
1995.000000	15.726271
1994.000000	15.646641
1993.000000	15.630806
1992.000000	15.499560
1991.000000	15.383790
1990.000000	15.337879
1989.000000	15.239417
1988.000000	15.164152
1987.000000	15.079282
1986.000000	14.992832
1985.000000	14.947855
1984.000000	14.839071
1983.000000	14.778865
1982.000000	14.725227
1981.000000	14.670403
1980.000000	14.565098
1979.000000	14.520730
1978.000000	14.462929
1977.000000	14.347682
1976.000000	14.257102
1975.000000	14.239100
1974.000000	14.131280
1973.000000	14.056476
1972.000000	14.000987
1971.000000	13.949374
1970.000000	13.914315
1969.000000	13.821655
1968.000000	13.787646
1967.000000	13.738173
1966.000000	13.643591
1965.000000	13.550416
1964.000000	13.480338
1963.000000	13.424277
1962.000000	13.331388
1961.000000	13.264040
1960.000000	13.247760
1959.000000	13.176409
1958.000000	13.161488
1957.000000	13.123794
1956.000000	13.060534
1955.000000	13.008923
1954.000000	12.960115
1953.000000	12.927197
1952.000000	12.905071
1951.000000	12.892968
1950.000000	12.781886
1949.000000	12.809109
1948.000000	12.806661
1947.000000	12.771406
1946.000000	12.742708
1945.000000	12.758960
1944.000000	12.755499
1943.000000	12.826644
1942.000000	12.824278
1941.000000	12.889069
1940.000000	12.897054
1939.000000	12.957318
1938.000000	13.031262
1937.000000	13.143152
1936.000000	13.246575
1935.000000	13.323277
1934.000000	13.330318
1933.000000	13.495254
1932.000000	13.580042
1931.000000	13.730336
1930.000000	13.878797
1929.000000	13.954044
1928.000000	14.085451
1927.000000	14.288879
1926.000000	14.495414
1925.000000	14.737064
1924.000000	14.923070
1923.000000	15.113381
1922.000000	15.332087
1921.000000	15.529876
1920.000000	15.748700
1919.000000	16.014853
1918.000000	16.296362
1917.000000	16.598660
1916.000000	16.769729
1915.000000	17.076349
1914.000000	17.429988
1913.000000	17.765374
1912.000000	18.038664
1911.000000	18.343333
1910.000000	18.674242
1909.000000	18.968754
1908.000000	19.338872
1907.000000	19.738779
1906.000000	20.061444
1905.000000	20.493537
1904.000000	20.896261
1903.000000	21.275429
1902.000000	21.676033
1901.000000	22.080373
1900.000000	22.516878
1899.000000	22.942811
1898.000000	23.368516
1897.000000	23.747863
1896.000000	24.208741
1895.000000	24.616640
1894.000000	25.051506
1893.000000	25.438447
1892.000000	25.835856
1891.000000	26.234037
1890.000000	26.634708
1889.000000	27.039752
1888.000000	27.367757
1887.000000	27.754171
1886.000000	28.092240
1885.000000	28.431037
1884.000000	28.810253
1883.000000	29.131627
1882.000000	29.387103
1881.000000	29.656211
1880.000000	29.968356
1879.000000	30.227917
1878.000000	30.449016
1877.000000	30.715449
1876.000000	30.938941
1875.000000	31.130207
1874.000000	31.359071
1873.000000	31.498644
1872.000000	31.687454
1871.000000	31.815095
1870.000000	31.939096
1869.000000	32.138168
1868.000000	32.244190
1867.000000	32.313602
1866.000000	32.384548
1865.000000	32.463381
1864.000000	32.541210
1863.000000	32.604267
1862.000000	32.665992
1861.000000	32.725759
1860.000000	32.777397
1859.000000	32.791466
1858.000000	32.820562
1857.000000	32.870603
1856.000000	32.878904
1855.000000	32.903677
1854.000000	32.889711
1853.000000	32.938622
1852.000000	32.943781
1851.000000	32.940187
1850.000000	32.963736
1849.000000	32.929825
1848.000000	32.923158
1847.000000	32.922007
1846.000000	32.894892
1845.000000	32.875296
1844.000000	32.851621
1843.000000	32.811321
1842.000000	32.802144
1841.000000	32.777491
1840.000000	32.712662
1839.000000	32.684765
1838.000000	32.671057
1837.000000	32.614347
1836.000000	32.572827
1835.000000	32.537341
1834.000000	32.478925
1833.000000	32.428416
1832.000000	32.388496
1831.000000	32.336782
1830.000000	32.304189
1829.000000	32.238860
1828.000000	32.179995
1827.000000	32.152535
1826.000000	32.114499
1825.000000	32.083214
1824.000000	32.066543
1823.000000	32.027905
1822.000000	31.969466
1821.000000	31.917548
1820.000000	31.875287
1819.000000	31.828592
1818.000000	31.811595
1817.000000	31.779794
1816.000000	31.732989
1815.000000	31.708792
1814.000000	31.672776
1813.000000	31.637462
1812.000000	31.607100
1811.000000	31.561063
1810.000000	31.526772
1809.000000	31.510068
1808.000000	31.481904
1807.000000	31.446066
1806.000000	31.407812
1805.000000	31.361386
1804.000000	31.321360
1803.000000	31.293224
1802.000000	31.256276
1801.000000	31.223905
1800.000000	31.204953
1799.000000	31.192573
1798.000000	31.175687
1797.000000	31.138231
1796.000000	31.112138
1795.000000	31.093392
1794.000000	31.081204
1793.000000	31.066124
1792.000000	31.035171
1791.000000	31.006544
1790.000000	30.973615
1789.000000	30.949457
1788.000000	30.938090
1787.000000	30.920839
1786.000000	30.904990
1785.000000	30.860909
1784.000000	30.830280
1783.000000	30.792768
1782.000000	30.762207
1781.000000	30.724956
1780.000000	30.667275
1779.000000	30.653704
1778.000000	30.605871
1777.000000	30.521330
1776.000000	30.475075
1775.000000	30.421073
1774.000000	30.337090
1773.000000	30.302127
1772.000000	30.222376
1771.000000	30.168957
1770.000000	30.097166
1769.000000	30.028521
1768.000000	29.977137
1767.000000	29.913398
1766.000000	29.851693
1765.000000	29.792416
1764.000000	29.730573
1763.000000	29.658521
1762.000000	29.610580
1761.000000	29.535529
1760.000000	29.457668
1759.000000	29.396487
1758.000000	29.355041
1757.000000	29.294798
1756.000000	29.243001
1755.000000	29.179490
1754.000000	29.110904
1753.000000	29.059297
1752.000000	28.997573
1751.000000	28.935098
1750.000000	28.854916
1749.000000	28.796439
1748.000000	28.754608
1747.000000	28.689231
1746.000000	28.619236
1745.000000	28.552620
1744.000000	28.469396
1743.000000	28.403216
1742.000000	28.328695
1741.000000	28.292386
1740.000000	28.234923
1739.000000	28.165663
1738.000000	28.105506
1737.000000	28.038780
1736.000000	28.021196
1735.000000	28.004345
1734.000000	27.988219
1733.000000	27.953910
1732.000000	27.960163
1731.000000	27.965457
1730.000000	27.967919
1729.000000	27.980013
1728.000000	28.014718
1727.000000	28.069134
1726.000000	28.117569
1725.000000	28.186515
1724.000000	28.249601
1723.000000	28.306126
1722.000000	28.388459
1721.000000	28.490658
1720.000000	28.600470
1719.000000	28.692083
1718.000000	28.742236
1717.000000	28.838439
1716.000000	28.956553
1715.000000	29.021468
1714.000000	29.092585
1713.000000	29.178044
1712.000000	29.247680
1711.000000	29.343737
1710.000000	29.386618
1709.000000	29.440625
1708.000000	29.501914
1707.000000	29.545123
1706.000000	29.580116
1705.000000	29.599449
1704.000000	29.654743
1703.000000	29.653561
1702.000000	29.671885
1701.000000	29.690614
1700.000000	29.727021
1699.000000	29.739597
1698.000000	29.778334
1697.000000	29.805917
1696.000000	29.855405
1695.000000	29.871398
1694.000000	29.932232
1693.000000	29.990395
1692.000000	30.060617
1691.000000	30.098707
1690.000000	30.213476
1689.000000	30.308419
1688.000000	30.413003
1687.000000	30.520423
1686.000000	30.660230
1685.000000	30.772215
1684.000000	30.919432
1683.000000	31.075806
1682.000000	31.264151
1681.000000	31.433655
1680.000000	31.574997
1679.000000	31.731798
1678.000000	31.913661
1677.000000	32.120527
1676.000000	32.288807
1675.000000	32.474634
1674.000000	32.634107
1673.000000	32.804193
1672.000000	32.968934
1671.000000	33.122845
1670.000000	33.297439
1669.000000	33.480275
1668.000000	33.595957
1667.000000	33.718177
1666.000000	33.824542
1665.000000	33.912051
1664.000000	34.012856
1663.000000	34.095638
1662.000000	34.185771
1661.000000	34.261753
1660.000000	34.347584
1659.000000	34.385556
1658.000000	34.429239
1657.000000	34.497500
1656.000000	34.520212
1655.000000	34.554218
1654.000000	34.583708
1653.000000	34.605283
1652.000000	34.605848
1651.000000	34.603893
1650.000000	34.601823
1649.000000	34.611532
1648.000000	34.593086
1647.000000	34.584963
1646.000000	34.569326
1645.000000	34.559792
1644.000000	34.538275
1643.000000	34.520391
1642.000000	34.508040
1641.000000	34.484961
1640.000000	34.446399
1639.000000	34.421099
1638.000000	34.392989
1637.000000	34.354581
1636.000000	34.320956
1635.000000	34.286134
1634.000000	34.249525
1633.000000	34.198549
1632.000000	34.168861
1631.000000	34.118860
1630.000000	34.066712
1629.000000	34.033893
1628.000000	33.990200
1627.000000	33.939478
1626.000000	33.891937
1625.000000	33.857734
1624.000000	33.818164
1623.000000	33.771377
1622.000000	33.721092
1621.000000	33.664284
1620.000000	33.613288
1619.000000	33.569877
1618.000000	33.515615
1617.000000	33.457934
1616.000000	33.395323
1615.000000	33.345719
1614.000000	33.297561
1613.000000	33.240734
1612.000000	33.184715
1611.000000	33.134754
1610.000000	33.066368
1609.000000	33.002397
1608.000000	32.962762
1607.000000	32.912451
1606.000000	32.827717
1605.000000	32.764725
1604.000000	32.712745
1603.000000	32.650594
1602.000000	32.588947
1601.000000	32.531439
1600.000000	32.469544
1599.000000	32.413744
1598.000000	32.360096
1597.000000	32.300980
1596.000000	32.245271
1595.000000	32.192709
1594.000000	32.133497
1593.000000	32.080080
1592.000000	32.034834
1591.000000	31.964561
1590.000000	31.909819
1589.000000	31.861577
1588.000000	31.810839
1587.000000	31.774655
1586.000000	31.732164
1585.000000	31.683857
1584.000000	31.628537
1583.000000	31.588607
1582.000000	31.543635
1581.000000	31.496139
1580.000000	31.456253
1579.000000	31.405125
1578.000000	31.379426
1577.000000	31.331328
1576.000000	31.263664
1575.000000	31.225214
1574.000000	31.181580
1573.000000	31.136557
1572.000000	31.099750
1571.000000	31.054263
1570.000000	31.013570
1569.000000	30.984156
1568.000000	30.947701
1567.000000	30.895253
1566.000000	30.856067
1565.000000	30.835204
1564.000000	30.803920
1563.000000	30.774867
1562.000000	30.742436
1561.000000	30.723323
1560.000000	30.693988
1559.000000	30.658862
1558.000000	30.633609
1557.000000	30.625583
1556.000000	30.600750
1555.000000	30.563641
1554.000000	30.532467
1553.000000	30.519656
1552.000000	30.483831
1551.000000	30.444067
1550.000000	30.398798
1549.000000	30.355732
1548.000000	30.306161
1547.000000	30.255580
1546.000000	30.210932
1545.000000	30.154006
1544.000000	30.073094
1543.000000	30.014997
1542.000000	29.940320
1541.000000	29.858814
1540.000000	29.784944
1539.000000	29.704207
1538.000000	29.621583
1537.000000	29.533982
1536.000000	29.453228
1535.000000	29.342939
1534.000000	29.241954
1533.000000	29.182849
1532.000000	29.099273
1531.000000	29.034262
1530.000000	28.993852
1529.000000	28.980428
1528.000000	28.929167
1527.000000	28.873774
1526.000000	28.775935
1525.000000	28.683605
1524.000000	28.599969
1523.000000	28.510828
1522.000000	28.436939
1521.000000	28.383914
1520.000000	28.334192
1519.000000	28.282552
1518.000000	28.245738
1517.000000	28.222012
1516.000000	28.172316
1515.000000	28.115252
1514.000000	28.083566
1513.000000	28.068088
1512.000000	28.017431
1511.000000	27.973041
1510.000000	27.946776
1509.000000	27.918409
1508.000000	27.885792
1507.000000	27.887068
1506.000000	27.872471
1505.000000	27.837574
1504.000000	27.820132
1503.000000	27.802450
1502.000000	27.790113
1501.000000	27.790647
1500.000000	27.782045
1499.000000	27.766809
1498.000000	27.800891
1497.000000	27.796110
1496.000000	27.797656
1495.000000	27.836611
1494.000000	27.852632
1493.000000	27.879690
1492.000000	27.879435
1491.000000	27.945520
1490.000000	27.974503
1489.000000	28.037331
1488.000000	28.084665
1487.000000	28.131571
1486.000000	28.178473
1485.000000	28.248070
1484.000000	28.313102
1483.000000	28.386761
1482.000000	28.452858
1481.000000	28.507580
1480.000000	28.598931
1479.000000	28.668840
1478.000000	28.730050
1477.000000	28.820767
1476.000000	28.895344
1475.000000	28.935359
1474.000000	28.998817
1473.000000	29.049219
1472.000000	29.121911
1471.000000	29.184866
1470.000000	29.231421
1469.000000	29.319232
1468.000000	29.391736
1467.000000	29.430072
1466.000000	29.477670
1465.000000	29.511527
1464.000000	29.557257
1463.000000	29.615357
1462.000000	29.667578
1461.000000	29.719375
1460.000000	29.757931
1459.000000	29.819649
1458.000000	29.889686
1457.000000	29.931166
1456.000000	29.974677
1455.000000	30.015810
1454.000000	30.097006
1453.000000	30.165626
1452.000000	30.209496
1451.000000	30.252850
1450.000000	30.305581
1449.000000	30.377223
1448.000000	30.444851
1447.000000	30.514328
1446.000000	30.561758
1445.000000	30.635970
1444.000000	30.729892
1443.000000	30.806455
1442.000000	30.854328
1441.000000	30.911648
1440.000000	30.994350
1439.000000	31.066259
1438.000000	31.146377
1437.000000	31.229006
1436.000000	31.339587
1435.000000	31.436781
1434.000000	31.516084
1433.000000	31.606068
1432.000000	31.699621
1431.000000	31.788501
1430.000000	31.889085
1429.000000	31.992946
1428.000000	32.109569
1427.000000	32.229045
1426.000000	32.341311
1425.000000	32.475670
1424.000000	32.595990
1423.000000	32.725142
1422.000000	32.873289
1421.000000	33.009896
1420.000000	33.148219
1419.000000	33.275786
1418.000000	33.419662
1417.000000	33.585524
1416.000000	33.743746
1415.000000	33.915273
1414.000000	34.084548
1413.000000	34.239321
1412.000000	34.386174
1411.000000	34.559845
1410.000000	34.730290
1409.000000	34.903398
1408.000000	35.075213
1407.000000	35.237233
1406.000000	35.375641
1405.000000	35.526445
1404.000000	35.694750
1403.000000	35.854950
1402.000000	36.005990
1401.000000	36.153876
1400.000000	36.284038
1399.000000	36.426865
1398.000000	36.566417
1397.000000	36.705762
1396.000000	36.848832
1395.000000	36.986622
1394.000000	37.116711
1393.000000	37.226457
1392.000000	37.346388
1391.000000	37.491139
1390.000000	37.629740
1389.000000	37.757240
1388.000000	37.871668
1387.000000	37.959168
1386.000000	38.069982
1385.000000	38.179649
1384.000000	38.268798
1383.000000	38.375535
1382.000000	38.476368
1381.000000	38.550702
1380.000000	38.601277
1379.000000	38.664274
1378.000000	38.752634
1377.000000	38.832788
1376.000000	38.882968
1375.000000	38.923494
1374.000000	38.976713
1373.000000	39.015858
1372.000000	39.041186
1371.000000	39.095772
1370.000000	39.166384
1369.000000	39.227116
1368.000000	39.279889
1367.000000	39.325620
1366.000000	39.365066
1365.000000	39.411486
1364.000000	39.459941
1363.000000	39.508199
1362.000000	39.561682
1361.000000	39.614106
1360.000000	39.669466
1359.000000	39.721808
1358.000000	39.768450
1357.000000	39.830061
1356.000000	39.898603
1355.000000	39.965116
1354.000000	40.021533
1353.000000	40.057532
1352.000000	40.108842
1351.000000	40.169601
1350.000000	40.230346
1349.000000	40.273368
1348.000000	40.312090
1347.000000	40.371905
1346.000000	40.438606
1345.000000	40.504198
1344.000000	40.550497
1343.000000	40.602329
1342.000000	40.643448
1341.000000	40.684162
1340.000000	40.712491
1339.000000	40.763940
1338.000000	40.802710
1337.000000	40.833162
1336.000000	40.858012
1335.000000	40.889319
1334.000000	40.945568
1333.000000	41.009067
1332.000000	41.037589
1331.000000	41.059390
1330.000000	41.065884
1329.000000	41.084929
1328.000000	41.100603
1327.000000	41.142617
1326.000000	41.151176
1325.000000	41.177076
1324.000000	41.216280
1323.000000	41.217307
1322.000000	41.217418
1321.000000	41.238366
1320.000000	41.269059
1319.000000	41.292363
1318.000000	41.300391
1317.000000	41.282807
1316.000000	41.278121
1315.000000	41.297073
1314.000000	41.324615
1313.000000	41.343914
1312.000000	41.331460
1311.000000	41.330553
1310.000000	41.353139
1309.000000	41.370105
1308.000000	41.381886
1307.000000	41.370238
1306.000000	41.372383
1305.000000	41.408263
1304.000000	41.397431
1303.000000	41.404263
1302.000000	41.394460
1301.000000	41.388514
1300.000000	41.390798
1299.000000	41.379446
1298.000000	41.417327
1297.000000	41.457399
1296.000000	41.431241
1295.000000	41.421385
1294.000000	41.397068
1293.000000	41.391422
1292.000000	41.400397
1291.000000	41.350251
1290.000000	41.326198
1289.000000	41.315351
1288.000000	41.327038
1287.000000	41.329563
1286.000000	41.341898
1285.000000	41.321890
1284.000000	41.324893
1283.000000	41.334102
1282.000000	41.303175
1281.000000	41.254727
1280.000000	41.245823
1279.000000	41.254261
1278.000000	41.262589
1277.000000	41.261604
1276.000000	41.276467
1275.000000	41.263519
1274.000000	41.254572
1273.000000	41.251951
1272.000000	41.244691
1271.000000	41.263190
1270.000000	41.270214
1269.000000	41.250940
1268.000000	41.244666
1267.000000	41.272323
1266.000000	41.300844
1265.000000	41.310937
1264.000000	41.288051
1263.000000	41.285160
1262.000000	41.283541
1261.000000	41.283892
1260.000000	41.308509
1259.000000	41.357351
1258.000000	41.331432
1257.000000	41.316592
1256.000000	41.323733
1255.000000	41.328171
1254.000000	41.313415
1253.000000	41.312997
1252.000000	41.345861
1251.000000	41.364897
1250.000000	41.340387
1249.000000	41.332679
1248.000000	41.309161
1247.000000	41.302814
1246.000000	41.281477
1245.000000	41.279249
1244.000000	41.236862
1243.000000	41.218147
1242.000000	41.209458
1241.000000	41.190823
1240.000000	41.193934
1239.000000	41.168376
1238.000000	41.110414
1237.000000	41.099370
1236.000000	41.066197
1235.000000	41.018199
1234.000000	40.992883
1233.000000	40.979156
1232.000000	40.957420
1231.000000	40.932185
1230.000000	40.879576
1229.000000	40.863493
1228.000000	40.830236
1227.000000	40.810844
1226.000000	40.783920
1225.000000	40.730138
1224.000000	40.693910
1223.000000	40.685961
1222.000000	40.672407
1221.000000	40.628592
1220.000000	40.610309
1219.000000	40.577922
1218.000000	40.547720
1217.000000	40.525900
1216.000000	40.495740
1215.000000	40.470178
1214.000000	40.466013
1213.000000	40.412889
1212.000000	40.369711
1211.000000	40.357842
1210.000000	40.347286
1209.000000	40.278019
1208.000000	40.241824
1207.000000	40.221205
1206.000000	40.177622
1205.000000	40.129463
1204.000000	40.109311
1203.000000	40.079033
1202.000000	40.013124
1201.000000	39.988684
1200.000000	39.980055
1199.000000	39.947753
1198.000000	39.893811
1197.000000	39.855531
1196.000000	39.833161
1195.000000	39.823869
1194.000000	39.817624
1193.000000	39.780703
1192.000000	39.744074
1191.000000	39.715981
1190.000000	39.673494
1189.000000	39.628206
1188.000000	39.622086
1187.000000	39.635423
1186.000000	39.629430
1185.000000	39.628740
1184.000000	39.636673
1183.000000	39.649530
1182.000000	39.676010
1181.000000	39.698107
1180.000000	39.732748
1179.000000	39.776776
1178.000000	39.813274
1177.000000	39.844634
1176.000000	39.882185
1175.000000	39.936335
1174.000000	39.992953
1173.000000	40.045112
1172.000000	40.097065
1171.000000	40.152893
1170.000000	40.210481
1169.000000	40.269831
1168.000000	40.338491
1167.000000	40.416695
1166.000000	40.488197
1165.000000	40.553564
1164.000000	40.628680
1163.000000	40.697337
1162.000000	40.757565
1161.000000	40.821129
1160.000000	40.898054
1159.000000	40.971750
1158.000000	41.018843
1157.000000	41.067185
1156.000000	41.140061
1155.000000	41.206087
1154.000000	41.251704
1153.000000	41.301055
1152.000000	41.349316
1151.000000	41.400919
1150.000000	41.448742
1149.000000	41.483298
1148.000000	41.533112
1147.000000	41.572344
1146.000000	41.592461
1145.000000	41.614855
1144.000000	41.654506
1143.000000	41.701642
1142.000000	41.740667
1141.000000	41.788051
1140.000000	41.828646
1139.000000	41.856479
1138.000000	41.898808
1137.000000	41.935765
1136.000000	41.977926
1135.000000	42.028281
1134.000000	42.061353
1133.000000	42.087470
1132.000000	42.117815
1131.000000	42.146833
1130.000000	42.178515
1129.000000	42.201106
1128.000000	42.200654
1127.000000	42.220573
1126.000000	42.246459
1125.000000	42.255814
1124.000000	42.263674
1123.000000	42.273392
1122.000000	42.290501
1121.000000	42.314299
1120.000000	42.322171
1119.000000	42.333207
1118.000000	42.344414
1117.000000	42.339067
1116.000000	42.340109
1115.000000	42.337915
1114.000000	42.341468
1113.000000	42.340705
1112.000000	42.349503
1111.000000	42.357883
1110.000000	42.338165
1109.000000	42.330425
1108.000000	42.340634
1107.000000	42.348551
1106.000000	42.356213
1105.000000	42.357162
1104.000000	42.355837
1103.000000	42.353438
1102.000000	42.364076
1101.000000	42.353810
1100.000000	42.350395
1099.000000	42.329676
1098.000000	42.321836
1097.000000	42.332955
1096.000000	42.338082
1095.000000	42.332532
1094.000000	42.329332
1093.000000	42.338571
1092.000000	42.355300
1091.000000	42.319913
1090.000000	42.293866
1089.000000	42.295449
1088.000000	42.303737
1087.000000	42.318089
1086.000000	42.311932
1085.000000	42.306883
1084.000000	42.274070
1083.000000	42.282989
1082.000000	42.275287
1081.000000	42.269442
1080.000000	42.279404
1079.000000	42.262154
1078.000000	42.253307
1077.000000	42.242440
1076.000000	42.237287
1075.000000	42.223169
1074.000000	42.216783
1073.000000	42.219320
1072.000000	42.215104
1071.000000	42.211964
1070.000000	42.171811
1069.000000	42.169574
1068.000000	42.164284
1067.000000	42.154693
1066.000000	42.158781
1065.000000	42.148459
1064.000000	42.132014
1063.000000	42.152950
1062.000000	42.103161
1061.000000	42.092834
1060.000000	42.092202
1059.000000	42.107411
1058.000000	42.097885
1057.000000	42.087523
1056.000000	42.039101
1055.000000	42.035503
1054.000000	42.037717
1053.000000	42.036432
1052.000000	42.022738
1051.000000	41.989266
1050.000000	41.985390
1049.000000	41.986736
1048.000000	41.962439
1047.000000	41.971271
1046.000000	41.936389
1045.000000	41.946848
1044.000000	41.955608
1043.000000	41.952908
1042.000000	41.949100
1041.000000	41.915074
1040.000000	41.920568
1039.000000	41.923521
1038.000000	41.884760
1037.000000	41.880406
1036.000000	41.878020
1035.000000	41.874815
1034.000000	41.885175
1033.000000	41.896171
1032.000000	41.877693
1031.000000	41.869678
1030.000000	41.849980
1029.000000	41.833219
1028.000000	41.830332
1027.000000	41.848199
1026.000000	41.856179
1025.000000	41.870131
1024.000000	41.835337
1023.000000	41.844753
1022.000000	41.841449
1021.000000	41.815475
1020.000000	41.811956
1019.000000	41.825622
1018.000000	41.805225
1017.000000	41.824354
1016.000000	41.843127
1015.000000	41.850764
1014.000000	41.831262
1013.000000	41.836900
1012.000000	41.846457
1011.000000	41.849343
1010.000000	41.845813
1009.000000	41.851525
1008.000000	41.843235
1007.000000	41.859342
1006.000000	41.875533
1005.000000	41.865745
1004.000000	41.875984
1003.000000	41.887368
1002.000000	41.883203
1001.000000	41.892815
1000.000000	41.907143
999.000000	41.889778
998.000000	41.881729
997.000000	41.891896
996.000000	41.907158
995.000000	41.912159
994.000000	41.910768
993.000000	41.916157
992.000000	41.917226
991.000000	41.928337
990.000000	41.927654
989.000000	41.929968
988.000000	41.923545
987.000000	41.929990
986.000000	41.955090
985.000000	41.958661
984.000000	41.953262
983.000000	41.962343
982.000000	41.986339
981.000000	42.000714
980.000000	42.011558
979.000000	42.041974
978.000000	42.067445
977.000000	42.069787
976.000000	42.066019
975.000000	42.067953
974.000000	42.074542
973.000000	42.089334
972.000000	42.101522
971.000000	42.113196
970.000000	42.111863
969.000000	42.116240
968.000000	42.118917
967.000000	42.128285
966.000000	42.126319
965.000000	42.136758
964.000000	42.149031
963.000000	42.161018
962.000000	42.167888
961.000000	42.157519
960.000000	42.156165
959.000000	42.163825
958.000000	42.169356
957.000000	42.165434
956.000000	42.177666
955.000000	42.192412
954.000000	42.191432
953.000000	42.179128
952.000000	42.180791
951.000000	42.190540
950.000000	42.193956
949.000000	42.197302
948.000000	42.206441
947.000000	42.213769
946.000000	42.200201
945.000000	42.190425
944.000000	42.190852
943.000000	42.198974
942.000000	42.200621
941.000000	42.198318
940.000000	42.199899
939.000000	42.189321
938.000000	42.186094
937.000000	42.197197
936.000000	42.191288
935.000000	42.181662
934.000000	42.182508
933.000000	42.185315
932.000000	42.186710
931.000000	42.192600
930.000000	42.179169
929.000000	42.171469
928.000000	42.162269
927.000000	42.158694
926.000000	42.137955
925.000000	42.130885
924.000000	42.121949
923.000000	42.117071
922.000000	42.133048
921.000000	42.143166
920.000000	42.141113
919.000000	42.139330
918.000000	42.107649
917.000000	42.114193
916.000000	42.123886
915.000000	42.107175
914.000000	42.096516
913.000000	42.108530
912.000000	42.094189
911.000000	42.101884
910.000000	42.093563
909.000000	42.066011
908.000000	42.079307
907.000000	42.063353
906.000000	42.097600
905.000000	42.124258
904.000000	42.119599
903.000000	42.115805
902.000000	42.135176
901.000000	42.112941
900.000000	42.104396
899.000000	42.113785
898.000000	42.135090
897.000000	42.141618
896.000000	42.120161
895.000000	42.122401
894.000000	42.085805
893.000000	42.055648
892.000000	42.084755
891.000000	42.159873
890.000000	42.124434
889.000000	42.158938
888.000000	42.176724
887.000000	42.176132
886.000000	42.120792
885.000000	42.140500
884.000000	42.107727
883.000000	42.167401
882.000000	42.102218
881.000000	42.074783
880.000000	42.092559
879.000000	42.100400
878.000000	42.132734
877.000000	42.113295
876.000000	42.110687
875.000000	42.111950
874.000000	42.185490
873.000000	42.157560
872.000000	42.113561
871.000000	42.152430
870.000000	42.104617
869.000000	42.151642
868.000000	42.104421
867.000000	42.093182
866.000000	42.065666
865.000000	42.073989
864.000000	42.123574
863.000000	42.010333
862.000000	42.029517
861.000000	42.055595
860.000000	42.084604
859.000000	41.865439
858.000000	42.052326
857.000000	42.108429
856.000000	42.175366
855.000000	42.179201
854.000000	41.940001
853.000000	41.889726
852.000000	41.833976
851.000000	41.844758
850.000000	41.873623
849.000000	42.003628
848.000000	41.885016
847.000000	42.049648
846.000000	41.979907
845.000000	42.012948
844.000000	41.887933
843.000000	41.923523
842.000000	41.892504
841.000000	41.855726
840.000000	41.815698
839.000000	41.731076
838.000000	41.734348
837.000000	41.765648
836.000000	41.838951
835.000000	41.719105
834.000000	41.815559
833.000000	41.783304
832.000000	41.707048
831.000000	41.739162
830.000000	41.784591
829.000000	41.689849
828.000000	41.639666
827.000000	41.687364
826.000000	41.683248
825.000000	41.650651
824.000000	41.670269
823.000000	41.529404
822.000000	41.638436
821.000000	41.650866
820.000000	41.651287
819.000000	41.597206
818.000000	41.623235
817.000000	41.673661
816.000000	41.660390
815.000000	41.617316
814.000000	41.580522
813.000000	41.512080
812.000000	41.493210
811.000000	41.538332
810.000000	41.595584
809.000000	41.567782
808.000000	41.498933
807.000000	41.618380
806.000000	41.593142
805.000000	41.562377
804.000000	41.512655
803.000000	41.477747
802.000000	41.374902
801.000000	41.455127
800.000000	41.544624
799.000000	41.409142
798.000000	41.457983
797.000000	41.344247
796.000000	41.393720
795.000000	41.550138
794.000000	41.380467
793.000000	41.401785
792.000000	41.320050
791.000000	41.333031
790.000000	41.332067
789.000000	41.368604
788.000000	41.331415
787.000000	41.295379
786.000000	41.304943
785.000000	41.317372
784.000000	41.218675
783.000000	41.331037
782.000000	41.282401
781.000000	41.312746
780.000000	41.277152
779.000000	41.222165
778.000000	41.246698
777.000000	41.175970
776.000000	41.112545
775.000000	41.212564
774.000000	41.188530
773.000000	41.178358
772.000000	41.167149
771.000000	41.123833
770.000000	41.126923
769.000000	41.136720
768.000000	41.142534
767.000000	41.118670
766.000000	41.093682
765.000000	41.033076
764.000000	41.051240
763.000000	41.097280
762.000000	41.079347
761.000000	41.062402
760.000000	40.998696
759.000000	40.975967
758.000000	40.969723
757.000000	40.952336
756.000000	40.989092
755.000000	40.929841
754.000000	40.942950
753.000000	40.885768
752.000000	40.896976
751.000000	40.922567
750.000000	40.883470
749.000000	40.901206
748.000000	40.856418
747.000000	40.805724
746.000000	40.799491
745.000000	40.813875
744.000000	40.783730
743.000000	40.726649
742.000000	40.704045
741.000000	40.734830
740.000000	40.705519
739.000000	40.698469
738.000000	40.683095
737.000000	40.655205
736.000000	40.590899
735.000000	40.593070
734.000000	40.617063
733.000000	40.598662
732.000000	40.597251
731.000000	40.600528
730.000000	40.558366
729.000000	40.493037
728.000000	40.454490
727.000000	40.483438
726.000000	40.491812
725.000000	40.504625
724.000000	40.430289
723.000000	40.414704
722.000000	40.499252
721.000000	40.449704
720.000000	40.372447
719.000000	40.381483
718.000000	40.357088
717.000000	40.319276
716.000000	40.303664
715.000000	40.320914
714.000000	40.310351
713.000000	40.278929
712.000000	40.224556
711.000000	40.170438
710.000000	40.163762
709.000000	40.158437
708.000000	40.123767
707.000000	40.133411
706.000000	40.136287
705.000000	40.085382
704.000000	40.048903
703.000000	40.074528
702.000000	40.033595
701.000000	39.986908
700.000000	40.008629
699.000000	39.978810
698.000000	39.956552
697.000000	39.932259
696.000000	39.902280
695.000000	39.849470
694.000000	39.799737
693.000000	39.797829
692.000000	39.785920
691.000000	39.788819
690.000000	39.763961
689.000000	39.708766
688.000000	39.648611
687.000000	39.598929
686.000000	39.626896
685.000000	39.604246
684.000000	39.552117
683.000000	39.500790
682.000000	39.473309
681.000000	39.465247
680.000000	39.415166
679.000000	39.400785
678.000000	39.396866
677.000000	39.380334
676.000000	39.367781
675.000000	39.328276
674.000000	39.298066
673.000000	39.251781
672.000000	39.194118
671.000000	39.152060
670.000000	39.141251
669.000000	39.146326
668.000000	39.125685
667.000000	39.096528
666.000000	39.073118
665.000000	39.039440
664.000000	38.973515
663.000000	38.952148
662.000000	38.920438
661.000000	38.886758
660.000000	38.899589
659.000000	38.860085
658.000000	38.830000
657.000000	38.805116
656.000000	38.769643
655.000000	38.763415
654.000000	38.739851
653.000000	38.690831
652.000000	38.679363
651.000000	38.631857
650.000000	38.584077
649.000000	38.573157
648.000000	38.554147
647.000000	38.499022
646.000000	38.427095
645.000000	38.410376
644.000000	38.398082
643.000000	38.387070
642.000000	38.326401
641.000000	38.287737
640.000000	38.231648
639.000000	38.209878
638.000000	38.212331
637.000000	38.162377
636.000000	38.135631
635.000000	38.075577
634.000000	38.048598
633.000000	38.044608
632.000000	37.987987
631.000000	37.975561
630.000000	37.919285
629.000000	37.856677
628.000000	37.852982
627.000000	37.827323
626.000000	37.801596
625.000000	37.733615
624.000000	37.694156
623.000000	37.706941
622.000000	37.654025
621.000000	37.586078
620.000000	37.545515
619.000000	37.546895
618.000000	37.490725
617.000000	37.461475
616.000000	37.412815
615.000000	37.418307
614.000000	37.320606
613.000000	37.285397
612.000000	37.223595
611.000000	37.201195
610.000000	37.196913
609.000000	37.174543
608.000000	37.088821
607.000000	37.057636
606.000000	36.999004
605.000000	36.973292
604.000000	36.941611
603.000000	36.906220
602.000000	36.834692
601.000000	36.829724
600.000000	36.777392
599.000000	36.734054
598.000000	36.685167
597.000000	36.649824
596.000000	36.603781
595.000000	36.592499
594.000000	36.538164
593.000000	36.480028
592.000000	36.446647
591.000000	36.397476
590.000000	36.352748
589.000000	36.350561
588.000000	36.288218
587.000000	36.168871
586.000000	36.186182
585.000000	36.129256
584.000000	36.098796
583.000000	36.083732
582.000000	36.013729
581.000000	35.962967
580.000000	35.915179
579.000000	35.885657
578.000000	35.805482
577.000000	35.773007
576.000000	35.723023
575.000000	35.689512
574.000000	35.584258
573.000000	35.576455
572.000000	35.535125
571.000000	35.477579
570.000000	35.461350
569.000000	35.390849
568.000000	35.353478
567.000000	35.282374
566.000000	35.238052
565.000000	35.170342
564.000000	35.162022
563.000000	35.104732
562.000000	34.986416
561.000000	35.013238
560.000000	34.920691
559.000000	34.905136
558.000000	34.833273
557.000000	34.791567
556.000000	34.756425
555.000000	34.671406
554.000000	34.628751
553.000000	34.592781
552.000000	34.513484
551.000000	34.475195
550.000000	34.398556
549.000000	34.349414
548.000000	34.312817
547.000000	34.222976
546.000000	34.182230
545.000000	34.127053
544.000000	34.067120
543.000000	34.021248
542.000000	33.969976
541.000000	33.879486
540.000000	33.813060
539.000000	33.775864
538.000000	33.708154
537.000000	33.644012
536.000000	33.562509
535.000000	33.522257
534.000000	33.442841
533.000000	33.387220
532.000000	33.348588
531.000000	33.265696
530.000000	33.184187
529.000000	33.115607
528.000000	33.026942
527.000000	32.979122
526.000000	32.910865
525.000000	32.854014
524.000000	32.763460
523.000000	32.696344
522.000000	32.626493
521.000000	32.562194
520.000000	32.507866
519.000000	32.425852
518.000000	32.365403
517.000000	32.281357
516.000000	32.201265
515.000000	32.125249
514.000000	32.064446
513.000000	31.989190
512.000000	31.883144
511.000000	31.799494
510.000000	31.742595
509.000000	31.680144
508.000000	31.574484
507.000000	31.483175
506.000000	31.424236
505.000000	31.342424
504.000000	31.251155
503.000000	31.154266
502.000000	31.081458
501.000000	30.986439
500.000000	30.886065
499.000000	30.798128
498.000000	30.722343
497.000000	30.644366
496.000000	30.552394
495.000000	30.439404
494.000000	30.362968
493.000000	30.283630
492.000000	30.176092
491.000000	30.091244
490.000000	30.000363
489.000000	29.897283
488.000000	29.789363
487.000000	29.680996
486.000000	29.570092
485.000000	29.457093
484.000000	29.383684
483.000000	29.293827
482.000000	29.193148
481.000000	29.113070
480.000000	28.970805
479.000000	28.856299
478.000000	28.742144
477.000000	28.629116
476.000000	28.518741
475.000000	28.397784
474.000000	28.274909
473.000000	28.152271
472.000000	28.048028
471.000000	27.917751
470.000000	27.794409
469.000000	27.680076
468.000000	27.556132
467.000000	27.440220
466.000000	27.316108
465.000000	27.180625
464.000000	27.055743
463.000000	26.939793
462.000000	26.796288
461.000000	26.671268
460.000000	26.536664
459.000000	26.389795
458.000000	26.274964
457.000000	26.112373
456.000000	25.946199
455.000000	25.827634
454.000000	25.695323
453.000000	25.538837
452.000000	25.392658
451.000000	25.247849
450.000000	25.090950
449.000000	24.958203
448.000000	24.820811
447.000000	24.651077
446.000000	24.495038
445.000000	24.343750
444.000000	24.173668
443.000000	24.013105
442.000000	23.887820
441.000000	23.722545
440.000000	23.536281
439.000000	23.388243
438.000000	23.221994
437.000000	23.046129
436.000000	22.881281
435.000000	22.711954
434.000000	22.565481
433.000000	22.411209
432.000000	22.239133
431.000000	22.066717
430.000000	21.890635
429.000000	21.708981
428.000000	21.541619
427.000000	21.334441
426.000000	21.185637
425.000000	20.999451
424.000000	20.802750
423.000000	20.622294
422.000000	20.471198
421.000000	20.313886
420.000000	20.138085
419.000000	19.964273
418.000000	19.796411
417.000000	19.626576
416.000000	19.464000
415.000000	19.309059
414.000000	19.144866
413.000000	19.014867
412.000000	18.895916
411.000000	18.764753
410.000000	18.627171
409.000000	18.486854
408.000000	18.346693
407.000000	18.197238
406.000000	18.122362
405.000000	17.964550
404.000000	17.848663
403.000000	17.718276
402.000000	17.602459
401.000000	17.468411
400.000000	17.337851
399.000000	17.175534
398.000000	17.063150
397.000000	16.902981
396.000000	16.740319
395.000000	16.615804
394.000000	16.473555
393.000000	16.353456
392.000000	16.189224
391.000000	16.023430
390.000000	15.833201
389.000000	15.685304
388.000000	15.529641
387.000000	15.352680
386.000000	15.196237
385.000000	15.017554
384.000000	14.853875
383.000000	14.688127
382.000000	14.484015
381.000000	14.315949
380.000000	14.106637
379.000000	13.955258
378.000000	13.683717
377.000000	13.571398
376.000000	13.409731
375.000000	13.204642
374.000000	13.058094
373.000000	12.865228
372.000000	12.674215
371.000000	12.484493
370.000000	12.288744
369.000000	12.119827
368.000000	11.979907
367.000000	11.793908
366.000000	11.617831
365.000000	11.455003
364.000000	11.221930
363.000000	11.031770
362.000000	10.886425
361.000000	10.723248
360.000000	10.559061
359.000000	10.391969
358.000000	10.179425
357.000000	10.021393
356.000000	9.885669
355.000000	9.661319
354.000000	9.518448
353.000000	9.352466
352.000000	9.169375
351.000000	9.002184
350.000000	8.874528
349.000000	8.653566
348.000000	8.534472
347.000000	8.382332
346.000000	8.251137
345.000000	8.064781
344.000000	7.895026
343.000000	7.721004
342.000000	7.581678
341.000000	7.412939
340.000000	7.248913
339.000000	7.097717
338.000000	6.943999
337.000000	6.789767
336.000000	6.699501
335.000000	6.474882
334.000000	6.398871
333.000000	6.186918
332.000000	6.054989
331.000000	5.950445
330.000000	5.814424
329.000000	5.684384
328.000000	5.576708
327.000000	5.427750
326.000000	5.304777
325.000000	5.155548
324.000000	5.006021
323.000000	4.943031
322.000000	4.810188
321.000000	4.670870
320.000000	4.615482
319.000000	4.463715
318.000000	4.391178
317.000000	4.266378
316.000000	4.128380
315.000000	4.005097
314.000000	3.905683
313.000000	3.775317
312.000000	3.615998
311.000000	3.500884
310.000000	3.359738
309.000000	3.214882
308.000000	3.077143
307.000000	2.881433
306.000000	2.719412
305.000000	2.523782
304.000000	2.341659
303.000000	2.150883
302.000000	1.924489
301.000000	1.717149
300.000000	1.538312
299.000000	1.345815
298.000000	1.178848
297.000000	1.018651
296.000000	0.875511
295.000000	0.795469
294.000000	0.714656
293.000000	0.644649
292.000000	0.610001
291.000000	0.571163
290.000000	0.529114
289.000000	0.519251
288.000000	0.514909
287.000000	0.508728
286.000000	0.510676
285.000000	0.512188
284.000000	0.521557
283.000000	0.526844
282.000000	0.519296
281.000000	0.510254
280.000000	0.529592
279.000000	0.544785
278.000000	0.534897
277.000000	0.538237
276.000000	0.533975
275.000000	0.532274
274.000000	0.548921
273.000000	0.533872
272.000000	0.545181
271.000000	0.549814
270.000000	0.561248
269.000000	0.568412
268.000000	0.576071
267.000000	0.567034
266.000000	0.560247
265.000000	0.567290
264.000000	0.573124
263.000000	0.577975
262.000000	0.583772
261.000000	0.587284
260.000000	0.574130
259.000000	0.584932
258.000000	0.593000
257.000000	0.594694
256.000000	0.589046
255.000000	0.588874
254.000000	0.598416
253.000000	0.576547
252.000000	0.574335
251.000000	0.576198
250.000000	0.589928
249.000000	0.583244
248.000000	0.565239
247.000000	0.554807
246.000000	0.548615
245.000000	0.540882
244.000000	0.522988
243.000000	0.519780
242.000000	0.518107
241.000000	0.505581
240.000000	0.496106
239.000000	0.502136
238.000000	0.501690
237.000000	0.499372
236.000000	0.516754
235.000000	0.544822
234.000000	0.554667
233.000000	0.575322
232.000000	0.568399
231.000000	0.564285
230.000000	0.562410
229.000000	0.531961
228.000000	0.508075
227.000000	0.492919
226.000000	0.451845
225.000000	0.425902
224.000000	0.423563
223.000000	0.395999
222.000000	0.371520
221.000000	0.356285
220.000000	0.336289
219.000000	0.324786
218.000000	0.307877
217.000000	0.302774
216.000000	0.289440
215.000000	0.280313
214.000000	0.286172
213.000000	0.275481
212.000000	0.268050
211.000000	0.262760
210.000000	0.287982
209.000000	0.295840
208.000000	0.284888
207.000000	0.291951
206.000000	0.274048
205.000000	0.302643
204.000000	0.335767
203.000000	0.350386
202.000000	0.360271
201.000000	0.377878
200.000000	0.398534
