PE UV       SUBTECH     SPECTRUM    ASCII       PEDS        4.00        
   -1
TTChevreUK 32.Sample.asc
18/02/28
14:09:15.00
18/02/28
14:09:15.00
Administrator

200.000000
1
Lambda 750
750N8071901
PerkinElmer UV WinLab 6.0.4.0738 / 1.61.00 Lambda 900

0
0
3350/servo 860.8/2
0
0
UV/VIS
1
1
1
CommonBeamDepol,150mm sphere / downward view
0
0
0
0
Program
Program
3350/servo 860.8/2
3350/0.2 860.8/0.2
3350/0.2 860.8/0.2
0
1
 
 
 
0
 
860.8
319.2
860.8
Front
100
on
 
 
0
0
0
 
0
 
 
 
0
 
 
0
0
0
0
0
 
 
 
 
0
0


0
0
#HDR
-1
-1
#GR
nm
%T
1.0
0.0
2350.000000
-1.000000
2151
8
40.526645
0.242840
#DATA
2350.000000	9.750507
2349.000000	10.133446
2348.000000	9.788011
2347.000000	9.947489
2346.000000	9.820276
2345.000000	9.899592
2344.000000	9.563896
2343.000000	9.426893
2342.000000	9.805109
2341.000000	9.755673
2340.000000	9.954143
2339.000000	10.252126
2338.000000	10.192426
2337.000000	9.962832
2336.000000	10.538867
2335.000000	10.334527
2334.000000	10.289631
2333.000000	10.522599
2332.000000	10.564749
2331.000000	10.439007
2330.000000	10.385280
2329.000000	10.567752
2328.000000	10.444383
2327.000000	10.192342
2326.000000	10.248834
2325.000000	10.186389
2324.000000	10.095486
2323.000000	10.307814
2322.000000	10.421320
2321.000000	10.337000
2320.000000	9.809108
2319.000000	10.131205
2318.000000	10.038976
2317.000000	10.038746
2316.000000	9.790230
2315.000000	9.728762
2314.000000	9.919278
2313.000000	9.688006
2312.000000	9.523742
2311.000000	9.681158
2310.000000	9.691414
2309.000000	9.450156
2308.000000	9.392509
2307.000000	9.387419
2306.000000	9.194758
2305.000000	9.479262
2304.000000	9.424719
2303.000000	9.160878
2302.000000	9.195999
2301.000000	9.076626
2300.000000	8.884787
2299.000000	8.978354
2298.000000	8.820310
2297.000000	8.746727
2296.000000	8.802327
2295.000000	8.734973
2294.000000	8.623227
2293.000000	8.643597
2292.000000	8.559230
2291.000000	8.672409
2290.000000	8.494068
2289.000000	8.461431
2288.000000	8.570833
2287.000000	8.604575
2286.000000	8.339625
2285.000000	8.260457
2284.000000	8.305759
2283.000000	8.296875
2282.000000	8.416490
2281.000000	8.444301
2280.000000	8.459273
2279.000000	8.629581
2278.000000	8.700056
2277.000000	8.583454
2276.000000	8.609014
2275.000000	8.726299
2274.000000	8.594393
2273.000000	8.704906
2272.000000	8.717027
2271.000000	8.616715
2270.000000	8.536620
2269.000000	8.627261
2268.000000	8.663109
2267.000000	8.718487
2266.000000	8.920465
2265.000000	9.039374
2264.000000	9.143743
2263.000000	9.165668
2262.000000	9.364940
2261.000000	9.574577
2260.000000	9.533566
2259.000000	9.725525
2258.000000	9.960786
2257.000000	10.023695
2256.000000	10.073176
2255.000000	10.226240
2254.000000	10.439115
2253.000000	10.631892
2252.000000	10.725804
2251.000000	10.990740
2250.000000	11.176430
2249.000000	11.226088
2248.000000	11.328669
2247.000000	11.452029
2246.000000	11.587579
2245.000000	11.797367
2244.000000	11.922051
2243.000000	12.016258
2242.000000	12.272700
2241.000000	12.273973
2240.000000	12.201256
2239.000000	12.382441
2238.000000	12.560385
2237.000000	12.713576
2236.000000	12.828624
2235.000000	13.011879
2234.000000	13.044673
2233.000000	12.985640
2232.000000	13.034589
2231.000000	13.116331
2230.000000	13.176015
2229.000000	13.111102
2228.000000	13.048364
2227.000000	13.140989
2226.000000	13.105954
2225.000000	13.108475
2224.000000	13.156335
2223.000000	13.033680
2222.000000	13.087521
2221.000000	12.997233
2220.000000	12.912142
2219.000000	13.003215
2218.000000	12.977536
2217.000000	12.896747
2216.000000	12.928392
2215.000000	12.916779
2214.000000	12.779606
2213.000000	12.788067
2212.000000	12.782126
2211.000000	12.732094
2210.000000	12.632129
2209.000000	12.540502
2208.000000	12.451170
2207.000000	12.442081
2206.000000	12.347309
2205.000000	12.307205
2204.000000	12.263706
2203.000000	12.223048
2202.000000	12.293347
2201.000000	12.189608
2200.000000	12.108891
2199.000000	12.073798
2198.000000	12.018063
2197.000000	11.822591
2196.000000	11.690301
2195.000000	11.708977
2194.000000	11.734870
2193.000000	11.627038
2192.000000	11.624174
2191.000000	11.335622
2190.000000	11.448248
2189.000000	11.421400
2188.000000	11.230996
2187.000000	11.215319
2186.000000	11.207173
2185.000000	11.302957
2184.000000	11.286629
2183.000000	11.138384
2182.000000	11.167584
2181.000000	11.048855
2180.000000	11.058542
2179.000000	10.888672
2178.000000	10.825817
2177.000000	11.000111
2176.000000	10.954325
2175.000000	11.039743
2174.000000	11.102872
2173.000000	10.992129
2172.000000	11.136900
2171.000000	11.175478
2170.000000	11.189790
2169.000000	11.186384
2168.000000	11.408926
2167.000000	11.444790
2166.000000	11.475364
2165.000000	11.439887
2164.000000	11.431104
2163.000000	11.420155
2162.000000	11.504793
2161.000000	11.538520
2160.000000	11.831537
2159.000000	11.987964
2158.000000	12.079857
2157.000000	12.186403
2156.000000	12.234110
2155.000000	12.234096
2154.000000	12.525894
2153.000000	12.741602
2152.000000	12.829722
2151.000000	12.735088
2150.000000	12.921121
2149.000000	13.019348
2148.000000	12.959004
2147.000000	13.191492
2146.000000	13.294322
2145.000000	13.341411
2144.000000	13.603030
2143.000000	13.569320
2142.000000	13.783760
2141.000000	13.865488
2140.000000	13.885002
2139.000000	14.137086
2138.000000	14.259174
2137.000000	14.480904
2136.000000	14.399530
2135.000000	14.445590
2134.000000	14.651582
2133.000000	14.470569
2132.000000	14.718427
2131.000000	14.896431
2130.000000	15.011753
2129.000000	14.815146
2128.000000	14.977919
2127.000000	15.106313
2126.000000	15.237802
2125.000000	15.060778
2124.000000	15.240776
2123.000000	15.404700
2122.000000	15.353561
2121.000000	15.291899
2120.000000	15.384902
2119.000000	15.505476
2118.000000	15.532158
2117.000000	15.528904
2116.000000	15.582282
2115.000000	15.685905
2114.000000	15.736496
2113.000000	15.483009
2112.000000	15.615291
2111.000000	15.675079
2110.000000	15.671128
2109.000000	15.781608
2108.000000	15.797681
2107.000000	15.893712
2106.000000	15.840731
2105.000000	15.708221
2104.000000	15.705011
2103.000000	15.721070
2102.000000	15.839969
2101.000000	15.847832
2100.000000	16.006648
2099.000000	15.936512
2098.000000	15.793077
2097.000000	15.805199
2096.000000	15.866340
2095.000000	15.828041
2094.000000	15.829521
2093.000000	15.816808
2092.000000	15.849425
2091.000000	15.954778
2090.000000	15.773153
2089.000000	15.751592
2088.000000	15.734646
2087.000000	15.825054
2086.000000	15.791979
2085.000000	15.731236
2084.000000	15.686288
2083.000000	15.604677
2082.000000	15.476062
2081.000000	15.437434
2080.000000	15.420556
2079.000000	15.418918
2078.000000	15.376720
2077.000000	15.207073
2076.000000	15.083709
2075.000000	15.010222
2074.000000	14.957853
2073.000000	14.884366
2072.000000	14.785427
2071.000000	14.712328
2070.000000	14.643720
2069.000000	14.524915
2068.000000	14.335879
2067.000000	14.250214
2066.000000	14.162281
2065.000000	14.022172
2064.000000	13.949774
2063.000000	13.785214
2062.000000	13.616269
2061.000000	13.509463
2060.000000	13.374264
2059.000000	13.205602
2058.000000	13.108423
2057.000000	13.015609
2056.000000	12.900012
2055.000000	12.797468
2054.000000	12.679245
2053.000000	12.629891
2052.000000	12.528182
2051.000000	12.373646
2050.000000	12.319626
2049.000000	12.288172
2048.000000	12.254361
2047.000000	12.204186
2046.000000	12.159402
2045.000000	12.147862
2044.000000	12.114388
2043.000000	12.048942
2042.000000	12.064582
2041.000000	12.117829
2040.000000	12.123511
2039.000000	12.129390
2038.000000	12.174285
2037.000000	12.239255
2036.000000	12.290230
2035.000000	12.356944
2034.000000	12.415960
2033.000000	12.506431
2032.000000	12.636719
2031.000000	12.737226
2030.000000	12.818728
2029.000000	12.959010
2028.000000	13.101014
2027.000000	13.182666
2026.000000	13.273528
2025.000000	13.371700
2024.000000	13.459919
2023.000000	13.544528
2022.000000	13.633303
2021.000000	13.695528
2020.000000	13.742718
2019.000000	13.794290
2018.000000	13.850052
2017.000000	13.890482
2016.000000	13.920865
2015.000000	13.947535
2014.000000	13.949963
2013.000000	13.976448
2012.000000	13.975583
2011.000000	13.981789
2010.000000	13.960708
2009.000000	13.913379
2008.000000	13.894417
2007.000000	13.847592
2006.000000	13.815935
2005.000000	13.788706
2004.000000	13.698873
2003.000000	13.595425
2002.000000	13.550571
2001.000000	13.486208
2000.000000	13.391024
1999.000000	13.327747
1998.000000	13.278173
1997.000000	13.261702
1996.000000	13.208865
1995.000000	13.110018
1994.000000	12.996913
1993.000000	12.953531
1992.000000	12.890646
1991.000000	12.778782
1990.000000	12.707177
1989.000000	12.632576
1988.000000	12.573186
1987.000000	12.485880
1986.000000	12.437227
1985.000000	12.360600
1984.000000	12.282691
1983.000000	12.193090
1982.000000	12.139589
1981.000000	12.093271
1980.000000	12.000263
1979.000000	11.912003
1978.000000	11.829390
1977.000000	11.823784
1976.000000	11.725649
1975.000000	11.665875
1974.000000	11.602665
1973.000000	11.532022
1972.000000	11.487329
1971.000000	11.419477
1970.000000	11.365753
1969.000000	11.307670
1968.000000	11.229301
1967.000000	11.192299
1966.000000	11.145397
1965.000000	11.059941
1964.000000	10.976220
1963.000000	10.928429
1962.000000	10.902792
1961.000000	10.867942
1960.000000	10.754433
1959.000000	10.724451
1958.000000	10.694830
1957.000000	10.657193
1956.000000	10.579266
1955.000000	10.524248
1954.000000	10.473634
1953.000000	10.437277
1952.000000	10.429126
1951.000000	10.412624
1950.000000	10.363815
1949.000000	10.322668
1948.000000	10.349931
1947.000000	10.318447
1946.000000	10.267784
1945.000000	10.311415
1944.000000	10.278674
1943.000000	10.333764
1942.000000	10.294317
1941.000000	10.408544
1940.000000	10.443681
1939.000000	10.482361
1938.000000	10.458043
1937.000000	10.601712
1936.000000	10.672662
1935.000000	10.747228
1934.000000	10.834596
1933.000000	10.910239
1932.000000	11.008965
1931.000000	11.123464
1930.000000	11.269340
1929.000000	11.421158
1928.000000	11.591145
1927.000000	11.689990
1926.000000	11.852207
1925.000000	12.058894
1924.000000	12.236286
1923.000000	12.415936
1922.000000	12.631728
1921.000000	12.849412
1920.000000	13.116906
1919.000000	13.361407
1918.000000	13.579053
1917.000000	13.895115
1916.000000	13.916450
1915.000000	14.329026
1914.000000	14.597053
1913.000000	14.909574
1912.000000	15.173474
1911.000000	15.484181
1910.000000	15.779613
1909.000000	16.128438
1908.000000	16.483054
1907.000000	16.842605
1906.000000	17.148960
1905.000000	17.562289
1904.000000	18.013774
1903.000000	18.382321
1902.000000	18.694041
1901.000000	19.061119
1900.000000	19.509267
1899.000000	19.969042
1898.000000	20.368126
1897.000000	20.802707
1896.000000	21.221889
1895.000000	21.589863
1894.000000	21.955047
1893.000000	22.393213
1892.000000	22.887517
1891.000000	23.244836
1890.000000	23.613491
1889.000000	23.999202
1888.000000	24.341355
1887.000000	24.724209
1886.000000	25.054591
1885.000000	25.438222
1884.000000	25.802477
1883.000000	26.156696
1882.000000	26.453380
1881.000000	26.721120
1880.000000	27.042669
1879.000000	27.286247
1878.000000	27.538892
1877.000000	27.798589
1876.000000	28.042940
1875.000000	28.249708
1874.000000	28.412436
1873.000000	28.607978
1872.000000	28.802542
1871.000000	28.955325
1870.000000	29.072693
1869.000000	29.221414
1868.000000	29.347646
1867.000000	29.441875
1866.000000	29.569327
1865.000000	29.613469
1864.000000	29.674256
1863.000000	29.754901
1862.000000	29.841454
1861.000000	29.839004
1860.000000	29.892087
1859.000000	29.932278
1858.000000	29.990696
1857.000000	30.039908
1856.000000	30.051820
1855.000000	30.067094
1854.000000	30.072454
1853.000000	30.098698
1852.000000	30.084761
1851.000000	30.093253
1850.000000	30.133496
1849.000000	30.125796
1848.000000	30.073395
1847.000000	30.056846
1846.000000	30.021541
1845.000000	30.036198
1844.000000	30.042859
1843.000000	29.995146
1842.000000	29.959845
1841.000000	29.923912
1840.000000	29.862980
1839.000000	29.803721
1838.000000	29.794967
1837.000000	29.767084
1836.000000	29.728010
1835.000000	29.687573
1834.000000	29.617868
1833.000000	29.571522
1832.000000	29.530104
1831.000000	29.501255
1830.000000	29.462690
1829.000000	29.396981
1828.000000	29.341539
1827.000000	29.297734
1826.000000	29.265380
1825.000000	29.235542
1824.000000	29.211354
1823.000000	29.163983
1822.000000	29.112737
1821.000000	29.063463
1820.000000	29.029374
1819.000000	28.989306
1818.000000	28.949524
1817.000000	28.909554
1816.000000	28.862720
1815.000000	28.839231
1814.000000	28.804243
1813.000000	28.762056
1812.000000	28.722494
1811.000000	28.691277
1810.000000	28.678161
1809.000000	28.641390
1808.000000	28.596138
1807.000000	28.560398
1806.000000	28.531435
1805.000000	28.485434
1804.000000	28.448790
1803.000000	28.431519
1802.000000	28.382113
1801.000000	28.341268
1800.000000	28.335216
1799.000000	28.314161
1798.000000	28.280629
1797.000000	28.261548
1796.000000	28.232232
1795.000000	28.208908
1794.000000	28.204432
1793.000000	28.174581
1792.000000	28.140855
1791.000000	28.128345
1790.000000	28.105104
1789.000000	28.070442
1788.000000	28.055042
1787.000000	28.043141
1786.000000	28.007036
1785.000000	27.972494
1784.000000	27.939732
1783.000000	27.919493
1782.000000	27.889110
1781.000000	27.838977
1780.000000	27.801373
1779.000000	27.756235
1778.000000	27.691392
1777.000000	27.627631
1776.000000	27.573938
1775.000000	27.525063
1774.000000	27.469864
1773.000000	27.421321
1772.000000	27.345710
1771.000000	27.269419
1770.000000	27.210162
1769.000000	27.147768
1768.000000	27.078275
1767.000000	27.025006
1766.000000	26.959221
1765.000000	26.889488
1764.000000	26.827607
1763.000000	26.756186
1762.000000	26.675538
1761.000000	26.605647
1760.000000	26.541392
1759.000000	26.478990
1758.000000	26.427360
1757.000000	26.375230
1756.000000	26.320495
1755.000000	26.263264
1754.000000	26.196135
1753.000000	26.133927
1752.000000	26.078595
1751.000000	26.003177
1750.000000	25.915593
1749.000000	25.874608
1748.000000	25.808870
1747.000000	25.714057
1746.000000	25.686206
1745.000000	25.598083
1744.000000	25.528983
1743.000000	25.472410
1742.000000	25.404287
1741.000000	25.347186
1740.000000	25.270966
1739.000000	25.207758
1738.000000	25.161776
1737.000000	25.112840
1736.000000	25.094601
1735.000000	25.056055
1734.000000	25.074997
1733.000000	25.006359
1732.000000	25.014972
1731.000000	25.000355
1730.000000	25.014999
1729.000000	25.031635
1728.000000	25.062356
1727.000000	25.104798
1726.000000	25.160705
1725.000000	25.212921
1724.000000	25.323456
1723.000000	25.359175
1722.000000	25.433732
1721.000000	25.523782
1720.000000	25.622957
1719.000000	25.726989
1718.000000	25.807510
1717.000000	25.893914
1716.000000	25.975001
1715.000000	26.075316
1714.000000	26.146388
1713.000000	26.211100
1712.000000	26.308360
1711.000000	26.358252
1710.000000	26.429063
1709.000000	26.473353
1708.000000	26.562775
1707.000000	26.584582
1706.000000	26.600210
1705.000000	26.655388
1704.000000	26.697427
1703.000000	26.701468
1702.000000	26.713794
1701.000000	26.756868
1700.000000	26.791343
1699.000000	26.781212
1698.000000	26.833230
1697.000000	26.838640
1696.000000	26.882485
1695.000000	26.911911
1694.000000	26.979676
1693.000000	27.036047
1692.000000	27.086191
1691.000000	27.162418
1690.000000	27.271668
1689.000000	27.350069
1688.000000	27.501588
1687.000000	27.600825
1686.000000	27.735645
1685.000000	27.871066
1684.000000	28.021960
1683.000000	28.151973
1682.000000	28.325754
1681.000000	28.497101
1680.000000	28.655331
1679.000000	28.848912
1678.000000	29.043382
1677.000000	29.202680
1676.000000	29.392594
1675.000000	29.599740
1674.000000	29.776168
1673.000000	29.971775
1672.000000	30.127452
1671.000000	30.299939
1670.000000	30.457025
1669.000000	30.635221
1668.000000	30.776834
1667.000000	30.933900
1666.000000	31.020350
1665.000000	31.141294
1664.000000	31.238836
1663.000000	31.324608
1662.000000	31.431710
1661.000000	31.518618
1660.000000	31.590108
1659.000000	31.637951
1658.000000	31.692293
1657.000000	31.744772
1656.000000	31.786939
1655.000000	31.810290
1654.000000	31.854523
1653.000000	31.890683
1652.000000	31.900480
1651.000000	31.888020
1650.000000	31.896548
1649.000000	31.902715
1648.000000	31.873105
1647.000000	31.869791
1646.000000	31.830359
1645.000000	31.842604
1644.000000	31.826447
1643.000000	31.808379
1642.000000	31.788051
1641.000000	31.751486
1640.000000	31.732998
1639.000000	31.694344
1638.000000	31.651977
1637.000000	31.614504
1636.000000	31.590970
1635.000000	31.550646
1634.000000	31.502265
1633.000000	31.453886
1632.000000	31.426361
1631.000000	31.382513
1630.000000	31.324010
1629.000000	31.269320
1628.000000	31.231462
1627.000000	31.194867
1626.000000	31.152482
1625.000000	31.115742
1624.000000	31.063570
1623.000000	31.008776
1622.000000	30.961934
1621.000000	30.907142
1620.000000	30.852347
1619.000000	30.805874
1618.000000	30.757089
1617.000000	30.690663
1616.000000	30.641207
1615.000000	30.590575
1614.000000	30.526527
1613.000000	30.473592
1612.000000	30.415019
1611.000000	30.350731
1610.000000	30.292896
1609.000000	30.229557
1608.000000	30.172795
1607.000000	30.114521
1606.000000	30.045800
1605.000000	29.991972
1604.000000	29.934320
1603.000000	29.865919
1602.000000	29.802106
1601.000000	29.745784
1600.000000	29.680771
1599.000000	29.614076
1598.000000	29.551545
1597.000000	29.489070
1596.000000	29.437215
1595.000000	29.384223
1594.000000	29.322809
1593.000000	29.270562
1592.000000	29.218107
1591.000000	29.156498
1590.000000	29.102238
1589.000000	29.042353
1588.000000	28.988135
1587.000000	28.956179
1586.000000	28.917226
1585.000000	28.857788
1584.000000	28.795982
1583.000000	28.758624
1582.000000	28.719394
1581.000000	28.667160
1580.000000	28.622111
1579.000000	28.568277
1578.000000	28.526355
1577.000000	28.477817
1576.000000	28.427677
1575.000000	28.393920
1574.000000	28.340128
1573.000000	28.283474
1572.000000	28.243179
1571.000000	28.205645
1570.000000	28.167829
1569.000000	28.121903
1568.000000	28.082959
1567.000000	28.040576
1566.000000	28.007265
1565.000000	27.980175
1564.000000	27.945161
1563.000000	27.919158
1562.000000	27.889864
1561.000000	27.849605
1560.000000	27.829359
1559.000000	27.803550
1558.000000	27.775113
1557.000000	27.757256
1556.000000	27.717522
1555.000000	27.687104
1554.000000	27.661172
1553.000000	27.651130
1552.000000	27.619789
1551.000000	27.576055
1550.000000	27.537188
1549.000000	27.502897
1548.000000	27.454741
1547.000000	27.403283
1546.000000	27.339777
1545.000000	27.270924
1544.000000	27.202055
1543.000000	27.139816
1542.000000	27.075252
1541.000000	26.979240
1540.000000	26.909263
1539.000000	26.817607
1538.000000	26.734940
1537.000000	26.654040
1536.000000	26.561284
1535.000000	26.448557
1534.000000	26.349202
1533.000000	26.289928
1532.000000	26.209388
1531.000000	26.135612
1530.000000	26.087476
1529.000000	26.070587
1528.000000	26.052816
1527.000000	25.990243
1526.000000	25.869124
1525.000000	25.766111
1524.000000	25.682588
1523.000000	25.612243
1522.000000	25.528857
1521.000000	25.483474
1520.000000	25.435198
1519.000000	25.379175
1518.000000	25.315475
1517.000000	25.278734
1516.000000	25.259198
1515.000000	25.204397
1514.000000	25.152995
1513.000000	25.139825
1512.000000	25.106589
1511.000000	25.070257
1510.000000	25.040841
1509.000000	24.975816
1508.000000	24.949934
1507.000000	24.942510
1506.000000	24.952513
1505.000000	24.928012
1504.000000	24.899467
1503.000000	24.893379
1502.000000	24.864598
1501.000000	24.855057
1500.000000	24.850652
1499.000000	24.849697
1498.000000	24.862787
1497.000000	24.853758
1496.000000	24.863092
1495.000000	24.903805
1494.000000	24.914688
1493.000000	24.939942
1492.000000	24.967091
1491.000000	25.011056
1490.000000	25.040623
1489.000000	25.095812
1488.000000	25.143583
1487.000000	25.189876
1486.000000	25.276430
1485.000000	25.319182
1484.000000	25.377274
1483.000000	25.464187
1482.000000	25.546205
1481.000000	25.605715
1480.000000	25.686685
1479.000000	25.778815
1478.000000	25.832685
1477.000000	25.901468
1476.000000	25.987881
1475.000000	26.049115
1474.000000	26.128383
1473.000000	26.172406
1472.000000	26.242803
1471.000000	26.314874
1470.000000	26.351198
1469.000000	26.454107
1468.000000	26.513428
1467.000000	26.549833
1466.000000	26.591839
1465.000000	26.659186
1464.000000	26.698900
1463.000000	26.768135
1462.000000	26.812261
1461.000000	26.850621
1460.000000	26.906364
1459.000000	26.949654
1458.000000	27.022037
1457.000000	27.086700
1456.000000	27.129360
1455.000000	27.186829
1454.000000	27.247313
1453.000000	27.320100
1452.000000	27.357821
1451.000000	27.396883
1450.000000	27.464736
1449.000000	27.544508
1448.000000	27.601470
1447.000000	27.664951
1446.000000	27.729402
1445.000000	27.787574
1444.000000	27.849672
1443.000000	27.940785
1442.000000	28.026863
1441.000000	28.088591
1440.000000	28.170761
1439.000000	28.238146
1438.000000	28.322466
1437.000000	28.397647
1436.000000	28.486764
1435.000000	28.605353
1434.000000	28.709202
1433.000000	28.796210
1432.000000	28.901340
1431.000000	28.998074
1430.000000	29.107622
1429.000000	29.205354
1428.000000	29.316966
1427.000000	29.446480
1426.000000	29.560779
1425.000000	29.683295
1424.000000	29.819602
1423.000000	29.971654
1422.000000	30.113025
1421.000000	30.259383
1420.000000	30.391924
1419.000000	30.539816
1418.000000	30.693484
1417.000000	30.858467
1416.000000	31.020816
1415.000000	31.193088
1414.000000	31.364762
1413.000000	31.517016
1412.000000	31.681048
1411.000000	31.881331
1410.000000	32.065557
1409.000000	32.251049
1408.000000	32.431955
1407.000000	32.595256
1406.000000	32.734964
1405.000000	32.909890
1404.000000	33.091695
1403.000000	33.261039
1402.000000	33.414766
1401.000000	33.568227
1400.000000	33.718525
1399.000000	33.873861
1398.000000	34.027023
1397.000000	34.175457
1396.000000	34.322035
1395.000000	34.474902
1394.000000	34.607491
1393.000000	34.733675
1392.000000	34.872966
1391.000000	35.010855
1390.000000	35.143378
1389.000000	35.295257
1388.000000	35.429330
1387.000000	35.546070
1386.000000	35.663913
1385.000000	35.776741
1384.000000	35.878422
1383.000000	35.972337
1382.000000	36.062079
1381.000000	36.172451
1380.000000	36.250609
1379.000000	36.308604
1378.000000	36.394337
1377.000000	36.465651
1376.000000	36.521694
1375.000000	36.594585
1374.000000	36.659248
1373.000000	36.705004
1372.000000	36.738223
1371.000000	36.795078
1370.000000	36.867976
1369.000000	36.933687
1368.000000	36.989138
1367.000000	37.033464
1366.000000	37.083448
1365.000000	37.140092
1364.000000	37.205462
1363.000000	37.261083
1362.000000	37.304272
1361.000000	37.357023
1360.000000	37.420613
1359.000000	37.485544
1358.000000	37.542891
1357.000000	37.596570
1356.000000	37.663721
1355.000000	37.737697
1354.000000	37.813503
1353.000000	37.866010
1352.000000	37.902242
1351.000000	37.972341
1350.000000	38.053468
1349.000000	38.114587
1348.000000	38.159782
1347.000000	38.207694
1346.000000	38.268698
1345.000000	38.342601
1344.000000	38.414937
1343.000000	38.487604
1342.000000	38.527833
1341.000000	38.569767
1340.000000	38.630708
1339.000000	38.662515
1338.000000	38.703071
1337.000000	38.744555
1336.000000	38.780194
1335.000000	38.829118
1334.000000	38.865513
1333.000000	38.921962
1332.000000	38.986900
1331.000000	39.024004
1330.000000	39.021712
1329.000000	39.022746
1328.000000	39.067839
1327.000000	39.105092
1326.000000	39.112862
1325.000000	39.116461
1324.000000	39.145307
1323.000000	39.190043
1322.000000	39.195687
1321.000000	39.201237
1320.000000	39.228043
1319.000000	39.242468
1318.000000	39.266738
1317.000000	39.264355
1316.000000	39.248733
1315.000000	39.265816
1314.000000	39.306373
1313.000000	39.334362
1312.000000	39.339649
1311.000000	39.310643
1310.000000	39.330103
1309.000000	39.344875
1308.000000	39.365550
1307.000000	39.367196
1306.000000	39.361703
1305.000000	39.385567
1304.000000	39.409221
1303.000000	39.404172
1302.000000	39.391645
1301.000000	39.383450
1300.000000	39.415409
1299.000000	39.409818
1298.000000	39.398718
1297.000000	39.406569
1296.000000	39.408851
1295.000000	39.389638
1294.000000	39.389419
1293.000000	39.383981
1292.000000	39.389822
1291.000000	39.364659
1290.000000	39.348111
1289.000000	39.356300
1288.000000	39.342395
1287.000000	39.348873
1286.000000	39.344845
1285.000000	39.330124
1284.000000	39.298520
1283.000000	39.312020
1282.000000	39.246651
1281.000000	39.236141
1280.000000	39.258857
1279.000000	39.259969
1278.000000	39.250596
1277.000000	39.256235
1276.000000	39.250450
1275.000000	39.254406
1274.000000	39.239891
1273.000000	39.243571
1272.000000	39.234429
1271.000000	39.260343
1270.000000	39.238287
1269.000000	39.254324
1268.000000	39.241019
1267.000000	39.240122
1266.000000	39.268029
1265.000000	39.299370
1264.000000	39.288889
1263.000000	39.283447
1262.000000	39.284559
1261.000000	39.275316
1260.000000	39.305660
1259.000000	39.353145
1258.000000	39.314480
1257.000000	39.314756
1256.000000	39.326452
1255.000000	39.320785
1254.000000	39.309334
1253.000000	39.303536
1252.000000	39.298881
1251.000000	39.351387
1250.000000	39.371174
1249.000000	39.329660
1248.000000	39.316447
1247.000000	39.313677
1246.000000	39.286196
1245.000000	39.269628
1244.000000	39.223762
1243.000000	39.201875
1242.000000	39.190470
1241.000000	39.179490
1240.000000	39.160862
1239.000000	39.098353
1238.000000	39.094978
1237.000000	39.075847
1236.000000	39.040161
1235.000000	38.982184
1234.000000	38.970500
1233.000000	38.943687
1232.000000	38.902311
1231.000000	38.861290
1230.000000	38.842190
1229.000000	38.820152
1228.000000	38.794647
1227.000000	38.758278
1226.000000	38.733364
1225.000000	38.679001
1224.000000	38.646017
1223.000000	38.620936
1222.000000	38.601822
1221.000000	38.578573
1220.000000	38.541655
1219.000000	38.511545
1218.000000	38.487060
1217.000000	38.443233
1216.000000	38.402996
1215.000000	38.374723
1214.000000	38.354142
1213.000000	38.316583
1212.000000	38.268879
1211.000000	38.238195
1210.000000	38.228661
1209.000000	38.176643
1208.000000	38.125214
1207.000000	38.098426
1206.000000	38.053876
1205.000000	38.003300
1204.000000	37.966302
1203.000000	37.932511
1202.000000	37.870370
1201.000000	37.833712
1200.000000	37.817818
1199.000000	37.773056
1198.000000	37.713059
1197.000000	37.670915
1196.000000	37.635176
1195.000000	37.603437
1194.000000	37.606963
1193.000000	37.588233
1192.000000	37.554415
1191.000000	37.527458
1190.000000	37.476183
1189.000000	37.410287
1188.000000	37.410772
1187.000000	37.413692
1186.000000	37.404625
1185.000000	37.406725
1184.000000	37.413348
1183.000000	37.431020
1182.000000	37.448243
1181.000000	37.472679
1180.000000	37.514889
1179.000000	37.547250
1178.000000	37.590719
1177.000000	37.632120
1176.000000	37.683484
1175.000000	37.746020
1174.000000	37.795901
1173.000000	37.846612
1172.000000	37.913745
1171.000000	37.968695
1170.000000	38.039337
1169.000000	38.116703
1168.000000	38.190140
1167.000000	38.272624
1166.000000	38.348660
1165.000000	38.425691
1164.000000	38.512417
1163.000000	38.585346
1162.000000	38.655022
1161.000000	38.727252
1160.000000	38.808856
1159.000000	38.894943
1158.000000	38.971254
1157.000000	39.029145
1156.000000	39.092669
1155.000000	39.158529
1154.000000	39.212117
1153.000000	39.289028
1152.000000	39.366218
1151.000000	39.409823
1150.000000	39.448540
1149.000000	39.496436
1148.000000	39.533640
1147.000000	39.566436
1146.000000	39.614400
1145.000000	39.657149
1144.000000	39.712138
1143.000000	39.769832
1142.000000	39.810773
1141.000000	39.854679
1140.000000	39.894099
1139.000000	39.928272
1138.000000	39.978739
1137.000000	40.029503
1136.000000	40.076920
1135.000000	40.119868
1134.000000	40.165819
1133.000000	40.202302
1132.000000	40.224460
1131.000000	40.264179
1130.000000	40.303917
1129.000000	40.310753
1128.000000	40.326900
1127.000000	40.353646
1126.000000	40.372912
1125.000000	40.394177
1124.000000	40.421929
1123.000000	40.437641
1122.000000	40.448524
1121.000000	40.464900
1120.000000	40.483400
1119.000000	40.484264
1118.000000	40.492043
1117.000000	40.491684
1116.000000	40.509692
1115.000000	40.517076
1114.000000	40.524987
1113.000000	40.524446
1112.000000	40.526645
1111.000000	40.511715
1110.000000	40.492182
1109.000000	40.496634
1108.000000	40.490289
1107.000000	40.498765
1106.000000	40.516016
1105.000000	40.522937
1104.000000	40.510866
1103.000000	40.519359
1102.000000	40.526459
1101.000000	40.518076
1100.000000	40.516812
1099.000000	40.497126
1098.000000	40.498273
1097.000000	40.502080
1096.000000	40.497737
1095.000000	40.500672
1094.000000	40.496317
1093.000000	40.513673
1092.000000	40.509952
1091.000000	40.488816
1090.000000	40.464422
1089.000000	40.467116
1088.000000	40.472980
1087.000000	40.485838
1086.000000	40.461548
1085.000000	40.427490
1084.000000	40.439524
1083.000000	40.435810
1082.000000	40.441236
1081.000000	40.449454
1080.000000	40.436876
1079.000000	40.427334
1078.000000	40.388758
1077.000000	40.378004
1076.000000	40.390895
1075.000000	40.382440
1074.000000	40.362609
1073.000000	40.379979
1072.000000	40.376714
1071.000000	40.360159
1070.000000	40.337901
1069.000000	40.320522
1068.000000	40.304189
1067.000000	40.292479
1066.000000	40.291113
1065.000000	40.295387
1064.000000	40.284999
1063.000000	40.254324
1062.000000	40.249391
1061.000000	40.233662
1060.000000	40.233148
1059.000000	40.238356
1058.000000	40.216232
1057.000000	40.211753
1056.000000	40.175949
1055.000000	40.168164
1054.000000	40.152141
1053.000000	40.158182
1052.000000	40.140669
1051.000000	40.107771
1050.000000	40.101253
1049.000000	40.106789
1048.000000	40.090291
1047.000000	40.083161
1046.000000	40.049069
1045.000000	40.059682
1044.000000	40.057088
1043.000000	40.053534
1042.000000	40.060976
1041.000000	40.023671
1040.000000	40.032564
1039.000000	40.017996
1038.000000	40.014844
1037.000000	39.987834
1036.000000	39.979896
1035.000000	39.985520
1034.000000	40.004125
1033.000000	39.965769
1032.000000	39.967388
1031.000000	39.959022
1030.000000	39.949959
1029.000000	39.967364
1028.000000	39.941939
1027.000000	39.930987
1026.000000	39.951456
1025.000000	39.926294
1024.000000	39.923422
1023.000000	39.933370
1022.000000	39.929014
1021.000000	39.917573
1020.000000	39.919917
1019.000000	39.936640
1018.000000	39.922217
1017.000000	39.917255
1016.000000	39.927029
1015.000000	39.935904
1014.000000	39.932060
1013.000000	39.942133
1012.000000	39.929514
1011.000000	39.936922
1010.000000	39.947750
1009.000000	39.953714
1008.000000	39.948354
1007.000000	39.960912
1006.000000	39.977728
1005.000000	39.978571
1004.000000	39.987411
1003.000000	39.988740
1002.000000	39.980132
1001.000000	39.992324
1000.000000	39.994017
999.000000	39.997864
998.000000	39.991809
997.000000	40.001708
996.000000	40.017009
995.000000	40.016499
994.000000	40.019984
993.000000	40.022299
992.000000	40.024460
991.000000	40.037634
990.000000	40.016543
989.000000	40.023849
988.000000	40.067773
987.000000	40.063093
986.000000	40.049002
985.000000	40.069513
984.000000	40.069650
983.000000	40.081141
982.000000	40.110021
981.000000	40.127473
980.000000	40.141256
979.000000	40.157315
978.000000	40.180010
977.000000	40.191365
976.000000	40.188380
975.000000	40.192148
974.000000	40.201055
973.000000	40.202116
972.000000	40.214928
971.000000	40.226537
970.000000	40.226658
969.000000	40.229278
968.000000	40.230563
967.000000	40.240307
966.000000	40.251586
965.000000	40.258465
964.000000	40.269184
963.000000	40.278679
962.000000	40.276278
961.000000	40.288508
960.000000	40.291948
959.000000	40.285486
958.000000	40.302901
957.000000	40.313032
956.000000	40.305137
955.000000	40.297139
954.000000	40.299127
953.000000	40.293238
952.000000	40.286455
951.000000	40.310815
950.000000	40.325130
949.000000	40.326089
948.000000	40.317156
947.000000	40.327849
946.000000	40.336821
945.000000	40.321646
944.000000	40.321321
943.000000	40.325952
942.000000	40.327806
941.000000	40.319624
940.000000	40.320388
939.000000	40.313649
938.000000	40.294309
937.000000	40.295282
936.000000	40.304936
935.000000	40.313670
934.000000	40.329859
933.000000	40.326266
932.000000	40.306268
931.000000	40.305018
930.000000	40.278518
929.000000	40.253456
928.000000	40.264606
927.000000	40.284895
926.000000	40.276202
925.000000	40.263024
924.000000	40.263466
923.000000	40.254775
922.000000	40.247282
921.000000	40.238409
920.000000	40.232817
919.000000	40.224949
918.000000	40.210601
917.000000	40.209066
916.000000	40.225290
915.000000	40.202810
914.000000	40.182908
913.000000	40.197866
912.000000	40.203517
911.000000	40.208398
910.000000	40.201171
909.000000	40.191892
908.000000	40.178418
907.000000	40.173391
906.000000	40.187647
905.000000	40.215563
904.000000	40.207621
903.000000	40.226251
902.000000	40.207534
901.000000	40.195923
900.000000	40.184239
899.000000	40.219930
898.000000	40.206080
897.000000	40.211055
896.000000	40.201833
895.000000	40.246056
894.000000	40.237762
893.000000	40.225091
892.000000	40.209340
891.000000	40.245351
890.000000	40.230918
889.000000	40.237406
888.000000	40.223723
887.000000	40.262934
886.000000	40.276067
885.000000	40.279631
884.000000	40.266553
883.000000	40.227025
882.000000	40.187274
881.000000	40.168195
880.000000	40.237230
879.000000	40.221326
878.000000	40.223587
877.000000	40.250330
876.000000	40.278131
875.000000	40.222011
874.000000	40.266591
873.000000	40.209271
872.000000	40.179025
871.000000	40.301276
870.000000	40.172543
869.000000	40.157377
868.000000	40.193088
867.000000	40.133946
866.000000	40.169629
865.000000	40.156681
864.000000	40.189389
863.000000	40.161826
862.000000	40.171557
861.000000	40.195992
860.000000	40.190031
859.000000	39.995098
858.000000	40.002371
857.000000	40.167051
856.000000	40.127351
855.000000	39.957034
854.000000	40.176509
853.000000	40.074505
852.000000	39.927646
851.000000	40.200806
850.000000	39.915723
849.000000	40.091446
848.000000	39.922389
847.000000	40.012923
846.000000	40.033741
845.000000	40.064244
844.000000	39.931427
843.000000	39.939146
842.000000	39.906058
841.000000	39.918332
840.000000	39.825676
839.000000	39.842305
838.000000	39.732004
837.000000	39.981219
836.000000	39.819125
835.000000	39.837385
834.000000	39.854002
833.000000	39.848539
832.000000	39.755260
831.000000	39.791123
830.000000	39.864807
829.000000	39.816101
828.000000	39.855946
827.000000	39.911648
826.000000	39.886461
825.000000	39.806516
824.000000	39.746502
823.000000	39.596423
822.000000	39.687884
821.000000	39.774524
820.000000	39.721441
819.000000	39.593354
818.000000	39.632973
817.000000	39.804235
816.000000	39.654638
815.000000	39.657878
814.000000	39.707695
813.000000	39.613619
812.000000	39.595826
811.000000	39.646838
810.000000	39.700967
809.000000	39.676188
808.000000	39.606562
807.000000	39.497619
806.000000	39.506976
805.000000	39.608001
804.000000	39.565376
803.000000	39.571889
802.000000	39.540114
801.000000	39.458106
800.000000	39.594233
799.000000	39.504457
798.000000	39.559181
797.000000	39.458270
796.000000	39.539974
795.000000	39.478799
794.000000	39.405289
793.000000	39.463067
792.000000	39.440031
791.000000	39.389784
790.000000	39.358242
789.000000	39.380522
788.000000	39.387502
787.000000	39.288678
786.000000	39.360288
785.000000	39.331183
784.000000	39.334340
783.000000	39.341551
782.000000	39.272046
781.000000	39.242848
780.000000	39.273365
779.000000	39.242059
778.000000	39.201834
777.000000	39.185752
776.000000	39.196392
775.000000	39.208584
774.000000	39.190229
773.000000	39.137255
772.000000	39.132414
771.000000	39.116061
770.000000	39.190302
769.000000	39.153439
768.000000	39.115371
767.000000	39.145527
766.000000	39.132758
765.000000	39.042853
764.000000	39.000551
763.000000	39.076708
762.000000	39.048336
761.000000	39.017197
760.000000	39.031676
759.000000	39.016524
758.000000	38.975402
757.000000	38.993719
756.000000	38.989843
755.000000	38.932051
754.000000	38.916396
753.000000	38.908577
752.000000	38.892187
751.000000	38.857188
750.000000	38.844610
749.000000	38.835190
748.000000	38.876555
747.000000	38.783101
746.000000	38.722061
745.000000	38.773613
744.000000	38.761284
743.000000	38.704181
742.000000	38.684193
741.000000	38.705730
740.000000	38.677183
739.000000	38.671831
738.000000	38.684370
737.000000	38.631862
736.000000	38.584588
735.000000	38.625198
734.000000	38.561179
733.000000	38.556234
732.000000	38.578942
731.000000	38.568806
730.000000	38.493628
729.000000	38.473339
728.000000	38.469655
727.000000	38.438040
726.000000	38.415901
725.000000	38.442071
724.000000	38.386191
723.000000	38.369822
722.000000	38.353485
721.000000	38.325924
720.000000	38.286561
719.000000	38.262604
718.000000	38.262355
717.000000	38.267036
716.000000	38.232936
715.000000	38.210581
714.000000	38.177053
713.000000	38.184918
712.000000	38.181048
711.000000	38.133528
710.000000	38.095589
709.000000	38.083757
708.000000	38.070813
707.000000	38.044792
706.000000	38.011100
705.000000	37.999096
704.000000	37.992077
703.000000	37.968057
702.000000	37.934325
701.000000	37.910471
700.000000	37.905735
699.000000	37.887313
698.000000	37.854450
697.000000	37.834779
696.000000	37.803765
695.000000	37.765687
694.000000	37.725364
693.000000	37.690471
692.000000	37.670510
691.000000	37.650147
690.000000	37.632137
689.000000	37.598383
688.000000	37.515933
687.000000	37.498436
686.000000	37.495751
685.000000	37.487637
684.000000	37.461471
683.000000	37.395640
682.000000	37.359894
681.000000	37.330113
680.000000	37.304543
679.000000	37.314775
678.000000	37.303460
677.000000	37.278648
676.000000	37.277552
675.000000	37.225508
674.000000	37.158137
673.000000	37.123459
672.000000	37.118835
671.000000	37.090591
670.000000	37.046376
669.000000	37.023646
668.000000	36.980269
667.000000	36.935628
666.000000	36.940473
665.000000	36.925197
664.000000	36.848764
663.000000	36.853635
662.000000	36.804915
661.000000	36.780737
660.000000	36.741911
659.000000	36.697670
658.000000	36.660628
657.000000	36.697913
656.000000	36.655829
655.000000	36.604916
654.000000	36.558011
653.000000	36.550645
652.000000	36.554997
651.000000	36.490331
650.000000	36.430627
649.000000	36.422797
648.000000	36.380816
647.000000	36.341583
646.000000	36.282734
645.000000	36.295729
644.000000	36.255909
643.000000	36.220749
642.000000	36.193481
641.000000	36.148120
640.000000	36.127940
639.000000	36.082857
638.000000	36.041303
637.000000	35.997614
636.000000	35.974422
635.000000	35.944910
634.000000	35.887086
633.000000	35.878522
632.000000	35.849124
631.000000	35.813551
630.000000	35.771213
629.000000	35.718663
628.000000	35.687102
627.000000	35.668835
626.000000	35.611732
625.000000	35.606966
624.000000	35.561151
623.000000	35.516031
622.000000	35.516135
621.000000	35.466107
620.000000	35.402852
619.000000	35.360833
618.000000	35.319344
617.000000	35.292885
616.000000	35.250136
615.000000	35.225230
614.000000	35.183027
613.000000	35.138141
612.000000	35.099956
611.000000	35.088521
610.000000	35.010680
609.000000	34.990204
608.000000	34.924237
607.000000	34.906687
606.000000	34.838715
605.000000	34.825235
604.000000	34.765366
603.000000	34.728647
602.000000	34.696058
601.000000	34.670673
600.000000	34.616952
599.000000	34.565620
598.000000	34.530648
597.000000	34.481208
596.000000	34.418110
595.000000	34.385769
594.000000	34.359069
593.000000	34.298495
592.000000	34.241675
591.000000	34.212394
590.000000	34.151886
589.000000	34.139508
588.000000	34.101485
587.000000	34.029968
586.000000	34.000261
585.000000	33.926606
584.000000	33.888184
583.000000	33.869777
582.000000	33.816967
581.000000	33.755211
580.000000	33.700608
579.000000	33.679130
578.000000	33.613022
577.000000	33.521193
576.000000	33.528431
575.000000	33.453574
574.000000	33.385493
573.000000	33.356244
572.000000	33.311754
571.000000	33.250748
570.000000	33.202892
569.000000	33.133140
568.000000	33.093197
567.000000	33.054383
566.000000	33.022917
565.000000	32.966191
564.000000	32.906194
563.000000	32.871176
562.000000	32.775040
561.000000	32.733866
560.000000	32.649433
559.000000	32.647043
558.000000	32.585541
557.000000	32.560997
556.000000	32.500445
555.000000	32.419175
554.000000	32.344546
553.000000	32.332134
552.000000	32.257192
551.000000	32.202719
550.000000	32.153570
549.000000	32.085729
548.000000	32.025902
547.000000	31.971983
546.000000	31.912562
545.000000	31.842427
544.000000	31.803343
543.000000	31.738682
542.000000	31.671900
541.000000	31.604328
540.000000	31.560823
539.000000	31.452902
538.000000	31.382053
537.000000	31.345425
536.000000	31.259899
535.000000	31.211085
534.000000	31.133623
533.000000	31.065219
532.000000	31.010283
531.000000	30.943824
530.000000	30.859832
529.000000	30.785153
528.000000	30.719546
527.000000	30.667408
526.000000	30.619953
525.000000	30.534636
524.000000	30.433628
523.000000	30.362317
522.000000	30.300007
521.000000	30.243112
520.000000	30.178758
519.000000	30.077095
518.000000	30.022495
517.000000	29.955258
516.000000	29.870042
515.000000	29.801421
514.000000	29.732853
513.000000	29.632791
512.000000	29.536644
511.000000	29.466779
510.000000	29.401970
509.000000	29.319910
508.000000	29.229559
507.000000	29.142449
506.000000	29.062868
505.000000	28.989370
504.000000	28.901912
503.000000	28.811734
502.000000	28.747561
501.000000	28.652677
500.000000	28.549635
499.000000	28.461682
498.000000	28.364909
497.000000	28.289115
496.000000	28.190976
495.000000	28.087312
494.000000	28.003000
493.000000	27.910521
492.000000	27.817291
491.000000	27.731910
490.000000	27.643920
489.000000	27.550447
488.000000	27.457832
487.000000	27.323914
486.000000	27.218466
485.000000	27.113952
484.000000	27.016962
483.000000	26.952784
482.000000	26.846753
481.000000	26.732869
480.000000	26.613104
479.000000	26.515305
478.000000	26.406240
477.000000	26.273871
476.000000	26.164123
475.000000	26.061286
474.000000	25.938710
473.000000	25.824707
472.000000	25.716558
471.000000	25.590860
470.000000	25.479219
469.000000	25.376053
468.000000	25.241678
467.000000	25.108687
466.000000	24.996315
465.000000	24.871412
464.000000	24.748027
463.000000	24.633128
462.000000	24.490209
461.000000	24.370503
460.000000	24.273398
459.000000	24.150314
458.000000	24.017646
457.000000	23.862803
456.000000	23.703623
455.000000	23.559559
454.000000	23.432041
453.000000	23.290626
452.000000	23.148206
451.000000	23.021295
450.000000	22.871460
449.000000	22.729984
448.000000	22.586872
447.000000	22.437622
446.000000	22.292026
445.000000	22.160623
444.000000	22.001975
443.000000	21.828781
442.000000	21.690178
441.000000	21.534890
440.000000	21.374054
439.000000	21.213727
438.000000	21.064407
437.000000	20.922066
436.000000	20.769948
435.000000	20.578675
434.000000	20.418387
433.000000	20.261827
432.000000	20.117659
431.000000	19.949766
430.000000	19.771517
429.000000	19.589829
428.000000	19.429116
427.000000	19.257827
426.000000	19.102412
425.000000	18.945368
424.000000	18.770476
423.000000	18.585511
422.000000	18.412058
421.000000	18.254058
420.000000	18.089461
419.000000	17.921483
418.000000	17.766233
417.000000	17.591752
416.000000	17.450160
415.000000	17.299652
414.000000	17.146618
413.000000	17.006218
412.000000	16.881524
411.000000	16.757922
410.000000	16.600621
409.000000	16.477684
408.000000	16.356949
407.000000	16.219092
406.000000	16.089925
405.000000	15.959829
404.000000	15.870584
403.000000	15.756312
402.000000	15.618302
401.000000	15.455987
400.000000	15.357591
399.000000	15.188383
398.000000	15.061634
397.000000	14.922795
396.000000	14.775781
395.000000	14.594626
394.000000	14.482244
393.000000	14.337570
392.000000	14.205301
391.000000	14.035586
390.000000	13.893516
389.000000	13.734764
388.000000	13.551946
387.000000	13.372956
386.000000	13.208286
385.000000	13.050562
384.000000	12.897156
383.000000	12.726797
382.000000	12.537402
381.000000	12.378062
380.000000	12.171224
379.000000	12.008869
378.000000	11.821411
377.000000	11.693009
376.000000	11.509150
375.000000	11.338536
374.000000	11.102750
373.000000	10.942271
372.000000	10.769222
371.000000	10.602929
370.000000	10.444465
369.000000	10.291650
368.000000	10.106344
367.000000	9.948675
366.000000	9.815953
365.000000	9.621036
364.000000	9.469385
363.000000	9.305262
362.000000	9.134138
361.000000	8.980995
360.000000	8.846584
359.000000	8.690428
358.000000	8.494475
357.000000	8.376331
356.000000	8.234432
355.000000	8.025146
354.000000	7.909296
353.000000	7.720121
352.000000	7.597487
351.000000	7.477477
350.000000	7.307638
349.000000	7.184887
348.000000	7.022201
347.000000	6.847412
346.000000	6.692678
345.000000	6.583236
344.000000	6.448262
343.000000	6.322120
342.000000	6.125895
341.000000	6.055899
340.000000	5.929988
339.000000	5.759358
338.000000	5.601929
337.000000	5.490416
336.000000	5.365920
335.000000	5.228083
334.000000	5.097069
333.000000	4.941946
332.000000	4.827066
331.000000	4.725741
330.000000	4.677110
329.000000	4.563956
328.000000	4.447582
327.000000	4.285661
326.000000	4.219823
325.000000	4.095659
324.000000	3.984668
323.000000	3.887391
322.000000	3.822427
321.000000	3.671298
320.000000	3.595726
319.000000	3.484142
318.000000	3.367992
317.000000	3.303319
316.000000	3.202555
315.000000	3.113272
314.000000	2.994200
313.000000	2.912705
312.000000	2.808579
311.000000	2.672790
310.000000	2.548108
309.000000	2.437034
308.000000	2.308877
307.000000	2.179233
306.000000	1.994248
305.000000	1.874773
304.000000	1.717674
303.000000	1.546847
302.000000	1.389996
301.000000	1.238931
300.000000	1.091744
299.000000	0.958649
298.000000	0.860542
297.000000	0.759287
296.000000	0.683593
295.000000	0.617438
294.000000	0.569497
293.000000	0.547748
292.000000	0.530363
291.000000	0.500947
290.000000	0.479110
289.000000	0.472392
288.000000	0.460295
287.000000	0.450345
286.000000	0.467023
285.000000	0.471284
284.000000	0.467910
283.000000	0.477580
282.000000	0.496452
281.000000	0.483100
280.000000	0.477526
279.000000	0.480835
278.000000	0.486890
277.000000	0.489987
276.000000	0.495492
275.000000	0.499783
274.000000	0.506029
273.000000	0.512627
272.000000	0.519396
271.000000	0.519712
270.000000	0.522242
269.000000	0.526725
268.000000	0.524179
267.000000	0.530947
266.000000	0.528736
265.000000	0.528782
264.000000	0.530333
263.000000	0.533635
262.000000	0.537347
261.000000	0.548346
260.000000	0.555339
259.000000	0.549332
258.000000	0.553269
257.000000	0.543822
256.000000	0.556741
255.000000	0.558195
254.000000	0.555944
253.000000	0.557168
252.000000	0.546026
251.000000	0.549151
250.000000	0.537407
249.000000	0.518960
248.000000	0.512571
247.000000	0.513706
246.000000	0.503531
245.000000	0.484950
244.000000	0.467872
243.000000	0.460040
242.000000	0.455992
241.000000	0.442989
240.000000	0.431450
239.000000	0.425708
238.000000	0.434702
237.000000	0.454796
236.000000	0.460992
235.000000	0.470989
234.000000	0.483954
233.000000	0.493673
232.000000	0.491550
231.000000	0.497508
230.000000	0.492961
229.000000	0.485206
228.000000	0.467673
227.000000	0.440212
226.000000	0.417182
225.000000	0.399828
224.000000	0.395551
223.000000	0.376010
222.000000	0.359588
221.000000	0.341504
220.000000	0.332871
219.000000	0.323957
218.000000	0.308084
217.000000	0.289976
216.000000	0.279632
215.000000	0.288265
214.000000	0.286277
213.000000	0.267174
212.000000	0.255090
211.000000	0.242840
210.000000	0.249057
209.000000	0.269898
208.000000	0.251291
207.000000	0.264060
206.000000	0.293516
205.000000	0.277673
204.000000	0.293541
203.000000	0.306895
202.000000	0.294248
201.000000	0.341012
200.000000	0.314684
