PE UV       SUBTECH     SPECTRUM    ASCII       PEDS        4.00        
   -1
TTVeauAl 12.Sample.asc
18/02/28
11:34:11.00
18/02/28
11:34:11.00
Administrator

200.000000
1
Lambda 750
750N8071901
PerkinElmer UV WinLab 6.0.4.0738 / 1.61.00 Lambda 900

0
0
3350/servo 860.8/2
0
0
UV/VIS
1
1
1
CommonBeamDepol,150mm sphere / downward view
0
0
0
0
Program
Program
3350/servo 860.8/2
3350/0.2 860.8/0.2
3350/0.2 860.8/0.2
0
1
 
 
 
0
 
860.8
319.2
860.8
Front
100
on
 
 
0
0
0
 
0
 
 
 
0
 
 
0
0
0
0
0
 
 
 
 
0
0


0
0
#HDR
-1
-1
#GR
nm
%T
1.0
0.0
2350.000000
-1.000000
2151
8
38.147414
0.127112
#DATA
2350.000000	9.752619
2349.000000	9.892055
2348.000000	9.644438
2347.000000	10.566439
2346.000000	10.316664
2345.000000	9.701737
2344.000000	9.482606
2343.000000	9.773377
2342.000000	10.018251
2341.000000	9.992420
2340.000000	10.038353
2339.000000	10.430097
2338.000000	10.081140
2337.000000	10.619399
2336.000000	10.653929
2335.000000	10.938383
2334.000000	11.014790
2333.000000	10.921625
2332.000000	11.035315
2331.000000	10.688488
2330.000000	10.588160
2329.000000	10.460807
2328.000000	10.367597
2327.000000	10.400471
2326.000000	10.506315
2325.000000	10.696588
2324.000000	10.561821
2323.000000	10.303888
2322.000000	10.256346
2321.000000	10.375186
2320.000000	10.517657
2319.000000	10.522315
2318.000000	10.343527
2317.000000	10.413797
2316.000000	10.235245
2315.000000	10.081501
2314.000000	9.921097
2313.000000	9.704041
2312.000000	9.901353
2311.000000	9.945717
2310.000000	9.850785
2309.000000	9.831680
2308.000000	9.787347
2307.000000	9.805168
2306.000000	9.649998
2305.000000	9.620106
2304.000000	9.719872
2303.000000	9.638793
2302.000000	9.745015
2301.000000	9.487495
2300.000000	9.300829
2299.000000	9.160196
2298.000000	9.280179
2297.000000	9.238887
2296.000000	9.147121
2295.000000	8.935742
2294.000000	9.064193
2293.000000	9.184119
2292.000000	8.937622
2291.000000	8.923094
2290.000000	9.003593
2289.000000	8.975770
2288.000000	8.892714
2287.000000	8.955710
2286.000000	8.680948
2285.000000	8.750152
2284.000000	8.732092
2283.000000	8.721840
2282.000000	8.792955
2281.000000	8.825600
2280.000000	8.732573
2279.000000	8.799260
2278.000000	8.864187
2277.000000	8.895672
2276.000000	8.918355
2275.000000	8.892026
2274.000000	8.741014
2273.000000	8.874998
2272.000000	9.093649
2271.000000	9.088935
2270.000000	9.086927
2269.000000	9.080206
2268.000000	9.000557
2267.000000	9.065929
2266.000000	9.206247
2265.000000	9.237702
2264.000000	9.431397
2263.000000	9.489914
2262.000000	9.541452
2261.000000	9.480871
2260.000000	9.569331
2259.000000	9.791119
2258.000000	9.999211
2257.000000	10.043509
2256.000000	10.032573
2255.000000	10.108113
2254.000000	10.238423
2253.000000	10.483625
2252.000000	10.670148
2251.000000	10.852552
2250.000000	11.029615
2249.000000	11.191507
2248.000000	11.312902
2247.000000	11.445561
2246.000000	11.464185
2245.000000	11.575189
2244.000000	11.734065
2243.000000	11.827759
2242.000000	11.989071
2241.000000	12.090959
2240.000000	12.118840
2239.000000	12.120695
2238.000000	12.181746
2237.000000	12.357738
2236.000000	12.492734
2235.000000	12.481143
2234.000000	12.649511
2233.000000	12.713287
2232.000000	12.643576
2231.000000	12.699070
2230.000000	12.745808
2229.000000	12.827356
2228.000000	12.842634
2227.000000	12.847266
2226.000000	12.786543
2225.000000	12.750950
2224.000000	12.788367
2223.000000	12.719455
2222.000000	12.806178
2221.000000	12.752804
2220.000000	12.760088
2219.000000	12.843431
2218.000000	12.738067
2217.000000	12.734308
2216.000000	12.709806
2215.000000	12.616570
2214.000000	12.555992
2213.000000	12.590660
2212.000000	12.513514
2211.000000	12.406685
2210.000000	12.320727
2209.000000	12.216786
2208.000000	12.266962
2207.000000	12.246574
2206.000000	12.189744
2205.000000	12.138029
2204.000000	12.244132
2203.000000	12.160925
2202.000000	12.088146
2201.000000	11.984457
2200.000000	11.969318
2199.000000	11.990740
2198.000000	11.918545
2197.000000	11.767534
2196.000000	11.626698
2195.000000	11.694030
2194.000000	11.639787
2193.000000	11.554031
2192.000000	11.470507
2191.000000	11.292794
2190.000000	11.292613
2189.000000	11.348708
2188.000000	11.309270
2187.000000	11.098426
2186.000000	11.049027
2185.000000	11.076410
2184.000000	11.072241
2183.000000	11.125593
2182.000000	11.101658
2181.000000	11.014051
2180.000000	10.983659
2179.000000	10.811209
2178.000000	10.946454
2177.000000	10.937270
2176.000000	10.993485
2175.000000	11.053954
2174.000000	10.986098
2173.000000	10.948712
2172.000000	11.008718
2171.000000	11.032566
2170.000000	11.060339
2169.000000	11.088584
2168.000000	11.277595
2167.000000	11.244690
2166.000000	11.170563
2165.000000	11.272675
2164.000000	11.457666
2163.000000	11.382903
2162.000000	11.530359
2161.000000	11.575495
2160.000000	11.740578
2159.000000	11.820041
2158.000000	11.809231
2157.000000	11.834579
2156.000000	11.880010
2155.000000	11.858352
2154.000000	12.215917
2153.000000	12.448090
2152.000000	12.471563
2151.000000	12.434750
2150.000000	12.574584
2149.000000	12.629774
2148.000000	12.788897
2147.000000	12.902104
2146.000000	12.859764
2145.000000	13.073338
2144.000000	13.215895
2143.000000	13.209881
2142.000000	13.431176
2141.000000	13.484278
2140.000000	13.611394
2139.000000	13.769732
2138.000000	13.793259
2137.000000	13.707131
2136.000000	13.923599
2135.000000	13.876373
2134.000000	14.086222
2133.000000	14.008655
2132.000000	14.079151
2131.000000	14.394777
2130.000000	14.458897
2129.000000	14.376914
2128.000000	14.114871
2127.000000	14.378383
2126.000000	14.485112
2125.000000	14.468801
2124.000000	14.593035
2123.000000	14.452103
2122.000000	14.671094
2121.000000	14.610630
2120.000000	14.593006
2119.000000	14.718121
2118.000000	14.714427
2117.000000	14.810704
2116.000000	14.919570
2115.000000	15.041795
2114.000000	15.050990
2113.000000	15.009848
2112.000000	15.081868
2111.000000	15.021791
2110.000000	15.034568
2109.000000	14.995069
2108.000000	15.118448
2107.000000	14.993604
2106.000000	15.060053
2105.000000	15.043136
2104.000000	15.098901
2103.000000	15.278437
2102.000000	15.211783
2101.000000	15.177107
2100.000000	15.266082
2099.000000	15.168984
2098.000000	15.158353
2097.000000	15.104565
2096.000000	15.086248
2095.000000	15.188479
2094.000000	15.216619
2093.000000	15.147182
2092.000000	15.155564
2091.000000	15.181695
2090.000000	15.197106
2089.000000	15.157082
2088.000000	15.177107
2087.000000	15.147424
2086.000000	15.122790
2085.000000	15.174899
2084.000000	15.087223
2083.000000	15.027940
2082.000000	15.042715
2081.000000	14.949682
2080.000000	14.919140
2079.000000	14.874317
2078.000000	14.928431
2077.000000	14.829934
2076.000000	14.678805
2075.000000	14.567564
2074.000000	14.513847
2073.000000	14.419308
2072.000000	14.388850
2071.000000	14.332738
2070.000000	14.232937
2069.000000	14.111281
2068.000000	14.005907
2067.000000	13.974863
2066.000000	13.894188
2065.000000	13.697350
2064.000000	13.559627
2063.000000	13.490873
2062.000000	13.423299
2061.000000	13.356750
2060.000000	13.217444
2059.000000	13.042044
2058.000000	12.986958
2057.000000	12.900766
2056.000000	12.814034
2055.000000	12.702759
2054.000000	12.540842
2053.000000	12.406276
2052.000000	12.326048
2051.000000	12.218567
2050.000000	12.176761
2049.000000	12.097894
2048.000000	12.012409
2047.000000	11.993933
2046.000000	11.974213
2045.000000	11.942638
2044.000000	11.897889
2043.000000	11.914013
2042.000000	11.964083
2041.000000	11.940427
2040.000000	11.922778
2039.000000	11.956791
2038.000000	11.985636
2037.000000	12.062310
2036.000000	12.122201
2035.000000	12.172588
2034.000000	12.249447
2033.000000	12.359962
2032.000000	12.497601
2031.000000	12.542193
2030.000000	12.629893
2029.000000	12.784987
2028.000000	12.898119
2027.000000	12.961094
2026.000000	13.068019
2025.000000	13.168605
2024.000000	13.231430
2023.000000	13.290904
2022.000000	13.351633
2021.000000	13.425459
2020.000000	13.501749
2019.000000	13.552936
2018.000000	13.596691
2017.000000	13.649242
2016.000000	13.680946
2015.000000	13.711446
2014.000000	13.751555
2013.000000	13.773473
2012.000000	13.763895
2011.000000	13.733564
2010.000000	13.687283
2009.000000	13.667816
2008.000000	13.664423
2007.000000	13.628025
2006.000000	13.589595
2005.000000	13.570082
2004.000000	13.506349
2003.000000	13.421856
2002.000000	13.376979
2001.000000	13.334184
2000.000000	13.279110
1999.000000	13.213383
1998.000000	13.147695
1997.000000	13.130469
1996.000000	13.067211
1995.000000	13.009171
1994.000000	12.900312
1993.000000	12.825593
1992.000000	12.799912
1991.000000	12.680666
1990.000000	12.604481
1989.000000	12.573811
1988.000000	12.527392
1987.000000	12.463895
1986.000000	12.367425
1985.000000	12.345005
1984.000000	12.244119
1983.000000	12.208579
1982.000000	12.181734
1981.000000	12.119711
1980.000000	12.032478
1979.000000	11.969258
1978.000000	11.923441
1977.000000	11.864922
1976.000000	11.773263
1975.000000	11.717337
1974.000000	11.668938
1973.000000	11.606307
1972.000000	11.541241
1971.000000	11.492903
1970.000000	11.441795
1969.000000	11.423930
1968.000000	11.357476
1967.000000	11.306077
1966.000000	11.230521
1965.000000	11.184343
1964.000000	11.130606
1963.000000	11.066851
1962.000000	10.983850
1961.000000	10.943415
1960.000000	10.923647
1959.000000	10.868642
1958.000000	10.831984
1957.000000	10.828544
1956.000000	10.727851
1955.000000	10.658634
1954.000000	10.608903
1953.000000	10.654818
1952.000000	10.608359
1951.000000	10.577387
1950.000000	10.529531
1949.000000	10.464236
1948.000000	10.475141
1947.000000	10.479251
1946.000000	10.405224
1945.000000	10.383086
1944.000000	10.415460
1943.000000	10.391573
1942.000000	10.399669
1941.000000	10.425654
1940.000000	10.499325
1939.000000	10.585286
1938.000000	10.554232
1937.000000	10.675585
1936.000000	10.761526
1935.000000	10.783144
1934.000000	10.800293
1933.000000	10.894153
1932.000000	10.970133
1931.000000	11.061352
1930.000000	11.201759
1929.000000	11.306809
1928.000000	11.413248
1927.000000	11.518451
1926.000000	11.638101
1925.000000	11.840004
1924.000000	12.027581
1923.000000	12.201779
1922.000000	12.352757
1921.000000	12.571390
1920.000000	12.791294
1919.000000	12.966707
1918.000000	13.108978
1917.000000	13.396748
1916.000000	13.524631
1915.000000	13.829724
1914.000000	14.120278
1913.000000	14.392756
1912.000000	14.659196
1911.000000	14.867509
1910.000000	15.205889
1909.000000	15.457356
1908.000000	15.815306
1907.000000	16.142461
1906.000000	16.445032
1905.000000	16.836637
1904.000000	17.077841
1903.000000	17.452867
1902.000000	17.828533
1901.000000	18.200079
1900.000000	18.574427
1899.000000	18.932400
1898.000000	19.360842
1897.000000	19.715807
1896.000000	20.142059
1895.000000	20.468366
1894.000000	20.814161
1893.000000	21.174067
1892.000000	21.592756
1891.000000	21.982360
1890.000000	22.322676
1889.000000	22.602992
1888.000000	22.939720
1887.000000	23.306402
1886.000000	23.667248
1885.000000	23.970436
1884.000000	24.300055
1883.000000	24.590122
1882.000000	24.884540
1881.000000	25.123425
1880.000000	25.385994
1879.000000	25.623476
1878.000000	25.881942
1877.000000	26.084609
1876.000000	26.284834
1875.000000	26.474310
1874.000000	26.672658
1873.000000	26.829300
1872.000000	26.978748
1871.000000	27.151346
1870.000000	27.316804
1869.000000	27.457675
1868.000000	27.524544
1867.000000	27.573473
1866.000000	27.655482
1865.000000	27.756013
1864.000000	27.805049
1863.000000	27.857885
1862.000000	27.879984
1861.000000	27.935747
1860.000000	27.988809
1859.000000	28.017016
1858.000000	28.029955
1857.000000	28.070488
1856.000000	28.105419
1855.000000	28.156449
1854.000000	28.184001
1853.000000	28.191666
1852.000000	28.198796
1851.000000	28.190276
1850.000000	28.197612
1849.000000	28.185618
1848.000000	28.146830
1847.000000	28.163217
1846.000000	28.144993
1845.000000	28.127157
1844.000000	28.127269
1843.000000	28.123831
1842.000000	28.096959
1841.000000	28.053806
1840.000000	28.035338
1839.000000	28.019182
1838.000000	27.981863
1837.000000	27.928128
1836.000000	27.898628
1835.000000	27.844051
1834.000000	27.796387
1833.000000	27.785596
1832.000000	27.757940
1831.000000	27.688660
1830.000000	27.650875
1829.000000	27.615241
1828.000000	27.579759
1827.000000	27.538933
1826.000000	27.502049
1825.000000	27.470465
1824.000000	27.468868
1823.000000	27.437994
1822.000000	27.382540
1821.000000	27.345848
1820.000000	27.317248
1819.000000	27.273767
1818.000000	27.251746
1817.000000	27.227465
1816.000000	27.185264
1815.000000	27.167186
1814.000000	27.137574
1813.000000	27.113889
1812.000000	27.081208
1811.000000	27.032343
1810.000000	26.999867
1809.000000	26.985183
1808.000000	26.948171
1807.000000	26.919928
1806.000000	26.890295
1805.000000	26.839139
1804.000000	26.805209
1803.000000	26.799168
1802.000000	26.774287
1801.000000	26.747875
1800.000000	26.733814
1799.000000	26.702308
1798.000000	26.664167
1797.000000	26.630698
1796.000000	26.623752
1795.000000	26.619286
1794.000000	26.595324
1793.000000	26.573089
1792.000000	26.564929
1791.000000	26.546384
1790.000000	26.507681
1789.000000	26.474672
1788.000000	26.458754
1787.000000	26.433426
1786.000000	26.411468
1785.000000	26.394692
1784.000000	26.366645
1783.000000	26.337159
1782.000000	26.296796
1781.000000	26.261647
1780.000000	26.214588
1779.000000	26.189221
1778.000000	26.149328
1777.000000	26.101367
1776.000000	26.051547
1775.000000	25.999722
1774.000000	25.913651
1773.000000	25.858744
1772.000000	25.797461
1771.000000	25.758027
1770.000000	25.703656
1769.000000	25.637307
1768.000000	25.589724
1767.000000	25.510432
1766.000000	25.469362
1765.000000	25.445119
1764.000000	25.386260
1763.000000	25.312264
1762.000000	25.247644
1761.000000	25.196765
1760.000000	25.138689
1759.000000	25.076634
1758.000000	25.036835
1757.000000	24.964400
1756.000000	24.902217
1755.000000	24.849588
1754.000000	24.812937
1753.000000	24.749601
1752.000000	24.709739
1751.000000	24.649430
1750.000000	24.630723
1749.000000	24.557844
1748.000000	24.504223
1747.000000	24.424595
1746.000000	24.376376
1745.000000	24.309483
1744.000000	24.224970
1743.000000	24.189911
1742.000000	24.126012
1741.000000	24.069105
1740.000000	24.027977
1739.000000	23.974334
1738.000000	23.917517
1737.000000	23.879351
1736.000000	23.881663
1735.000000	23.837488
1734.000000	23.843630
1733.000000	23.832729
1732.000000	23.808279
1731.000000	23.803225
1730.000000	23.805475
1729.000000	23.824909
1728.000000	23.861129
1727.000000	23.898089
1726.000000	23.941021
1725.000000	24.002384
1724.000000	24.080596
1723.000000	24.127615
1722.000000	24.173918
1721.000000	24.290370
1720.000000	24.377701
1719.000000	24.450446
1718.000000	24.524429
1717.000000	24.629934
1716.000000	24.706922
1715.000000	24.770248
1714.000000	24.835796
1713.000000	24.923428
1712.000000	25.019988
1711.000000	25.049373
1710.000000	25.089831
1709.000000	25.178148
1708.000000	25.224151
1707.000000	25.244390
1706.000000	25.305189
1705.000000	25.310797
1704.000000	25.369057
1703.000000	25.359322
1702.000000	25.375358
1701.000000	25.401818
1700.000000	25.423360
1699.000000	25.448292
1698.000000	25.466616
1697.000000	25.517733
1696.000000	25.564361
1695.000000	25.559038
1694.000000	25.596858
1693.000000	25.663586
1692.000000	25.705088
1691.000000	25.768858
1690.000000	25.859771
1689.000000	25.960205
1688.000000	26.047401
1687.000000	26.132211
1686.000000	26.245901
1685.000000	26.388788
1684.000000	26.512803
1683.000000	26.652278
1682.000000	26.796686
1681.000000	26.983025
1680.000000	27.138823
1679.000000	27.267570
1678.000000	27.455672
1677.000000	27.619407
1676.000000	27.780164
1675.000000	27.925504
1674.000000	28.108724
1673.000000	28.285475
1672.000000	28.396995
1671.000000	28.558620
1670.000000	28.727796
1669.000000	28.884176
1668.000000	29.009793
1667.000000	29.138425
1666.000000	29.213324
1665.000000	29.300536
1664.000000	29.390738
1663.000000	29.478470
1662.000000	29.542813
1661.000000	29.634876
1660.000000	29.719148
1659.000000	29.774287
1658.000000	29.819731
1657.000000	29.874585
1656.000000	29.922032
1655.000000	29.944289
1654.000000	29.972533
1653.000000	29.980784
1652.000000	30.003047
1651.000000	29.988913
1650.000000	29.991535
1649.000000	30.031142
1648.000000	30.023976
1647.000000	30.008343
1646.000000	30.001984
1645.000000	29.972088
1644.000000	29.964261
1643.000000	29.940872
1642.000000	29.922614
1641.000000	29.907268
1640.000000	29.880117
1639.000000	29.863683
1638.000000	29.848629
1637.000000	29.816775
1636.000000	29.780463
1635.000000	29.752401
1634.000000	29.704913
1633.000000	29.663963
1632.000000	29.644536
1631.000000	29.604597
1630.000000	29.579051
1629.000000	29.545107
1628.000000	29.511796
1627.000000	29.470093
1626.000000	29.419567
1625.000000	29.378100
1624.000000	29.324295
1623.000000	29.285352
1622.000000	29.250230
1621.000000	29.203492
1620.000000	29.168670
1619.000000	29.118212
1618.000000	29.073218
1617.000000	29.033156
1616.000000	28.983675
1615.000000	28.934127
1614.000000	28.877676
1613.000000	28.822803
1612.000000	28.783553
1611.000000	28.735406
1610.000000	28.679161
1609.000000	28.626061
1608.000000	28.564893
1607.000000	28.509384
1606.000000	28.452619
1605.000000	28.408540
1604.000000	28.349122
1603.000000	28.286404
1602.000000	28.239057
1601.000000	28.182865
1600.000000	28.128056
1599.000000	28.088098
1598.000000	28.033781
1597.000000	27.978804
1596.000000	27.926493
1595.000000	27.878238
1594.000000	27.833238
1593.000000	27.787147
1592.000000	27.731697
1591.000000	27.683637
1590.000000	27.644439
1589.000000	27.591992
1588.000000	27.544999
1587.000000	27.508521
1586.000000	27.474372
1585.000000	27.429822
1584.000000	27.389019
1583.000000	27.353199
1582.000000	27.305249
1581.000000	27.254948
1580.000000	27.214756
1579.000000	27.173080
1578.000000	27.144864
1577.000000	27.102683
1576.000000	27.050777
1575.000000	27.021695
1574.000000	26.980737
1573.000000	26.935775
1572.000000	26.891857
1571.000000	26.853343
1570.000000	26.818947
1569.000000	26.793109
1568.000000	26.759594
1567.000000	26.725618
1566.000000	26.691796
1565.000000	26.670317
1564.000000	26.640664
1563.000000	26.613445
1562.000000	26.588613
1561.000000	26.554687
1560.000000	26.541819
1559.000000	26.519646
1558.000000	26.507369
1557.000000	26.499997
1556.000000	26.481535
1555.000000	26.471734
1554.000000	26.439290
1553.000000	26.405093
1552.000000	26.385316
1551.000000	26.367640
1550.000000	26.343527
1549.000000	26.300664
1548.000000	26.257743
1547.000000	26.208206
1546.000000	26.159680
1545.000000	26.113805
1544.000000	26.047508
1543.000000	25.987638
1542.000000	25.930236
1541.000000	25.867500
1540.000000	25.787542
1539.000000	25.707509
1538.000000	25.627962
1537.000000	25.556355
1536.000000	25.469824
1535.000000	25.370283
1534.000000	25.291369
1533.000000	25.205499
1532.000000	25.130892
1531.000000	25.066426
1530.000000	25.030961
1529.000000	25.018111
1528.000000	24.975335
1527.000000	24.902175
1526.000000	24.817198
1525.000000	24.729179
1524.000000	24.660401
1523.000000	24.608058
1522.000000	24.536725
1521.000000	24.489610
1520.000000	24.443842
1519.000000	24.402310
1518.000000	24.341351
1517.000000	24.311943
1516.000000	24.284043
1515.000000	24.239443
1514.000000	24.200765
1513.000000	24.181413
1512.000000	24.170607
1511.000000	24.135384
1510.000000	24.089909
1509.000000	24.064806
1508.000000	24.030379
1507.000000	24.020741
1506.000000	24.021697
1505.000000	24.030163
1504.000000	24.000895
1503.000000	23.981512
1502.000000	23.973960
1501.000000	23.968653
1500.000000	23.967065
1499.000000	23.951672
1498.000000	23.967842
1497.000000	23.977569
1496.000000	23.985182
1495.000000	24.003186
1494.000000	24.020281
1493.000000	24.050358
1492.000000	24.082684
1491.000000	24.126000
1490.000000	24.154702
1489.000000	24.206252
1488.000000	24.259114
1487.000000	24.313905
1486.000000	24.360309
1485.000000	24.434274
1484.000000	24.503284
1483.000000	24.557010
1482.000000	24.632431
1481.000000	24.710218
1480.000000	24.780244
1479.000000	24.856824
1478.000000	24.901393
1477.000000	25.007993
1476.000000	25.069788
1475.000000	25.139933
1474.000000	25.206942
1473.000000	25.263876
1472.000000	25.318813
1471.000000	25.367550
1470.000000	25.423425
1469.000000	25.491378
1468.000000	25.582080
1467.000000	25.643798
1466.000000	25.692173
1465.000000	25.727225
1464.000000	25.756668
1463.000000	25.822635
1462.000000	25.896598
1461.000000	25.940861
1460.000000	25.965285
1459.000000	25.997675
1458.000000	26.078327
1457.000000	26.138343
1456.000000	26.174311
1455.000000	26.219794
1454.000000	26.270882
1453.000000	26.330392
1452.000000	26.398025
1451.000000	26.448772
1450.000000	26.496443
1449.000000	26.577276
1448.000000	26.639889
1447.000000	26.705283
1446.000000	26.754876
1445.000000	26.810862
1444.000000	26.873179
1443.000000	26.950503
1442.000000	27.031546
1441.000000	27.098559
1440.000000	27.157416
1439.000000	27.215414
1438.000000	27.306541
1437.000000	27.374967
1436.000000	27.450734
1435.000000	27.561418
1434.000000	27.649719
1433.000000	27.735093
1432.000000	27.827863
1431.000000	27.915194
1430.000000	27.995461
1429.000000	28.104251
1428.000000	28.198226
1427.000000	28.309630
1426.000000	28.420034
1425.000000	28.529443
1424.000000	28.660154
1423.000000	28.779804
1422.000000	28.911815
1421.000000	29.046469
1420.000000	29.160951
1419.000000	29.290293
1418.000000	29.435232
1417.000000	29.586163
1416.000000	29.747650
1415.000000	29.899181
1414.000000	30.046129
1413.000000	30.175202
1412.000000	30.320356
1411.000000	30.485778
1410.000000	30.648169
1409.000000	30.810830
1408.000000	30.960001
1407.000000	31.096688
1406.000000	31.241565
1405.000000	31.394719
1404.000000	31.536906
1403.000000	31.681198
1402.000000	31.819911
1401.000000	31.950204
1400.000000	32.091356
1399.000000	32.225740
1398.000000	32.344250
1397.000000	32.471168
1396.000000	32.587705
1395.000000	32.707933
1394.000000	32.827408
1393.000000	32.933365
1392.000000	33.047774
1391.000000	33.160297
1390.000000	33.274624
1389.000000	33.394643
1388.000000	33.512152
1387.000000	33.601354
1386.000000	33.689609
1385.000000	33.795793
1384.000000	33.879485
1383.000000	33.948007
1382.000000	34.024595
1381.000000	34.118520
1380.000000	34.176152
1379.000000	34.219919
1378.000000	34.294891
1377.000000	34.347590
1376.000000	34.392737
1375.000000	34.447763
1374.000000	34.496469
1373.000000	34.536947
1372.000000	34.562804
1371.000000	34.610825
1370.000000	34.670677
1369.000000	34.714256
1368.000000	34.746578
1367.000000	34.783043
1366.000000	34.832472
1365.000000	34.886642
1364.000000	34.926484
1363.000000	34.960440
1362.000000	34.998176
1361.000000	35.042685
1360.000000	35.084156
1359.000000	35.127285
1358.000000	35.171429
1357.000000	35.216271
1356.000000	35.288250
1355.000000	35.356942
1354.000000	35.407797
1353.000000	35.443026
1352.000000	35.485788
1351.000000	35.545596
1350.000000	35.596178
1349.000000	35.630448
1348.000000	35.663141
1347.000000	35.707096
1346.000000	35.777929
1345.000000	35.849678
1344.000000	35.878897
1343.000000	35.918210
1342.000000	35.956161
1341.000000	35.978944
1340.000000	36.024440
1339.000000	36.065064
1338.000000	36.094394
1337.000000	36.131601
1336.000000	36.174973
1335.000000	36.225634
1334.000000	36.260422
1333.000000	36.286178
1332.000000	36.305612
1331.000000	36.322133
1330.000000	36.335306
1329.000000	36.365572
1328.000000	36.397112
1327.000000	36.421397
1326.000000	36.409407
1325.000000	36.424171
1324.000000	36.468425
1323.000000	36.473400
1322.000000	36.475725
1321.000000	36.504007
1320.000000	36.511701
1319.000000	36.512000
1318.000000	36.544366
1317.000000	36.538333
1316.000000	36.549475
1315.000000	36.573020
1314.000000	36.576860
1313.000000	36.598460
1312.000000	36.589265
1311.000000	36.584864
1310.000000	36.599982
1309.000000	36.628110
1308.000000	36.621746
1307.000000	36.642528
1306.000000	36.670163
1305.000000	36.659760
1304.000000	36.655632
1303.000000	36.650968
1302.000000	36.650495
1301.000000	36.648961
1300.000000	36.686592
1299.000000	36.705113
1298.000000	36.686779
1297.000000	36.702821
1296.000000	36.698835
1295.000000	36.689762
1294.000000	36.674132
1293.000000	36.670859
1292.000000	36.660839
1291.000000	36.640702
1290.000000	36.649584
1289.000000	36.602993
1288.000000	36.603331
1287.000000	36.608849
1286.000000	36.615434
1285.000000	36.596228
1284.000000	36.614282
1283.000000	36.611706
1282.000000	36.584982
1281.000000	36.586015
1280.000000	36.589295
1279.000000	36.546925
1278.000000	36.551634
1277.000000	36.562137
1276.000000	36.545766
1275.000000	36.556763
1274.000000	36.550960
1273.000000	36.547885
1272.000000	36.574782
1271.000000	36.563128
1270.000000	36.563499
1269.000000	36.547337
1268.000000	36.586593
1267.000000	36.594229
1266.000000	36.598832
1265.000000	36.596106
1264.000000	36.593272
1263.000000	36.593298
1262.000000	36.595129
1261.000000	36.611492
1260.000000	36.640807
1259.000000	36.649715
1258.000000	36.633577
1257.000000	36.633279
1256.000000	36.642581
1255.000000	36.654988
1254.000000	36.661847
1253.000000	36.691067
1252.000000	36.687018
1251.000000	36.677996
1250.000000	36.662787
1249.000000	36.653861
1248.000000	36.659831
1247.000000	36.659882
1246.000000	36.648625
1245.000000	36.642732
1244.000000	36.625082
1243.000000	36.617875
1242.000000	36.563439
1241.000000	36.537840
1240.000000	36.551172
1239.000000	36.517295
1238.000000	36.482951
1237.000000	36.455844
1236.000000	36.452222
1235.000000	36.442628
1234.000000	36.400074
1233.000000	36.385580
1232.000000	36.368834
1231.000000	36.344043
1230.000000	36.298100
1229.000000	36.295617
1228.000000	36.285280
1227.000000	36.260789
1226.000000	36.251669
1225.000000	36.241685
1224.000000	36.200315
1223.000000	36.156403
1222.000000	36.136992
1221.000000	36.105879
1220.000000	36.092476
1219.000000	36.080358
1218.000000	36.052393
1217.000000	36.037533
1216.000000	36.024531
1215.000000	36.013981
1214.000000	35.997229
1213.000000	35.944167
1212.000000	35.897678
1211.000000	35.886226
1210.000000	35.894151
1209.000000	35.829530
1208.000000	35.812009
1207.000000	35.798817
1206.000000	35.738276
1205.000000	35.712922
1204.000000	35.690523
1203.000000	35.649878
1202.000000	35.594566
1201.000000	35.579654
1200.000000	35.583803
1199.000000	35.531417
1198.000000	35.476539
1197.000000	35.445705
1196.000000	35.447240
1195.000000	35.424909
1194.000000	35.405748
1193.000000	35.378580
1192.000000	35.344457
1191.000000	35.331901
1190.000000	35.303694
1189.000000	35.249346
1188.000000	35.236837
1187.000000	35.250948
1186.000000	35.242013
1185.000000	35.231932
1184.000000	35.238849
1183.000000	35.241739
1182.000000	35.278235
1181.000000	35.312842
1180.000000	35.334693
1179.000000	35.354780
1178.000000	35.387546
1177.000000	35.426835
1176.000000	35.466012
1175.000000	35.509829
1174.000000	35.544038
1173.000000	35.583063
1172.000000	35.635267
1171.000000	35.688249
1170.000000	35.740041
1169.000000	35.790176
1168.000000	35.849659
1167.000000	35.926497
1166.000000	35.996152
1165.000000	36.052171
1164.000000	36.115396
1163.000000	36.179679
1162.000000	36.230284
1161.000000	36.288389
1160.000000	36.357457
1159.000000	36.415646
1158.000000	36.475817
1157.000000	36.529097
1156.000000	36.577451
1155.000000	36.611610
1154.000000	36.637336
1153.000000	36.689684
1152.000000	36.746432
1151.000000	36.792291
1150.000000	36.831442
1149.000000	36.875889
1148.000000	36.917676
1147.000000	36.960348
1146.000000	37.000579
1145.000000	37.040567
1144.000000	37.076239
1143.000000	37.110291
1142.000000	37.143260
1141.000000	37.176796
1140.000000	37.213364
1139.000000	37.243985
1138.000000	37.272842
1137.000000	37.311872
1136.000000	37.347912
1135.000000	37.385536
1134.000000	37.406698
1133.000000	37.425479
1132.000000	37.430806
1131.000000	37.446295
1130.000000	37.468488
1129.000000	37.506344
1128.000000	37.536999
1127.000000	37.567391
1126.000000	37.583417
1125.000000	37.593334
1124.000000	37.613231
1123.000000	37.635590
1122.000000	37.652612
1121.000000	37.660209
1120.000000	37.672700
1119.000000	37.672481
1118.000000	37.667040
1117.000000	37.668435
1116.000000	37.671044
1115.000000	37.682233
1114.000000	37.658193
1113.000000	37.647051
1112.000000	37.665374
1111.000000	37.657113
1110.000000	37.678046
1109.000000	37.678806
1108.000000	37.693139
1107.000000	37.692890
1106.000000	37.699271
1105.000000	37.699611
1104.000000	37.699131
1103.000000	37.708432
1102.000000	37.716906
1101.000000	37.675420
1100.000000	37.664913
1099.000000	37.677789
1098.000000	37.692913
1097.000000	37.692323
1096.000000	37.692047
1095.000000	37.689314
1094.000000	37.695274
1093.000000	37.690889
1092.000000	37.678091
1091.000000	37.671737
1090.000000	37.667234
1089.000000	37.678851
1088.000000	37.686307
1087.000000	37.689282
1086.000000	37.658809
1085.000000	37.657352
1084.000000	37.662091
1083.000000	37.663801
1082.000000	37.647924
1081.000000	37.666024
1080.000000	37.667726
1079.000000	37.633790
1078.000000	37.624908
1077.000000	37.626865
1076.000000	37.638013
1075.000000	37.641519
1074.000000	37.619999
1073.000000	37.626219
1072.000000	37.604019
1071.000000	37.586266
1070.000000	37.589908
1069.000000	37.589866
1068.000000	37.588785
1067.000000	37.585109
1066.000000	37.595382
1065.000000	37.580233
1064.000000	37.545285
1063.000000	37.541308
1062.000000	37.555091
1061.000000	37.556802
1060.000000	37.524128
1059.000000	37.547043
1058.000000	37.505829
1057.000000	37.502481
1056.000000	37.511539
1055.000000	37.500481
1054.000000	37.489082
1053.000000	37.502048
1052.000000	37.450591
1051.000000	37.461939
1050.000000	37.464032
1049.000000	37.494146
1048.000000	37.450146
1047.000000	37.412204
1046.000000	37.427386
1045.000000	37.423145
1044.000000	37.425231
1043.000000	37.430400
1042.000000	37.410261
1041.000000	37.388102
1040.000000	37.410352
1039.000000	37.403246
1038.000000	37.387603
1037.000000	37.394367
1036.000000	37.389222
1035.000000	37.394223
1034.000000	37.368672
1033.000000	37.372949
1032.000000	37.391484
1031.000000	37.399443
1030.000000	37.380341
1029.000000	37.368386
1028.000000	37.357741
1027.000000	37.375391
1026.000000	37.346597
1025.000000	37.346691
1024.000000	37.369795
1023.000000	37.370173
1022.000000	37.355060
1021.000000	37.351428
1020.000000	37.366912
1019.000000	37.387457
1018.000000	37.355500
1017.000000	37.357520
1016.000000	37.356341
1015.000000	37.362513
1014.000000	37.378737
1013.000000	37.380290
1012.000000	37.382727
1011.000000	37.394602
1010.000000	37.412742
1009.000000	37.414725
1008.000000	37.408436
1007.000000	37.396692
1006.000000	37.404068
1005.000000	37.433338
1004.000000	37.457412
1003.000000	37.465469
1002.000000	37.437975
1001.000000	37.423906
1000.000000	37.447973
999.000000	37.455862
998.000000	37.471721
997.000000	37.468747
996.000000	37.471792
995.000000	37.472021
994.000000	37.495384
993.000000	37.500545
992.000000	37.486988
991.000000	37.485239
990.000000	37.498646
989.000000	37.517626
988.000000	37.526345
987.000000	37.523800
986.000000	37.519951
985.000000	37.530819
984.000000	37.559035
983.000000	37.564703
982.000000	37.580290
981.000000	37.596328
980.000000	37.606691
979.000000	37.623727
978.000000	37.644909
977.000000	37.664408
976.000000	37.668825
975.000000	37.684664
974.000000	37.688110
973.000000	37.702766
972.000000	37.721814
971.000000	37.728176
970.000000	37.737486
969.000000	37.743470
968.000000	37.752720
967.000000	37.754770
966.000000	37.751717
965.000000	37.776500
964.000000	37.780129
963.000000	37.779953
962.000000	37.788821
961.000000	37.797991
960.000000	37.811320
959.000000	37.815128
958.000000	37.817218
957.000000	37.819717
956.000000	37.833613
955.000000	37.844814
954.000000	37.836979
953.000000	37.837797
952.000000	37.839980
951.000000	37.846080
950.000000	37.855287
949.000000	37.863677
948.000000	37.875100
947.000000	37.887554
946.000000	37.891586
945.000000	37.886442
944.000000	37.881104
943.000000	37.872662
942.000000	37.867653
941.000000	37.877415
940.000000	37.885825
939.000000	37.883459
938.000000	37.888270
937.000000	37.897621
936.000000	37.896118
935.000000	37.898857
934.000000	37.900977
933.000000	37.900684
932.000000	37.889041
931.000000	37.881062
930.000000	37.872340
929.000000	37.869472
928.000000	37.860900
927.000000	37.877690
926.000000	37.888274
925.000000	37.892106
924.000000	37.892568
923.000000	37.873123
922.000000	37.876825
921.000000	37.880851
920.000000	37.883722
919.000000	37.880019
918.000000	37.896364
917.000000	37.907451
916.000000	37.890768
915.000000	37.880998
914.000000	37.853600
913.000000	37.873393
912.000000	37.914945
911.000000	37.918219
910.000000	37.905699
909.000000	37.887404
908.000000	37.915627
907.000000	37.886941
906.000000	37.897378
905.000000	37.914359
904.000000	37.901534
903.000000	37.914105
902.000000	37.950658
901.000000	37.944034
900.000000	37.927280
899.000000	37.918415
898.000000	37.942067
897.000000	38.003028
896.000000	37.955321
895.000000	37.982783
894.000000	37.995086
893.000000	37.991995
892.000000	37.986296
891.000000	38.018944
890.000000	38.030097
889.000000	38.000933
888.000000	38.006501
887.000000	38.032195
886.000000	38.034185
885.000000	38.039040
884.000000	38.059922
883.000000	38.091934
882.000000	38.087054
881.000000	37.993832
880.000000	38.034739
879.000000	38.073288
878.000000	37.997757
877.000000	38.032540
876.000000	38.051350
875.000000	38.046780
874.000000	38.094966
873.000000	38.051444
872.000000	38.086746
871.000000	38.081639
870.000000	38.073515
869.000000	38.143894
868.000000	38.147414
867.000000	38.058741
866.000000	38.082888
865.000000	38.103695
864.000000	38.128136
863.000000	38.083958
862.000000	38.012476
861.000000	38.040734
860.000000	38.131318
859.000000	37.784858
858.000000	37.834053
857.000000	37.963914
856.000000	38.024356
855.000000	37.949428
854.000000	37.726464
853.000000	37.661595
852.000000	37.732857
851.000000	38.036470
850.000000	37.869310
849.000000	38.076860
848.000000	37.829114
847.000000	37.681487
846.000000	37.902874
845.000000	37.896093
844.000000	37.746756
843.000000	37.819545
842.000000	37.879162
841.000000	37.704896
840.000000	37.833983
839.000000	37.748701
838.000000	37.674609
837.000000	37.690961
836.000000	37.669351
835.000000	37.685430
834.000000	37.822085
833.000000	37.871829
832.000000	37.750020
831.000000	37.681340
830.000000	37.756059
829.000000	37.660141
828.000000	37.695494
827.000000	37.733186
826.000000	37.722789
825.000000	37.712053
824.000000	37.632415
823.000000	37.631790
822.000000	37.762541
821.000000	37.715580
820.000000	37.653787
819.000000	37.652368
818.000000	37.672006
817.000000	37.656545
816.000000	37.654753
815.000000	37.677339
814.000000	37.752326
813.000000	37.660350
812.000000	37.638012
811.000000	37.764628
810.000000	37.721323
809.000000	37.703983
808.000000	37.672879
807.000000	37.686667
806.000000	37.731867
805.000000	37.677075
804.000000	37.622835
803.000000	37.679822
802.000000	37.635038
801.000000	37.646139
800.000000	37.653691
799.000000	37.674728
798.000000	37.671904
797.000000	37.675259
796.000000	37.711135
795.000000	37.694089
794.000000	37.616805
793.000000	37.664297
792.000000	37.603641
791.000000	37.599888
790.000000	37.629118
789.000000	37.701498
788.000000	37.676875
787.000000	37.591799
786.000000	37.654396
785.000000	37.614716
784.000000	37.651839
783.000000	37.623093
782.000000	37.604847
781.000000	37.583621
780.000000	37.614392
779.000000	37.629719
778.000000	37.625051
777.000000	37.561230
776.000000	37.518926
775.000000	37.650723
774.000000	37.690904
773.000000	37.605228
772.000000	37.617878
771.000000	37.601294
770.000000	37.651994
769.000000	37.634434
768.000000	37.588875
767.000000	37.618536
766.000000	37.630174
765.000000	37.586073
764.000000	37.596585
763.000000	37.643684
762.000000	37.634570
761.000000	37.582347
760.000000	37.532926
759.000000	37.512615
758.000000	37.577312
757.000000	37.587445
756.000000	37.605271
755.000000	37.594157
754.000000	37.622269
753.000000	37.563578
752.000000	37.529236
751.000000	37.512503
750.000000	37.546493
749.000000	37.575116
748.000000	37.554908
747.000000	37.496664
746.000000	37.473609
745.000000	37.543646
744.000000	37.555213
743.000000	37.537573
742.000000	37.552590
741.000000	37.540065
740.000000	37.536019
739.000000	37.527159
738.000000	37.490294
737.000000	37.495716
736.000000	37.489301
735.000000	37.521012
734.000000	37.485340
733.000000	37.459180
732.000000	37.490895
731.000000	37.526993
730.000000	37.485805
729.000000	37.449749
728.000000	37.431215
727.000000	37.458173
726.000000	37.509088
725.000000	37.486046
724.000000	37.437019
723.000000	37.453998
722.000000	37.487270
721.000000	37.497551
720.000000	37.470309
719.000000	37.439971
718.000000	37.424752
717.000000	37.444198
716.000000	37.471188
715.000000	37.477409
714.000000	37.449055
713.000000	37.392678
712.000000	37.375206
711.000000	37.401637
710.000000	37.408017
709.000000	37.415306
708.000000	37.421224
707.000000	37.409497
706.000000	37.398153
705.000000	37.372163
704.000000	37.349422
703.000000	37.354428
702.000000	37.380912
701.000000	37.340399
700.000000	37.323387
699.000000	37.353101
698.000000	37.383919
697.000000	37.371309
696.000000	37.342550
695.000000	37.331441
694.000000	37.316167
693.000000	37.321651
692.000000	37.304940
691.000000	37.301681
690.000000	37.318765
689.000000	37.294485
688.000000	37.254062
687.000000	37.239413
686.000000	37.257627
685.000000	37.265154
684.000000	37.243707
683.000000	37.198682
682.000000	37.178538
681.000000	37.180921
680.000000	37.176098
679.000000	37.209775
678.000000	37.223004
677.000000	37.221611
676.000000	37.236499
675.000000	37.232745
674.000000	37.218312
673.000000	37.192608
672.000000	37.140722
671.000000	37.137846
670.000000	37.124534
669.000000	37.149696
668.000000	37.135981
667.000000	37.121109
666.000000	37.128931
665.000000	37.120853
664.000000	37.063467
663.000000	37.079954
662.000000	37.078806
661.000000	37.060194
660.000000	37.084992
659.000000	37.048396
658.000000	37.044430
657.000000	37.074685
656.000000	37.048650
655.000000	37.058239
654.000000	37.062622
653.000000	37.063745
652.000000	37.066294
651.000000	37.022105
650.000000	37.015517
649.000000	36.998176
648.000000	36.993623
647.000000	36.955814
646.000000	36.935177
645.000000	36.935633
644.000000	36.906290
643.000000	36.933010
642.000000	36.922457
641.000000	36.890250
640.000000	36.867675
639.000000	36.879811
638.000000	36.855370
637.000000	36.854260
636.000000	36.847246
635.000000	36.836440
634.000000	36.820671
633.000000	36.794801
632.000000	36.801194
631.000000	36.813160
630.000000	36.808934
629.000000	36.782878
628.000000	36.744551
627.000000	36.766807
626.000000	36.747842
625.000000	36.718378
624.000000	36.717070
623.000000	36.721894
622.000000	36.682903
621.000000	36.713898
620.000000	36.649878
619.000000	36.672969
618.000000	36.616045
617.000000	36.645264
616.000000	36.594507
615.000000	36.591538
614.000000	36.584379
613.000000	36.514426
612.000000	36.541715
611.000000	36.544420
610.000000	36.515719
609.000000	36.521109
608.000000	36.483847
607.000000	36.460643
606.000000	36.428839
605.000000	36.466224
604.000000	36.408411
603.000000	36.394073
602.000000	36.396706
601.000000	36.406939
600.000000	36.342957
599.000000	36.320909
598.000000	36.299438
597.000000	36.315231
596.000000	36.258534
595.000000	36.269905
594.000000	36.280636
593.000000	36.239577
592.000000	36.189165
591.000000	36.195719
590.000000	36.156773
589.000000	36.145217
588.000000	36.124407
587.000000	36.073371
586.000000	36.083338
585.000000	36.048448
584.000000	36.047993
583.000000	36.036788
582.000000	35.993365
581.000000	35.969724
580.000000	35.944248
579.000000	35.932966
578.000000	35.919252
577.000000	35.864145
576.000000	35.865897
575.000000	35.865612
574.000000	35.784323
573.000000	35.782099
572.000000	35.764899
571.000000	35.768031
570.000000	35.743541
569.000000	35.717680
568.000000	35.676204
567.000000	35.606164
566.000000	35.619780
565.000000	35.584489
564.000000	35.595742
563.000000	35.534853
562.000000	35.484101
561.000000	35.483180
560.000000	35.428637
559.000000	35.424373
558.000000	35.390713
557.000000	35.382378
556.000000	35.332328
555.000000	35.297921
554.000000	35.242721
553.000000	35.251380
552.000000	35.207971
551.000000	35.196781
550.000000	35.132795
549.000000	35.111729
548.000000	35.082015
547.000000	35.034743
546.000000	35.014129
545.000000	35.025158
544.000000	34.957180
543.000000	34.936519
542.000000	34.899470
541.000000	34.843488
540.000000	34.808323
539.000000	34.796283
538.000000	34.752655
537.000000	34.679411
536.000000	34.629520
535.000000	34.624619
534.000000	34.578524
533.000000	34.561538
532.000000	34.505070
531.000000	34.457728
530.000000	34.429772
529.000000	34.370266
528.000000	34.317830
527.000000	34.273679
526.000000	34.242240
525.000000	34.212400
524.000000	34.130302
523.000000	34.084636
522.000000	34.059975
521.000000	34.009914
520.000000	33.973647
519.000000	33.900729
518.000000	33.829698
517.000000	33.789612
516.000000	33.757457
515.000000	33.698706
514.000000	33.654046
513.000000	33.582938
512.000000	33.531127
511.000000	33.492458
510.000000	33.439411
509.000000	33.392311
508.000000	33.327327
507.000000	33.235424
506.000000	33.200489
505.000000	33.157419
504.000000	33.086459
503.000000	33.036224
502.000000	32.989667
501.000000	32.934787
500.000000	32.865081
499.000000	32.794213
498.000000	32.735530
497.000000	32.682715
496.000000	32.623490
495.000000	32.554103
494.000000	32.498508
493.000000	32.425097
492.000000	32.361682
491.000000	32.310202
490.000000	32.264753
489.000000	32.179874
488.000000	32.093179
487.000000	32.004236
486.000000	31.939660
485.000000	31.888982
484.000000	31.811112
483.000000	31.772638
482.000000	31.697730
481.000000	31.612546
480.000000	31.520100
479.000000	31.439361
478.000000	31.352771
477.000000	31.276857
476.000000	31.204154
475.000000	31.124569
474.000000	31.030932
473.000000	30.952095
472.000000	30.879205
471.000000	30.778791
470.000000	30.686509
469.000000	30.596267
468.000000	30.486003
467.000000	30.405598
466.000000	30.327566
465.000000	30.221853
464.000000	30.109559
463.000000	30.012577
462.000000	29.894717
461.000000	29.805580
460.000000	29.711319
459.000000	29.598066
458.000000	29.505345
457.000000	29.377680
456.000000	29.245279
455.000000	29.126975
454.000000	29.021783
453.000000	28.895708
452.000000	28.765309
451.000000	28.643369
450.000000	28.504791
449.000000	28.377265
448.000000	28.264128
447.000000	28.135916
446.000000	27.993742
445.000000	27.839984
444.000000	27.699450
443.000000	27.556508
442.000000	27.434465
441.000000	27.315587
440.000000	27.172784
439.000000	27.049809
438.000000	26.898935
437.000000	26.764313
436.000000	26.630805
435.000000	26.477108
434.000000	26.347041
433.000000	26.208442
432.000000	26.042332
431.000000	25.902020
430.000000	25.753276
429.000000	25.592518
428.000000	25.470963
427.000000	25.305317
426.000000	25.148488
425.000000	24.981405
424.000000	24.813602
423.000000	24.655334
422.000000	24.508502
421.000000	24.356005
420.000000	24.199948
419.000000	24.018863
418.000000	23.862387
417.000000	23.681429
416.000000	23.511154
415.000000	23.336021
414.000000	23.174245
413.000000	22.975966
412.000000	22.799423
411.000000	22.632420
410.000000	22.462033
409.000000	22.272343
408.000000	22.083727
407.000000	21.907771
406.000000	21.744135
405.000000	21.549703
404.000000	21.379273
403.000000	21.198831
402.000000	21.021271
401.000000	20.818169
400.000000	20.661012
399.000000	20.462575
398.000000	20.290877
397.000000	20.076398
396.000000	19.912910
395.000000	19.725294
394.000000	19.537507
393.000000	19.358720
392.000000	19.175519
391.000000	18.981567
390.000000	18.800849
389.000000	18.592320
388.000000	18.419194
387.000000	18.224709
386.000000	18.034535
385.000000	17.837265
384.000000	17.654358
383.000000	17.453722
382.000000	17.241202
381.000000	17.021358
380.000000	16.846125
379.000000	16.652969
378.000000	16.419134
377.000000	16.301313
376.000000	16.076715
375.000000	15.906614
374.000000	15.742497
373.000000	15.550488
372.000000	15.303966
371.000000	15.091311
370.000000	14.907524
369.000000	14.667572
368.000000	14.522360
367.000000	14.323629
366.000000	14.094525
365.000000	13.870194
364.000000	13.697028
363.000000	13.451906
362.000000	13.280552
361.000000	13.073160
360.000000	12.890058
359.000000	12.718236
358.000000	12.469770
357.000000	12.290319
356.000000	12.078916
355.000000	11.869706
354.000000	11.685968
353.000000	11.496100
352.000000	11.328527
351.000000	11.143745
350.000000	10.971117
349.000000	10.803904
348.000000	10.657248
347.000000	10.443876
346.000000	10.287192
345.000000	10.122275
344.000000	9.987919
343.000000	9.798076
342.000000	9.574161
341.000000	9.407688
340.000000	9.265127
339.000000	9.049329
338.000000	8.905079
337.000000	8.756781
336.000000	8.600252
335.000000	8.315157
334.000000	8.258348
333.000000	8.021780
332.000000	7.810951
331.000000	7.695756
330.000000	7.480271
329.000000	7.266477
328.000000	7.123937
327.000000	6.964628
326.000000	6.778760
325.000000	6.567962
324.000000	6.382667
323.000000	6.178696
322.000000	6.061247
321.000000	5.842215
320.000000	5.679013
319.000000	5.517160
318.000000	5.384752
317.000000	5.228050
316.000000	5.077450
315.000000	4.945792
314.000000	4.730090
313.000000	4.636911
312.000000	4.434053
311.000000	4.286574
310.000000	4.167213
309.000000	4.036314
308.000000	3.898184
307.000000	3.787151
306.000000	3.628508
305.000000	3.528046
304.000000	3.383365
303.000000	3.278775
302.000000	3.146703
301.000000	3.023826
300.000000	2.844220
299.000000	2.711183
298.000000	2.574758
297.000000	2.430516
296.000000	2.267939
295.000000	2.071229
294.000000	1.900056
293.000000	1.724103
292.000000	1.552568
291.000000	1.391642
290.000000	1.247965
289.000000	1.123609
288.000000	1.045528
287.000000	0.980228
286.000000	0.933396
285.000000	0.902591
284.000000	0.889862
283.000000	0.883775
282.000000	0.884159
281.000000	0.880368
280.000000	0.877416
279.000000	0.871059
278.000000	0.879913
277.000000	0.864957
276.000000	0.878633
275.000000	0.891643
274.000000	0.913548
273.000000	0.919310
272.000000	0.944469
271.000000	0.947693
270.000000	0.951404
269.000000	0.958316
268.000000	0.980000
267.000000	1.008914
266.000000	1.032419
265.000000	1.048492
264.000000	1.056213
263.000000	1.092885
262.000000	1.124914
261.000000	1.134751
260.000000	1.156972
259.000000	1.186778
258.000000	1.219505
257.000000	1.257713
256.000000	1.264670
255.000000	1.281239
254.000000	1.275982
253.000000	1.273885
252.000000	1.255558
251.000000	1.223205
250.000000	1.197736
249.000000	1.158643
248.000000	1.098468
247.000000	1.021673
246.000000	0.958177
245.000000	0.899959
244.000000	0.824066
243.000000	0.746234
242.000000	0.679854
241.000000	0.631795
240.000000	0.583344
239.000000	0.547972
238.000000	0.514327
237.000000	0.488485
236.000000	0.474753
235.000000	0.458582
234.000000	0.439299
233.000000	0.416214
232.000000	0.409795
231.000000	0.382103
230.000000	0.338892
229.000000	0.327384
228.000000	0.307599
227.000000	0.277095
226.000000	0.256035
225.000000	0.246261
224.000000	0.226659
223.000000	0.210147
222.000000	0.199543
221.000000	0.188427
220.000000	0.177365
219.000000	0.173074
218.000000	0.170662
217.000000	0.161271
216.000000	0.154215
215.000000	0.146173
214.000000	0.142613
213.000000	0.137635
212.000000	0.136027
211.000000	0.127112
210.000000	0.127113
209.000000	0.134684
208.000000	0.155798
207.000000	0.149528
206.000000	0.148301
205.000000	0.175756
204.000000	0.159256
203.000000	0.166891
202.000000	0.201191
201.000000	0.227703
200.000000	0.291796
