PE UV       SUBTECH     SPECTRUM    ASCII       PEDS        4.00        
   -1
TTVeauAl 42.Sample.asc
18/02/28
12:05:09.00
18/02/28
12:05:09.00
Administrator

200.000000
1
Lambda 750
750N8071901
PerkinElmer UV WinLab 6.0.4.0738 / 1.61.00 Lambda 900

0
0
3350/servo 860.8/2
0
0
UV/VIS
1
1
1
CommonBeamDepol,150mm sphere / downward view
0
0
0
0
Program
Program
3350/servo 860.8/2
3350/0.2 860.8/0.2
3350/0.2 860.8/0.2
0
1
 
 
 
0
 
860.8
319.2
860.8
Front
100
on
 
 
0
0
0
 
0
 
 
 
0
 
 
0
0
0
0
0
 
 
 
 
0
0


0
0
#HDR
-1
-1
#GR
nm
%T
1.0
0.0
2350.000000
-1.000000
2151
8
39.316354
0.081975
#DATA
2350.000000	11.428816
2349.000000	11.446818
2348.000000	11.354033
2347.000000	11.985563
2346.000000	11.994239
2345.000000	11.758925
2344.000000	11.291028
2343.000000	11.176616
2342.000000	11.598419
2341.000000	11.598419
2340.000000	11.559481
2339.000000	11.788951
2338.000000	11.680499
2337.000000	11.856507
2336.000000	11.880147
2335.000000	11.836210
2334.000000	11.890638
2333.000000	12.191751
2332.000000	12.459738
2331.000000	12.218540
2330.000000	12.022096
2329.000000	11.980081
2328.000000	12.039445
2327.000000	11.974758
2326.000000	12.055027
2325.000000	12.106655
2324.000000	11.908383
2323.000000	11.980932
2322.000000	11.699267
2321.000000	11.682779
2320.000000	11.963888
2319.000000	11.670405
2318.000000	11.671045
2317.000000	11.788245
2316.000000	11.617325
2315.000000	11.775072
2314.000000	11.613457
2313.000000	11.680530
2312.000000	11.282567
2311.000000	11.197403
2310.000000	11.096850
2309.000000	11.302379
2308.000000	11.017996
2307.000000	11.183327
2306.000000	11.254532
2305.000000	11.032382
2304.000000	10.917121
2303.000000	11.026728
2302.000000	11.014875
2301.000000	10.757712
2300.000000	10.742565
2299.000000	10.754000
2298.000000	10.413659
2297.000000	10.407565
2296.000000	10.520743
2295.000000	10.388645
2294.000000	10.472151
2293.000000	10.372580
2292.000000	10.211757
2291.000000	10.159659
2290.000000	10.133440
2289.000000	10.325721
2288.000000	10.427586
2287.000000	10.307139
2286.000000	10.157219
2285.000000	10.069610
2284.000000	10.131095
2283.000000	10.127914
2282.000000	10.037394
2281.000000	10.176732
2280.000000	10.287667
2279.000000	10.216116
2278.000000	10.179664
2277.000000	9.993590
2276.000000	9.917324
2275.000000	10.137354
2274.000000	10.185606
2273.000000	10.192680
2272.000000	10.277420
2271.000000	10.302106
2270.000000	10.319364
2269.000000	10.261438
2268.000000	10.292912
2267.000000	10.451957
2266.000000	10.652056
2265.000000	10.644090
2264.000000	10.604165
2263.000000	10.707304
2262.000000	10.867111
2261.000000	11.031766
2260.000000	10.955660
2259.000000	10.940685
2258.000000	11.179164
2257.000000	11.425397
2256.000000	11.481741
2255.000000	11.616282
2254.000000	11.875518
2253.000000	12.042344
2252.000000	12.247537
2251.000000	12.361585
2250.000000	12.421019
2249.000000	12.576050
2248.000000	12.663593
2247.000000	12.770245
2246.000000	12.975516
2245.000000	13.140429
2244.000000	13.308746
2243.000000	13.425011
2242.000000	13.479008
2241.000000	13.486051
2240.000000	13.621434
2239.000000	13.880057
2238.000000	14.039856
2237.000000	14.111513
2236.000000	14.076693
2235.000000	14.110054
2234.000000	14.102174
2233.000000	14.133905
2232.000000	14.324843
2231.000000	14.333257
2230.000000	14.371115
2229.000000	14.395837
2228.000000	14.447850
2227.000000	14.570585
2226.000000	14.389558
2225.000000	14.520067
2224.000000	14.598370
2223.000000	14.377024
2222.000000	14.386186
2221.000000	14.315225
2220.000000	14.287405
2219.000000	14.358091
2218.000000	14.283447
2217.000000	14.198076
2216.000000	14.197261
2215.000000	14.257970
2214.000000	14.216892
2213.000000	14.112236
2212.000000	14.074922
2211.000000	14.084968
2210.000000	14.090859
2209.000000	13.987177
2208.000000	13.863035
2207.000000	13.776171
2206.000000	13.700748
2205.000000	13.821203
2204.000000	13.708484
2203.000000	13.572680
2202.000000	13.445441
2201.000000	13.423347
2200.000000	13.373832
2199.000000	13.400905
2198.000000	13.367719
2197.000000	13.240522
2196.000000	13.204553
2195.000000	13.219194
2194.000000	13.188771
2193.000000	13.002855
2192.000000	12.897754
2191.000000	12.806931
2190.000000	12.970063
2189.000000	13.010336
2188.000000	12.845755
2187.000000	12.645575
2186.000000	12.763417
2185.000000	12.656192
2184.000000	12.643244
2183.000000	12.566816
2182.000000	12.666152
2181.000000	12.482396
2180.000000	12.529469
2179.000000	12.536891
2178.000000	12.451549
2177.000000	12.444346
2176.000000	12.479549
2175.000000	12.374659
2174.000000	12.439069
2173.000000	12.491601
2172.000000	12.549918
2171.000000	12.665823
2170.000000	12.670376
2169.000000	12.628928
2168.000000	12.649259
2167.000000	12.774760
2166.000000	12.738182
2165.000000	12.874226
2164.000000	12.807183
2163.000000	12.774404
2162.000000	12.979882
2161.000000	12.999612
2160.000000	13.205481
2159.000000	13.328931
2158.000000	13.432586
2157.000000	13.416630
2156.000000	13.594629
2155.000000	13.602502
2154.000000	13.949999
2153.000000	14.031590
2152.000000	14.046337
2151.000000	14.212463
2150.000000	14.132190
2149.000000	14.146538
2148.000000	14.413011
2147.000000	14.629561
2146.000000	14.668678
2145.000000	14.776195
2144.000000	14.906656
2143.000000	14.750896
2142.000000	14.952305
2141.000000	15.102966
2140.000000	15.250326
2139.000000	15.374261
2138.000000	15.240337
2137.000000	15.318028
2136.000000	15.491642
2135.000000	15.611473
2134.000000	15.732499
2133.000000	15.536708
2132.000000	15.994463
2131.000000	16.002321
2130.000000	16.117062
2129.000000	15.947472
2128.000000	15.993671
2127.000000	16.031161
2126.000000	16.176403
2125.000000	16.139022
2124.000000	16.420160
2123.000000	16.369390
2122.000000	16.391307
2121.000000	16.317370
2120.000000	16.385858
2119.000000	16.488059
2118.000000	16.504953
2117.000000	16.571839
2116.000000	16.686199
2115.000000	16.702109
2114.000000	16.505069
2113.000000	16.547646
2112.000000	16.551224
2111.000000	16.670004
2110.000000	16.731894
2109.000000	16.772144
2108.000000	16.645766
2107.000000	16.671434
2106.000000	16.849500
2105.000000	16.760718
2104.000000	16.847862
2103.000000	16.894636
2102.000000	17.023586
2101.000000	16.918352
2100.000000	16.957393
2099.000000	16.941086
2098.000000	16.841606
2097.000000	16.889613
2096.000000	17.029520
2095.000000	16.975620
2094.000000	17.030204
2093.000000	16.932112
2092.000000	16.978110
2091.000000	17.004394
2090.000000	17.004457
2089.000000	16.904034
2088.000000	16.880257
2087.000000	16.887136
2086.000000	16.884200
2085.000000	16.735082
2084.000000	16.784809
2083.000000	16.759765
2082.000000	16.780239
2081.000000	16.664481
2080.000000	16.568609
2079.000000	16.576118
2078.000000	16.421415
2077.000000	16.413878
2076.000000	16.388075
2075.000000	16.331639
2074.000000	16.172492
2073.000000	16.125293
2072.000000	16.057260
2071.000000	15.998737
2070.000000	15.947560
2069.000000	15.775098
2068.000000	15.698338
2067.000000	15.578923
2066.000000	15.436529
2065.000000	15.369737
2064.000000	15.255211
2063.000000	15.074453
2062.000000	14.984429
2061.000000	14.876911
2060.000000	14.801887
2059.000000	14.668541
2058.000000	14.568426
2057.000000	14.490092
2056.000000	14.329014
2055.000000	14.194885
2054.000000	14.086570
2053.000000	13.991675
2052.000000	13.864469
2051.000000	13.781768
2050.000000	13.735658
2049.000000	13.699298
2048.000000	13.583183
2047.000000	13.561946
2046.000000	13.542608
2045.000000	13.446534
2044.000000	13.423580
2043.000000	13.505295
2042.000000	13.529046
2041.000000	13.483405
2040.000000	13.499348
2039.000000	13.546539
2038.000000	13.604461
2037.000000	13.658053
2036.000000	13.678006
2035.000000	13.724053
2034.000000	13.803970
2033.000000	13.912197
2032.000000	14.010119
2031.000000	14.100738
2030.000000	14.198261
2029.000000	14.331999
2028.000000	14.469315
2027.000000	14.549514
2026.000000	14.664354
2025.000000	14.772024
2024.000000	14.861992
2023.000000	14.958914
2022.000000	15.017693
2021.000000	15.105828
2020.000000	15.192376
2019.000000	15.203450
2018.000000	15.243637
2017.000000	15.318098
2016.000000	15.343791
2015.000000	15.334125
2014.000000	15.380080
2013.000000	15.415173
2012.000000	15.393045
2011.000000	15.403243
2010.000000	15.378030
2009.000000	15.318027
2008.000000	15.283090
2007.000000	15.252112
2006.000000	15.193097
2005.000000	15.136078
2004.000000	15.078832
2003.000000	15.031248
2002.000000	14.983031
2001.000000	14.914646
2000.000000	14.858757
1999.000000	14.846965
1998.000000	14.785704
1997.000000	14.716807
1996.000000	14.675325
1995.000000	14.583743
1994.000000	14.514978
1993.000000	14.459815
1992.000000	14.358090
1991.000000	14.287088
1990.000000	14.215311
1989.000000	14.167562
1988.000000	14.102295
1987.000000	14.039713
1986.000000	13.932741
1985.000000	13.853613
1984.000000	13.802690
1983.000000	13.774197
1982.000000	13.701994
1981.000000	13.678045
1980.000000	13.580416
1979.000000	13.533299
1978.000000	13.437790
1977.000000	13.351356
1976.000000	13.271489
1975.000000	13.231124
1974.000000	13.188154
1973.000000	13.135167
1972.000000	13.065142
1971.000000	13.021779
1970.000000	12.943593
1969.000000	12.897342
1968.000000	12.805000
1967.000000	12.737270
1966.000000	12.672567
1965.000000	12.642118
1964.000000	12.587045
1963.000000	12.535885
1962.000000	12.495478
1961.000000	12.443458
1960.000000	12.387402
1959.000000	12.317747
1958.000000	12.253370
1957.000000	12.200668
1956.000000	12.171155
1955.000000	12.125033
1954.000000	12.086840
1953.000000	12.024947
1952.000000	11.962023
1951.000000	11.914421
1950.000000	11.913702
1949.000000	11.887200
1948.000000	11.866623
1947.000000	11.841825
1946.000000	11.835992
1945.000000	11.847887
1944.000000	11.841636
1943.000000	11.855228
1942.000000	11.824397
1941.000000	11.896940
1940.000000	11.944235
1939.000000	12.009639
1938.000000	12.007679
1937.000000	12.066526
1936.000000	12.154198
1935.000000	12.175680
1934.000000	12.253668
1933.000000	12.324855
1932.000000	12.393150
1931.000000	12.512582
1930.000000	12.631786
1929.000000	12.762383
1928.000000	12.870409
1927.000000	12.978157
1926.000000	13.179525
1925.000000	13.340576
1924.000000	13.485083
1923.000000	13.664155
1922.000000	13.869409
1921.000000	14.112044
1920.000000	14.288705
1919.000000	14.452039
1918.000000	14.644720
1917.000000	14.956586
1916.000000	15.088468
1915.000000	15.462691
1914.000000	15.739734
1913.000000	15.995996
1912.000000	16.233281
1911.000000	16.552607
1910.000000	16.815412
1909.000000	17.113617
1908.000000	17.478349
1907.000000	17.776231
1906.000000	18.052000
1905.000000	18.406438
1904.000000	18.794663
1903.000000	19.147420
1902.000000	19.495220
1901.000000	19.892322
1900.000000	20.250727
1899.000000	20.640734
1898.000000	21.074916
1897.000000	21.443412
1896.000000	21.845880
1895.000000	22.237648
1894.000000	22.539512
1893.000000	22.899807
1892.000000	23.333759
1891.000000	23.670389
1890.000000	23.965688
1889.000000	24.369270
1888.000000	24.686729
1887.000000	25.061815
1886.000000	25.375408
1885.000000	25.698040
1884.000000	26.032833
1883.000000	26.338583
1882.000000	26.614342
1881.000000	26.879989
1880.000000	27.127445
1879.000000	27.345895
1878.000000	27.544855
1877.000000	27.812845
1876.000000	27.976712
1875.000000	28.151165
1874.000000	28.370688
1873.000000	28.549069
1872.000000	28.668273
1871.000000	28.811225
1870.000000	28.930443
1869.000000	29.103151
1868.000000	29.180751
1867.000000	29.247233
1866.000000	29.359171
1865.000000	29.419809
1864.000000	29.483564
1863.000000	29.548637
1862.000000	29.601668
1861.000000	29.656894
1860.000000	29.683522
1859.000000	29.699558
1858.000000	29.747474
1857.000000	29.753087
1856.000000	29.763045
1855.000000	29.820184
1854.000000	29.850390
1853.000000	29.880414
1852.000000	29.861057
1851.000000	29.854029
1850.000000	29.880422
1849.000000	29.851430
1848.000000	29.845123
1847.000000	29.852835
1846.000000	29.836858
1845.000000	29.823419
1844.000000	29.820678
1843.000000	29.770358
1842.000000	29.742793
1841.000000	29.732251
1840.000000	29.714577
1839.000000	29.670159
1838.000000	29.658554
1837.000000	29.611774
1836.000000	29.565363
1835.000000	29.545211
1834.000000	29.479575
1833.000000	29.424119
1832.000000	29.390468
1831.000000	29.364028
1830.000000	29.340836
1829.000000	29.289834
1828.000000	29.230238
1827.000000	29.202109
1826.000000	29.173085
1825.000000	29.142904
1824.000000	29.151394
1823.000000	29.120033
1822.000000	29.072135
1821.000000	29.043109
1820.000000	28.981170
1819.000000	28.938581
1818.000000	28.936359
1817.000000	28.918975
1816.000000	28.870417
1815.000000	28.828292
1814.000000	28.789354
1813.000000	28.770767
1812.000000	28.752374
1811.000000	28.725511
1810.000000	28.688290
1809.000000	28.661956
1808.000000	28.640417
1807.000000	28.609339
1806.000000	28.590912
1805.000000	28.560920
1804.000000	28.517889
1803.000000	28.496776
1802.000000	28.474223
1801.000000	28.438126
1800.000000	28.401587
1799.000000	28.389666
1798.000000	28.378725
1797.000000	28.363881
1796.000000	28.329793
1795.000000	28.297975
1794.000000	28.300814
1793.000000	28.280692
1792.000000	28.257208
1791.000000	28.240343
1790.000000	28.211417
1789.000000	28.185968
1788.000000	28.183657
1787.000000	28.149786
1786.000000	28.119158
1785.000000	28.094737
1784.000000	28.067343
1783.000000	28.031995
1782.000000	27.988021
1781.000000	27.965058
1780.000000	27.933521
1779.000000	27.906946
1778.000000	27.846552
1777.000000	27.778758
1776.000000	27.745761
1775.000000	27.689365
1774.000000	27.619214
1773.000000	27.584998
1772.000000	27.527535
1771.000000	27.454289
1770.000000	27.398614
1769.000000	27.342670
1768.000000	27.283092
1767.000000	27.229908
1766.000000	27.177081
1765.000000	27.114708
1764.000000	27.060939
1763.000000	27.012665
1762.000000	26.971069
1761.000000	26.930243
1760.000000	26.853633
1759.000000	26.794442
1758.000000	26.737142
1757.000000	26.667532
1756.000000	26.638550
1755.000000	26.594844
1754.000000	26.527239
1753.000000	26.486365
1752.000000	26.454702
1751.000000	26.397113
1750.000000	26.346180
1749.000000	26.289986
1748.000000	26.206099
1747.000000	26.137562
1746.000000	26.118256
1745.000000	26.061570
1744.000000	26.002533
1743.000000	25.925081
1742.000000	25.871050
1741.000000	25.825503
1740.000000	25.763338
1739.000000	25.700033
1738.000000	25.662783
1737.000000	25.622774
1736.000000	25.601199
1735.000000	25.572175
1734.000000	25.578996
1733.000000	25.540683
1732.000000	25.529144
1731.000000	25.529642
1730.000000	25.557182
1729.000000	25.583480
1728.000000	25.587443
1727.000000	25.645684
1726.000000	25.677188
1725.000000	25.743652
1724.000000	25.798634
1723.000000	25.866914
1722.000000	25.940555
1721.000000	26.030925
1720.000000	26.078356
1719.000000	26.171414
1718.000000	26.276268
1717.000000	26.347050
1716.000000	26.424448
1715.000000	26.490247
1714.000000	26.579098
1713.000000	26.650928
1712.000000	26.721908
1711.000000	26.789918
1710.000000	26.849472
1709.000000	26.871286
1708.000000	26.958396
1707.000000	26.971532
1706.000000	26.992810
1705.000000	27.032944
1704.000000	27.089614
1703.000000	27.104842
1702.000000	27.110806
1701.000000	27.147312
1700.000000	27.142534
1699.000000	27.159484
1698.000000	27.188284
1697.000000	27.223583
1696.000000	27.263418
1695.000000	27.289431
1694.000000	27.330826
1693.000000	27.395931
1692.000000	27.431112
1691.000000	27.475440
1690.000000	27.561078
1689.000000	27.673979
1688.000000	27.749627
1687.000000	27.839329
1686.000000	27.984526
1685.000000	28.090460
1684.000000	28.225761
1683.000000	28.356362
1682.000000	28.516812
1681.000000	28.649288
1680.000000	28.785395
1679.000000	28.969970
1678.000000	29.136485
1677.000000	29.281292
1676.000000	29.445375
1675.000000	29.612101
1674.000000	29.790252
1673.000000	29.945333
1672.000000	30.069713
1671.000000	30.224159
1670.000000	30.368588
1669.000000	30.539623
1668.000000	30.659058
1667.000000	30.770905
1666.000000	30.855422
1665.000000	30.937047
1664.000000	31.037835
1663.000000	31.135964
1662.000000	31.187270
1661.000000	31.261113
1660.000000	31.337845
1659.000000	31.385224
1658.000000	31.437616
1657.000000	31.475534
1656.000000	31.525022
1655.000000	31.530167
1654.000000	31.567805
1653.000000	31.613168
1652.000000	31.625904
1651.000000	31.621333
1650.000000	31.629626
1649.000000	31.629169
1648.000000	31.620284
1647.000000	31.614645
1646.000000	31.592738
1645.000000	31.577354
1644.000000	31.576576
1643.000000	31.568220
1642.000000	31.552542
1641.000000	31.527146
1640.000000	31.511641
1639.000000	31.477358
1638.000000	31.455677
1637.000000	31.423058
1636.000000	31.391299
1635.000000	31.360505
1634.000000	31.323765
1633.000000	31.271867
1632.000000	31.251095
1631.000000	31.223416
1630.000000	31.197027
1629.000000	31.167562
1628.000000	31.137185
1627.000000	31.096548
1626.000000	31.051535
1625.000000	31.012563
1624.000000	30.976707
1623.000000	30.923637
1622.000000	30.894102
1621.000000	30.845791
1620.000000	30.795856
1619.000000	30.755049
1618.000000	30.702921
1617.000000	30.660391
1616.000000	30.614987
1615.000000	30.574376
1614.000000	30.534626
1613.000000	30.476325
1612.000000	30.426560
1611.000000	30.378164
1610.000000	30.318607
1609.000000	30.262860
1608.000000	30.216017
1607.000000	30.168380
1606.000000	30.114237
1605.000000	30.061319
1604.000000	29.995566
1603.000000	29.943665
1602.000000	29.895955
1601.000000	29.837309
1600.000000	29.785143
1599.000000	29.736981
1598.000000	29.696518
1597.000000	29.650118
1596.000000	29.594522
1595.000000	29.543872
1594.000000	29.488126
1593.000000	29.444271
1592.000000	29.409020
1591.000000	29.354182
1590.000000	29.313619
1589.000000	29.273787
1588.000000	29.224693
1587.000000	29.179502
1586.000000	29.143612
1585.000000	29.117971
1584.000000	29.076403
1583.000000	29.022540
1582.000000	28.986128
1581.000000	28.952315
1580.000000	28.903500
1579.000000	28.861890
1578.000000	28.837920
1577.000000	28.796752
1576.000000	28.749130
1575.000000	28.717618
1574.000000	28.675042
1573.000000	28.634265
1572.000000	28.610839
1571.000000	28.568870
1570.000000	28.531998
1569.000000	28.501877
1568.000000	28.469695
1567.000000	28.443038
1566.000000	28.406561
1565.000000	28.375197
1564.000000	28.359280
1563.000000	28.328894
1562.000000	28.296999
1561.000000	28.285597
1560.000000	28.272741
1559.000000	28.237994
1558.000000	28.210445
1557.000000	28.210650
1556.000000	28.191820
1555.000000	28.171350
1554.000000	28.141931
1553.000000	28.118457
1552.000000	28.101413
1551.000000	28.081484
1550.000000	28.038595
1549.000000	28.007528
1548.000000	27.984221
1547.000000	27.921487
1546.000000	27.870775
1545.000000	27.825297
1544.000000	27.774421
1543.000000	27.692124
1542.000000	27.627519
1541.000000	27.562076
1540.000000	27.501032
1539.000000	27.421782
1538.000000	27.350052
1537.000000	27.270823
1536.000000	27.170855
1535.000000	27.082288
1534.000000	27.002254
1533.000000	26.921828
1532.000000	26.852844
1531.000000	26.793798
1530.000000	26.767198
1529.000000	26.755172
1528.000000	26.729682
1527.000000	26.675574
1526.000000	26.570879
1525.000000	26.482834
1524.000000	26.399940
1523.000000	26.332714
1522.000000	26.267972
1521.000000	26.201298
1520.000000	26.161768
1519.000000	26.156195
1518.000000	26.118087
1517.000000	26.055891
1516.000000	26.007441
1515.000000	25.966220
1514.000000	25.926398
1513.000000	25.922665
1512.000000	25.909119
1511.000000	25.857178
1510.000000	25.833268
1509.000000	25.819636
1508.000000	25.772343
1507.000000	25.762658
1506.000000	25.762297
1505.000000	25.764649
1504.000000	25.760903
1503.000000	25.745232
1502.000000	25.724168
1501.000000	25.706245
1500.000000	25.708029
1499.000000	25.717565
1498.000000	25.721189
1497.000000	25.713048
1496.000000	25.733514
1495.000000	25.748357
1494.000000	25.771854
1493.000000	25.799371
1492.000000	25.825597
1491.000000	25.863222
1490.000000	25.896595
1489.000000	25.947422
1488.000000	25.996685
1487.000000	26.050873
1486.000000	26.110904
1485.000000	26.169390
1484.000000	26.230926
1483.000000	26.309239
1482.000000	26.367094
1481.000000	26.433229
1480.000000	26.503898
1479.000000	26.580498
1478.000000	26.640560
1477.000000	26.704290
1476.000000	26.790630
1475.000000	26.846029
1474.000000	26.908203
1473.000000	26.965727
1472.000000	27.028493
1471.000000	27.064236
1470.000000	27.122589
1469.000000	27.223845
1468.000000	27.283533
1467.000000	27.320742
1466.000000	27.369210
1465.000000	27.405484
1464.000000	27.446314
1463.000000	27.499310
1462.000000	27.565183
1461.000000	27.598860
1460.000000	27.647634
1459.000000	27.683944
1458.000000	27.746435
1457.000000	27.812355
1456.000000	27.855864
1455.000000	27.895415
1454.000000	27.974023
1453.000000	28.036412
1452.000000	28.071144
1451.000000	28.106146
1450.000000	28.165565
1449.000000	28.236630
1448.000000	28.291130
1447.000000	28.351180
1446.000000	28.397594
1445.000000	28.462622
1444.000000	28.517559
1443.000000	28.604412
1442.000000	28.688823
1441.000000	28.750669
1440.000000	28.804316
1439.000000	28.862930
1438.000000	28.944280
1437.000000	28.999259
1436.000000	29.089935
1435.000000	29.210859
1434.000000	29.307513
1433.000000	29.386439
1432.000000	29.458205
1431.000000	29.541131
1430.000000	29.631491
1429.000000	29.719148
1428.000000	29.823453
1427.000000	29.937343
1426.000000	30.040916
1425.000000	30.157756
1424.000000	30.268701
1423.000000	30.384101
1422.000000	30.509485
1421.000000	30.647447
1420.000000	30.766027
1419.000000	30.874079
1418.000000	31.010168
1417.000000	31.171643
1416.000000	31.325721
1415.000000	31.476682
1414.000000	31.606974
1413.000000	31.737571
1412.000000	31.877250
1411.000000	32.035832
1410.000000	32.202277
1409.000000	32.363427
1408.000000	32.508783
1407.000000	32.641190
1406.000000	32.768476
1405.000000	32.904844
1404.000000	33.043656
1403.000000	33.187568
1402.000000	33.321123
1401.000000	33.447854
1400.000000	33.572527
1399.000000	33.708081
1398.000000	33.839275
1397.000000	33.954829
1396.000000	34.077919
1395.000000	34.195318
1394.000000	34.302121
1393.000000	34.406547
1392.000000	34.497319
1391.000000	34.612650
1390.000000	34.737083
1389.000000	34.851464
1388.000000	34.947439
1387.000000	35.021120
1386.000000	35.120021
1385.000000	35.217050
1384.000000	35.293080
1383.000000	35.364755
1382.000000	35.435719
1381.000000	35.518868
1380.000000	35.582821
1379.000000	35.641346
1378.000000	35.703395
1377.000000	35.741412
1376.000000	35.786733
1375.000000	35.848193
1374.000000	35.897314
1373.000000	35.927997
1372.000000	35.971341
1371.000000	36.031003
1370.000000	36.064944
1369.000000	36.091584
1368.000000	36.134719
1367.000000	36.176098
1366.000000	36.223053
1365.000000	36.267805
1364.000000	36.305868
1363.000000	36.339132
1362.000000	36.381350
1361.000000	36.426510
1360.000000	36.469578
1359.000000	36.514817
1358.000000	36.550908
1357.000000	36.594116
1356.000000	36.661654
1355.000000	36.712358
1354.000000	36.752978
1353.000000	36.774084
1352.000000	36.820886
1351.000000	36.889000
1350.000000	36.938179
1349.000000	36.961554
1348.000000	37.009583
1347.000000	37.062138
1346.000000	37.108931
1345.000000	37.157922
1344.000000	37.200977
1343.000000	37.244557
1342.000000	37.281020
1341.000000	37.308177
1340.000000	37.347009
1339.000000	37.384133
1338.000000	37.413167
1337.000000	37.436261
1336.000000	37.481973
1335.000000	37.545139
1334.000000	37.570285
1333.000000	37.595237
1332.000000	37.606888
1331.000000	37.622600
1330.000000	37.630271
1329.000000	37.654247
1328.000000	37.681717
1327.000000	37.703341
1326.000000	37.702855
1325.000000	37.716785
1324.000000	37.763010
1323.000000	37.767991
1322.000000	37.778740
1321.000000	37.795948
1320.000000	37.810878
1319.000000	37.807048
1318.000000	37.836498
1317.000000	37.833474
1316.000000	37.851270
1315.000000	37.854809
1314.000000	37.844873
1313.000000	37.862683
1312.000000	37.867920
1311.000000	37.878014
1310.000000	37.909778
1309.000000	37.927476
1308.000000	37.907384
1307.000000	37.921524
1306.000000	37.952834
1305.000000	37.955715
1304.000000	37.931264
1303.000000	37.930857
1302.000000	37.924261
1301.000000	37.952661
1300.000000	37.978212
1299.000000	37.959751
1298.000000	37.964411
1297.000000	37.962517
1296.000000	37.968988
1295.000000	37.955351
1294.000000	37.949717
1293.000000	37.949908
1292.000000	37.951491
1291.000000	37.938896
1290.000000	37.929629
1289.000000	37.887264
1288.000000	37.876239
1287.000000	37.891967
1286.000000	37.894259
1285.000000	37.887136
1284.000000	37.888233
1283.000000	37.878055
1282.000000	37.873046
1281.000000	37.864225
1280.000000	37.873590
1279.000000	37.830331
1278.000000	37.841052
1277.000000	37.832274
1276.000000	37.853479
1275.000000	37.846181
1274.000000	37.849037
1273.000000	37.833470
1272.000000	37.844315
1271.000000	37.846503
1270.000000	37.845490
1269.000000	37.843565
1268.000000	37.861439
1267.000000	37.894293
1266.000000	37.885304
1265.000000	37.881391
1264.000000	37.891946
1263.000000	37.875233
1262.000000	37.872623
1261.000000	37.902640
1260.000000	37.926113
1259.000000	37.938464
1258.000000	37.920060
1257.000000	37.921009
1256.000000	37.923437
1255.000000	37.930683
1254.000000	37.934652
1253.000000	37.949687
1252.000000	37.965738
1251.000000	37.962885
1250.000000	37.955307
1249.000000	37.950241
1248.000000	37.941480
1247.000000	37.932970
1246.000000	37.924642
1245.000000	37.919704
1244.000000	37.914244
1243.000000	37.906801
1242.000000	37.854386
1241.000000	37.835445
1240.000000	37.829624
1239.000000	37.814271
1238.000000	37.770630
1237.000000	37.750636
1236.000000	37.752184
1235.000000	37.729979
1234.000000	37.678640
1233.000000	37.670424
1232.000000	37.664112
1231.000000	37.644946
1230.000000	37.604318
1229.000000	37.578165
1228.000000	37.566732
1227.000000	37.555917
1226.000000	37.557163
1225.000000	37.549643
1224.000000	37.503181
1223.000000	37.446152
1222.000000	37.432667
1221.000000	37.410007
1220.000000	37.402593
1219.000000	37.397209
1218.000000	37.362826
1217.000000	37.345044
1216.000000	37.339533
1215.000000	37.327850
1214.000000	37.304994
1213.000000	37.252951
1212.000000	37.215749
1211.000000	37.206670
1210.000000	37.207558
1209.000000	37.159524
1208.000000	37.133395
1207.000000	37.117058
1206.000000	37.054312
1205.000000	37.040015
1204.000000	37.022743
1203.000000	36.979328
1202.000000	36.932293
1201.000000	36.915407
1200.000000	36.911726
1199.000000	36.855675
1198.000000	36.815356
1197.000000	36.789412
1196.000000	36.787215
1195.000000	36.769105
1194.000000	36.740104
1193.000000	36.715748
1192.000000	36.703071
1191.000000	36.676427
1190.000000	36.647807
1189.000000	36.598628
1188.000000	36.593147
1187.000000	36.593996
1186.000000	36.584653
1185.000000	36.591705
1184.000000	36.599669
1183.000000	36.595525
1182.000000	36.619737
1181.000000	36.644522
1180.000000	36.658699
1179.000000	36.691532
1178.000000	36.734616
1177.000000	36.770147
1176.000000	36.799266
1175.000000	36.840642
1174.000000	36.893228
1173.000000	36.940550
1172.000000	36.984246
1171.000000	37.020265
1170.000000	37.074740
1169.000000	37.128393
1168.000000	37.183035
1167.000000	37.241372
1166.000000	37.302666
1165.000000	37.363159
1164.000000	37.422087
1163.000000	37.478448
1162.000000	37.523077
1161.000000	37.572586
1160.000000	37.637041
1159.000000	37.706721
1158.000000	37.759319
1157.000000	37.806781
1156.000000	37.866279
1155.000000	37.896644
1154.000000	37.910700
1153.000000	37.961503
1152.000000	38.017503
1151.000000	38.057685
1150.000000	38.101886
1149.000000	38.141457
1148.000000	38.184505
1147.000000	38.229298
1146.000000	38.263487
1145.000000	38.290248
1144.000000	38.325276
1143.000000	38.359703
1142.000000	38.384364
1141.000000	38.426989
1140.000000	38.465648
1139.000000	38.487418
1138.000000	38.516587
1137.000000	38.560478
1136.000000	38.594116
1135.000000	38.614016
1134.000000	38.644493
1133.000000	38.669396
1132.000000	38.666955
1131.000000	38.682542
1130.000000	38.707395
1129.000000	38.732311
1128.000000	38.760828
1127.000000	38.793695
1126.000000	38.806411
1125.000000	38.811157
1124.000000	38.824519
1123.000000	38.837724
1122.000000	38.857335
1121.000000	38.863232
1120.000000	38.875860
1119.000000	38.881494
1118.000000	38.883728
1117.000000	38.884926
1116.000000	38.890657
1115.000000	38.899218
1114.000000	38.873568
1113.000000	38.863440
1112.000000	38.872303
1111.000000	38.885200
1110.000000	38.878592
1109.000000	38.882858
1108.000000	38.900319
1107.000000	38.913689
1106.000000	38.916569
1105.000000	38.910704
1104.000000	38.909952
1103.000000	38.916743
1102.000000	38.926150
1101.000000	38.878668
1100.000000	38.879704
1099.000000	38.902839
1098.000000	38.907793
1097.000000	38.910551
1096.000000	38.905246
1095.000000	38.906276
1094.000000	38.912444
1093.000000	38.898437
1092.000000	38.883066
1091.000000	38.893528
1090.000000	38.892892
1089.000000	38.909400
1088.000000	38.903036
1087.000000	38.902041
1086.000000	38.872965
1085.000000	38.876058
1084.000000	38.874730
1083.000000	38.876524
1082.000000	38.876183
1081.000000	38.889804
1080.000000	38.896508
1079.000000	38.847050
1078.000000	38.830851
1077.000000	38.848436
1076.000000	38.853275
1075.000000	38.846236
1074.000000	38.846865
1073.000000	38.845774
1072.000000	38.812274
1071.000000	38.801225
1070.000000	38.810831
1069.000000	38.800091
1068.000000	38.803441
1067.000000	38.811378
1066.000000	38.809822
1065.000000	38.808557
1064.000000	38.765255
1063.000000	38.747961
1062.000000	38.748164
1061.000000	38.769692
1060.000000	38.770316
1059.000000	38.777465
1058.000000	38.730035
1057.000000	38.721327
1056.000000	38.705725
1055.000000	38.720002
1054.000000	38.714421
1053.000000	38.730696
1052.000000	38.694715
1051.000000	38.668069
1050.000000	38.680877
1049.000000	38.694734
1048.000000	38.670585
1047.000000	38.648386
1046.000000	38.653327
1045.000000	38.674690
1044.000000	38.656286
1043.000000	38.670005
1042.000000	38.640405
1041.000000	38.630181
1040.000000	38.645508
1039.000000	38.635932
1038.000000	38.600955
1037.000000	38.611596
1036.000000	38.620246
1035.000000	38.623955
1034.000000	38.606695
1033.000000	38.611866
1032.000000	38.603010
1031.000000	38.619276
1030.000000	38.620573
1029.000000	38.597319
1028.000000	38.597878
1027.000000	38.592869
1026.000000	38.573330
1025.000000	38.585994
1024.000000	38.604353
1023.000000	38.611731
1022.000000	38.587677
1021.000000	38.578056
1020.000000	38.600820
1019.000000	38.606461
1018.000000	38.594874
1017.000000	38.611102
1016.000000	38.616189
1015.000000	38.595307
1014.000000	38.600783
1013.000000	38.601150
1012.000000	38.607983
1011.000000	38.615879
1010.000000	38.629799
1009.000000	38.619712
1008.000000	38.626915
1007.000000	38.642089
1006.000000	38.642470
1005.000000	38.657782
1004.000000	38.661654
1003.000000	38.648344
1002.000000	38.660065
1001.000000	38.677556
1000.000000	38.681850
999.000000	38.690116
998.000000	38.695661
997.000000	38.680846
996.000000	38.671766
995.000000	38.688810
994.000000	38.713879
993.000000	38.726307
992.000000	38.718880
991.000000	38.712603
990.000000	38.717832
989.000000	38.740370
988.000000	38.753988
987.000000	38.755125
986.000000	38.750227
985.000000	38.752845
984.000000	38.769605
983.000000	38.786163
982.000000	38.792875
981.000000	38.823042
980.000000	38.828536
979.000000	38.847031
978.000000	38.861568
977.000000	38.880916
976.000000	38.882518
975.000000	38.895134
974.000000	38.904262
973.000000	38.909925
972.000000	38.916603
971.000000	38.927102
970.000000	38.940720
969.000000	38.942599
968.000000	38.947317
967.000000	38.949218
966.000000	38.959577
965.000000	38.976188
964.000000	38.987448
963.000000	38.992937
962.000000	39.001825
961.000000	39.001367
960.000000	39.000608
959.000000	39.004796
958.000000	39.013241
957.000000	39.021773
956.000000	39.028270
955.000000	39.036702
954.000000	39.046407
953.000000	39.054678
952.000000	39.050010
951.000000	39.046680
950.000000	39.070703
949.000000	39.079562
948.000000	39.075933
947.000000	39.079983
946.000000	39.076985
945.000000	39.071441
944.000000	39.076669
943.000000	39.082249
942.000000	39.086442
941.000000	39.097905
940.000000	39.099899
939.000000	39.086864
938.000000	39.087851
937.000000	39.079880
936.000000	39.067597
935.000000	39.068185
934.000000	39.078440
933.000000	39.095351
932.000000	39.097092
931.000000	39.086615
930.000000	39.091549
929.000000	39.088621
928.000000	39.083620
927.000000	39.079001
926.000000	39.102335
925.000000	39.095542
924.000000	39.082729
923.000000	39.068703
922.000000	39.060051
921.000000	39.076061
920.000000	39.086406
919.000000	39.090911
918.000000	39.090075
917.000000	39.087726
916.000000	39.100323
915.000000	39.109146
914.000000	39.082831
913.000000	39.076427
912.000000	39.103006
911.000000	39.123727
910.000000	39.104789
909.000000	39.073522
908.000000	39.092709
907.000000	39.082108
906.000000	39.089466
905.000000	39.101997
904.000000	39.111404
903.000000	39.131237
902.000000	39.145658
901.000000	39.151110
900.000000	39.169261
899.000000	39.166997
898.000000	39.156683
897.000000	39.179967
896.000000	39.182274
895.000000	39.178726
894.000000	39.168335
893.000000	39.188796
892.000000	39.150021
891.000000	39.208848
890.000000	39.225764
889.000000	39.195029
888.000000	39.213097
887.000000	39.265624
886.000000	39.270749
885.000000	39.271492
884.000000	39.264162
883.000000	39.256791
882.000000	39.231917
881.000000	39.217866
880.000000	39.222865
879.000000	39.255817
878.000000	39.254447
877.000000	39.216931
876.000000	39.249051
875.000000	39.279679
874.000000	39.268549
873.000000	39.291191
872.000000	39.251817
871.000000	39.277740
870.000000	39.285266
869.000000	39.299845
868.000000	39.297128
867.000000	39.212579
866.000000	39.252477
865.000000	39.278096
864.000000	39.263782
863.000000	39.257644
862.000000	39.218551
861.000000	39.238442
860.000000	39.295207
859.000000	39.245608
858.000000	39.187024
857.000000	39.316354
856.000000	39.205013
855.000000	39.157744
854.000000	39.216526
853.000000	39.018691
852.000000	39.190826
851.000000	39.175921
850.000000	39.151807
849.000000	39.201719
848.000000	39.061653
847.000000	39.057543
846.000000	39.099719
845.000000	39.129912
844.000000	39.018503
843.000000	39.098388
842.000000	39.151171
841.000000	39.119432
840.000000	39.076262
839.000000	39.050401
838.000000	38.849612
837.000000	38.990662
836.000000	39.057696
835.000000	38.981802
834.000000	39.141165
833.000000	39.038936
832.000000	39.044260
831.000000	38.960941
830.000000	39.015999
829.000000	38.941791
828.000000	39.026977
827.000000	38.992712
826.000000	39.129268
825.000000	38.997922
824.000000	38.947769
823.000000	38.956468
822.000000	39.008871
821.000000	39.008318
820.000000	38.977853
819.000000	38.859943
818.000000	38.908836
817.000000	38.922134
816.000000	38.970815
815.000000	38.992474
814.000000	38.967107
813.000000	38.977559
812.000000	38.943017
811.000000	38.952111
810.000000	39.007250
809.000000	38.975075
808.000000	38.938641
807.000000	39.020226
806.000000	38.949338
805.000000	39.016910
804.000000	38.974366
803.000000	39.030909
802.000000	38.916379
801.000000	38.954259
800.000000	39.036589
799.000000	38.958403
798.000000	39.035431
797.000000	38.922445
796.000000	38.969760
795.000000	38.962727
794.000000	38.963298
793.000000	39.028410
792.000000	38.901674
791.000000	38.875174
790.000000	38.926072
789.000000	38.983488
788.000000	38.955540
787.000000	38.944076
786.000000	38.941702
785.000000	38.937074
784.000000	38.941465
783.000000	38.896209
782.000000	38.908007
781.000000	38.915976
780.000000	38.959816
779.000000	38.961186
778.000000	38.898405
777.000000	38.907402
776.000000	38.855257
775.000000	38.861031
774.000000	38.944963
773.000000	38.920756
772.000000	38.904238
771.000000	38.923858
770.000000	38.915054
769.000000	38.912218
768.000000	38.922321
767.000000	38.895485
766.000000	38.957201
765.000000	38.891549
764.000000	38.855150
763.000000	38.873419
762.000000	38.857446
761.000000	38.823246
760.000000	38.862745
759.000000	38.848827
758.000000	38.828959
757.000000	38.853932
756.000000	38.889531
755.000000	38.864403
754.000000	38.884727
753.000000	38.844371
752.000000	38.813179
751.000000	38.812156
750.000000	38.842994
749.000000	38.854146
748.000000	38.854884
747.000000	38.814375
746.000000	38.781627
745.000000	38.820283
744.000000	38.838666
743.000000	38.825457
742.000000	38.799973
741.000000	38.787370
740.000000	38.791201
739.000000	38.792005
738.000000	38.789438
737.000000	38.767702
736.000000	38.757846
735.000000	38.775962
734.000000	38.768383
733.000000	38.785287
732.000000	38.790045
731.000000	38.791981
730.000000	38.763508
729.000000	38.756469
728.000000	38.739821
727.000000	38.734297
726.000000	38.757405
725.000000	38.760112
724.000000	38.743738
723.000000	38.756143
722.000000	38.761745
721.000000	38.746326
720.000000	38.723346
719.000000	38.719985
718.000000	38.715270
717.000000	38.736970
716.000000	38.730964
715.000000	38.725972
714.000000	38.708174
713.000000	38.690268
712.000000	38.674951
711.000000	38.690289
710.000000	38.711130
709.000000	38.709809
708.000000	38.677364
707.000000	38.668620
706.000000	38.687710
705.000000	38.693888
704.000000	38.662781
703.000000	38.639540
702.000000	38.673303
701.000000	38.670446
700.000000	38.629018
699.000000	38.657788
698.000000	38.675210
697.000000	38.684231
696.000000	38.677272
695.000000	38.628156
694.000000	38.588393
693.000000	38.606174
692.000000	38.638878
691.000000	38.615784
690.000000	38.608625
689.000000	38.589113
688.000000	38.535385
687.000000	38.527775
686.000000	38.546201
685.000000	38.553163
684.000000	38.533569
683.000000	38.470322
682.000000	38.460273
681.000000	38.484618
680.000000	38.467959
679.000000	38.476546
678.000000	38.514232
677.000000	38.504357
676.000000	38.516661
675.000000	38.467437
674.000000	38.448927
673.000000	38.438021
672.000000	38.430528
671.000000	38.432881
670.000000	38.456795
669.000000	38.451906
668.000000	38.414854
667.000000	38.393456
666.000000	38.418055
665.000000	38.434768
664.000000	38.374786
663.000000	38.361904
662.000000	38.376784
661.000000	38.362799
660.000000	38.367854
659.000000	38.342800
658.000000	38.333682
657.000000	38.365227
656.000000	38.334114
655.000000	38.333332
654.000000	38.312759
653.000000	38.342176
652.000000	38.337640
651.000000	38.282459
650.000000	38.291449
649.000000	38.293375
648.000000	38.280848
647.000000	38.250461
646.000000	38.214607
645.000000	38.235221
644.000000	38.254074
643.000000	38.224189
642.000000	38.216728
641.000000	38.185228
640.000000	38.179927
639.000000	38.174987
638.000000	38.182140
637.000000	38.157315
636.000000	38.141338
635.000000	38.129260
634.000000	38.111039
633.000000	38.102929
632.000000	38.073199
631.000000	38.105997
630.000000	38.067768
629.000000	38.060157
628.000000	38.062444
627.000000	38.012948
626.000000	38.014819
625.000000	37.991251
624.000000	38.001098
623.000000	38.000102
622.000000	37.994743
621.000000	37.969076
620.000000	37.948949
619.000000	37.956303
618.000000	37.935264
617.000000	37.915469
616.000000	37.864754
615.000000	37.917842
614.000000	37.863289
613.000000	37.860625
612.000000	37.834674
611.000000	37.855199
610.000000	37.803733
609.000000	37.837223
608.000000	37.799138
607.000000	37.764550
606.000000	37.746814
605.000000	37.735649
604.000000	37.723568
603.000000	37.732646
602.000000	37.663436
601.000000	37.706734
600.000000	37.649776
599.000000	37.658431
598.000000	37.601321
597.000000	37.605503
596.000000	37.563243
595.000000	37.558336
594.000000	37.569481
593.000000	37.520068
592.000000	37.498220
591.000000	37.467805
590.000000	37.447677
589.000000	37.459324
588.000000	37.445628
587.000000	37.391511
586.000000	37.414108
585.000000	37.390161
584.000000	37.321670
583.000000	37.362791
582.000000	37.310145
581.000000	37.300246
580.000000	37.255383
579.000000	37.233292
578.000000	37.193311
577.000000	37.186532
576.000000	37.204171
575.000000	37.177977
574.000000	37.077616
573.000000	37.101739
572.000000	37.101033
571.000000	37.061821
570.000000	37.055926
569.000000	37.018056
568.000000	36.962657
567.000000	36.971919
566.000000	36.942580
565.000000	36.910871
564.000000	36.896810
563.000000	36.868036
562.000000	36.801627
561.000000	36.818498
560.000000	36.799247
559.000000	36.761540
558.000000	36.719600
557.000000	36.708528
556.000000	36.659915
555.000000	36.629231
554.000000	36.568866
553.000000	36.566167
552.000000	36.536799
551.000000	36.532142
550.000000	36.481696
549.000000	36.434707
548.000000	36.417633
547.000000	36.390067
546.000000	36.344723
545.000000	36.311622
544.000000	36.280538
543.000000	36.288787
542.000000	36.238452
541.000000	36.183961
540.000000	36.155379
539.000000	36.134544
538.000000	36.084625
537.000000	36.050045
536.000000	36.003645
535.000000	35.990181
534.000000	35.937891
533.000000	35.897517
532.000000	35.864664
531.000000	35.828259
530.000000	35.782761
529.000000	35.738260
528.000000	35.697053
527.000000	35.644336
526.000000	35.619665
525.000000	35.575801
524.000000	35.502156
523.000000	35.468193
522.000000	35.423937
521.000000	35.389407
520.000000	35.356308
519.000000	35.294019
518.000000	35.263993
517.000000	35.220679
516.000000	35.176010
515.000000	35.123389
514.000000	35.070781
513.000000	35.011098
512.000000	34.962432
511.000000	34.936657
510.000000	34.884242
509.000000	34.830995
508.000000	34.775167
507.000000	34.722639
506.000000	34.655890
505.000000	34.607761
504.000000	34.536120
503.000000	34.508145
502.000000	34.463360
501.000000	34.385015
500.000000	34.331064
499.000000	34.262945
498.000000	34.217762
497.000000	34.170971
496.000000	34.101768
495.000000	34.034857
494.000000	33.999149
493.000000	33.947084
492.000000	33.874310
491.000000	33.825051
490.000000	33.784916
489.000000	33.712448
488.000000	33.647193
487.000000	33.552536
486.000000	33.476425
485.000000	33.407461
484.000000	33.371542
483.000000	33.319721
482.000000	33.236994
481.000000	33.177465
480.000000	33.079766
479.000000	32.999588
478.000000	32.936395
477.000000	32.861272
476.000000	32.778372
475.000000	32.702307
474.000000	32.608558
473.000000	32.525516
472.000000	32.448435
471.000000	32.359887
470.000000	32.279024
469.000000	32.194954
468.000000	32.100947
467.000000	32.017770
466.000000	31.927520
465.000000	31.831426
464.000000	31.747212
463.000000	31.648945
462.000000	31.530525
461.000000	31.444507
460.000000	31.357661
459.000000	31.239344
458.000000	31.154568
457.000000	31.025311
456.000000	30.881900
455.000000	30.788867
454.000000	30.695094
453.000000	30.565744
452.000000	30.433947
451.000000	30.317790
450.000000	30.165792
449.000000	30.030926
448.000000	29.924570
447.000000	29.800864
446.000000	29.653053
445.000000	29.514285
444.000000	29.385247
443.000000	29.283171
442.000000	29.167897
441.000000	29.030199
440.000000	28.888926
439.000000	28.748107
438.000000	28.622128
437.000000	28.489168
436.000000	28.333408
435.000000	28.185993
434.000000	28.075375
433.000000	27.919606
432.000000	27.764843
431.000000	27.625609
430.000000	27.472562
429.000000	27.307131
428.000000	27.167443
427.000000	27.000385
426.000000	26.871019
425.000000	26.700547
424.000000	26.529959
423.000000	26.338256
422.000000	26.194776
421.000000	26.042391
420.000000	25.859031
419.000000	25.703259
418.000000	25.527708
417.000000	25.346480
416.000000	25.168179
415.000000	25.001475
414.000000	24.818373
413.000000	24.622881
412.000000	24.465246
411.000000	24.278291
410.000000	24.090714
409.000000	23.888430
408.000000	23.710072
407.000000	23.503887
406.000000	23.344626
405.000000	23.161519
404.000000	22.991069
403.000000	22.804483
402.000000	22.620982
401.000000	22.422971
400.000000	22.236217
399.000000	22.031087
398.000000	21.830418
397.000000	21.635400
396.000000	21.430004
395.000000	21.217448
394.000000	20.994278
393.000000	20.821452
392.000000	20.634060
391.000000	20.445071
390.000000	20.232271
389.000000	20.056372
388.000000	19.841747
387.000000	19.625282
386.000000	19.426513
385.000000	19.197341
384.000000	19.033403
383.000000	18.836143
382.000000	18.585720
381.000000	18.391458
380.000000	18.140677
379.000000	17.963025
378.000000	17.674961
377.000000	17.529695
376.000000	17.392394
375.000000	17.208586
374.000000	16.932979
373.000000	16.689083
372.000000	16.507660
371.000000	16.248744
370.000000	16.046283
369.000000	15.864795
368.000000	15.652536
367.000000	15.430003
366.000000	15.187481
365.000000	14.937858
364.000000	14.716923
363.000000	14.477694
362.000000	14.326377
361.000000	14.144504
360.000000	13.941934
359.000000	13.655653
358.000000	13.437132
357.000000	13.300690
356.000000	13.012703
355.000000	12.797318
354.000000	12.632841
353.000000	12.421136
352.000000	12.217309
351.000000	12.046739
350.000000	11.845178
349.000000	11.667190
348.000000	11.502218
347.000000	11.287668
346.000000	11.032834
345.000000	10.885608
344.000000	10.692499
343.000000	10.519894
342.000000	10.310714
341.000000	10.093569
340.000000	9.963069
339.000000	9.788954
338.000000	9.574906
337.000000	9.440567
336.000000	9.215787
335.000000	9.037717
334.000000	8.847983
333.000000	8.597814
332.000000	8.415005
331.000000	8.219061
330.000000	8.031028
329.000000	7.813450
328.000000	7.596525
327.000000	7.401975
326.000000	7.237575
325.000000	7.074850
324.000000	6.876182
323.000000	6.657865
322.000000	6.467051
321.000000	6.287503
320.000000	6.091209
319.000000	5.874479
318.000000	5.787012
317.000000	5.590203
316.000000	5.423720
315.000000	5.231321
314.000000	5.080895
313.000000	4.946878
312.000000	4.789021
311.000000	4.629237
310.000000	4.460782
309.000000	4.307374
308.000000	4.187385
307.000000	4.025083
306.000000	3.883510
305.000000	3.757615
304.000000	3.620950
303.000000	3.493206
302.000000	3.328111
301.000000	3.211105
300.000000	3.032180
299.000000	2.895036
298.000000	2.743748
297.000000	2.564459
296.000000	2.380418
295.000000	2.212371
294.000000	2.025724
293.000000	1.823601
292.000000	1.654668
291.000000	1.472774
290.000000	1.330008
289.000000	1.205196
288.000000	1.108459
287.000000	1.047849
286.000000	1.000961
285.000000	0.983472
284.000000	0.952497
283.000000	0.934061
282.000000	0.923998
281.000000	0.929375
280.000000	0.927996
279.000000	0.909373
278.000000	0.920728
277.000000	0.933219
276.000000	0.940769
275.000000	0.953610
274.000000	0.965395
273.000000	0.991639
272.000000	1.016515
271.000000	1.019577
270.000000	1.023407
269.000000	1.028017
268.000000	1.046635
267.000000	1.072739
266.000000	1.102667
265.000000	1.135834
264.000000	1.148958
263.000000	1.169534
262.000000	1.213872
261.000000	1.240146
260.000000	1.256803
259.000000	1.267024
258.000000	1.299461
257.000000	1.336648
256.000000	1.352441
255.000000	1.361024
254.000000	1.355831
253.000000	1.345777
252.000000	1.322553
251.000000	1.294115
250.000000	1.254931
249.000000	1.209276
248.000000	1.140808
247.000000	1.060723
246.000000	0.994327
245.000000	0.910157
244.000000	0.835832
243.000000	0.771453
242.000000	0.712307
241.000000	0.663865
240.000000	0.610155
239.000000	0.566924
238.000000	0.544945
237.000000	0.516832
236.000000	0.492211
235.000000	0.466580
234.000000	0.448393
233.000000	0.420813
232.000000	0.392320
231.000000	0.371194
230.000000	0.356814
229.000000	0.331468
228.000000	0.302192
227.000000	0.271793
226.000000	0.254808
225.000000	0.227374
224.000000	0.204907
223.000000	0.200306
222.000000	0.188434
221.000000	0.187496
220.000000	0.172600
219.000000	0.153993
218.000000	0.157055
217.000000	0.170323
216.000000	0.172683
215.000000	0.137488
214.000000	0.127281
213.000000	0.135112
212.000000	0.126439
211.000000	0.123001
210.000000	0.106015
209.000000	0.118167
208.000000	0.112238
207.000000	0.081975
206.000000	0.114470
205.000000	0.128816
204.000000	0.107278
203.000000	0.119116
202.000000	0.132368
201.000000	0.101707
200.000000	0.105220
