PE UV       SUBTECH     SPECTRUM    ASCII       PEDS        4.00        
   -1
TTVeauUK 52.Sample.asc
18/02/28
10:00:04.00
18/02/28
10:00:04.00
Administrator

200.000000
1
Lambda 750
750N8071901
PerkinElmer UV WinLab 6.0.4.0738 / 1.61.00 Lambda 900

0
0
3350/servo 860.8/2
0
0
UV/VIS
1
1
1
CommonBeamDepol,150mm sphere / downward view
0
0
0
0
Program
Program
3350/servo 860.8/2
3350/0.2 860.8/0.2
3350/0.2 860.8/0.2
0
1
 
 
 
0
 
860.8
319.2
860.8
Front
100
on
 
 
0
0
0
 
0
 
 
 
0
 
 
0
0
0
0
0
 
 
 
 
0
0


0
0
#HDR
-1
-1
#GR
nm
%T
1.0
0.0
2350.000000
-1.000000
2151
8
43.253948
0.131400
#DATA
2350.000000	8.927560
2349.000000	8.990330
2348.000000	8.724048
2347.000000	9.500382
2346.000000	9.258449
2345.000000	8.946884
2344.000000	9.079127
2343.000000	8.854432
2342.000000	8.618903
2341.000000	9.038908
2340.000000	9.014655
2339.000000	9.462281
2338.000000	9.618431
2337.000000	9.891835
2336.000000	9.681968
2335.000000	9.661592
2334.000000	9.902546
2333.000000	9.999545
2332.000000	10.078327
2331.000000	9.824739
2330.000000	9.982497
2329.000000	9.791696
2328.000000	9.485806
2327.000000	9.630036
2326.000000	9.591386
2325.000000	9.688203
2324.000000	9.722039
2323.000000	9.518923
2322.000000	9.684547
2321.000000	9.635006
2320.000000	9.385374
2319.000000	9.776862
2318.000000	9.526547
2317.000000	9.288135
2316.000000	9.528346
2315.000000	9.491848
2314.000000	9.336351
2313.000000	9.077317
2312.000000	9.149221
2311.000000	9.159835
2310.000000	9.181246
2309.000000	9.066130
2308.000000	8.753991
2307.000000	8.738858
2306.000000	8.782638
2305.000000	8.857408
2304.000000	8.785333
2303.000000	8.563074
2302.000000	8.524768
2301.000000	8.364340
2300.000000	8.208178
2299.000000	8.351489
2298.000000	8.442658
2297.000000	8.066491
2296.000000	7.979731
2295.000000	8.187804
2294.000000	7.949664
2293.000000	8.038506
2292.000000	8.075051
2291.000000	7.960782
2290.000000	8.004013
2289.000000	7.737890
2288.000000	7.754146
2287.000000	7.668255
2286.000000	7.551169
2285.000000	7.514626
2284.000000	7.588874
2283.000000	7.684001
2282.000000	7.531242
2281.000000	7.641670
2280.000000	7.556150
2279.000000	7.626867
2278.000000	7.570011
2277.000000	7.499800
2276.000000	7.626729
2275.000000	7.584611
2274.000000	7.628556
2273.000000	7.818569
2272.000000	7.952890
2271.000000	7.814859
2270.000000	7.637126
2269.000000	8.039826
2268.000000	8.206135
2267.000000	8.182043
2266.000000	8.239704
2265.000000	8.318372
2264.000000	8.507201
2263.000000	8.439682
2262.000000	8.399970
2261.000000	8.443181
2260.000000	8.607981
2259.000000	8.761813
2258.000000	9.062204
2257.000000	9.228725
2256.000000	9.234447
2255.000000	9.318936
2254.000000	9.469995
2253.000000	9.586775
2252.000000	9.790396
2251.000000	10.056812
2250.000000	10.330640
2249.000000	10.536454
2248.000000	10.596239
2247.000000	10.685138
2246.000000	10.843988
2245.000000	10.986927
2244.000000	11.200019
2243.000000	11.424618
2242.000000	11.479157
2241.000000	11.600853
2240.000000	11.709937
2239.000000	11.869859
2238.000000	12.012193
2237.000000	12.073959
2236.000000	12.105246
2235.000000	12.201329
2234.000000	12.378451
2233.000000	12.481219
2232.000000	12.413426
2231.000000	12.342201
2230.000000	12.424324
2229.000000	12.537155
2228.000000	12.483541
2227.000000	12.573864
2226.000000	12.590928
2225.000000	12.490895
2224.000000	12.487169
2223.000000	12.478851
2222.000000	12.466514
2221.000000	12.366187
2220.000000	12.406269
2219.000000	12.436421
2218.000000	12.273038
2217.000000	12.188774
2216.000000	12.284926
2215.000000	12.273333
2214.000000	12.193762
2213.000000	12.180714
2212.000000	12.099405
2211.000000	12.104672
2210.000000	11.953264
2209.000000	11.876697
2208.000000	11.842834
2207.000000	11.827011
2206.000000	11.782430
2205.000000	11.721736
2204.000000	11.613729
2203.000000	11.640092
2202.000000	11.638202
2201.000000	11.411248
2200.000000	11.289406
2199.000000	11.267713
2198.000000	11.325810
2197.000000	11.335421
2196.000000	11.056100
2195.000000	10.936369
2194.000000	10.956131
2193.000000	10.871740
2192.000000	10.736317
2191.000000	10.768148
2190.000000	10.660895
2189.000000	10.717912
2188.000000	10.611093
2187.000000	10.553100
2186.000000	10.422600
2185.000000	10.339535
2184.000000	10.376319
2183.000000	10.487770
2182.000000	10.420246
2181.000000	10.265883
2180.000000	10.252304
2179.000000	10.206399
2178.000000	10.155241
2177.000000	10.219409
2176.000000	10.129332
2175.000000	10.220701
2174.000000	10.204800
2173.000000	10.416003
2172.000000	10.359060
2171.000000	10.387767
2170.000000	10.429082
2169.000000	10.478824
2168.000000	10.661563
2167.000000	10.604314
2166.000000	10.457409
2165.000000	10.696964
2164.000000	10.717348
2163.000000	10.779208
2162.000000	10.947158
2161.000000	11.038253
2160.000000	11.136046
2159.000000	11.172800
2158.000000	11.328535
2157.000000	11.302279
2156.000000	11.516713
2155.000000	11.564889
2154.000000	11.797324
2153.000000	12.106084
2152.000000	12.130862
2151.000000	12.025257
2150.000000	12.195705
2149.000000	12.345952
2148.000000	12.256552
2147.000000	12.495016
2146.000000	12.649272
2145.000000	12.775839
2144.000000	12.962034
2143.000000	13.005220
2142.000000	13.221333
2141.000000	13.225121
2140.000000	13.388665
2139.000000	13.519889
2138.000000	13.656543
2137.000000	13.754386
2136.000000	13.613381
2135.000000	13.796862
2134.000000	14.093161
2133.000000	13.900532
2132.000000	14.124196
2131.000000	14.314642
2130.000000	14.412846
2129.000000	14.495793
2128.000000	14.480758
2127.000000	14.446102
2126.000000	14.657591
2125.000000	14.368897
2124.000000	14.570956
2123.000000	14.651537
2122.000000	14.758209
2121.000000	14.585027
2120.000000	14.701964
2119.000000	14.798601
2118.000000	14.917303
2117.000000	14.999572
2116.000000	14.859540
2115.000000	15.022815
2114.000000	15.050614
2113.000000	14.947161
2112.000000	14.979537
2111.000000	14.955343
2110.000000	15.104164
2109.000000	15.105590
2108.000000	15.153080
2107.000000	15.071126
2106.000000	15.153247
2105.000000	15.095202
2104.000000	15.172522
2103.000000	15.051696
2102.000000	15.102042
2101.000000	15.161097
2100.000000	15.165084
2099.000000	15.245353
2098.000000	15.204895
2097.000000	15.211941
2096.000000	15.093753
2095.000000	15.154068
2094.000000	15.200517
2093.000000	15.187300
2092.000000	15.200334
2091.000000	15.121604
2090.000000	15.208962
2089.000000	15.231005
2088.000000	15.273374
2087.000000	15.246344
2086.000000	15.178921
2085.000000	15.013703
2084.000000	14.919989
2083.000000	14.914205
2082.000000	14.899708
2081.000000	14.834422
2080.000000	14.735755
2079.000000	14.680707
2078.000000	14.616171
2077.000000	14.539774
2076.000000	14.410689
2075.000000	14.355830
2074.000000	14.297625
2073.000000	14.244828
2072.000000	14.141799
2071.000000	14.049833
2070.000000	13.918029
2069.000000	13.782354
2068.000000	13.627787
2067.000000	13.556112
2066.000000	13.384004
2065.000000	13.241062
2064.000000	13.202396
2063.000000	13.101624
2062.000000	12.904375
2061.000000	12.754492
2060.000000	12.608893
2059.000000	12.513511
2058.000000	12.333610
2057.000000	12.250034
2056.000000	12.099900
2055.000000	12.001692
2054.000000	11.890048
2053.000000	11.806153
2052.000000	11.697118
2051.000000	11.563481
2050.000000	11.475514
2049.000000	11.327208
2048.000000	11.206903
2047.000000	11.207504
2046.000000	11.169613
2045.000000	11.145288
2044.000000	11.151118
2043.000000	11.145804
2042.000000	11.098467
2041.000000	11.078780
2040.000000	11.081708
2039.000000	11.137079
2038.000000	11.194731
2037.000000	11.257807
2036.000000	11.299626
2035.000000	11.370888
2034.000000	11.458716
2033.000000	11.531502
2032.000000	11.645538
2031.000000	11.744888
2030.000000	11.866016
2029.000000	11.984041
2028.000000	12.095102
2027.000000	12.195671
2026.000000	12.337673
2025.000000	12.410416
2024.000000	12.463268
2023.000000	12.584101
2022.000000	12.690862
2021.000000	12.731309
2020.000000	12.805159
2019.000000	12.866930
2018.000000	12.852958
2017.000000	12.850990
2016.000000	12.903206
2015.000000	12.938338
2014.000000	12.946100
2013.000000	12.938605
2012.000000	12.954409
2011.000000	12.942629
2010.000000	12.908932
2009.000000	12.876414
2008.000000	12.837823
2007.000000	12.781055
2006.000000	12.718715
2005.000000	12.645303
2004.000000	12.569441
2003.000000	12.508267
2002.000000	12.461609
2001.000000	12.367756
2000.000000	12.293304
1999.000000	12.222303
1998.000000	12.105938
1997.000000	12.046891
1996.000000	12.019390
1995.000000	11.915100
1994.000000	11.819493
1993.000000	11.748343
1992.000000	11.661996
1991.000000	11.554443
1990.000000	11.474370
1989.000000	11.410470
1988.000000	11.391660
1987.000000	11.283002
1986.000000	11.173550
1985.000000	11.141732
1984.000000	11.058590
1983.000000	10.956276
1982.000000	10.896281
1981.000000	10.835553
1980.000000	10.739107
1979.000000	10.680539
1978.000000	10.591113
1977.000000	10.488201
1976.000000	10.410714
1975.000000	10.377254
1974.000000	10.299176
1973.000000	10.236002
1972.000000	10.185789
1971.000000	10.086163
1970.000000	9.967472
1969.000000	9.920603
1968.000000	9.876151
1967.000000	9.814393
1966.000000	9.788823
1965.000000	9.690005
1964.000000	9.641120
1963.000000	9.607483
1962.000000	9.525086
1961.000000	9.444715
1960.000000	9.385164
1959.000000	9.317303
1958.000000	9.267515
1957.000000	9.183176
1956.000000	9.168100
1955.000000	9.119640
1954.000000	9.119751
1953.000000	9.063902
1952.000000	9.008665
1951.000000	9.021444
1950.000000	9.017179
1949.000000	8.899619
1948.000000	8.910745
1947.000000	8.884070
1946.000000	8.870497
1945.000000	8.927183
1944.000000	8.913056
1943.000000	8.969507
1942.000000	8.994310
1941.000000	9.015441
1940.000000	9.081440
1939.000000	9.144230
1938.000000	9.193775
1937.000000	9.287793
1936.000000	9.347172
1935.000000	9.447888
1934.000000	9.530202
1933.000000	9.648869
1932.000000	9.752708
1931.000000	9.860837
1930.000000	10.016311
1929.000000	10.168338
1928.000000	10.380916
1927.000000	10.522586
1926.000000	10.700538
1925.000000	10.880751
1924.000000	11.048325
1923.000000	11.234985
1922.000000	11.480343
1921.000000	11.788733
1920.000000	12.042062
1919.000000	12.208595
1918.000000	12.550319
1917.000000	12.755420
1916.000000	13.042248
1915.000000	13.329832
1914.000000	13.715166
1913.000000	14.010920
1912.000000	14.278949
1911.000000	14.603170
1910.000000	14.999990
1909.000000	15.301387
1908.000000	15.649849
1907.000000	16.113633
1906.000000	16.497993
1905.000000	16.941727
1904.000000	17.380247
1903.000000	17.799231
1902.000000	18.184623
1901.000000	18.657168
1900.000000	19.129808
1899.000000	19.574058
1898.000000	20.098110
1897.000000	20.467963
1896.000000	20.940731
1895.000000	21.446274
1894.000000	21.918042
1893.000000	22.357110
1892.000000	22.767343
1891.000000	23.184153
1890.000000	23.618783
1889.000000	24.052062
1888.000000	24.526199
1887.000000	24.922618
1886.000000	25.303293
1885.000000	25.672176
1884.000000	26.076194
1883.000000	26.450068
1882.000000	26.755032
1881.000000	27.099982
1880.000000	27.435720
1879.000000	27.731464
1878.000000	28.000178
1877.000000	28.298505
1876.000000	28.544571
1875.000000	28.816399
1874.000000	29.025952
1873.000000	29.215563
1872.000000	29.448243
1871.000000	29.631352
1870.000000	29.784661
1869.000000	29.944224
1868.000000	30.084594
1867.000000	30.173215
1866.000000	30.297113
1865.000000	30.398186
1864.000000	30.472702
1863.000000	30.543507
1862.000000	30.638619
1861.000000	30.728000
1860.000000	30.786343
1859.000000	30.794753
1858.000000	30.848167
1857.000000	30.864274
1856.000000	30.903603
1855.000000	30.914395
1854.000000	30.943893
1853.000000	30.978580
1852.000000	30.951988
1851.000000	30.989208
1850.000000	31.011842
1849.000000	30.986114
1848.000000	30.985680
1847.000000	30.969059
1846.000000	30.961504
1845.000000	30.945851
1844.000000	30.930548
1843.000000	30.883496
1842.000000	30.838666
1841.000000	30.807480
1840.000000	30.763353
1839.000000	30.722763
1838.000000	30.671689
1837.000000	30.613674
1836.000000	30.569760
1835.000000	30.528509
1834.000000	30.468309
1833.000000	30.423152
1832.000000	30.388486
1831.000000	30.340849
1830.000000	30.302674
1829.000000	30.241493
1828.000000	30.174131
1827.000000	30.149117
1826.000000	30.086560
1825.000000	30.038067
1824.000000	30.023543
1823.000000	29.982351
1822.000000	29.903785
1821.000000	29.857742
1820.000000	29.815459
1819.000000	29.765241
1818.000000	29.742710
1817.000000	29.699757
1816.000000	29.649730
1815.000000	29.612204
1814.000000	29.570712
1813.000000	29.530666
1812.000000	29.478191
1811.000000	29.435598
1810.000000	29.400556
1809.000000	29.375336
1808.000000	29.326677
1807.000000	29.281601
1806.000000	29.256016
1805.000000	29.209773
1804.000000	29.168389
1803.000000	29.145315
1802.000000	29.103967
1801.000000	29.077012
1800.000000	29.067207
1799.000000	29.015109
1798.000000	28.972898
1797.000000	28.950428
1796.000000	28.920481
1795.000000	28.881707
1794.000000	28.861004
1793.000000	28.834562
1792.000000	28.811911
1791.000000	28.788184
1790.000000	28.752965
1789.000000	28.717557
1788.000000	28.692033
1787.000000	28.673370
1786.000000	28.629584
1785.000000	28.604605
1784.000000	28.574955
1783.000000	28.534063
1782.000000	28.487647
1781.000000	28.470059
1780.000000	28.418238
1779.000000	28.363911
1778.000000	28.301810
1777.000000	28.256177
1776.000000	28.209442
1775.000000	28.154782
1774.000000	28.074112
1773.000000	27.985276
1772.000000	27.908493
1771.000000	27.864717
1770.000000	27.812634
1769.000000	27.729733
1768.000000	27.680059
1767.000000	27.621065
1766.000000	27.558794
1765.000000	27.478731
1764.000000	27.424015
1763.000000	27.348133
1762.000000	27.257762
1761.000000	27.200807
1760.000000	27.131244
1759.000000	27.059396
1758.000000	27.024641
1757.000000	26.958927
1756.000000	26.871046
1755.000000	26.787367
1754.000000	26.751339
1753.000000	26.652068
1752.000000	26.600020
1751.000000	26.540509
1750.000000	26.480867
1749.000000	26.422948
1748.000000	26.333991
1747.000000	26.245897
1746.000000	26.205343
1745.000000	26.129518
1744.000000	26.052353
1743.000000	25.965771
1742.000000	25.921085
1741.000000	25.862664
1740.000000	25.820737
1739.000000	25.777388
1738.000000	25.740646
1737.000000	25.691976
1736.000000	25.648291
1735.000000	25.614856
1734.000000	25.603043
1733.000000	25.599222
1732.000000	25.573606
1731.000000	25.583694
1730.000000	25.607688
1729.000000	25.634951
1728.000000	25.673446
1727.000000	25.721492
1726.000000	25.785745
1725.000000	25.865502
1724.000000	25.927269
1723.000000	26.001046
1722.000000	26.121067
1721.000000	26.205121
1720.000000	26.300408
1719.000000	26.411137
1718.000000	26.504766
1717.000000	26.589371
1716.000000	26.689766
1715.000000	26.760167
1714.000000	26.844881
1713.000000	26.925178
1712.000000	27.014841
1711.000000	27.108820
1710.000000	27.170231
1709.000000	27.206388
1708.000000	27.263940
1707.000000	27.302180
1706.000000	27.313808
1705.000000	27.365267
1704.000000	27.378305
1703.000000	27.389237
1702.000000	27.397206
1701.000000	27.431443
1700.000000	27.437414
1699.000000	27.462868
1698.000000	27.499185
1697.000000	27.530826
1696.000000	27.546174
1695.000000	27.583378
1694.000000	27.621206
1693.000000	27.683587
1692.000000	27.770834
1691.000000	27.850804
1690.000000	27.941336
1689.000000	28.022858
1688.000000	28.152572
1687.000000	28.283004
1686.000000	28.431555
1685.000000	28.572371
1684.000000	28.757070
1683.000000	28.900599
1682.000000	29.084300
1681.000000	29.286928
1680.000000	29.467467
1679.000000	29.666400
1678.000000	29.873558
1677.000000	30.078641
1676.000000	30.269680
1675.000000	30.502100
1674.000000	30.690758
1673.000000	30.886782
1672.000000	31.079705
1671.000000	31.275812
1670.000000	31.446216
1669.000000	31.635314
1668.000000	31.779983
1667.000000	31.938121
1666.000000	32.084561
1665.000000	32.173733
1664.000000	32.285321
1663.000000	32.379481
1662.000000	32.470955
1661.000000	32.555204
1660.000000	32.635939
1659.000000	32.707862
1658.000000	32.741431
1657.000000	32.783984
1656.000000	32.846375
1655.000000	32.891218
1654.000000	32.907873
1653.000000	32.913657
1652.000000	32.937600
1651.000000	32.934993
1650.000000	32.955972
1649.000000	32.955139
1648.000000	32.929492
1647.000000	32.920380
1646.000000	32.882279
1645.000000	32.873390
1644.000000	32.860141
1643.000000	32.824407
1642.000000	32.803643
1641.000000	32.772444
1640.000000	32.720687
1639.000000	32.693906
1638.000000	32.651218
1637.000000	32.618751
1636.000000	32.563280
1635.000000	32.537920
1634.000000	32.493912
1633.000000	32.443532
1632.000000	32.386841
1631.000000	32.323614
1630.000000	32.274943
1629.000000	32.231016
1628.000000	32.175004
1627.000000	32.109152
1626.000000	32.058704
1625.000000	32.011609
1624.000000	31.954728
1623.000000	31.901009
1622.000000	31.851434
1621.000000	31.789400
1620.000000	31.726610
1619.000000	31.661666
1618.000000	31.579348
1617.000000	31.523864
1616.000000	31.474024
1615.000000	31.406406
1614.000000	31.325309
1613.000000	31.255403
1612.000000	31.192265
1611.000000	31.124777
1610.000000	31.054813
1609.000000	30.995954
1608.000000	30.925722
1607.000000	30.840112
1606.000000	30.760989
1605.000000	30.691455
1604.000000	30.616318
1603.000000	30.545656
1602.000000	30.483959
1601.000000	30.403138
1600.000000	30.336340
1599.000000	30.262888
1598.000000	30.182276
1597.000000	30.118564
1596.000000	30.057036
1595.000000	30.000487
1594.000000	29.935999
1593.000000	29.866676
1592.000000	29.801449
1591.000000	29.743936
1590.000000	29.687697
1589.000000	29.627946
1588.000000	29.573808
1587.000000	29.512024
1586.000000	29.458997
1585.000000	29.413514
1584.000000	29.354278
1583.000000	29.299459
1582.000000	29.249894
1581.000000	29.191046
1580.000000	29.137749
1579.000000	29.089339
1578.000000	29.040103
1577.000000	28.993495
1576.000000	28.939809
1575.000000	28.880302
1574.000000	28.815726
1573.000000	28.772708
1572.000000	28.731871
1571.000000	28.673126
1570.000000	28.622963
1569.000000	28.578327
1568.000000	28.526417
1567.000000	28.476432
1566.000000	28.433783
1565.000000	28.402147
1564.000000	28.368860
1563.000000	28.341821
1562.000000	28.311543
1561.000000	28.274433
1560.000000	28.244866
1559.000000	28.211497
1558.000000	28.183677
1557.000000	28.168853
1556.000000	28.138437
1555.000000	28.109586
1554.000000	28.084078
1553.000000	28.055243
1552.000000	28.019321
1551.000000	27.989060
1550.000000	27.936414
1549.000000	27.894173
1548.000000	27.854749
1547.000000	27.797494
1546.000000	27.728137
1545.000000	27.665995
1544.000000	27.579921
1543.000000	27.500436
1542.000000	27.429273
1541.000000	27.337255
1540.000000	27.246522
1539.000000	27.156646
1538.000000	27.055295
1537.000000	26.938210
1536.000000	26.828907
1535.000000	26.746185
1534.000000	26.658965
1533.000000	26.565148
1532.000000	26.477843
1531.000000	26.456261
1530.000000	26.430137
1529.000000	26.350673
1528.000000	26.238715
1527.000000	26.137148
1526.000000	26.053360
1525.000000	25.979461
1524.000000	25.902377
1523.000000	25.821888
1522.000000	25.760090
1521.000000	25.718340
1520.000000	25.643543
1519.000000	25.584768
1518.000000	25.548370
1517.000000	25.496530
1516.000000	25.444364
1515.000000	25.389252
1514.000000	25.368921
1513.000000	25.352184
1512.000000	25.308677
1511.000000	25.251813
1510.000000	25.228859
1509.000000	25.227854
1508.000000	25.202369
1507.000000	25.156796
1506.000000	25.133554
1505.000000	25.101828
1504.000000	25.084148
1503.000000	25.065111
1502.000000	25.040582
1501.000000	25.039091
1500.000000	25.031807
1499.000000	25.024931
1498.000000	25.030086
1497.000000	25.040150
1496.000000	25.055615
1495.000000	25.070823
1494.000000	25.089050
1493.000000	25.099124
1492.000000	25.134527
1491.000000	25.168373
1490.000000	25.228567
1489.000000	25.269032
1488.000000	25.305758
1487.000000	25.369940
1486.000000	25.418490
1485.000000	25.481038
1484.000000	25.546954
1483.000000	25.624960
1482.000000	25.692499
1481.000000	25.755532
1480.000000	25.834514
1479.000000	25.915454
1478.000000	25.979537
1477.000000	26.043025
1476.000000	26.114549
1475.000000	26.208084
1474.000000	26.266862
1473.000000	26.331644
1472.000000	26.404276
1471.000000	26.487832
1470.000000	26.555771
1469.000000	26.612965
1468.000000	26.651237
1467.000000	26.707860
1466.000000	26.755265
1465.000000	26.796182
1464.000000	26.875767
1463.000000	26.935486
1462.000000	26.986065
1461.000000	27.032375
1460.000000	27.119120
1459.000000	27.168438
1458.000000	27.218970
1457.000000	27.247818
1456.000000	27.308960
1455.000000	27.402101
1454.000000	27.482458
1453.000000	27.527434
1452.000000	27.589613
1451.000000	27.658010
1450.000000	27.735486
1449.000000	27.811755
1448.000000	27.879084
1447.000000	27.953517
1446.000000	28.040792
1445.000000	28.141643
1444.000000	28.231928
1443.000000	28.302166
1442.000000	28.374404
1441.000000	28.444620
1440.000000	28.542108
1439.000000	28.640887
1438.000000	28.746086
1437.000000	28.855690
1436.000000	28.979139
1435.000000	29.073166
1434.000000	29.177472
1433.000000	29.297456
1432.000000	29.410810
1431.000000	29.530086
1430.000000	29.650554
1429.000000	29.789288
1428.000000	29.919963
1427.000000	30.073774
1426.000000	30.218641
1425.000000	30.376298
1424.000000	30.529906
1423.000000	30.698882
1422.000000	30.879823
1421.000000	31.048302
1420.000000	31.224576
1419.000000	31.416891
1418.000000	31.598165
1417.000000	31.794484
1416.000000	31.991955
1415.000000	32.198898
1414.000000	32.404990
1413.000000	32.596885
1412.000000	32.794807
1411.000000	32.990133
1410.000000	33.208685
1409.000000	33.428039
1408.000000	33.633522
1407.000000	33.829778
1406.000000	34.026649
1405.000000	34.226702
1404.000000	34.412459
1403.000000	34.609893
1402.000000	34.807245
1401.000000	35.000668
1400.000000	35.194257
1399.000000	35.367203
1398.000000	35.542715
1397.000000	35.723895
1396.000000	35.899941
1395.000000	36.069057
1394.000000	36.243540
1393.000000	36.406380
1392.000000	36.577868
1391.000000	36.759060
1390.000000	36.907484
1389.000000	37.050299
1388.000000	37.193897
1387.000000	37.332736
1386.000000	37.467194
1385.000000	37.611652
1384.000000	37.738242
1383.000000	37.849816
1382.000000	37.964811
1381.000000	38.059885
1380.000000	38.159192
1379.000000	38.248543
1378.000000	38.314449
1377.000000	38.402997
1376.000000	38.487732
1375.000000	38.550720
1374.000000	38.600169
1373.000000	38.646553
1372.000000	38.723479
1371.000000	38.795227
1370.000000	38.851293
1369.000000	38.910240
1368.000000	38.969805
1367.000000	39.033838
1366.000000	39.087955
1365.000000	39.151549
1364.000000	39.221347
1363.000000	39.294956
1362.000000	39.354781
1361.000000	39.416153
1360.000000	39.486106
1359.000000	39.553704
1358.000000	39.635920
1357.000000	39.725617
1356.000000	39.794457
1355.000000	39.849267
1354.000000	39.907356
1353.000000	39.974689
1352.000000	40.062229
1351.000000	40.160445
1350.000000	40.230039
1349.000000	40.279035
1348.000000	40.339745
1347.000000	40.436190
1346.000000	40.520589
1345.000000	40.578057
1344.000000	40.644138
1343.000000	40.698990
1342.000000	40.757130
1341.000000	40.821743
1340.000000	40.882736
1339.000000	40.941613
1338.000000	41.001333
1337.000000	41.055862
1336.000000	41.118408
1335.000000	41.180679
1334.000000	41.227845
1333.000000	41.248106
1332.000000	41.300566
1331.000000	41.330411
1330.000000	41.354122
1329.000000	41.379701
1328.000000	41.419451
1327.000000	41.472171
1326.000000	41.497065
1325.000000	41.535714
1324.000000	41.565587
1323.000000	41.557527
1322.000000	41.565186
1321.000000	41.606048
1320.000000	41.624406
1319.000000	41.643391
1318.000000	41.649700
1317.000000	41.664449
1316.000000	41.662620
1315.000000	41.698322
1314.000000	41.722004
1313.000000	41.728824
1312.000000	41.732013
1311.000000	41.721609
1310.000000	41.743384
1309.000000	41.790069
1308.000000	41.796953
1307.000000	41.806852
1306.000000	41.811689
1305.000000	41.813950
1304.000000	41.828888
1303.000000	41.835107
1302.000000	41.825165
1301.000000	41.847345
1300.000000	41.871372
1299.000000	41.870636
1298.000000	41.855918
1297.000000	41.865201
1296.000000	41.853014
1295.000000	41.858582
1294.000000	41.853715
1293.000000	41.822369
1292.000000	41.816992
1291.000000	41.809011
1290.000000	41.797099
1289.000000	41.758531
1288.000000	41.745721
1287.000000	41.745309
1286.000000	41.741562
1285.000000	41.740463
1284.000000	41.742052
1283.000000	41.723169
1282.000000	41.718038
1281.000000	41.719751
1280.000000	41.707219
1279.000000	41.698523
1278.000000	41.647650
1277.000000	41.667914
1276.000000	41.658612
1275.000000	41.660483
1274.000000	41.656415
1273.000000	41.654327
1272.000000	41.670575
1271.000000	41.649828
1270.000000	41.644819
1269.000000	41.688817
1268.000000	41.720927
1267.000000	41.698892
1266.000000	41.689039
1265.000000	41.704928
1264.000000	41.712050
1263.000000	41.721362
1262.000000	41.739675
1261.000000	41.764214
1260.000000	41.764813
1259.000000	41.775375
1258.000000	41.764038
1257.000000	41.758977
1256.000000	41.768051
1255.000000	41.786474
1254.000000	41.798501
1253.000000	41.801541
1252.000000	41.776247
1251.000000	41.778603
1250.000000	41.788464
1249.000000	41.764702
1248.000000	41.751984
1247.000000	41.762417
1246.000000	41.737541
1245.000000	41.736437
1244.000000	41.719478
1243.000000	41.699731
1242.000000	41.640765
1241.000000	41.610667
1240.000000	41.585583
1239.000000	41.567794
1238.000000	41.519684
1237.000000	41.493193
1236.000000	41.462996
1235.000000	41.433660
1234.000000	41.377156
1233.000000	41.360543
1232.000000	41.328095
1231.000000	41.302744
1230.000000	41.253140
1229.000000	41.231332
1228.000000	41.200440
1227.000000	41.187581
1226.000000	41.162480
1225.000000	41.133910
1224.000000	41.120800
1223.000000	41.083374
1222.000000	41.008727
1221.000000	40.970040
1220.000000	40.945683
1219.000000	40.940017
1218.000000	40.908298
1217.000000	40.880605
1216.000000	40.851316
1215.000000	40.818287
1214.000000	40.775348
1213.000000	40.722225
1212.000000	40.682804
1211.000000	40.650341
1210.000000	40.601693
1209.000000	40.539846
1208.000000	40.492487
1207.000000	40.452847
1206.000000	40.384889
1205.000000	40.347442
1204.000000	40.295722
1203.000000	40.240732
1202.000000	40.175018
1201.000000	40.135392
1200.000000	40.102949
1199.000000	40.039318
1198.000000	39.986338
1197.000000	39.959210
1196.000000	39.939504
1195.000000	39.883950
1194.000000	39.840480
1193.000000	39.804933
1192.000000	39.759820
1191.000000	39.732759
1190.000000	39.693261
1189.000000	39.633480
1188.000000	39.617212
1187.000000	39.618209
1186.000000	39.611314
1185.000000	39.613503
1184.000000	39.603249
1183.000000	39.622938
1182.000000	39.653580
1181.000000	39.681149
1180.000000	39.712568
1179.000000	39.748916
1178.000000	39.789147
1177.000000	39.834234
1176.000000	39.896130
1175.000000	39.953501
1174.000000	40.017351
1173.000000	40.090759
1172.000000	40.164316
1171.000000	40.239743
1170.000000	40.324420
1169.000000	40.403590
1168.000000	40.500475
1167.000000	40.594365
1166.000000	40.680883
1165.000000	40.774170
1164.000000	40.865778
1163.000000	40.957053
1162.000000	41.048578
1161.000000	41.142144
1160.000000	41.241154
1159.000000	41.326371
1158.000000	41.413931
1157.000000	41.501462
1156.000000	41.578380
1155.000000	41.655027
1154.000000	41.729693
1153.000000	41.805887
1152.000000	41.862210
1151.000000	41.896823
1150.000000	41.960201
1149.000000	42.025512
1148.000000	42.089294
1147.000000	42.144497
1146.000000	42.193891
1145.000000	42.254200
1144.000000	42.305886
1143.000000	42.366210
1142.000000	42.432048
1141.000000	42.483621
1140.000000	42.533033
1139.000000	42.582010
1138.000000	42.637621
1137.000000	42.683258
1136.000000	42.724746
1135.000000	42.765505
1134.000000	42.817686
1133.000000	42.873369
1132.000000	42.907268
1131.000000	42.942778
1130.000000	42.961667
1129.000000	42.974475
1128.000000	43.014863
1127.000000	43.048183
1126.000000	43.073382
1125.000000	43.103229
1124.000000	43.130613
1123.000000	43.153584
1122.000000	43.171616
1121.000000	43.172237
1120.000000	43.183015
1119.000000	43.194194
1118.000000	43.212701
1117.000000	43.222903
1116.000000	43.221618
1115.000000	43.216692
1114.000000	43.221724
1113.000000	43.227787
1112.000000	43.218268
1111.000000	43.205494
1110.000000	43.193333
1109.000000	43.211902
1108.000000	43.219848
1107.000000	43.238880
1106.000000	43.236864
1105.000000	43.238539
1104.000000	43.244663
1103.000000	43.253948
1102.000000	43.250113
1101.000000	43.246506
1100.000000	43.217906
1099.000000	43.210784
1098.000000	43.214613
1097.000000	43.209030
1096.000000	43.214797
1095.000000	43.222223
1094.000000	43.226335
1093.000000	43.208635
1092.000000	43.198811
1091.000000	43.193595
1090.000000	43.194308
1089.000000	43.190976
1088.000000	43.200706
1087.000000	43.200499
1086.000000	43.188732
1085.000000	43.161525
1084.000000	43.138602
1083.000000	43.143713
1082.000000	43.140300
1081.000000	43.148542
1080.000000	43.125183
1079.000000	43.089280
1078.000000	43.084011
1077.000000	43.071598
1076.000000	43.072089
1075.000000	43.082173
1074.000000	43.082859
1073.000000	43.082988
1072.000000	43.058608
1071.000000	43.017260
1070.000000	43.013848
1069.000000	43.006152
1068.000000	43.006977
1067.000000	42.992478
1066.000000	42.992496
1065.000000	42.976594
1064.000000	42.950153
1063.000000	42.941831
1062.000000	42.898892
1061.000000	42.900272
1060.000000	42.909927
1059.000000	42.886590
1058.000000	42.873986
1057.000000	42.842780
1056.000000	42.831391
1055.000000	42.823872
1054.000000	42.826932
1053.000000	42.813053
1052.000000	42.766053
1051.000000	42.757951
1050.000000	42.754352
1049.000000	42.751907
1048.000000	42.749126
1047.000000	42.764230
1046.000000	42.704825
1045.000000	42.700491
1044.000000	42.692913
1043.000000	42.694242
1042.000000	42.664424
1041.000000	42.650293
1040.000000	42.658758
1039.000000	42.655773
1038.000000	42.645401
1037.000000	42.618215
1036.000000	42.603346
1035.000000	42.612643
1034.000000	42.614551
1033.000000	42.585858
1032.000000	42.584141
1031.000000	42.595005
1030.000000	42.591169
1029.000000	42.567132
1028.000000	42.549929
1027.000000	42.562048
1026.000000	42.561364
1025.000000	42.535228
1024.000000	42.542684
1023.000000	42.527046
1022.000000	42.516871
1021.000000	42.536948
1020.000000	42.536596
1019.000000	42.546261
1018.000000	42.516946
1017.000000	42.513124
1016.000000	42.531374
1015.000000	42.529103
1014.000000	42.538974
1013.000000	42.559777
1012.000000	42.557192
1011.000000	42.550419
1010.000000	42.536058
1009.000000	42.528005
1008.000000	42.562265
1007.000000	42.585823
1006.000000	42.596242
1005.000000	42.565926
1004.000000	42.565316
1003.000000	42.552017
1002.000000	42.572699
1001.000000	42.580960
1000.000000	42.599262
999.000000	42.604776
998.000000	42.579682
997.000000	42.591297
996.000000	42.597545
995.000000	42.609521
994.000000	42.605080
993.000000	42.597273
992.000000	42.611479
991.000000	42.625135
990.000000	42.635531
989.000000	42.628555
988.000000	42.626182
987.000000	42.631050
986.000000	42.649813
985.000000	42.642588
984.000000	42.647711
983.000000	42.657691
982.000000	42.675780
981.000000	42.690927
980.000000	42.710380
979.000000	42.729880
978.000000	42.751207
977.000000	42.747404
976.000000	42.750250
975.000000	42.763675
974.000000	42.786125
973.000000	42.794927
972.000000	42.802619
971.000000	42.814989
970.000000	42.823394
969.000000	42.825786
968.000000	42.829141
967.000000	42.838749
966.000000	42.840926
965.000000	42.840454
964.000000	42.859692
963.000000	42.876656
962.000000	42.879684
961.000000	42.882668
960.000000	42.882727
959.000000	42.879525
958.000000	42.895365
957.000000	42.896725
956.000000	42.897215
955.000000	42.908017
954.000000	42.910751
953.000000	42.916333
952.000000	42.916794
951.000000	42.903182
950.000000	42.901755
949.000000	42.918075
948.000000	42.938167
947.000000	42.931739
946.000000	42.914200
945.000000	42.929654
944.000000	42.932299
943.000000	42.929872
942.000000	42.928302
941.000000	42.913885
940.000000	42.923284
939.000000	42.911868
938.000000	42.906191
937.000000	42.892136
936.000000	42.885553
935.000000	42.904205
934.000000	42.893069
933.000000	42.890824
932.000000	42.883944
931.000000	42.886728
930.000000	42.885059
929.000000	42.863303
928.000000	42.841868
927.000000	42.821136
926.000000	42.821685
925.000000	42.810499
924.000000	42.786268
923.000000	42.777670
922.000000	42.778516
921.000000	42.772079
920.000000	42.761718
919.000000	42.750650
918.000000	42.762121
917.000000	42.787194
916.000000	42.757318
915.000000	42.744654
914.000000	42.769436
913.000000	42.754584
912.000000	42.720107
911.000000	42.733256
910.000000	42.718962
909.000000	42.701043
908.000000	42.709529
907.000000	42.690602
906.000000	42.668747
905.000000	42.696823
904.000000	42.665114
903.000000	42.704389
902.000000	42.685144
901.000000	42.696127
900.000000	42.728105
899.000000	42.705744
898.000000	42.722316
897.000000	42.717388
896.000000	42.697111
895.000000	42.668144
894.000000	42.680351
893.000000	42.718405
892.000000	42.728174
891.000000	42.736043
890.000000	42.713766
889.000000	42.755629
888.000000	42.746602
887.000000	42.775177
886.000000	42.729607
885.000000	42.714338
884.000000	42.702667
883.000000	42.745785
882.000000	42.738560
881.000000	42.715309
880.000000	42.738581
879.000000	42.690725
878.000000	42.677419
877.000000	42.730712
876.000000	42.682289
875.000000	42.696844
874.000000	42.719889
873.000000	42.735650
872.000000	42.704752
871.000000	42.710309
870.000000	42.711502
869.000000	42.664630
868.000000	42.651139
867.000000	42.696914
866.000000	42.689274
865.000000	42.676607
864.000000	42.679095
863.000000	42.628494
862.000000	42.657280
861.000000	42.553580
860.000000	42.560199
859.000000	42.878241
858.000000	42.810844
857.000000	42.564627
856.000000	42.701405
855.000000	42.540747
854.000000	42.341308
853.000000	42.376450
852.000000	42.550209
851.000000	42.418046
850.000000	42.357462
849.000000	42.417394
848.000000	42.317053
847.000000	42.577363
846.000000	42.524500
845.000000	42.502688
844.000000	42.384597
843.000000	42.456515
842.000000	42.356520
841.000000	42.525722
840.000000	42.385079
839.000000	42.454143
838.000000	42.337338
837.000000	42.288630
836.000000	42.261670
835.000000	42.291350
834.000000	42.304463
833.000000	42.404683
832.000000	42.319003
831.000000	42.335303
830.000000	42.199154
829.000000	42.216141
828.000000	42.275160
827.000000	42.226538
826.000000	42.149270
825.000000	42.290887
824.000000	42.229480
823.000000	42.152337
822.000000	42.166936
821.000000	42.033725
820.000000	42.056998
819.000000	42.111728
818.000000	42.163230
817.000000	42.072369
816.000000	42.040281
815.000000	42.005680
814.000000	42.087420
813.000000	41.987499
812.000000	42.058793
811.000000	42.040041
810.000000	41.997589
809.000000	42.031976
808.000000	41.992446
807.000000	41.912123
806.000000	42.022637
805.000000	41.931713
804.000000	41.997587
803.000000	41.872964
802.000000	41.884159
801.000000	41.850851
800.000000	41.903642
799.000000	41.891342
798.000000	41.852889
797.000000	41.821970
796.000000	41.770554
795.000000	41.681215
794.000000	41.792056
793.000000	41.780285
792.000000	41.749705
791.000000	41.760994
790.000000	41.675124
789.000000	41.687045
788.000000	41.672396
787.000000	41.672892
786.000000	41.594155
785.000000	41.674167
784.000000	41.709998
783.000000	41.635955
782.000000	41.577385
781.000000	41.679719
780.000000	41.564205
779.000000	41.618996
778.000000	41.568587
777.000000	41.498501
776.000000	41.517636
775.000000	41.450933
774.000000	41.496652
773.000000	41.452052
772.000000	41.435745
771.000000	41.424745
770.000000	41.416075
769.000000	41.373706
768.000000	41.354661
767.000000	41.348911
766.000000	41.292660
765.000000	41.238272
764.000000	41.260196
763.000000	41.299184
762.000000	41.281239
761.000000	41.287547
760.000000	41.341240
759.000000	41.206226
758.000000	41.195904
757.000000	41.180063
756.000000	41.148483
755.000000	41.117334
754.000000	41.114087
753.000000	41.076595
752.000000	41.057012
751.000000	40.999259
750.000000	40.994220
749.000000	41.000471
748.000000	40.944860
747.000000	40.902680
746.000000	40.884972
745.000000	40.904882
744.000000	40.876782
743.000000	40.818884
742.000000	40.804181
741.000000	40.820513
740.000000	40.803463
739.000000	40.766941
738.000000	40.765841
737.000000	40.712262
736.000000	40.657969
735.000000	40.643401
734.000000	40.647415
733.000000	40.641492
732.000000	40.610509
731.000000	40.559117
730.000000	40.515101
729.000000	40.485816
728.000000	40.469684
727.000000	40.482685
726.000000	40.460749
725.000000	40.426459
724.000000	40.416401
723.000000	40.352235
722.000000	40.294151
721.000000	40.284020
720.000000	40.251801
719.000000	40.239705
718.000000	40.227200
717.000000	40.197852
716.000000	40.161624
715.000000	40.171684
714.000000	40.123542
713.000000	40.051766
712.000000	40.039063
711.000000	40.036097
710.000000	39.996424
709.000000	39.958617
708.000000	39.915461
707.000000	39.837143
706.000000	39.832791
705.000000	39.811932
704.000000	39.746262
703.000000	39.742458
702.000000	39.702510
701.000000	39.626766
700.000000	39.592395
699.000000	39.581232
698.000000	39.554626
697.000000	39.536216
696.000000	39.515722
695.000000	39.483065
694.000000	39.434697
693.000000	39.395691
692.000000	39.378862
691.000000	39.366050
690.000000	39.324012
689.000000	39.212466
688.000000	39.141265
687.000000	39.077655
686.000000	39.016695
685.000000	39.013233
684.000000	38.980467
683.000000	38.918578
682.000000	38.891706
681.000000	38.850830
680.000000	38.781429
679.000000	38.743579
678.000000	38.706586
677.000000	38.669750
676.000000	38.633410
675.000000	38.569773
674.000000	38.511558
673.000000	38.462096
672.000000	38.410187
671.000000	38.375486
670.000000	38.321166
669.000000	38.280031
668.000000	38.226510
667.000000	38.171528
666.000000	38.120051
665.000000	38.103054
664.000000	38.029450
663.000000	37.947874
662.000000	37.906664
661.000000	37.908528
660.000000	37.879361
659.000000	37.794536
658.000000	37.766331
657.000000	37.686165
656.000000	37.624753
655.000000	37.579596
654.000000	37.542107
653.000000	37.472792
652.000000	37.387996
651.000000	37.363353
650.000000	37.315273
649.000000	37.286771
648.000000	37.185997
647.000000	37.080595
646.000000	37.047633
645.000000	37.002696
644.000000	36.941263
643.000000	36.877180
642.000000	36.810757
641.000000	36.765845
640.000000	36.711800
639.000000	36.628387
638.000000	36.548279
637.000000	36.487929
636.000000	36.427814
635.000000	36.393110
634.000000	36.318159
633.000000	36.248207
632.000000	36.154582
631.000000	36.135579
630.000000	36.061559
629.000000	35.983782
628.000000	35.926465
627.000000	35.921592
626.000000	35.826847
625.000000	35.752078
624.000000	35.685945
623.000000	35.610185
622.000000	35.573267
621.000000	35.486505
620.000000	35.439151
619.000000	35.388806
618.000000	35.356553
617.000000	35.288106
616.000000	35.184936
615.000000	35.118967
614.000000	35.053014
613.000000	35.045361
612.000000	34.962608
611.000000	34.934024
610.000000	34.837481
609.000000	34.771551
608.000000	34.724498
607.000000	34.663678
606.000000	34.603661
605.000000	34.550005
604.000000	34.504357
603.000000	34.427069
602.000000	34.390837
601.000000	34.324454
600.000000	34.271477
599.000000	34.199620
598.000000	34.122144
597.000000	34.109087
596.000000	34.036759
595.000000	33.956282
594.000000	33.912238
593.000000	33.859862
592.000000	33.780490
591.000000	33.707729
590.000000	33.635005
589.000000	33.649371
588.000000	33.535006
587.000000	33.471404
586.000000	33.411879
585.000000	33.371648
584.000000	33.324539
583.000000	33.233543
582.000000	33.203176
581.000000	33.133509
580.000000	33.040131
579.000000	32.975309
578.000000	32.929827
577.000000	32.878121
576.000000	32.805174
575.000000	32.745452
574.000000	32.666048
573.000000	32.610481
572.000000	32.525053
571.000000	32.482124
570.000000	32.442048
569.000000	32.365403
568.000000	32.273215
567.000000	32.246704
566.000000	32.197391
565.000000	32.127546
564.000000	32.064848
563.000000	32.015561
562.000000	31.936778
561.000000	31.881856
560.000000	31.794898
559.000000	31.760234
558.000000	31.727413
557.000000	31.654409
556.000000	31.582968
555.000000	31.512444
554.000000	31.458745
553.000000	31.407458
552.000000	31.337989
551.000000	31.271908
550.000000	31.187944
549.000000	31.111696
548.000000	31.053904
547.000000	30.996505
546.000000	30.897174
545.000000	30.844431
544.000000	30.770649
543.000000	30.675167
542.000000	30.608163
541.000000	30.536637
540.000000	30.449213
539.000000	30.385319
538.000000	30.322457
537.000000	30.239190
536.000000	30.172451
535.000000	30.110652
534.000000	30.018689
533.000000	29.952765
532.000000	29.884988
531.000000	29.821313
530.000000	29.733293
529.000000	29.671495
528.000000	29.586937
527.000000	29.523825
526.000000	29.452371
525.000000	29.396396
524.000000	29.301611
523.000000	29.228515
522.000000	29.154764
521.000000	29.085115
520.000000	29.002233
519.000000	28.928238
518.000000	28.840754
517.000000	28.771553
516.000000	28.701448
515.000000	28.616557
514.000000	28.531424
513.000000	28.449243
512.000000	28.347802
511.000000	28.265708
510.000000	28.170067
509.000000	28.097935
508.000000	28.023516
507.000000	27.915352
506.000000	27.824972
505.000000	27.730034
504.000000	27.621757
503.000000	27.559374
502.000000	27.448752
501.000000	27.340577
500.000000	27.230701
499.000000	27.127969
498.000000	26.983011
497.000000	26.900639
496.000000	26.786337
495.000000	26.678248
494.000000	26.563035
493.000000	26.447296
492.000000	26.319008
491.000000	26.202118
490.000000	26.088344
489.000000	25.970084
488.000000	25.844301
487.000000	25.693867
486.000000	25.559858
485.000000	25.462111
484.000000	25.359119
483.000000	25.222194
482.000000	25.098519
481.000000	24.967285
480.000000	24.832426
479.000000	24.700839
478.000000	24.562780
477.000000	24.436353
476.000000	24.278731
475.000000	24.137376
474.000000	24.012482
473.000000	23.861855
472.000000	23.709481
471.000000	23.555707
470.000000	23.407900
469.000000	23.253465
468.000000	23.091968
467.000000	22.947424
466.000000	22.799672
465.000000	22.652895
464.000000	22.492617
463.000000	22.323265
462.000000	22.140024
461.000000	21.953560
460.000000	21.790748
459.000000	21.619147
458.000000	21.425184
457.000000	21.242692
456.000000	21.071804
455.000000	20.901333
454.000000	20.705612
453.000000	20.515946
452.000000	20.336297
451.000000	20.145903
450.000000	19.947678
449.000000	19.759952
448.000000	19.560049
447.000000	19.352954
446.000000	19.173384
445.000000	18.987294
444.000000	18.778003
443.000000	18.565988
442.000000	18.382873
441.000000	18.192685
440.000000	17.973167
439.000000	17.741752
438.000000	17.525824
437.000000	17.332345
436.000000	17.121846
435.000000	16.906567
434.000000	16.692642
433.000000	16.477836
432.000000	16.259574
431.000000	16.042226
430.000000	15.823669
429.000000	15.585200
428.000000	15.363770
427.000000	15.147896
426.000000	14.912561
425.000000	14.683111
424.000000	14.458643
423.000000	14.239373
422.000000	14.026457
421.000000	13.804512
420.000000	13.577943
419.000000	13.364413
418.000000	13.171582
417.000000	12.944253
416.000000	12.757178
415.000000	12.593026
414.000000	12.427875
413.000000	12.272418
412.000000	12.116410
411.000000	11.972056
410.000000	11.844067
409.000000	11.745751
408.000000	11.653604
407.000000	11.545213
406.000000	11.455714
405.000000	11.376762
404.000000	11.313295
403.000000	11.249242
402.000000	11.189425
401.000000	11.101414
400.000000	11.027342
399.000000	10.968423
398.000000	10.905491
397.000000	10.836488
396.000000	10.771795
395.000000	10.714218
394.000000	10.625151
393.000000	10.545359
392.000000	10.472689
391.000000	10.387947
390.000000	10.314799
389.000000	10.240079
388.000000	10.138964
387.000000	10.055568
386.000000	9.987091
385.000000	9.876244
384.000000	9.796957
383.000000	9.653746
382.000000	9.553401
381.000000	9.458296
380.000000	9.328042
379.000000	9.215344
378.000000	9.027797
377.000000	8.920392
376.000000	8.857362
375.000000	8.696633
374.000000	8.622520
373.000000	8.545838
372.000000	8.388238
371.000000	8.279449
370.000000	8.120352
369.000000	8.023309
368.000000	7.891342
367.000000	7.741141
366.000000	7.647823
365.000000	7.536313
364.000000	7.443989
363.000000	7.284406
362.000000	7.162456
361.000000	7.038134
360.000000	6.910853
359.000000	6.823578
358.000000	6.708136
357.000000	6.618391
356.000000	6.482975
355.000000	6.398398
354.000000	6.232637
353.000000	6.117945
352.000000	6.036087
351.000000	5.938152
350.000000	5.863681
349.000000	5.729327
348.000000	5.638862
347.000000	5.568093
346.000000	5.487253
345.000000	5.354252
344.000000	5.264068
343.000000	5.199689
342.000000	5.077946
341.000000	4.985791
340.000000	4.925503
339.000000	4.829299
338.000000	4.728156
337.000000	4.675012
336.000000	4.553884
335.000000	4.474083
334.000000	4.386097
333.000000	4.351122
332.000000	4.271992
331.000000	4.178484
330.000000	4.089710
329.000000	4.015405
328.000000	3.954006
327.000000	3.947655
326.000000	3.855567
325.000000	3.752742
324.000000	3.695201
323.000000	3.611137
322.000000	3.570745
321.000000	3.506984
320.000000	3.444003
319.000000	3.361718
318.000000	3.329388
317.000000	3.243846
316.000000	3.167185
315.000000	3.106379
314.000000	3.019022
313.000000	2.951625
312.000000	2.902565
311.000000	2.826962
310.000000	2.745794
309.000000	2.648569
308.000000	2.585659
307.000000	2.499270
306.000000	2.413688
305.000000	2.335224
304.000000	2.247057
303.000000	2.174076
302.000000	2.090759
301.000000	2.002632
300.000000	1.910994
299.000000	1.783022
298.000000	1.679652
297.000000	1.569982
296.000000	1.438762
295.000000	1.284165
294.000000	1.153000
293.000000	1.025601
292.000000	0.895152
291.000000	0.792795
290.000000	0.713548
289.000000	0.651212
288.000000	0.608756
287.000000	0.585172
286.000000	0.566372
285.000000	0.562312
284.000000	0.571941
283.000000	0.583399
282.000000	0.593366
281.000000	0.594921
280.000000	0.614131
279.000000	0.618625
278.000000	0.620363
277.000000	0.631434
276.000000	0.644759
275.000000	0.655505
274.000000	0.672455
273.000000	0.696707
272.000000	0.707754
271.000000	0.726488
270.000000	0.729965
269.000000	0.735998
268.000000	0.756968
267.000000	0.782591
266.000000	0.791654
265.000000	0.798182
264.000000	0.819426
263.000000	0.848441
262.000000	0.858804
261.000000	0.870873
260.000000	0.891970
259.000000	0.899925
258.000000	0.917231
257.000000	0.943113
256.000000	0.971499
255.000000	0.972488
254.000000	0.963883
253.000000	0.950588
252.000000	0.938745
251.000000	0.915623
250.000000	0.882643
249.000000	0.850897
248.000000	0.812628
247.000000	0.786304
246.000000	0.736592
245.000000	0.674378
244.000000	0.624148
243.000000	0.582722
242.000000	0.543524
241.000000	0.503877
240.000000	0.471968
239.000000	0.441074
238.000000	0.406703
237.000000	0.400636
236.000000	0.403018
235.000000	0.385222
234.000000	0.367904
233.000000	0.365822
232.000000	0.353094
231.000000	0.323448
230.000000	0.313556
229.000000	0.311103
228.000000	0.294179
227.000000	0.270788
226.000000	0.256903
225.000000	0.237561
224.000000	0.218922
223.000000	0.205656
222.000000	0.198223
221.000000	0.196039
220.000000	0.190467
219.000000	0.175256
218.000000	0.161943
217.000000	0.160555
216.000000	0.160846
215.000000	0.156900
214.000000	0.161250
213.000000	0.169641
212.000000	0.168305
211.000000	0.157187
210.000000	0.140566
209.000000	0.131400
208.000000	0.155662
207.000000	0.174979
206.000000	0.152359
205.000000	0.162432
204.000000	0.216149
203.000000	0.232747
202.000000	0.228736
201.000000	0.204902
200.000000	0.170473
