PE UV       SUBTECH     SPECTRUM    ASCII       PEDS        4.00        
   -1
004-1S-C10-NR001-F001.Sample.asc
24/01/08
18:13:42.00
24/01/08
18:13:42.00
Administrator

250.000000
1
Lambda 750
750N8071901
PerkinElmer UV WinLab 6.0.4.0738 / 1.61.00 Lambda 900

0
0
3350/servo 860.8/2
0
0
UV/VIS
1
1
1
CommonBeamDepol,150mm sphere / downward view
0
0
0
0
Program
Program
3350/servo 860.8/2
3350/0.2 860.8/0.2
3350/0.2 860.8/0.2
0
1
 
 
 
0
 
860.8
319.2
860.8
Front
100
on
 
 
0
0
0
 
0
 
 
 
0
 
 
0
0
0
0
0
 
 
 
 
0
0


0
0
#HDR
-1
-1
#GR
nm
%R
1.0
0.0
2500.000000
-10.000000
226
8
80.476006
0.000000
#DATA
2500.000000	0.000000
2490.000000	33.030833
2480.000000	35.322186
2470.000000	33.854529
2460.000000	35.297001
2450.000000	39.429556
2440.000000	37.128697
2430.000000	39.013151
2420.000000	36.910945
2410.000000	40.226987
2400.000000	39.638923
2390.000000	41.341809
2380.000000	40.579738
2370.000000	39.083051
2360.000000	40.145374
2350.000000	39.822354
2340.000000	41.249306
2330.000000	39.615095
2320.000000	40.111416
2310.000000	39.567606
2300.000000	36.911468
2290.000000	38.030767
2280.000000	37.634634
2270.000000	37.775608
2260.000000	41.200898
2250.000000	43.316577
2240.000000	43.856433
2230.000000	44.620659
2220.000000	43.491426
2210.000000	43.508312
2200.000000	42.252197
2190.000000	41.873758
2180.000000	42.006052
2170.000000	41.876770
2160.000000	44.697351
2150.000000	45.488546
2140.000000	47.675040
2130.000000	48.511523
2120.000000	48.498715
2110.000000	48.974477
2100.000000	48.795042
2090.000000	48.357682
2080.000000	47.328686
2070.000000	45.335286
2060.000000	43.436579
2050.000000	43.074583
2040.000000	43.380573
2030.000000	44.688297
2020.000000	44.455106
2010.000000	43.555852
2000.000000	42.248628
1990.000000	41.331024
1980.000000	39.696298
1970.000000	38.569270
1960.000000	37.635944
1950.000000	37.046433
1940.000000	37.712754
1930.000000	40.353646
1920.000000	43.732057
1910.000000	49.097823
1900.000000	54.931206
1890.000000	60.174774
1880.000000	63.676536
1870.000000	65.465054
1860.000000	66.302657
1850.000000	66.397278
1840.000000	65.959251
1830.000000	65.689641
1820.000000	65.301155
1810.000000	64.881033
1800.000000	64.458399
1790.000000	64.106176
1780.000000	63.633661
1770.000000	63.154385
1760.000000	62.648411
1750.000000	62.124959
1740.000000	61.752428
1730.000000	62.213246
1720.000000	63.128317
1710.000000	63.718153
1700.000000	64.100667
1690.000000	64.962454
1680.000000	66.705779
1670.000000	68.223022
1660.000000	68.804852
1650.000000	68.837367
1640.000000	68.545593
1630.000000	68.044712
1620.000000	67.510266
1610.000000	66.753051
1600.000000	66.050553
1590.000000	65.496972
1580.000000	64.897387
1570.000000	64.431867
1560.000000	64.166651
1550.000000	63.714061
1540.000000	62.795938
1530.000000	61.861390
1520.000000	61.343261
1510.000000	61.032991
1500.000000	60.895261
1490.000000	61.147006
1480.000000	61.683930
1470.000000	62.160575
1460.000000	62.782027
1450.000000	63.555625
1440.000000	64.676254
1430.000000	66.010972
1420.000000	67.713007
1410.000000	69.909633
1400.000000	72.061176
1390.000000	73.772000
1380.000000	74.736527
1370.000000	75.264520
1360.000000	75.818610
1350.000000	76.485401
1340.000000	77.011525
1330.000000	77.366892
1320.000000	77.550314
1310.000000	77.632675
1300.000000	77.619421
1290.000000	77.611332
1280.000000	77.556242
1270.000000	77.711991
1260.000000	77.808025
1250.000000	77.810031
1240.000000	77.664771
1230.000000	77.446962
1220.000000	77.267894
1210.000000	76.996587
1200.000000	76.693114
1190.000000	76.607755
1180.000000	76.956327
1170.000000	77.468130
1160.000000	78.119720
1150.000000	78.605326
1140.000000	78.972839
1130.000000	79.230392
1120.000000	79.276684
1110.000000	79.385842
1100.000000	79.403253
1090.000000	79.455846
1080.000000	79.343518
1070.000000	79.257034
1060.000000	79.227403
1050.000000	79.318538
1040.000000	79.213604
1030.000000	79.202659
1020.000000	79.189660
1010.000000	79.201534
1000.000000	79.303052
990.000000	79.333035
980.000000	79.399781
970.000000	79.463921
960.000000	79.655752
950.000000	79.701171
940.000000	79.727103
930.000000	79.779230
920.000000	79.641357
910.000000	79.699874
900.000000	79.860848
890.000000	79.824670
880.000000	79.701513
870.000000	80.089111
860.000000	79.989162
850.000000	79.397574
840.000000	79.966540
830.000000	80.476006
820.000000	79.824022
810.000000	79.578706
800.000000	79.444175
790.000000	79.745938
780.000000	79.615281
770.000000	79.575649
760.000000	79.717897
750.000000	79.636198
740.000000	79.503831
730.000000	79.476909
720.000000	79.502529
710.000000	79.538934
700.000000	79.177679
690.000000	79.236102
680.000000	79.007907
670.000000	78.835632
660.000000	78.678380
650.000000	78.556607
640.000000	78.276410
630.000000	78.224552
620.000000	78.096359
610.000000	77.795193
600.000000	77.560018
590.000000	77.180590
580.000000	76.918645
570.000000	76.543443
560.000000	76.185816
550.000000	75.927950
540.000000	75.571183
530.000000	75.127663
520.000000	74.652347
510.000000	74.190409
500.000000	73.702306
490.000000	73.173264
480.000000	72.428320
470.000000	71.662240
460.000000	70.991223
450.000000	70.375260
440.000000	69.073927
430.000000	67.972710
420.000000	66.501668
410.000000	64.534693
400.000000	62.097866
390.000000	59.501546
380.000000	57.293336
370.000000	55.007663
360.000000	51.755367
350.000000	48.387644
340.000000	45.805781
330.000000	42.580656
320.000000	39.399604
310.000000	37.386257
300.000000	33.844242
290.000000	30.291516
280.000000	22.768256
270.000000	17.621127
260.000000	17.166866
250.000000	17.006462
