PE UV       SUBTECH     SPECTRUM    ASCII       PEDS        4.00        
   -1
004-1S-B2-NR001-C001.Sample.asc
24/01/08
17:36:30.00
24/01/08
17:36:30.00
Administrator

250.000000
1
Lambda 750
750N8071901
PerkinElmer UV WinLab 6.0.4.0738 / 1.61.00 Lambda 900

0
0
3350/servo 860.8/2
0
0
UV/VIS
1
1
1
CommonBeamDepol,150mm sphere / downward view
0
0
0
0
Program
Program
3350/servo 860.8/2
3350/0.2 860.8/0.2
3350/0.2 860.8/0.2
0
1
 
 
 
0
 
860.8
319.2
860.8
Front
100
on
 
 
0
0
0
 
0
 
 
 
0
 
 
0
0
0
0
0
 
 
 
 
0
0


0
0
#HDR
-1
-1
#GR
nm
%R
1.0
0.0
2500.000000
-10.000000
226
8
71.700966
0.000000
#DATA
2500.000000	0.000000
2490.000000	14.769156
2480.000000	18.141571
2470.000000	15.823378
2460.000000	16.962918
2450.000000	20.703445
2440.000000	20.539520
2430.000000	20.929075
2420.000000	18.848106
2410.000000	21.890731
2400.000000	21.690312
2390.000000	22.845143
2380.000000	21.693221
2370.000000	20.252989
2360.000000	22.440824
2350.000000	22.621176
2340.000000	22.974900
2330.000000	21.888392
2320.000000	21.304761
2310.000000	20.493618
2300.000000	19.855198
2290.000000	20.906756
2280.000000	20.549014
2270.000000	21.312031
2260.000000	23.186339
2250.000000	25.938446
2240.000000	26.677326
2230.000000	28.001260
2220.000000	26.717686
2210.000000	26.064793
2200.000000	25.368920
2190.000000	25.404280
2180.000000	24.948817
2170.000000	25.922806
2160.000000	26.645687
2150.000000	28.259239
2140.000000	29.762366
2130.000000	30.819654
2120.000000	31.360303
2110.000000	31.355438
2100.000000	31.102050
2090.000000	31.161763
2080.000000	29.855437
2070.000000	28.476181
2060.000000	26.495178
2050.000000	26.056376
2040.000000	26.211882
2030.000000	27.448149
2020.000000	27.752716
2010.000000	26.997572
2000.000000	25.755215
1990.000000	24.536009
1980.000000	23.568503
1970.000000	22.384369
1960.000000	21.397576
1950.000000	21.043989
1940.000000	22.020898
1930.000000	24.010430
1920.000000	27.581186
1910.000000	32.949098
1900.000000	39.635820
1890.000000	45.306248
1880.000000	49.590072
1870.000000	51.878146
1860.000000	53.027627
1850.000000	53.097436
1840.000000	52.631211
1830.000000	52.089408
1820.000000	51.733729
1810.000000	51.318015
1800.000000	50.822281
1790.000000	50.455422
1780.000000	49.873899
1770.000000	49.134625
1760.000000	48.550597
1750.000000	47.783165
1740.000000	47.341679
1730.000000	47.815787
1720.000000	49.071913
1710.000000	49.867249
1700.000000	50.434029
1690.000000	51.701110
1680.000000	53.998991
1670.000000	55.745590
1660.000000	56.552933
1650.000000	56.686297
1640.000000	56.271589
1630.000000	55.699422
1620.000000	55.039380
1610.000000	54.129355
1600.000000	53.298534
1590.000000	52.552317
1580.000000	51.879108
1570.000000	51.320453
1560.000000	50.992246
1550.000000	50.400964
1540.000000	49.291900
1530.000000	48.224184
1520.000000	47.632754
1510.000000	47.267294
1500.000000	47.195671
1490.000000	47.431248
1480.000000	48.027378
1470.000000	48.562111
1460.000000	49.229688
1450.000000	50.256449
1440.000000	51.580347
1430.000000	53.281145
1420.000000	55.573632
1410.000000	58.339341
1400.000000	61.055757
1390.000000	63.275985
1380.000000	64.541752
1370.000000	65.280527
1360.000000	65.901024
1350.000000	66.660101
1340.000000	67.387311
1330.000000	68.240570
1320.000000	68.804897
1310.000000	68.945372
1300.000000	68.914331
1290.000000	68.697174
1280.000000	68.515864
1270.000000	68.693152
1260.000000	68.734112
1250.000000	68.764064
1240.000000	68.572787
1230.000000	68.296810
1220.000000	67.964902
1210.000000	67.527879
1200.000000	67.171736
1190.000000	67.096849
1180.000000	67.615725
1170.000000	68.309253
1160.000000	69.188312
1150.000000	69.774740
1140.000000	70.267374
1130.000000	70.573220
1120.000000	70.805936
1110.000000	70.896962
1100.000000	70.948324
1090.000000	71.008371
1080.000000	70.889987
1070.000000	70.779739
1060.000000	70.699571
1050.000000	70.692758
1040.000000	70.649306
1030.000000	70.682554
1020.000000	70.618268
1010.000000	70.652468
1000.000000	70.869590
990.000000	70.959339
980.000000	71.038782
970.000000	71.116142
960.000000	71.209038
950.000000	71.229494
940.000000	71.317027
930.000000	71.342380
920.000000	71.290789
910.000000	71.222347
900.000000	71.309445
890.000000	71.223995
880.000000	71.184840
870.000000	71.700490
860.000000	71.700966
850.000000	71.206450
840.000000	71.560627
830.000000	71.402927
820.000000	70.995110
810.000000	71.318043
800.000000	70.917448
790.000000	71.078796
780.000000	70.894548
770.000000	70.635978
760.000000	70.690316
750.000000	70.681015
740.000000	70.167062
730.000000	70.231965
720.000000	70.214137
710.000000	69.871508
700.000000	69.614380
690.000000	69.463730
680.000000	69.034364
670.000000	68.720507
660.000000	68.146894
650.000000	67.979097
640.000000	67.526522
630.000000	67.076779
620.000000	66.656413
610.000000	66.169862
600.000000	65.552037
590.000000	64.955924
580.000000	64.280480
570.000000	63.565663
560.000000	62.827087
550.000000	62.156912
540.000000	61.295311
530.000000	60.393945
520.000000	59.560077
510.000000	58.639704
500.000000	57.644744
490.000000	56.645558
480.000000	55.268306
470.000000	54.086072
460.000000	52.796517
450.000000	51.445981
440.000000	49.668871
430.000000	47.879400
420.000000	45.920439
410.000000	43.579898
400.000000	41.120169
390.000000	39.002613
380.000000	36.769537
370.000000	34.585043
360.000000	32.327399
350.000000	29.575268
340.000000	28.223941
330.000000	25.300563
320.000000	23.498728
310.000000	22.193965
300.000000	20.934925
290.000000	17.790574
280.000000	14.760055
270.000000	12.869667
260.000000	12.002172
250.000000	11.920475
