PE UV       SUBTECH     SPECTRUM    ASCII       PEDS        4.00        
   -1
004-1S-H9-NR001-F001.Sample.asc
24/01/08
18:20:45.00
24/01/08
18:20:45.00
Administrator

250.000000
1
Lambda 750
750N8071901
PerkinElmer UV WinLab 6.0.4.0738 / 1.61.00 Lambda 900

0
0
3350/servo 860.8/2
0
0
UV/VIS
1
1
1
CommonBeamDepol,150mm sphere / downward view
0
0
0
0
Program
Program
3350/servo 860.8/2
3350/0.2 860.8/0.2
3350/0.2 860.8/0.2
0
1
 
 
 
0
 
860.8
319.2
860.8
Front
100
on
 
 
0
0
0
 
0
 
 
 
0
 
 
0
0
0
0
0
 
 
 
 
0
0


0
0
#HDR
-1
-1
#GR
nm
%R
1.0
0.0
2500.000000
-10.000000
226
8
78.134988
0.000000
#DATA
2500.000000	0.000000
2490.000000	20.019102
2480.000000	19.287987
2470.000000	19.420124
2460.000000	22.685706
2450.000000	22.583481
2440.000000	23.808063
2430.000000	25.011830
2420.000000	23.241213
2410.000000	24.282381
2400.000000	25.405772
2390.000000	27.293722
2380.000000	26.365001
2370.000000	24.393427
2360.000000	24.714116
2350.000000	24.005383
2340.000000	25.074497
2330.000000	25.237879
2320.000000	24.161849
2310.000000	23.925438
2300.000000	22.486080
2290.000000	23.619711
2280.000000	23.086199
2270.000000	23.807101
2260.000000	26.420573
2250.000000	27.912997
2240.000000	29.148372
2230.000000	30.277742
2220.000000	28.626970
2210.000000	28.073392
2200.000000	27.812171
2190.000000	26.986048
2180.000000	26.812617
2170.000000	27.564380
2160.000000	28.831546
2150.000000	30.558727
2140.000000	32.273448
2130.000000	33.051962
2120.000000	33.214721
2110.000000	33.706506
2100.000000	33.985134
2090.000000	33.532124
2080.000000	32.613489
2070.000000	30.862974
2060.000000	28.657021
2050.000000	28.257756
2040.000000	28.565948
2030.000000	29.858097
2020.000000	29.994513
2010.000000	29.094318
2000.000000	27.635314
1990.000000	26.709657
1980.000000	25.224987
1970.000000	23.967595
1960.000000	22.969216
1950.000000	22.475545
1940.000000	23.411264
1930.000000	25.879972
1920.000000	29.607747
1910.000000	35.506395
1900.000000	42.112502
1890.000000	48.022869
1880.000000	52.620490
1870.000000	55.220377
1860.000000	56.119498
1850.000000	56.321207
1840.000000	56.002584
1830.000000	55.513539
1820.000000	55.144588
1810.000000	54.421214
1800.000000	53.979051
1790.000000	53.464800
1780.000000	52.733274
1770.000000	52.106312
1760.000000	51.363881
1750.000000	50.568142
1740.000000	50.144340
1730.000000	50.741472
1720.000000	52.041252
1710.000000	52.798297
1700.000000	53.286140
1690.000000	54.571235
1680.000000	56.990109
1670.000000	59.065163
1660.000000	59.887953
1650.000000	59.966347
1640.000000	59.556656
1630.000000	58.946651
1620.000000	58.181941
1610.000000	57.100997
1600.000000	56.168263
1590.000000	55.280977
1580.000000	54.502084
1570.000000	53.825990
1560.000000	53.576148
1550.000000	52.973057
1540.000000	51.696777
1530.000000	50.575639
1520.000000	49.834200
1510.000000	49.397073
1500.000000	49.228062
1490.000000	49.514811
1480.000000	50.142147
1470.000000	50.854849
1460.000000	51.623234
1450.000000	52.628365
1440.000000	54.049037
1430.000000	55.944521
1420.000000	58.463161
1410.000000	61.562710
1400.000000	64.593108
1390.000000	67.106386
1380.000000	68.587119
1370.000000	69.457087
1360.000000	70.305023
1350.000000	71.256119
1340.000000	72.394954
1330.000000	73.335633
1320.000000	73.779191
1310.000000	73.886522
1300.000000	73.890946
1290.000000	73.716008
1280.000000	73.711953
1270.000000	73.896214
1260.000000	73.909944
1250.000000	73.797120
1240.000000	73.627174
1230.000000	73.361305
1220.000000	73.089543
1210.000000	72.574632
1200.000000	72.107925
1190.000000	71.989129
1180.000000	72.486599
1170.000000	73.285367
1160.000000	74.349188
1150.000000	75.075740
1140.000000	75.746623
1130.000000	76.234156
1120.000000	76.361916
1110.000000	76.402558
1100.000000	76.346966
1090.000000	76.374092
1080.000000	76.275643
1070.000000	76.178554
1060.000000	76.082185
1050.000000	76.024180
1040.000000	75.937946
1030.000000	75.871882
1020.000000	75.804084
1010.000000	75.763043
1000.000000	75.964195
990.000000	76.007428
980.000000	76.143451
970.000000	76.205366
960.000000	76.376044
950.000000	76.539099
940.000000	76.557313
930.000000	76.565298
920.000000	76.476947
910.000000	76.480182
900.000000	76.488217
890.000000	76.624565
880.000000	76.574582
870.000000	76.910456
860.000000	77.005497
850.000000	76.700508
840.000000	78.134988
830.000000	77.632316
820.000000	77.009948
810.000000	77.319316
800.000000	77.081883
790.000000	77.357976
780.000000	76.914156
770.000000	76.933233
760.000000	77.062063
750.000000	77.117105
740.000000	76.982648
730.000000	76.756944
720.000000	76.762532
710.000000	76.700765
700.000000	76.474599
690.000000	76.376269
680.000000	76.230412
670.000000	76.011665
660.000000	75.711410
650.000000	75.584376
640.000000	75.206030
630.000000	74.977884
620.000000	74.696510
610.000000	74.371077
600.000000	73.899970
590.000000	73.465178
580.000000	72.958794
570.000000	72.428015
560.000000	71.957086
550.000000	71.320933
540.000000	70.588620
530.000000	69.856304
520.000000	69.253517
510.000000	68.419595
500.000000	67.485467
490.000000	66.563768
480.000000	65.438662
470.000000	64.319180
460.000000	62.972915
450.000000	61.781135
440.000000	59.910133
430.000000	58.145203
420.000000	55.772184
410.000000	53.014842
400.000000	49.870250
390.000000	46.609844
380.000000	43.599076
370.000000	40.438440
360.000000	37.117892
350.000000	33.533380
340.000000	30.956084
330.000000	26.976289
320.000000	24.356630
310.000000	22.108898
300.000000	19.337168
290.000000	15.197253
280.000000	9.979190
270.000000	7.523188
260.000000	7.435064
250.000000	7.745260
