PE UV       SUBTECH     SPECTRUM    ASCII       PEDS        4.00        
   -1
005-2G-BG1-NR001-C001.Sample.asc
24/01/08
16:44:58.00
24/01/08
16:44:58.00
Administrator

250.000000
1
Lambda 750
750N8071901
PerkinElmer UV WinLab 6.0.4.0738 / 1.61.00 Lambda 900

0
0
3350/servo 860.8/2
0
0
UV/VIS
1
1
1
CommonBeamDepol,150mm sphere / downward view
0
0
0
0
Program
Program
3350/servo 860.8/2
3350/0.2 860.8/0.2
3350/0.2 860.8/0.2
0
1
 
 
 
0
 
860.8
319.2
860.8
Front
100
on
 
 
0
0
0
 
0
 
 
 
0
 
 
0
0
0
0
0
 
 
 
 
0
0


0
0
#HDR
-1
-1
#GR
nm
%R
1.0
0.0
2500.000000
-10.000000
226
8
74.404007
-1.113054
#DATA
2500.000000	0.000000
2490.000000	-1.113054
2480.000000	2.283295
2470.000000	2.395546
2460.000000	3.428584
2450.000000	4.443307
2440.000000	3.019394
2430.000000	3.657973
2420.000000	3.205886
2410.000000	6.716832
2400.000000	5.030346
2390.000000	4.291897
2380.000000	3.677825
2370.000000	4.223644
2360.000000	5.145644
2350.000000	4.660882
2340.000000	5.249951
2330.000000	5.793714
2320.000000	4.667872
2310.000000	4.288682
2300.000000	4.211485
2290.000000	4.887740
2280.000000	5.511147
2270.000000	4.956770
2260.000000	6.967005
2250.000000	7.571395
2240.000000	8.443557
2230.000000	9.317816
2220.000000	7.879038
2210.000000	8.131890
2200.000000	7.269621
2190.000000	7.681243
2180.000000	7.496799
2170.000000	7.098950
2160.000000	7.850263
2150.000000	9.318634
2140.000000	9.952148
2130.000000	10.634852
2120.000000	11.091057
2110.000000	11.269772
2100.000000	11.734582
2090.000000	11.492576
2080.000000	10.553394
2070.000000	9.257568
2060.000000	8.392673
2050.000000	8.363732
2040.000000	8.656070
2030.000000	9.147580
2020.000000	9.126391
2010.000000	8.665539
2000.000000	7.970133
1990.000000	7.668079
1980.000000	7.170751
1970.000000	6.635441
1960.000000	6.420390
1950.000000	6.396177
1940.000000	6.579902
1930.000000	7.509405
1920.000000	9.145834
1910.000000	13.389380
1900.000000	18.992845
1890.000000	24.977875
1880.000000	30.381871
1870.000000	33.539958
1860.000000	34.860514
1850.000000	35.126295
1840.000000	34.623728
1830.000000	34.014743
1820.000000	33.450667
1810.000000	32.735300
1800.000000	32.098197
1790.000000	31.591042
1780.000000	30.598122
1770.000000	29.661304
1760.000000	29.010249
1750.000000	27.966106
1740.000000	27.179509
1730.000000	27.844874
1720.000000	29.384842
1710.000000	30.674449
1700.000000	31.589566
1690.000000	33.627442
1680.000000	37.072433
1670.000000	39.984155
1660.000000	41.241129
1650.000000	41.428833
1640.000000	40.851013
1630.000000	39.940945
1620.000000	38.795859
1610.000000	37.483165
1600.000000	36.221349
1590.000000	35.064739
1580.000000	34.118325
1570.000000	33.269820
1560.000000	32.721630
1550.000000	31.807785
1540.000000	30.396520
1530.000000	29.165357
1520.000000	28.442663
1510.000000	27.951068
1500.000000	27.780654
1490.000000	27.941536
1480.000000	28.389665
1470.000000	28.919230
1460.000000	29.707163
1450.000000	30.865176
1440.000000	32.642400
1430.000000	35.193049
1420.000000	38.852070
1410.000000	43.722051
1400.000000	48.942079
1390.000000	53.527966
1380.000000	56.629788
1370.000000	58.508924
1360.000000	60.504334
1350.000000	62.563187
1340.000000	64.526446
1330.000000	66.213530
1320.000000	67.361571
1310.000000	67.932216
1300.000000	67.944906
1290.000000	67.684276
1280.000000	67.507432
1270.000000	67.719382
1260.000000	67.834038
1250.000000	67.576088
1240.000000	66.872676
1230.000000	65.818286
1220.000000	64.719716
1210.000000	63.626500
1200.000000	62.735181
1190.000000	62.715426
1180.000000	63.913432
1170.000000	66.166460
1160.000000	68.628143
1150.000000	70.604701
1140.000000	72.163732
1130.000000	73.415302
1120.000000	73.939707
1110.000000	74.239485
1100.000000	74.293232
1090.000000	74.255402
1080.000000	74.063560
1070.000000	73.832400
1060.000000	73.558410
1050.000000	73.346524
1040.000000	73.153688
1030.000000	73.060684
1020.000000	73.009816
1010.000000	73.032764
1000.000000	73.288891
990.000000	73.430492
980.000000	73.589332
970.000000	73.838415
960.000000	74.141971
950.000000	74.353841
940.000000	74.404007
930.000000	74.341453
920.000000	74.085253
910.000000	73.859223
900.000000	73.985343
890.000000	74.012526
880.000000	74.014917
870.000000	74.267847
860.000000	73.942324
850.000000	73.579755
840.000000	73.885837
830.000000	73.632951
820.000000	72.883295
810.000000	72.571156
800.000000	71.871119
790.000000	71.704285
780.000000	71.210428
770.000000	70.447893
760.000000	69.989447
750.000000	69.127147
740.000000	68.248130
730.000000	67.273634
720.000000	66.204589
710.000000	65.000153
700.000000	63.674521
690.000000	62.288377
680.000000	60.721035
670.000000	59.223975
660.000000	57.549160
650.000000	55.894873
640.000000	54.143210
630.000000	52.455845
620.000000	50.765875
610.000000	49.152672
600.000000	47.411522
590.000000	45.574282
580.000000	43.917447
570.000000	42.224172
560.000000	40.679032
550.000000	39.117803
540.000000	37.576277
530.000000	36.096843
520.000000	34.699743
510.000000	33.315461
500.000000	32.021356
490.000000	30.678674
480.000000	29.337836
470.000000	28.093883
460.000000	26.893669
450.000000	25.754371
440.000000	24.446181
430.000000	23.331392
420.000000	22.279233
410.000000	21.290412
400.000000	20.549222
390.000000	20.054904
380.000000	19.606426
370.000000	19.164083
360.000000	18.629979
350.000000	18.163516
340.000000	17.854344
330.000000	16.674239
320.000000	16.194641
310.000000	15.281766
300.000000	14.884335
290.000000	13.352999
280.000000	10.226781
270.000000	7.580559
260.000000	6.214572
250.000000	5.727506
