PE UV       SUBTECH     SPECTRUM    ASCII       PEDS        4.00        
   -1
005-2G-AD10-NR001-F001.Sample.asc
24/01/08
16:26:09.00
24/01/08
16:26:09.00
Administrator

250.000000
1
Lambda 750
750N8071901
PerkinElmer UV WinLab 6.0.4.0738 / 1.61.00 Lambda 900

0
0
3350/servo 860.8/2
0
0
UV/VIS
1
1
1
CommonBeamDepol,150mm sphere / downward view
0
0
0
0
Program
Program
3350/servo 860.8/2
3350/0.2 860.8/0.2
3350/0.2 860.8/0.2
0
1
 
 
 
0
 
860.8
319.2
860.8
Front
100
on
 
 
0
0
0
 
0
 
 
 
0
 
 
0
0
0
0
0
 
 
 
 
0
0


0
0
#HDR
-1
-1
#GR
nm
%R
1.0
0.0
2500.000000
-10.000000
226
8
76.296880
0.000000
#DATA
2500.000000	0.000000
2490.000000	35.522223
2480.000000	37.736894
2470.000000	37.704289
2460.000000	35.218786
2450.000000	40.733037
2440.000000	41.496890
2430.000000	42.303841
2420.000000	40.188042
2410.000000	42.758916
2400.000000	41.462734
2390.000000	43.154536
2380.000000	43.780002
2370.000000	41.680920
2360.000000	42.661587
2350.000000	42.711964
2340.000000	41.583687
2330.000000	42.214688
2320.000000	41.430240
2310.000000	40.630552
2300.000000	40.991191
2290.000000	40.872534
2280.000000	40.755917
2270.000000	41.465423
2260.000000	43.211103
2250.000000	44.788451
2240.000000	45.020047
2230.000000	46.226420
2220.000000	45.655717
2210.000000	45.571226
2200.000000	44.635043
2190.000000	44.647086
2180.000000	45.295095
2170.000000	45.272501
2160.000000	46.379159
2150.000000	47.483882
2140.000000	48.286136
2130.000000	49.416784
2120.000000	49.999459
2110.000000	49.725614
2100.000000	49.432874
2090.000000	49.474799
2080.000000	48.779453
2070.000000	47.435177
2060.000000	46.031006
2050.000000	46.076588
2040.000000	46.016944
2030.000000	46.787502
2020.000000	46.892865
2010.000000	46.307526
2000.000000	45.106639
1990.000000	44.482393
1980.000000	43.521968
1970.000000	42.673838
1960.000000	42.045857
1950.000000	41.890757
1940.000000	42.272685
1930.000000	44.011788
1920.000000	46.494756
1910.000000	50.384055
1900.000000	54.258130
1890.000000	57.921827
1880.000000	60.617792
1870.000000	61.918632
1860.000000	62.631905
1850.000000	62.714278
1840.000000	62.472681
1830.000000	62.129839
1820.000000	61.842322
1810.000000	61.589508
1800.000000	61.360634
1790.000000	61.209267
1780.000000	60.885655
1770.000000	60.534812
1760.000000	60.146632
1750.000000	59.745527
1740.000000	59.588272
1730.000000	59.865251
1720.000000	60.605324
1710.000000	61.050445
1700.000000	61.401964
1690.000000	62.124977
1680.000000	63.521799
1670.000000	64.655809
1660.000000	65.136814
1650.000000	65.315439
1640.000000	64.975992
1630.000000	64.605391
1620.000000	64.199146
1610.000000	63.674953
1600.000000	63.217130
1590.000000	62.772079
1580.000000	62.406798
1570.000000	62.059277
1560.000000	61.871822
1550.000000	61.560963
1540.000000	60.898441
1530.000000	60.365937
1520.000000	59.944903
1510.000000	59.768871
1500.000000	59.801804
1490.000000	59.980673
1480.000000	60.318516
1470.000000	60.683396
1460.000000	61.135995
1450.000000	61.686160
1440.000000	62.530962
1430.000000	63.517462
1420.000000	64.882323
1410.000000	66.614438
1400.000000	68.416738
1390.000000	69.866693
1380.000000	70.794997
1370.000000	71.221620
1360.000000	71.766366
1350.000000	72.373846
1340.000000	72.996850
1330.000000	73.373313
1320.000000	73.585363
1310.000000	73.665197
1300.000000	73.593847
1290.000000	73.544519
1280.000000	73.534983
1270.000000	73.690400
1260.000000	73.837045
1250.000000	73.696153
1240.000000	73.668017
1230.000000	73.486749
1220.000000	73.235517
1210.000000	72.934599
1200.000000	72.736678
1190.000000	72.742550
1180.000000	73.091805
1170.000000	73.542024
1160.000000	74.192171
1150.000000	74.596672
1140.000000	74.934314
1130.000000	75.206023
1120.000000	75.409477
1110.000000	75.412610
1100.000000	75.462176
1090.000000	75.501798
1080.000000	75.469561
1070.000000	75.317132
1060.000000	75.249084
1050.000000	75.220779
1040.000000	75.275410
1030.000000	75.254947
1020.000000	75.245540
1010.000000	75.227502
1000.000000	75.335893
990.000000	75.370942
980.000000	75.443790
970.000000	75.572639
960.000000	75.648624
950.000000	75.627925
940.000000	75.706698
930.000000	75.776160
920.000000	75.751615
910.000000	75.716154
900.000000	75.740966
890.000000	75.796092
880.000000	75.915497
870.000000	76.047923
860.000000	75.891680
850.000000	75.325289
840.000000	75.959099
830.000000	76.296880
820.000000	75.657519
810.000000	75.759379
800.000000	75.735726
790.000000	75.760550
780.000000	75.741276
770.000000	75.400398
760.000000	75.513432
750.000000	75.290548
740.000000	75.336733
730.000000	75.044346
720.000000	75.053648
710.000000	75.012971
700.000000	74.590887
690.000000	74.536821
680.000000	74.236419
670.000000	73.996217
660.000000	73.501603
650.000000	73.342234
640.000000	73.016421
630.000000	72.713453
620.000000	72.485706
610.000000	72.157938
600.000000	71.690148
590.000000	71.338181
580.000000	71.067315
570.000000	70.662351
560.000000	70.285169
550.000000	69.971073
540.000000	69.567316
530.000000	69.126014
520.000000	68.647204
510.000000	68.137788
500.000000	67.618689
490.000000	66.984997
480.000000	66.323633
470.000000	65.704483
460.000000	64.855021
450.000000	64.192521
440.000000	62.708285
430.000000	61.685719
420.000000	60.360437
410.000000	58.864929
400.000000	57.170755
390.000000	55.718430
380.000000	53.946912
370.000000	52.080494
360.000000	50.034063
350.000000	47.295306
340.000000	45.595307
330.000000	42.118712
320.000000	39.400503
310.000000	36.470140
300.000000	34.400227
290.000000	31.572820
280.000000	28.526501
270.000000	25.822105
260.000000	24.677370
250.000000	23.578761
