PE UV       SUBTECH     SPECTRUM    ASCII       PEDS        4.00        
   -1
005-2G-AG11-NR001-F001.Sample.asc
24/01/08
14:45:04.00
24/01/08
14:45:04.00
Administrator

250.000000
1
Lambda 750
750N8071901
PerkinElmer UV WinLab 6.0.4.0738 / 1.61.00 Lambda 900

0
0
3350/servo 860.8/2
0
0
UV/VIS
1
1
1
CommonBeamDepol,150mm sphere / downward view
0
0
0
0
Program
Program
3350/servo 860.8/2
3350/0.2 860.8/0.2
3350/0.2 860.8/0.2
0
1
 
 
 
0
 
860.8
319.2
860.8
Front
100
on
 
 
0
0
0
 
0
 
 
 
0
 
 
0
0
0
0
0
 
 
 
 
0
0


0
0
#HDR
-1
-1
#GR
nm
%R
1.0
0.0
2500.000000
-10.000000
226
8
76.786386
0.000000
#DATA
2500.000000	0.000000
2490.000000	29.379036
2480.000000	27.760924
2470.000000	28.027259
2460.000000	31.451094
2450.000000	31.546754
2440.000000	32.835303
2430.000000	35.182128
2420.000000	33.354845
2410.000000	34.739807
2400.000000	33.352317
2390.000000	35.283701
2380.000000	35.145623
2370.000000	33.549868
2360.000000	34.235841
2350.000000	34.600802
2340.000000	34.785512
2330.000000	33.517995
2320.000000	33.875182
2310.000000	32.424085
2300.000000	32.257774
2290.000000	33.405835
2280.000000	33.273950
2270.000000	33.530816
2260.000000	36.156201
2250.000000	37.846567
2240.000000	38.870760
2230.000000	39.567849
2220.000000	38.105405
2210.000000	38.153589
2200.000000	37.428286
2190.000000	36.571014
2180.000000	37.321403
2170.000000	37.282707
2160.000000	38.806370
2150.000000	40.063548
2140.000000	40.913663
2130.000000	41.962713
2120.000000	41.953998
2110.000000	42.694112
2100.000000	42.754436
2090.000000	41.736284
2080.000000	41.329172
2070.000000	39.705859
2060.000000	38.152852
2050.000000	37.699075
2040.000000	38.353396
2030.000000	39.053005
2020.000000	38.659787
2010.000000	38.019174
2000.000000	36.722596
1990.000000	35.815179
1980.000000	34.528731
1970.000000	33.202260
1960.000000	32.756666
1950.000000	32.463979
1940.000000	33.182817
1930.000000	35.170100
1920.000000	38.416049
1910.000000	42.890108
1900.000000	47.911330
1890.000000	52.504601
1880.000000	56.244419
1870.000000	58.062815
1860.000000	58.905970
1850.000000	59.162332
1840.000000	58.813856
1830.000000	58.550078
1820.000000	58.177839
1810.000000	57.753268
1800.000000	57.396741
1790.000000	57.053561
1780.000000	56.421159
1770.000000	56.132442
1760.000000	55.760128
1750.000000	55.061873
1740.000000	54.709115
1730.000000	55.151721
1720.000000	56.098088
1710.000000	56.856173
1700.000000	57.252358
1690.000000	58.301292
1680.000000	60.157904
1670.000000	61.628070
1660.000000	62.268611
1650.000000	62.334434
1640.000000	62.054137
1630.000000	61.548368
1620.000000	60.971768
1610.000000	60.183664
1600.000000	59.544920
1590.000000	58.921611
1580.000000	58.355824
1570.000000	57.843193
1560.000000	57.541093
1550.000000	57.199600
1540.000000	56.224742
1530.000000	55.371244
1520.000000	54.948891
1510.000000	54.553436
1500.000000	54.502459
1490.000000	54.607755
1480.000000	55.010272
1470.000000	55.436301
1460.000000	55.961334
1450.000000	56.701815
1440.000000	57.808111
1430.000000	59.175721
1420.000000	61.106126
1410.000000	63.621708
1400.000000	66.179656
1390.000000	68.240418
1380.000000	69.474017
1370.000000	70.165675
1360.000000	70.915070
1350.000000	71.720885
1340.000000	72.642465
1330.000000	73.199506
1320.000000	73.496703
1310.000000	73.598584
1300.000000	73.593036
1290.000000	73.391239
1280.000000	73.420075
1270.000000	73.591405
1260.000000	73.643365
1250.000000	73.609149
1240.000000	73.420269
1230.000000	73.017745
1220.000000	72.685367
1210.000000	72.332516
1200.000000	72.048044
1190.000000	72.036838
1180.000000	72.454958
1170.000000	73.188390
1160.000000	74.137268
1150.000000	74.758215
1140.000000	75.220607
1130.000000	75.652647
1120.000000	75.798992
1110.000000	75.953708
1100.000000	75.963189
1090.000000	75.973755
1080.000000	75.862791
1070.000000	75.830386
1060.000000	75.715361
1050.000000	75.739848
1040.000000	75.707262
1030.000000	75.658576
1020.000000	75.635360
1010.000000	75.648615
1000.000000	75.803646
990.000000	75.855542
980.000000	75.913970
970.000000	76.035573
960.000000	76.196590
950.000000	76.280560
940.000000	76.352415
930.000000	76.271700
920.000000	76.265196
910.000000	76.079067
900.000000	76.231731
890.000000	76.315159
880.000000	76.539729
870.000000	76.786386
860.000000	76.707343
850.000000	76.273530
840.000000	76.255493
830.000000	75.727101
820.000000	75.547810
810.000000	75.695949
800.000000	75.575633
790.000000	75.589308
780.000000	75.595753
770.000000	75.401644
760.000000	75.342977
750.000000	75.299605
740.000000	75.013550
730.000000	74.851274
720.000000	74.798977
710.000000	74.600942
700.000000	74.371354
690.000000	74.215319
680.000000	73.820919
670.000000	73.361098
660.000000	72.942171
650.000000	72.634269
640.000000	72.176805
630.000000	71.820696
620.000000	71.407506
610.000000	70.866178
600.000000	70.290629
590.000000	69.644480
580.000000	69.033564
570.000000	68.384181
560.000000	67.650359
550.000000	67.010729
540.000000	66.223565
530.000000	65.519044
520.000000	64.635204
510.000000	63.779311
500.000000	62.878048
490.000000	61.883437
480.000000	60.756845
470.000000	59.664519
460.000000	58.380252
450.000000	57.100886
440.000000	55.307216
430.000000	53.565208
420.000000	51.481809
410.000000	49.097771
400.000000	46.793431
390.000000	44.222110
380.000000	41.669717
370.000000	38.936953
360.000000	36.101107
350.000000	32.807145
340.000000	30.721461
330.000000	27.811154
320.000000	25.397629
310.000000	23.247819
300.000000	22.094914
290.000000	18.821208
280.000000	15.592090
270.000000	12.762564
260.000000	11.661294
250.000000	11.156302
