PE UV       SUBTECH     SPECTRUM    ASCII       PEDS        4.00        
   -1
008-1S-XXX-NR001-C001.Sample.asc
24/01/08
17:23:55.00
24/01/08
17:23:55.00
Administrator

250.000000
1
Lambda 750
750N8071901
PerkinElmer UV WinLab 6.0.4.0738 / 1.61.00 Lambda 900

0
0
3350/servo 860.8/2
0
0
UV/VIS
1
1
1
CommonBeamDepol,150mm sphere / downward view
0
0
0
0
Program
Program
3350/servo 860.8/2
3350/0.2 860.8/0.2
3350/0.2 860.8/0.2
0
1
 
 
 
0
 
860.8
319.2
860.8
Front
100
on
 
 
0
0
0
 
0
 
 
 
0
 
 
0
0
0
0
0
 
 
 
 
0
0


0
0
#HDR
-1
-1
#GR
nm
%R
1.0
0.0
2500.000000
-10.000000
226
8
46.443099
0.000000
#DATA
2500.000000	0.000000
2490.000000	9.387107
2480.000000	7.938013
2470.000000	6.792726
2460.000000	8.964943
2450.000000	9.888281
2440.000000	8.062390
2430.000000	10.343073
2420.000000	7.626253
2410.000000	11.349083
2400.000000	9.021624
2390.000000	11.373608
2380.000000	11.235352
2370.000000	8.999274
2360.000000	9.868677
2350.000000	10.160585
2340.000000	11.185905
2330.000000	9.659365
2320.000000	8.925869
2310.000000	9.067975
2300.000000	10.109966
2290.000000	11.061139
2280.000000	11.229907
2270.000000	11.154510
2260.000000	12.955167
2250.000000	14.400142
2240.000000	14.816469
2230.000000	15.037271
2220.000000	14.665418
2210.000000	14.697583
2200.000000	14.368141
2190.000000	14.569290
2180.000000	14.044976
2170.000000	14.667583
2160.000000	14.798325
2150.000000	14.971678
2140.000000	17.003348
2130.000000	17.539135
2120.000000	17.333514
2110.000000	17.680616
2100.000000	17.605118
2090.000000	17.507340
2080.000000	16.435906
2070.000000	15.902767
2060.000000	15.069294
2050.000000	15.058122
2040.000000	15.152309
2030.000000	15.727001
2020.000000	15.739071
2010.000000	15.345429
2000.000000	14.571515
1990.000000	14.273865
1980.000000	13.503055
1970.000000	12.811219
1960.000000	12.769367
1950.000000	12.435283
1940.000000	12.777242
1930.000000	13.915500
1920.000000	15.443632
1910.000000	18.742857
1900.000000	22.419020
1890.000000	25.840342
1880.000000	28.600526
1870.000000	29.925383
1860.000000	30.326040
1850.000000	30.528073
1840.000000	30.185175
1830.000000	29.815429
1820.000000	29.778638
1810.000000	29.394059
1800.000000	29.166080
1790.000000	28.906366
1780.000000	28.044472
1770.000000	27.589824
1760.000000	27.184524
1750.000000	26.577676
1740.000000	25.935776
1730.000000	26.387562
1720.000000	27.384388
1710.000000	28.239562
1700.000000	29.106122
1690.000000	30.332343
1680.000000	32.043180
1670.000000	33.340429
1660.000000	33.885132
1650.000000	34.114246
1640.000000	33.786180
1630.000000	33.449181
1620.000000	33.069725
1610.000000	32.493958
1600.000000	31.976593
1590.000000	31.511268
1580.000000	31.108953
1570.000000	30.777470
1560.000000	30.589910
1550.000000	30.160332
1540.000000	29.512168
1530.000000	28.869007
1520.000000	28.557850
1510.000000	28.255284
1500.000000	28.276948
1490.000000	28.360020
1480.000000	28.609590
1470.000000	28.948731
1460.000000	29.305378
1450.000000	29.837239
1440.000000	30.663489
1430.000000	31.750585
1420.000000	33.366972
1410.000000	35.380981
1400.000000	37.369446
1390.000000	39.166236
1380.000000	40.317988
1370.000000	41.092762
1360.000000	41.706054
1350.000000	42.325906
1340.000000	42.942748
1330.000000	43.580953
1320.000000	44.155478
1310.000000	44.322888
1300.000000	44.198319
1290.000000	43.991097
1280.000000	43.772579
1270.000000	43.793226
1260.000000	43.857516
1250.000000	43.724725
1240.000000	43.512328
1230.000000	42.946938
1220.000000	42.535349
1210.000000	42.309080
1200.000000	42.097286
1190.000000	42.222419
1180.000000	42.694493
1170.000000	43.332767
1160.000000	44.148859
1150.000000	44.772357
1140.000000	45.155384
1130.000000	45.543261
1120.000000	45.715475
1110.000000	45.872582
1100.000000	45.891612
1090.000000	45.897597
1080.000000	45.812741
1070.000000	45.766177
1060.000000	45.704452
1050.000000	45.681397
1040.000000	45.706977
1030.000000	45.673063
1020.000000	45.586471
1010.000000	45.645445
1000.000000	45.760885
990.000000	45.821349
980.000000	45.877508
970.000000	45.955042
960.000000	46.064780
950.000000	46.130592
940.000000	46.205634
930.000000	46.153540
920.000000	46.142095
910.000000	46.028279
900.000000	46.116470
890.000000	46.227203
880.000000	46.221315
870.000000	46.309112
860.000000	46.443099
850.000000	46.132740
840.000000	44.932331
830.000000	44.921575
820.000000	44.782401
810.000000	44.671258
800.000000	44.723207
790.000000	44.437506
780.000000	44.269452
770.000000	44.123882
760.000000	44.289392
750.000000	44.134442
740.000000	43.977372
730.000000	43.692259
720.000000	43.599740
710.000000	43.366584
700.000000	43.048076
690.000000	42.825029
680.000000	42.529930
670.000000	42.138557
660.000000	41.591894
650.000000	41.307598
640.000000	40.723061
630.000000	40.282368
620.000000	39.711853
610.000000	39.132832
600.000000	38.586688
590.000000	38.114859
580.000000	37.689085
570.000000	37.147258
560.000000	36.636994
550.000000	36.213002
540.000000	35.690813
530.000000	35.056946
520.000000	34.422931
510.000000	33.778702
500.000000	33.055874
490.000000	32.170497
480.000000	31.143622
470.000000	30.039405
460.000000	28.835597
450.000000	27.608667
440.000000	26.018488
430.000000	24.414111
420.000000	22.594475
410.000000	20.725623
400.000000	19.251483
390.000000	18.329138
380.000000	17.270324
370.000000	16.078008
360.000000	14.666772
350.000000	13.057662
340.000000	12.021431
330.000000	10.117089
320.000000	8.798330
310.000000	7.567166
300.000000	6.958857
290.000000	4.401528
280.000000	2.486187
270.000000	1.749537
260.000000	1.575166
250.000000	1.665125
