PE UV       SUBTECH     SPECTRUM    ASCII       PEDS        4.00        
   -1
008-2S-XXX-NR001-X001.Sample.asc
24/01/08
16:59:07.00
24/01/08
16:59:07.00
Administrator

250.000000
1
Lambda 750
750N8071901
PerkinElmer UV WinLab 6.0.4.0738 / 1.61.00 Lambda 900

0
0
3350/servo 860.8/2
0
0
UV/VIS
1
1
1
CommonBeamDepol,150mm sphere / downward view
0
0
0
0
Program
Program
3350/servo 860.8/2
3350/0.2 860.8/0.2
3350/0.2 860.8/0.2
0
1
 
 
 
0
 
860.8
319.2
860.8
Front
100
on
 
 
0
0
0
 
0
 
 
 
0
 
 
0
0
0
0
0
 
 
 
 
0
0


0
0
#HDR
-1
-1
#GR
nm
%R
1.0
0.0
2500.000000
-10.000000
226
8
49.940942
-1.750969
#DATA
2500.000000	0.000000
2490.000000	-1.750969
2480.000000	-1.722407
2470.000000	-1.628555
2460.000000	0.041786
2450.000000	0.388927
2440.000000	2.465130
2430.000000	1.039672
2420.000000	-1.274009
2410.000000	0.973118
2400.000000	0.346728
2390.000000	3.432321
2380.000000	0.805574
2370.000000	0.569388
2360.000000	1.069228
2350.000000	1.666180
2340.000000	0.784236
2330.000000	1.560191
2320.000000	1.177365
2310.000000	-0.005466
2300.000000	0.718282
2290.000000	1.099810
2280.000000	1.723103
2270.000000	1.826308
2260.000000	3.726240
2250.000000	5.443712
2240.000000	5.925117
2230.000000	6.034305
2220.000000	5.137565
2210.000000	5.340058
2200.000000	4.582018
2190.000000	5.196966
2180.000000	4.086221
2170.000000	4.305384
2160.000000	5.273369
2150.000000	6.337454
2140.000000	7.007279
2130.000000	7.726112
2120.000000	8.053579
2110.000000	8.655847
2100.000000	8.571923
2090.000000	8.328674
2080.000000	7.456226
2070.000000	6.483918
2060.000000	5.407438
2050.000000	5.206087
2040.000000	5.450768
2030.000000	6.205123
2020.000000	6.384014
2010.000000	5.646691
2000.000000	4.880333
1990.000000	4.326695
1980.000000	3.412842
1970.000000	2.786575
1960.000000	2.301310
1950.000000	2.001942
1940.000000	2.542142
1930.000000	3.749406
1920.000000	6.105584
1910.000000	10.150372
1900.000000	15.396442
1890.000000	20.060701
1880.000000	23.848654
1870.000000	25.878086
1860.000000	26.646090
1850.000000	26.647143
1840.000000	26.118588
1830.000000	25.716451
1820.000000	25.480768
1810.000000	25.011483
1800.000000	24.674119
1790.000000	24.120721
1780.000000	23.275063
1770.000000	22.378055
1760.000000	21.906808
1750.000000	20.977420
1740.000000	20.065312
1730.000000	20.519732
1720.000000	21.860444
1710.000000	23.156684
1700.000000	24.201355
1690.000000	26.079636
1680.000000	28.427620
1670.000000	30.430448
1660.000000	31.285604
1650.000000	31.425544
1640.000000	31.040002
1630.000000	30.476483
1620.000000	29.877890
1610.000000	29.088695
1600.000000	28.357093
1590.000000	27.556689
1580.000000	26.954383
1570.000000	26.476881
1560.000000	26.058122
1550.000000	25.490307
1540.000000	24.477899
1530.000000	23.592472
1520.000000	22.993419
1510.000000	22.634944
1500.000000	22.488283
1490.000000	22.648879
1480.000000	23.044141
1470.000000	23.468849
1460.000000	24.000365
1450.000000	24.832806
1440.000000	26.143397
1430.000000	27.782229
1420.000000	30.149136
1410.000000	33.114221
1400.000000	36.114575
1390.000000	38.772442
1380.000000	40.629767
1370.000000	41.742657
1360.000000	42.808452
1350.000000	43.781427
1340.000000	44.776881
1330.000000	45.635589
1320.000000	46.472892
1310.000000	46.809579
1300.000000	46.782461
1290.000000	46.522935
1280.000000	46.458838
1270.000000	46.510612
1260.000000	46.404678
1250.000000	46.167004
1240.000000	45.705787
1230.000000	44.951354
1220.000000	44.261597
1210.000000	43.834731
1200.000000	43.518662
1190.000000	43.594444
1180.000000	44.336620
1170.000000	45.528963
1160.000000	46.855547
1150.000000	47.934895
1140.000000	48.654927
1130.000000	49.223951
1120.000000	49.485172
1110.000000	49.596219
1100.000000	49.724390
1090.000000	49.700010
1080.000000	49.651116
1070.000000	49.442410
1060.000000	49.315165
1050.000000	49.253336
1040.000000	49.155583
1030.000000	49.120048
1020.000000	49.097945
1010.000000	49.117182
1000.000000	49.327700
990.000000	49.403599
980.000000	49.465055
970.000000	49.573233
960.000000	49.644252
950.000000	49.770257
940.000000	49.787722
930.000000	49.759185
920.000000	49.571316
910.000000	49.570969
900.000000	49.593551
890.000000	49.694830
880.000000	49.902531
870.000000	49.940942
860.000000	49.481899
850.000000	49.344719
840.000000	49.675140
830.000000	49.746599
820.000000	49.002775
810.000000	49.282232
800.000000	48.799549
790.000000	48.768351
780.000000	48.558671
770.000000	48.344971
760.000000	48.130638
750.000000	47.852960
740.000000	47.389955
730.000000	47.110370
720.000000	46.641588
710.000000	46.257656
700.000000	45.575378
690.000000	45.075795
680.000000	44.375804
670.000000	43.521937
660.000000	42.652378
650.000000	41.761520
640.000000	40.613568
630.000000	39.429012
620.000000	38.209594
610.000000	37.075923
600.000000	35.962335
590.000000	35.013958
580.000000	34.135833
570.000000	33.150313
560.000000	32.288249
550.000000	31.448656
540.000000	30.580021
530.000000	29.513676
520.000000	28.400897
510.000000	27.335515
500.000000	26.065069
490.000000	24.588105
480.000000	22.849477
470.000000	21.039178
460.000000	19.151594
450.000000	17.053979
440.000000	14.781118
430.000000	12.402495
420.000000	9.943457
410.000000	7.541296
400.000000	6.178743
390.000000	5.777890
380.000000	5.419367
370.000000	4.967760
360.000000	4.431026
350.000000	4.106655
340.000000	3.755869
330.000000	3.225070
320.000000	3.013003
310.000000	2.971816
300.000000	3.255592
290.000000	2.909647
280.000000	2.737925
270.000000	2.857341
260.000000	3.004691
250.000000	3.356951
