PE UV       SUBTECH     SPECTRUM    ASCII       PEDS        4.00        
   -1
008-2S-XXX-NR001-Y001.Sample.asc
24/01/08
17:02:44.00
24/01/08
17:02:44.00
Administrator

250.000000
1
Lambda 750
750N8071901
PerkinElmer UV WinLab 6.0.4.0738 / 1.61.00 Lambda 900

0
0
3350/servo 860.8/2
0
0
UV/VIS
1
1
1
CommonBeamDepol,150mm sphere / downward view
0
0
0
0
Program
Program
3350/servo 860.8/2
3350/0.2 860.8/0.2
3350/0.2 860.8/0.2
0
1
 
 
 
0
 
860.8
319.2
860.8
Front
100
on
 
 
0
0
0
 
0
 
 
 
0
 
 
0
0
0
0
0
 
 
 
 
0
0


0
0
#HDR
-1
-1
#GR
nm
%R
1.0
0.0
2500.000000
-10.000000
226
8
42.749437
0.000000
#DATA
2500.000000	0.000000
2490.000000	4.652658
2480.000000	3.896809
2470.000000	3.621691
2460.000000	4.745642
2450.000000	5.562912
2440.000000	5.850984
2430.000000	4.393639
2420.000000	5.522469
2410.000000	6.983031
2400.000000	5.258985
2390.000000	8.037310
2380.000000	6.955480
2370.000000	6.023716
2360.000000	7.124406
2350.000000	5.951734
2340.000000	7.610323
2330.000000	6.522928
2320.000000	5.292809
2310.000000	5.899090
2300.000000	6.495366
2290.000000	7.059251
2280.000000	6.489737
2270.000000	7.066720
2260.000000	8.819920
2250.000000	10.170801
2240.000000	10.434667
2230.000000	10.829313
2220.000000	10.218886
2210.000000	10.419943
2200.000000	9.606549
2190.000000	9.819634
2180.000000	9.359239
2170.000000	9.098988
2160.000000	9.501697
2150.000000	10.149276
2140.000000	12.064146
2130.000000	12.681270
2120.000000	12.941956
2110.000000	12.647264
2100.000000	12.254256
2090.000000	12.340947
2080.000000	12.137376
2070.000000	11.019229
2060.000000	10.682809
2050.000000	10.293283
2040.000000	10.398792
2030.000000	11.050171
2020.000000	11.094383
2010.000000	11.002634
2000.000000	10.344753
1990.000000	9.824379
1980.000000	9.280884
1970.000000	8.899721
1960.000000	8.586778
1950.000000	8.386389
1940.000000	8.690946
1930.000000	9.522361
1920.000000	11.054341
1910.000000	13.744454
1900.000000	17.239497
1890.000000	20.574326
1880.000000	23.146422
1870.000000	24.636717
1860.000000	25.142894
1850.000000	25.251929
1840.000000	24.944824
1830.000000	24.452800
1820.000000	24.487024
1810.000000	24.126592
1800.000000	23.768202
1790.000000	23.552154
1780.000000	22.955282
1770.000000	22.248214
1760.000000	22.152007
1750.000000	21.368897
1740.000000	20.766586
1730.000000	21.098501
1720.000000	22.010127
1710.000000	22.852289
1700.000000	23.660642
1690.000000	24.960943
1680.000000	26.751202
1670.000000	28.104672
1660.000000	28.679614
1650.000000	28.851443
1640.000000	28.616888
1630.000000	28.265684
1620.000000	27.837958
1610.000000	27.277591
1600.000000	26.733576
1590.000000	26.247912
1580.000000	25.809993
1570.000000	25.481663
1560.000000	25.250652
1550.000000	24.880518
1540.000000	24.213051
1530.000000	23.560231
1520.000000	23.247153
1510.000000	22.998499
1500.000000	22.935484
1490.000000	23.085348
1480.000000	23.397094
1470.000000	23.706731
1460.000000	24.098799
1450.000000	24.671839
1440.000000	25.551971
1430.000000	26.638302
1420.000000	28.295386
1410.000000	30.371285
1400.000000	32.520343
1390.000000	34.499557
1380.000000	35.769760
1370.000000	36.555505
1360.000000	37.295397
1350.000000	38.075401
1340.000000	38.754470
1330.000000	39.453636
1320.000000	40.169493
1310.000000	40.449689
1300.000000	40.390906
1290.000000	40.249325
1280.000000	40.145099
1270.000000	40.110972
1260.000000	40.073222
1250.000000	39.878571
1240.000000	39.542445
1230.000000	39.006871
1220.000000	38.503775
1210.000000	38.126301
1200.000000	37.960136
1190.000000	38.103930
1180.000000	38.765080
1170.000000	39.465909
1160.000000	40.400341
1150.000000	41.134722
1140.000000	41.770939
1130.000000	42.108056
1120.000000	42.224869
1110.000000	42.264387
1100.000000	42.370850
1090.000000	42.421015
1080.000000	42.320502
1070.000000	42.197133
1060.000000	42.094000
1050.000000	42.006632
1040.000000	41.913252
1030.000000	41.878488
1020.000000	41.844098
1010.000000	41.886609
1000.000000	42.058220
990.000000	42.152270
980.000000	42.152783
970.000000	42.174671
960.000000	42.315965
950.000000	42.456724
940.000000	42.346095
930.000000	42.356635
920.000000	42.398950
910.000000	42.145939
900.000000	42.212808
890.000000	42.157710
880.000000	42.446597
870.000000	42.749437
860.000000	42.589109
850.000000	41.912799
840.000000	41.497203
830.000000	41.638029
820.000000	41.346230
810.000000	41.338965
800.000000	41.177801
790.000000	41.150217
780.000000	40.972822
770.000000	40.747808
760.000000	40.712852
750.000000	40.574406
740.000000	40.237825
730.000000	40.046661
720.000000	39.781196
710.000000	39.442133
700.000000	39.074094
690.000000	38.704706
680.000000	38.323340
670.000000	37.846290
660.000000	37.293100
650.000000	36.754908
640.000000	36.040007
630.000000	35.358476
620.000000	34.621359
610.000000	34.026506
600.000000	33.307050
590.000000	32.770285
580.000000	32.281248
570.000000	31.772874
560.000000	31.249874
550.000000	30.718560
540.000000	30.181004
530.000000	29.573235
520.000000	28.905864
510.000000	28.255136
500.000000	27.565093
490.000000	26.775073
480.000000	25.754283
470.000000	24.815530
460.000000	23.791762
450.000000	22.763142
440.000000	21.493469
430.000000	20.169225
420.000000	18.700048
410.000000	17.235061
400.000000	16.298982
390.000000	15.766381
380.000000	15.222580
370.000000	14.319917
360.000000	13.481414
350.000000	12.532270
340.000000	11.915128
330.000000	10.921742
320.000000	9.537016
310.000000	8.660027
300.000000	6.869279
290.000000	4.294492
280.000000	3.049352
270.000000	2.290029
260.000000	2.162448
250.000000	2.225679
