PE UV       SUBTECH     SPECTRUM    ASCII       PEDS        4.00        
   -1
TTmsopph202.Sample.asc
18/03/21
10:22:47.00
18/03/21
10:22:47.00
Administrator

200.000000
1
Lambda 750
750N8071901
PerkinElmer UV WinLab 6.0.4.0738 / 1.61.00 Lambda 900

0
0
3350/servo 860.8/2
0
0
UV/VIS
1
1
1
CommonBeamDepol,150mm sphere / downward view
0
0
0
0
Program
Program
3350/servo 860.8/2
3350/0.2 860.8/0.2
3350/0.2 860.8/0.2
0
1
 
 
 
0
 
860.8
319.2
860.8
Front
100
on
 
 
0
0
0
 
0
 
 
 
0
 
 
0
0
0
0
0
 
 
 
 
0
0


0
0
#HDR
-1
-1
#GR
nm
%T
1.0
0.0
2350.000000
-1.000000
2151
8
8.778780
-0.042142
#DATA
2350.000000	1.287870
2349.000000	1.854601
2348.000000	1.220680
2347.000000	1.804539
2346.000000	1.887234
2345.000000	1.595122
2344.000000	1.395462
2343.000000	1.233736
2342.000000	1.292656
2341.000000	1.407584
2340.000000	1.714691
2339.000000	2.011660
2338.000000	2.097411
2337.000000	2.114716
2336.000000	2.055011
2335.000000	2.214148
2334.000000	2.455843
2333.000000	2.465872
2332.000000	2.348972
2331.000000	2.473695
2330.000000	2.441198
2329.000000	2.103885
2328.000000	1.959463
2327.000000	2.132561
2326.000000	2.140384
2325.000000	1.769808
2324.000000	2.531269
2323.000000	2.218869
2322.000000	1.931368
2321.000000	2.089650
2320.000000	2.340538
2319.000000	1.938312
2318.000000	1.943885
2317.000000	2.230762
2316.000000	2.211406
2315.000000	2.070563
2314.000000	1.736699
2313.000000	2.037597
2312.000000	1.609002
2311.000000	1.908796
2310.000000	1.709612
2309.000000	1.911269
2308.000000	1.872803
2307.000000	2.028707
2306.000000	2.101053
2305.000000	1.994877
2304.000000	2.015986
2303.000000	1.962708
2302.000000	1.911124
2301.000000	1.912035
2300.000000	1.886436
2299.000000	1.528244
2298.000000	1.596705
2297.000000	1.635504
2296.000000	1.738598
2295.000000	1.652402
2294.000000	1.912400
2293.000000	1.650903
2292.000000	1.657159
2291.000000	1.616663
2290.000000	1.674659
2289.000000	1.515228
2288.000000	1.532120
2287.000000	1.638644
2286.000000	1.640759
2285.000000	1.560333
2284.000000	1.577142
2283.000000	1.647946
2282.000000	1.511825
2281.000000	1.535244
2280.000000	1.768748
2279.000000	1.843963
2278.000000	1.661407
2277.000000	1.678688
2276.000000	1.665131
2275.000000	1.599165
2274.000000	1.622901
2273.000000	1.764745
2272.000000	1.712971
2271.000000	1.694575
2270.000000	1.610626
2269.000000	1.781476
2268.000000	1.686678
2267.000000	1.587609
2266.000000	1.686009
2265.000000	1.653319
2264.000000	1.702849
2263.000000	1.657072
2262.000000	1.765906
2261.000000	1.816884
2260.000000	1.821082
2259.000000	1.883622
2258.000000	1.921001
2257.000000	1.912544
2256.000000	1.934606
2255.000000	1.950301
2254.000000	1.781397
2253.000000	1.857104
2252.000000	2.162954
2251.000000	2.169169
2250.000000	2.109557
2249.000000	2.189312
2248.000000	2.161111
2247.000000	2.123341
2246.000000	2.169264
2245.000000	2.168121
2244.000000	2.147130
2243.000000	2.206484
2242.000000	2.292148
2241.000000	2.407908
2240.000000	2.417766
2239.000000	2.477746
2238.000000	2.532235
2237.000000	2.478302
2236.000000	2.502740
2235.000000	2.542585
2234.000000	2.412938
2233.000000	2.370370
2232.000000	2.446225
2231.000000	2.516493
2230.000000	2.545983
2229.000000	2.640769
2228.000000	2.651251
2227.000000	2.581972
2226.000000	2.636707
2225.000000	2.657403
2224.000000	2.580703
2223.000000	2.647345
2222.000000	2.778869
2221.000000	2.641299
2220.000000	2.643490
2219.000000	2.645157
2218.000000	2.627612
2217.000000	2.602282
2216.000000	2.565328
2215.000000	2.504713
2214.000000	2.494401
2213.000000	2.670498
2212.000000	2.689135
2211.000000	2.571892
2210.000000	2.477021
2209.000000	2.463340
2208.000000	2.429392
2207.000000	2.358909
2206.000000	2.416229
2205.000000	2.441741
2204.000000	2.469161
2203.000000	2.350167
2202.000000	2.370058
2201.000000	2.497839
2200.000000	2.425563
2199.000000	2.376237
2198.000000	2.339701
2197.000000	2.431973
2196.000000	2.317832
2195.000000	2.201453
2194.000000	2.257897
2193.000000	2.157245
2192.000000	2.192312
2191.000000	2.195761
2190.000000	2.270010
2189.000000	2.235024
2188.000000	2.080102
2187.000000	2.193972
2186.000000	2.296696
2185.000000	2.137725
2184.000000	2.158411
2183.000000	2.318120
2182.000000	2.281516
2181.000000	2.097051
2180.000000	2.089116
2179.000000	2.078545
2178.000000	2.097382
2177.000000	2.151252
2176.000000	2.067096
2175.000000	2.279659
2174.000000	2.269052
2173.000000	2.179491
2172.000000	2.344596
2171.000000	2.157659
2170.000000	2.287442
2169.000000	2.328191
2168.000000	2.203643
2167.000000	2.349830
2166.000000	2.239365
2165.000000	2.253806
2164.000000	2.340442
2163.000000	2.336223
2162.000000	2.317030
2161.000000	2.221033
2160.000000	2.303650
2159.000000	2.404302
2158.000000	2.466253
2157.000000	2.503610
2156.000000	2.456016
2155.000000	2.222000
2154.000000	2.335161
2153.000000	2.490204
2152.000000	2.639877
2151.000000	2.580465
2150.000000	2.697143
2149.000000	2.507956
2148.000000	2.486288
2147.000000	2.414766
2146.000000	2.537861
2145.000000	2.800475
2144.000000	2.493471
2143.000000	2.602532
2142.000000	2.658885
2141.000000	2.515906
2140.000000	2.559780
2139.000000	2.895841
2138.000000	2.911159
2137.000000	2.955499
2136.000000	2.916072
2135.000000	2.854297
2134.000000	2.847724
2133.000000	2.715776
2132.000000	2.786507
2131.000000	2.799066
2130.000000	2.899979
2129.000000	3.130555
2128.000000	2.899969
2127.000000	2.908919
2126.000000	3.031560
2125.000000	2.929246
2124.000000	2.772565
2123.000000	2.906352
2122.000000	2.732164
2121.000000	2.846014
2120.000000	2.821835
2119.000000	2.840193
2118.000000	2.830783
2117.000000	2.840355
2116.000000	3.009745
2115.000000	2.926763
2114.000000	2.914727
2113.000000	2.860933
2112.000000	2.776005
2111.000000	2.737439
2110.000000	3.055041
2109.000000	2.920601
2108.000000	2.905203
2107.000000	2.950075
2106.000000	2.953091
2105.000000	2.907475
2104.000000	2.942828
2103.000000	3.059624
2102.000000	2.961789
2101.000000	2.982939
2100.000000	3.054435
2099.000000	2.990325
2098.000000	2.972059
2097.000000	3.042704
2096.000000	2.996293
2095.000000	2.889990
2094.000000	2.831558
2093.000000	2.958057
2092.000000	3.052058
2091.000000	3.008448
2090.000000	2.941695
2089.000000	2.927231
2088.000000	2.982329
2087.000000	3.029007
2086.000000	2.988586
2085.000000	3.072153
2084.000000	2.989652
2083.000000	2.947667
2082.000000	2.942762
2081.000000	2.852163
2080.000000	2.857763
2079.000000	2.895140
2078.000000	2.895241
2077.000000	2.852545
2076.000000	2.814260
2075.000000	2.761797
2074.000000	2.768711
2073.000000	2.728206
2072.000000	2.708810
2071.000000	2.678765
2070.000000	2.609775
2069.000000	2.610592
2068.000000	2.621438
2067.000000	2.696838
2066.000000	2.630974
2065.000000	2.544219
2064.000000	2.472910
2063.000000	2.404131
2062.000000	2.427564
2061.000000	2.457295
2060.000000	2.460302
2059.000000	2.394781
2058.000000	2.393891
2057.000000	2.286788
2056.000000	2.202368
2055.000000	2.298087
2054.000000	2.288196
2053.000000	2.204196
2052.000000	2.187931
2051.000000	2.120059
2050.000000	2.142848
2049.000000	2.129173
2048.000000	2.112340
2047.000000	2.126580
2046.000000	2.083348
2045.000000	2.031221
2044.000000	1.998075
2043.000000	2.003582
2042.000000	2.008523
2041.000000	2.032012
2040.000000	2.042086
2039.000000	2.026700
2038.000000	2.020063
2037.000000	2.059404
2036.000000	2.067269
2035.000000	2.075592
2034.000000	2.124240
2033.000000	2.139746
2032.000000	2.130500
2031.000000	2.133438
2030.000000	2.185837
2029.000000	2.201610
2028.000000	2.194323
2027.000000	2.226213
2026.000000	2.275439
2025.000000	2.277809
2024.000000	2.271460
2023.000000	2.295880
2022.000000	2.325026
2021.000000	2.329525
2020.000000	2.302948
2019.000000	2.323519
2018.000000	2.319011
2017.000000	2.302966
2016.000000	2.321502
2015.000000	2.314447
2014.000000	2.301395
2013.000000	2.314623
2012.000000	2.328732
2011.000000	2.344285
2010.000000	2.316211
2009.000000	2.289029
2008.000000	2.280908
2007.000000	2.245391
2006.000000	2.234286
2005.000000	2.243882
2004.000000	2.222109
2003.000000	2.182730
2002.000000	2.185750
2001.000000	2.195233
2000.000000	2.182308
1999.000000	2.174967
1998.000000	2.119787
1997.000000	2.111528
1996.000000	2.130270
1995.000000	2.091751
1994.000000	2.027888
1993.000000	2.046103
1992.000000	2.029433
1991.000000	2.003736
1990.000000	1.984047
1989.000000	1.978463
1988.000000	1.995936
1987.000000	1.958733
1986.000000	1.961052
1985.000000	1.947243
1984.000000	1.951830
1983.000000	1.922464
1982.000000	1.889516
1981.000000	1.941645
1980.000000	1.925721
1979.000000	1.872624
1978.000000	1.853555
1977.000000	1.830415
1976.000000	1.817767
1975.000000	1.814670
1974.000000	1.805978
1973.000000	1.802709
1972.000000	1.772241
1971.000000	1.735544
1970.000000	1.751150
1969.000000	1.792206
1968.000000	1.752867
1967.000000	1.713263
1966.000000	1.759483
1965.000000	1.738344
1964.000000	1.735818
1963.000000	1.693336
1962.000000	1.662349
1961.000000	1.697990
1960.000000	1.695445
1959.000000	1.718588
1958.000000	1.724531
1957.000000	1.684657
1956.000000	1.667035
1955.000000	1.631340
1954.000000	1.682052
1953.000000	1.673840
1952.000000	1.658358
1951.000000	1.679008
1950.000000	1.673960
1949.000000	1.674022
1948.000000	1.631990
1947.000000	1.624878
1946.000000	1.680993
1945.000000	1.634725
1944.000000	1.679815
1943.000000	1.693888
1942.000000	1.675809
1941.000000	1.694053
1940.000000	1.704954
1939.000000	1.708576
1938.000000	1.773081
1937.000000	1.773371
1936.000000	1.766111
1935.000000	1.831109
1934.000000	1.828112
1933.000000	1.825900
1932.000000	1.805232
1931.000000	1.866220
1930.000000	1.800983
1929.000000	1.790195
1928.000000	1.868491
1927.000000	1.896547
1926.000000	1.905614
1925.000000	1.906100
1924.000000	1.994527
1923.000000	1.969837
1922.000000	2.010747
1921.000000	2.111804
1920.000000	2.110626
1919.000000	2.196472
1918.000000	2.213390
1917.000000	2.350889
1916.000000	2.288705
1915.000000	2.432286
1914.000000	2.465278
1913.000000	2.527731
1912.000000	2.509450
1911.000000	2.583080
1910.000000	2.553737
1909.000000	2.652949
1908.000000	2.786626
1907.000000	2.880009
1906.000000	3.024739
1905.000000	3.109132
1904.000000	3.135272
1903.000000	3.205697
1902.000000	3.356179
1901.000000	3.506657
1900.000000	3.589430
1899.000000	3.655391
1898.000000	3.826407
1897.000000	3.971937
1896.000000	4.033648
1895.000000	4.143558
1894.000000	4.273179
1893.000000	4.344211
1892.000000	4.461834
1891.000000	4.597223
1890.000000	4.731959
1889.000000	4.816877
1888.000000	4.923084
1887.000000	5.006281
1886.000000	5.170428
1885.000000	5.302865
1884.000000	5.415252
1883.000000	5.562089
1882.000000	5.664044
1881.000000	5.745242
1880.000000	5.813510
1879.000000	5.903523
1878.000000	5.989048
1877.000000	6.074844
1876.000000	6.132641
1875.000000	6.242350
1874.000000	6.329257
1873.000000	6.374166
1872.000000	6.442424
1871.000000	6.504518
1870.000000	6.499719
1869.000000	6.519268
1868.000000	6.601224
1867.000000	6.665226
1866.000000	6.675869
1865.000000	6.680891
1864.000000	6.692839
1863.000000	6.684180
1862.000000	6.704787
1861.000000	6.718709
1860.000000	6.702035
1859.000000	6.727627
1858.000000	6.732316
1857.000000	6.763167
1856.000000	6.770743
1855.000000	6.751740
1854.000000	6.792289
1853.000000	6.809437
1852.000000	6.813664
1851.000000	6.829089
1850.000000	6.824297
1849.000000	6.833121
1848.000000	6.824101
1847.000000	6.809819
1846.000000	6.828347
1845.000000	6.861961
1844.000000	6.860973
1843.000000	6.796747
1842.000000	6.782454
1841.000000	6.785236
1840.000000	6.763299
1839.000000	6.737839
1838.000000	6.734416
1837.000000	6.728208
1836.000000	6.689596
1835.000000	6.674947
1834.000000	6.644504
1833.000000	6.611472
1832.000000	6.623196
1831.000000	6.588692
1830.000000	6.589742
1829.000000	6.582589
1828.000000	6.537963
1827.000000	6.527592
1826.000000	6.500931
1825.000000	6.477043
1824.000000	6.505443
1823.000000	6.489347
1822.000000	6.460832
1821.000000	6.442333
1820.000000	6.422794
1819.000000	6.430594
1818.000000	6.414992
1817.000000	6.371071
1816.000000	6.367414
1815.000000	6.379944
1814.000000	6.342891
1813.000000	6.334188
1812.000000	6.348673
1811.000000	6.336415
1810.000000	6.317788
1809.000000	6.320695
1808.000000	6.303826
1807.000000	6.298578
1806.000000	6.299395
1805.000000	6.286504
1804.000000	6.287673
1803.000000	6.277701
1802.000000	6.245902
1801.000000	6.229229
1800.000000	6.238296
1799.000000	6.256401
1798.000000	6.259010
1797.000000	6.257776
1796.000000	6.258838
1795.000000	6.235315
1794.000000	6.232853
1793.000000	6.230420
1792.000000	6.215022
1791.000000	6.233098
1790.000000	6.249879
1789.000000	6.248918
1788.000000	6.227063
1787.000000	6.234362
1786.000000	6.232882
1785.000000	6.236772
1784.000000	6.243808
1783.000000	6.225569
1782.000000	6.224989
1781.000000	6.226099
1780.000000	6.212860
1779.000000	6.211084
1778.000000	6.207609
1777.000000	6.173559
1776.000000	6.150824
1775.000000	6.147401
1774.000000	6.112087
1773.000000	6.108769
1772.000000	6.106653
1771.000000	6.079925
1770.000000	6.056472
1769.000000	6.047604
1768.000000	6.027295
1767.000000	6.005270
1766.000000	5.986617
1765.000000	5.966322
1764.000000	5.967196
1763.000000	5.912963
1762.000000	5.890118
1761.000000	5.875037
1760.000000	5.872456
1759.000000	5.832480
1758.000000	5.801205
1757.000000	5.792544
1756.000000	5.792411
1755.000000	5.770553
1754.000000	5.741515
1753.000000	5.737240
1752.000000	5.736530
1751.000000	5.725365
1750.000000	5.679643
1749.000000	5.676850
1748.000000	5.671053
1747.000000	5.630112
1746.000000	5.624313
1745.000000	5.597360
1744.000000	5.554713
1743.000000	5.548112
1742.000000	5.547603
1741.000000	5.535969
1740.000000	5.510080
1739.000000	5.515257
1738.000000	5.500822
1737.000000	5.475235
1736.000000	5.468593
1735.000000	5.437510
1734.000000	5.458765
1733.000000	5.471972
1732.000000	5.461130
1731.000000	5.423447
1730.000000	5.427037
1729.000000	5.434164
1728.000000	5.457660
1727.000000	5.485041
1726.000000	5.494616
1725.000000	5.464208
1724.000000	5.521193
1723.000000	5.550149
1722.000000	5.588417
1721.000000	5.605100
1720.000000	5.607364
1719.000000	5.634592
1718.000000	5.637405
1717.000000	5.677418
1716.000000	5.708436
1715.000000	5.694597
1714.000000	5.710886
1713.000000	5.739309
1712.000000	5.791557
1711.000000	5.780839
1710.000000	5.792352
1709.000000	5.798892
1708.000000	5.825042
1707.000000	5.854168
1706.000000	5.853084
1705.000000	5.861997
1704.000000	5.856668
1703.000000	5.869057
1702.000000	5.857104
1701.000000	5.850495
1700.000000	5.881161
1699.000000	5.831788
1698.000000	5.877066
1697.000000	5.900182
1696.000000	5.896479
1695.000000	5.893965
1694.000000	5.899337
1693.000000	5.939089
1692.000000	5.934037
1691.000000	5.952559
1690.000000	5.963123
1689.000000	5.978888
1688.000000	6.041586
1687.000000	6.057500
1686.000000	6.091421
1685.000000	6.128979
1684.000000	6.171360
1683.000000	6.229937
1682.000000	6.261999
1681.000000	6.311587
1680.000000	6.359404
1679.000000	6.414829
1678.000000	6.460304
1677.000000	6.500682
1676.000000	6.566210
1675.000000	6.621172
1674.000000	6.669441
1673.000000	6.727385
1672.000000	6.758017
1671.000000	6.816644
1670.000000	6.866706
1669.000000	6.878300
1668.000000	6.906387
1667.000000	6.972095
1666.000000	7.002543
1665.000000	7.005484
1664.000000	7.022568
1663.000000	7.040209
1662.000000	7.075578
1661.000000	7.102240
1660.000000	7.133599
1659.000000	7.144637
1658.000000	7.167774
1657.000000	7.183249
1656.000000	7.198382
1655.000000	7.206106
1654.000000	7.214334
1653.000000	7.208556
1652.000000	7.222565
1651.000000	7.220480
1650.000000	7.226849
1649.000000	7.225161
1648.000000	7.212084
1647.000000	7.195551
1646.000000	7.180860
1645.000000	7.172271
1644.000000	7.165122
1643.000000	7.161930
1642.000000	7.156315
1641.000000	7.138563
1640.000000	7.120220
1639.000000	7.102290
1638.000000	7.106400
1637.000000	7.108187
1636.000000	7.100027
1635.000000	7.094097
1634.000000	7.077851
1633.000000	7.038811
1632.000000	7.016165
1631.000000	7.000620
1630.000000	7.006788
1629.000000	6.985663
1628.000000	6.959678
1627.000000	6.943999
1626.000000	6.934141
1625.000000	6.923248
1624.000000	6.900049
1623.000000	6.887287
1622.000000	6.887901
1621.000000	6.857353
1620.000000	6.830239
1619.000000	6.811887
1618.000000	6.793995
1617.000000	6.773063
1616.000000	6.751158
1615.000000	6.735992
1614.000000	6.719170
1613.000000	6.707279
1612.000000	6.680053
1611.000000	6.661133
1610.000000	6.645666
1609.000000	6.626322
1608.000000	6.609200
1607.000000	6.595964
1606.000000	6.578966
1605.000000	6.564238
1604.000000	6.547068
1603.000000	6.524315
1602.000000	6.497741
1601.000000	6.473450
1600.000000	6.454487
1599.000000	6.436569
1598.000000	6.426176
1597.000000	6.422853
1596.000000	6.405896
1595.000000	6.387924
1594.000000	6.365448
1593.000000	6.350081
1592.000000	6.337111
1591.000000	6.325084
1590.000000	6.314551
1589.000000	6.281529
1588.000000	6.260973
1587.000000	6.255843
1586.000000	6.240872
1585.000000	6.231175
1584.000000	6.211788
1583.000000	6.199460
1582.000000	6.196594
1581.000000	6.193980
1580.000000	6.193924
1579.000000	6.165565
1578.000000	6.144531
1577.000000	6.134538
1576.000000	6.111464
1575.000000	6.091105
1574.000000	6.084732
1573.000000	6.074752
1572.000000	6.057277
1571.000000	6.042268
1570.000000	6.029287
1569.000000	6.024768
1568.000000	6.016074
1567.000000	5.989757
1566.000000	5.985646
1565.000000	5.967666
1564.000000	5.958343
1563.000000	5.951123
1562.000000	5.934583
1561.000000	5.912927
1560.000000	5.908796
1559.000000	5.897738
1558.000000	5.873649
1557.000000	5.858980
1556.000000	5.854002
1555.000000	5.848234
1554.000000	5.831729
1553.000000	5.828292
1552.000000	5.810698
1551.000000	5.795565
1550.000000	5.777878
1549.000000	5.763372
1548.000000	5.748154
1547.000000	5.739409
1546.000000	5.707311
1545.000000	5.687692
1544.000000	5.665721
1543.000000	5.641899
1542.000000	5.618121
1541.000000	5.591525
1540.000000	5.568050
1539.000000	5.526143
1538.000000	5.498990
1537.000000	5.467849
1536.000000	5.437201
1535.000000	5.423180
1534.000000	5.394798
1533.000000	5.354381
1532.000000	5.315330
1531.000000	5.295734
1530.000000	5.273043
1529.000000	5.260985
1528.000000	5.279371
1527.000000	5.343138
1526.000000	5.374364
1525.000000	5.359476
1524.000000	5.309584
1523.000000	5.256621
1522.000000	5.210950
1521.000000	5.190694
1520.000000	5.161277
1519.000000	5.156620
1518.000000	5.145627
1517.000000	5.123709
1516.000000	5.109416
1515.000000	5.103549
1514.000000	5.107698
1513.000000	5.111601
1512.000000	5.074115
1511.000000	5.046484
1510.000000	5.069396
1509.000000	5.079157
1508.000000	5.065644
1507.000000	5.036726
1506.000000	5.023023
1505.000000	5.005981
1504.000000	4.994527
1503.000000	5.005596
1502.000000	4.991418
1501.000000	4.979647
1500.000000	4.998037
1499.000000	4.979992
1498.000000	4.990575
1497.000000	4.992747
1496.000000	4.989645
1495.000000	5.000275
1494.000000	5.008936
1493.000000	5.007452
1492.000000	5.007563
1491.000000	5.029680
1490.000000	5.031126
1489.000000	5.033334
1488.000000	5.060214
1487.000000	5.044540
1486.000000	5.065521
1485.000000	5.080658
1484.000000	5.103885
1483.000000	5.102290
1482.000000	5.105731
1481.000000	5.112483
1480.000000	5.139157
1479.000000	5.149591
1478.000000	5.152215
1477.000000	5.174260
1476.000000	5.192669
1475.000000	5.192979
1474.000000	5.200701
1473.000000	5.204154
1472.000000	5.203573
1471.000000	5.226133
1470.000000	5.234306
1469.000000	5.266166
1468.000000	5.296529
1467.000000	5.280759
1466.000000	5.278683
1465.000000	5.271185
1464.000000	5.316772
1463.000000	5.323659
1462.000000	5.329871
1461.000000	5.324598
1460.000000	5.320818
1459.000000	5.377450
1458.000000	5.390712
1457.000000	5.385263
1456.000000	5.399852
1455.000000	5.396529
1454.000000	5.432966
1453.000000	5.451949
1452.000000	5.459792
1451.000000	5.451119
1450.000000	5.465558
1449.000000	5.474471
1448.000000	5.519955
1447.000000	5.553200
1446.000000	5.556595
1445.000000	5.550145
1444.000000	5.565711
1443.000000	5.591914
1442.000000	5.639254
1441.000000	5.671116
1440.000000	5.682261
1439.000000	5.703339
1438.000000	5.711709
1437.000000	5.736633
1436.000000	5.764263
1435.000000	5.795589
1434.000000	5.831204
1433.000000	5.848727
1432.000000	5.881863
1431.000000	5.904968
1430.000000	5.932843
1429.000000	5.978005
1428.000000	6.008842
1427.000000	6.057615
1426.000000	6.116843
1425.000000	6.153111
1424.000000	6.187283
1423.000000	6.242202
1422.000000	6.294762
1421.000000	6.329958
1420.000000	6.396424
1419.000000	6.454378
1418.000000	6.496097
1417.000000	6.513840
1416.000000	6.567998
1415.000000	6.630400
1414.000000	6.673333
1413.000000	6.721278
1412.000000	6.782455
1411.000000	6.856742
1410.000000	6.900509
1409.000000	6.925109
1408.000000	6.992332
1407.000000	7.060988
1406.000000	7.124195
1405.000000	7.179903
1404.000000	7.242836
1403.000000	7.301741
1402.000000	7.326848
1401.000000	7.355527
1400.000000	7.396904
1399.000000	7.437924
1398.000000	7.498127
1397.000000	7.553829
1396.000000	7.600090
1395.000000	7.650632
1394.000000	7.691201
1393.000000	7.721889
1392.000000	7.763233
1391.000000	7.805971
1390.000000	7.850648
1389.000000	7.904079
1388.000000	7.941275
1387.000000	7.963540
1386.000000	7.994476
1385.000000	8.026898
1384.000000	8.066451
1383.000000	8.096799
1382.000000	8.110326
1381.000000	8.123737
1380.000000	8.140217
1379.000000	8.149453
1378.000000	8.166363
1377.000000	8.199151
1376.000000	8.205001
1375.000000	8.205248
1374.000000	8.230402
1373.000000	8.256840
1372.000000	8.269777
1371.000000	8.265142
1370.000000	8.262478
1369.000000	8.285956
1368.000000	8.312026
1367.000000	8.325439
1366.000000	8.338584
1365.000000	8.346257
1364.000000	8.342138
1363.000000	8.358477
1362.000000	8.386814
1361.000000	8.408900
1360.000000	8.439714
1359.000000	8.452471
1358.000000	8.453858
1357.000000	8.454360
1356.000000	8.460876
1355.000000	8.486592
1354.000000	8.499753
1353.000000	8.510198
1352.000000	8.522018
1351.000000	8.521563
1350.000000	8.542238
1349.000000	8.564801
1348.000000	8.557827
1347.000000	8.556177
1346.000000	8.587291
1345.000000	8.609784
1344.000000	8.619731
1343.000000	8.625795
1342.000000	8.619663
1341.000000	8.625942
1340.000000	8.635534
1339.000000	8.665351
1338.000000	8.700934
1337.000000	8.698335
1336.000000	8.706542
1335.000000	8.698908
1334.000000	8.695551
1333.000000	8.696649
1332.000000	8.691713
1331.000000	8.719634
1330.000000	8.737184
1329.000000	8.739104
1328.000000	8.731880
1327.000000	8.737504
1326.000000	8.753084
1325.000000	8.745957
1324.000000	8.733177
1323.000000	8.747716
1322.000000	8.745023
1321.000000	8.762045
1320.000000	8.766070
1319.000000	8.748186
1318.000000	8.740944
1317.000000	8.741974
1316.000000	8.752562
1315.000000	8.761964
1314.000000	8.756199
1313.000000	8.736495
1312.000000	8.711891
1311.000000	8.725124
1310.000000	8.745631
1309.000000	8.769332
1308.000000	8.778780
1307.000000	8.753054
1306.000000	8.745948
1305.000000	8.727589
1304.000000	8.729616
1303.000000	8.763304
1302.000000	8.769351
1301.000000	8.758038
1300.000000	8.738883
1299.000000	8.739680
1298.000000	8.740868
1297.000000	8.736180
1296.000000	8.749874
1295.000000	8.745512
1294.000000	8.749302
1293.000000	8.747997
1292.000000	8.731077
1291.000000	8.736449
1290.000000	8.751978
1289.000000	8.733605
1288.000000	8.732857
1287.000000	8.727114
1286.000000	8.680342
1285.000000	8.673274
1284.000000	8.681076
1283.000000	8.682196
1282.000000	8.705178
1281.000000	8.690409
1280.000000	8.683084
1279.000000	8.673018
1278.000000	8.680654
1277.000000	8.681508
1276.000000	8.678207
1275.000000	8.658862
1274.000000	8.647111
1273.000000	8.633865
1272.000000	8.644654
1271.000000	8.631749
1270.000000	8.637766
1269.000000	8.640879
1268.000000	8.616146
1267.000000	8.623899
1266.000000	8.614736
1265.000000	8.605975
1264.000000	8.593633
1263.000000	8.635260
1262.000000	8.650696
1261.000000	8.635670
1260.000000	8.616100
1259.000000	8.607470
1258.000000	8.605432
1257.000000	8.633592
1256.000000	8.653670
1255.000000	8.630638
1254.000000	8.629036
1253.000000	8.624358
1252.000000	8.621112
1251.000000	8.627213
1250.000000	8.616227
1249.000000	8.614918
1248.000000	8.613224
1247.000000	8.617901
1246.000000	8.620829
1245.000000	8.626124
1244.000000	8.626716
1243.000000	8.618284
1242.000000	8.605216
1241.000000	8.596845
1240.000000	8.570441
1239.000000	8.583998
1238.000000	8.584985
1237.000000	8.556840
1236.000000	8.526194
1235.000000	8.532306
1234.000000	8.534593
1233.000000	8.509203
1232.000000	8.509238
1231.000000	8.520653
1230.000000	8.515024
1229.000000	8.514595
1228.000000	8.470233
1227.000000	8.457605
1226.000000	8.451026
1225.000000	8.453093
1224.000000	8.464662
1223.000000	8.467738
1222.000000	8.452263
1221.000000	8.431346
1220.000000	8.418859
1219.000000	8.411370
1218.000000	8.388083
1217.000000	8.363974
1216.000000	8.363704
1215.000000	8.339701
1214.000000	8.329189
1213.000000	8.346263
1212.000000	8.326939
1211.000000	8.293211
1210.000000	8.275267
1209.000000	8.283039
1208.000000	8.263648
1207.000000	8.248001
1206.000000	8.251646
1205.000000	8.239170
1204.000000	8.209424
1203.000000	8.213641
1202.000000	8.221185
1201.000000	8.180854
1200.000000	8.152368
1199.000000	8.162537
1198.000000	8.155324
1197.000000	8.126233
1196.000000	8.107966
1195.000000	8.098677
1194.000000	8.081838
1193.000000	8.075101
1192.000000	8.070099
1191.000000	8.065835
1190.000000	8.044509
1189.000000	8.012276
1188.000000	8.008918
1187.000000	8.024046
1186.000000	8.015709
1185.000000	8.014905
1184.000000	8.011883
1183.000000	8.013355
1182.000000	8.027458
1181.000000	8.037253
1180.000000	8.051782
1179.000000	8.062781
1178.000000	8.065660
1177.000000	8.083489
1176.000000	8.087881
1175.000000	8.102781
1174.000000	8.127209
1173.000000	8.153181
1172.000000	8.167803
1171.000000	8.172635
1170.000000	8.187835
1169.000000	8.202673
1168.000000	8.217221
1167.000000	8.233775
1166.000000	8.251844
1165.000000	8.260868
1164.000000	8.280870
1163.000000	8.304369
1162.000000	8.324467
1161.000000	8.343678
1160.000000	8.361296
1159.000000	8.384547
1158.000000	8.406642
1157.000000	8.416652
1156.000000	8.434001
1155.000000	8.447347
1154.000000	8.456816
1153.000000	8.473025
1152.000000	8.488287
1151.000000	8.483212
1150.000000	8.476072
1149.000000	8.489602
1148.000000	8.508607
1147.000000	8.514491
1146.000000	8.536873
1145.000000	8.558644
1144.000000	8.569637
1143.000000	8.589659
1142.000000	8.609388
1141.000000	8.610783
1140.000000	8.616267
1139.000000	8.616854
1138.000000	8.630410
1137.000000	8.658199
1136.000000	8.660996
1135.000000	8.662054
1134.000000	8.673760
1133.000000	8.663013
1132.000000	8.649943
1131.000000	8.653651
1130.000000	8.670164
1129.000000	8.688884
1128.000000	8.700139
1127.000000	8.712978
1126.000000	8.715018
1125.000000	8.720327
1124.000000	8.716488
1123.000000	8.729044
1122.000000	8.737789
1121.000000	8.741994
1120.000000	8.732249
1119.000000	8.738801
1118.000000	8.740410
1117.000000	8.726218
1116.000000	8.736506
1115.000000	8.705771
1114.000000	8.694025
1113.000000	8.695971
1112.000000	8.699918
1111.000000	8.705909
1110.000000	8.704268
1109.000000	8.717768
1108.000000	8.726731
1107.000000	8.720996
1106.000000	8.735591
1105.000000	8.718542
1104.000000	8.720811
1103.000000	8.727777
1102.000000	8.735249
1101.000000	8.740670
1100.000000	8.710542
1099.000000	8.706636
1098.000000	8.713499
1097.000000	8.710903
1096.000000	8.714370
1095.000000	8.723349
1094.000000	8.717760
1093.000000	8.683267
1092.000000	8.680449
1091.000000	8.678441
1090.000000	8.679497
1089.000000	8.692274
1088.000000	8.711460
1087.000000	8.719506
1086.000000	8.715758
1085.000000	8.671788
1084.000000	8.676336
1083.000000	8.666259
1082.000000	8.683750
1081.000000	8.704191
1080.000000	8.687596
1079.000000	8.689281
1078.000000	8.668599
1077.000000	8.659745
1076.000000	8.654908
1075.000000	8.650212
1074.000000	8.669827
1073.000000	8.663465
1072.000000	8.672799
1071.000000	8.637145
1070.000000	8.629668
1069.000000	8.633260
1068.000000	8.640864
1067.000000	8.652740
1066.000000	8.649660
1065.000000	8.652699
1064.000000	8.626884
1063.000000	8.598673
1062.000000	8.595599
1061.000000	8.602822
1060.000000	8.628256
1059.000000	8.651366
1058.000000	8.627140
1057.000000	8.594927
1056.000000	8.610691
1055.000000	8.619215
1054.000000	8.614805
1053.000000	8.614683
1052.000000	8.581047
1051.000000	8.582320
1050.000000	8.575837
1049.000000	8.601841
1048.000000	8.582366
1047.000000	8.576595
1046.000000	8.587782
1045.000000	8.578590
1044.000000	8.569382
1043.000000	8.588736
1042.000000	8.566109
1041.000000	8.560972
1040.000000	8.587673
1039.000000	8.574262
1038.000000	8.573359
1037.000000	8.550392
1036.000000	8.546032
1035.000000	8.545517
1034.000000	8.566699
1033.000000	8.544251
1032.000000	8.541551
1031.000000	8.549112
1030.000000	8.553432
1029.000000	8.537524
1028.000000	8.542796
1027.000000	8.548262
1026.000000	8.527995
1025.000000	8.543671
1024.000000	8.552864
1023.000000	8.547503
1022.000000	8.547291
1021.000000	8.542151
1020.000000	8.553072
1019.000000	8.556230
1018.000000	8.547837
1017.000000	8.543890
1016.000000	8.536988
1015.000000	8.537816
1014.000000	8.544484
1013.000000	8.538184
1012.000000	8.532843
1011.000000	8.547971
1010.000000	8.559232
1009.000000	8.533061
1008.000000	8.555787
1007.000000	8.555979
1006.000000	8.548006
1005.000000	8.565387
1004.000000	8.567513
1003.000000	8.553173
1002.000000	8.565549
1001.000000	8.584345
1000.000000	8.565030
999.000000	8.549041
998.000000	8.546848
997.000000	8.559493
996.000000	8.568077
995.000000	8.561119
994.000000	8.581200
993.000000	8.582269
992.000000	8.576349
991.000000	8.571829
990.000000	8.572160
989.000000	8.572012
988.000000	8.586220
987.000000	8.597476
986.000000	8.599605
985.000000	8.605742
984.000000	8.633880
983.000000	8.648520
982.000000	8.657676
981.000000	8.671440
980.000000	8.685149
979.000000	8.684509
978.000000	8.686530
977.000000	8.687814
976.000000	8.691949
975.000000	8.699038
974.000000	8.688529
973.000000	8.694929
972.000000	8.707304
971.000000	8.708179
970.000000	8.707235
969.000000	8.710045
968.000000	8.720479
967.000000	8.711796
966.000000	8.713528
965.000000	8.711710
964.000000	8.712096
963.000000	8.716429
962.000000	8.723742
961.000000	8.714310
960.000000	8.705966
959.000000	8.704242
958.000000	8.702719
957.000000	8.715210
956.000000	8.715074
955.000000	8.715958
954.000000	8.714869
953.000000	8.709710
952.000000	8.705886
951.000000	8.707637
950.000000	8.720262
949.000000	8.728846
948.000000	8.746853
947.000000	8.764385
946.000000	8.758242
945.000000	8.730681
944.000000	8.709556
943.000000	8.703852
942.000000	8.707723
941.000000	8.710607
940.000000	8.703316
939.000000	8.712825
938.000000	8.713685
937.000000	8.700549
936.000000	8.687522
935.000000	8.684553
934.000000	8.687463
933.000000	8.696453
932.000000	8.703790
931.000000	8.704188
930.000000	8.694443
929.000000	8.668212
928.000000	8.671372
927.000000	8.684397
926.000000	8.668792
925.000000	8.676389
924.000000	8.679215
923.000000	8.674923
922.000000	8.653900
921.000000	8.639448
920.000000	8.666825
919.000000	8.652937
918.000000	8.654858
917.000000	8.647830
916.000000	8.640634
915.000000	8.669633
914.000000	8.653522
913.000000	8.634212
912.000000	8.628602
911.000000	8.608794
910.000000	8.643903
909.000000	8.649641
908.000000	8.637000
907.000000	8.669493
906.000000	8.665460
905.000000	8.636311
904.000000	8.652428
903.000000	8.684984
902.000000	8.652652
901.000000	8.652020
900.000000	8.645316
899.000000	8.684987
898.000000	8.683047
897.000000	8.656345
896.000000	8.623255
895.000000	8.640929
894.000000	8.611976
893.000000	8.633499
892.000000	8.624877
891.000000	8.687365
890.000000	8.669831
889.000000	8.635481
888.000000	8.663813
887.000000	8.640246
886.000000	8.613736
885.000000	8.599192
884.000000	8.643185
883.000000	8.661972
882.000000	8.616494
881.000000	8.567160
880.000000	8.589151
879.000000	8.652285
878.000000	8.664549
877.000000	8.684853
876.000000	8.649875
875.000000	8.539946
874.000000	8.578500
873.000000	8.660672
872.000000	8.682629
871.000000	8.688447
870.000000	8.581985
869.000000	8.481679
868.000000	8.577916
867.000000	8.605870
866.000000	8.575839
865.000000	8.585579
864.000000	8.545424
863.000000	8.628743
862.000000	8.561949
861.000000	8.552504
860.000000	8.578970
859.000000	8.169443
858.000000	8.205776
857.000000	8.225266
856.000000	8.131246
855.000000	8.167364
854.000000	8.243751
853.000000	8.202538
852.000000	8.172158
851.000000	8.165449
850.000000	8.163063
849.000000	8.076887
848.000000	8.065745
847.000000	8.138619
846.000000	8.117006
845.000000	8.088364
844.000000	8.113664
843.000000	8.122349
842.000000	8.122826
841.000000	8.112401
840.000000	8.090463
839.000000	8.063900
838.000000	8.035853
837.000000	8.046569
836.000000	8.029303
835.000000	8.031621
834.000000	7.991136
833.000000	8.013563
832.000000	8.003947
831.000000	8.028688
830.000000	7.984431
829.000000	7.958703
828.000000	8.001692
827.000000	7.956981
826.000000	7.967239
825.000000	7.941724
824.000000	7.946472
823.000000	7.926929
822.000000	7.935145
821.000000	7.925075
820.000000	7.935990
819.000000	7.880282
818.000000	7.896847
817.000000	7.908174
816.000000	7.880214
815.000000	7.874841
814.000000	7.850368
813.000000	7.831856
812.000000	7.870074
811.000000	7.853030
810.000000	7.819778
809.000000	7.859276
808.000000	7.841871
807.000000	7.818886
806.000000	7.868642
805.000000	7.844653
804.000000	7.807413
803.000000	7.824979
802.000000	7.819921
801.000000	7.791458
800.000000	7.784338
799.000000	7.793361
798.000000	7.770757
797.000000	7.760179
796.000000	7.772868
795.000000	7.769824
794.000000	7.738608
793.000000	7.748550
792.000000	7.736932
791.000000	7.734000
790.000000	7.719039
789.000000	7.726063
788.000000	7.710160
787.000000	7.681290
786.000000	7.684193
785.000000	7.705749
784.000000	7.692958
783.000000	7.673557
782.000000	7.658716
781.000000	7.648897
780.000000	7.632978
779.000000	7.624280
778.000000	7.625060
777.000000	7.597809
776.000000	7.586276
775.000000	7.597176
774.000000	7.572922
773.000000	7.581423
772.000000	7.586539
771.000000	7.576407
770.000000	7.556291
769.000000	7.561987
768.000000	7.545784
767.000000	7.536310
766.000000	7.531907
765.000000	7.508132
764.000000	7.499800
763.000000	7.505654
762.000000	7.489546
761.000000	7.470152
760.000000	7.459101
759.000000	7.472331
758.000000	7.456417
757.000000	7.430201
756.000000	7.417472
755.000000	7.425454
754.000000	7.425661
753.000000	7.407204
752.000000	7.382542
751.000000	7.384601
750.000000	7.375883
749.000000	7.364320
748.000000	7.351296
747.000000	7.340275
746.000000	7.338677
745.000000	7.333249
744.000000	7.322105
743.000000	7.321999
742.000000	7.289694
741.000000	7.277745
740.000000	7.266871
739.000000	7.267000
738.000000	7.261460
737.000000	7.239631
736.000000	7.221104
735.000000	7.219090
734.000000	7.219113
733.000000	7.216983
732.000000	7.185044
731.000000	7.175286
730.000000	7.177165
729.000000	7.160774
728.000000	7.154106
727.000000	7.132875
726.000000	7.118830
725.000000	7.113340
724.000000	7.088724
723.000000	7.083883
722.000000	7.074492
721.000000	7.075734
720.000000	7.068155
719.000000	7.052027
718.000000	7.027815
717.000000	7.011117
716.000000	7.009680
715.000000	7.006657
714.000000	6.992054
713.000000	6.976893
712.000000	6.959799
711.000000	6.950093
710.000000	6.939694
709.000000	6.932590
708.000000	6.912136
707.000000	6.898010
706.000000	6.892691
705.000000	6.872479
704.000000	6.853659
703.000000	6.849319
702.000000	6.845666
701.000000	6.823259
700.000000	6.805610
699.000000	6.796753
698.000000	6.791680
697.000000	6.769560
696.000000	6.736806
695.000000	6.721075
694.000000	6.720505
693.000000	6.713664
692.000000	6.696799
691.000000	6.689344
690.000000	6.680897
689.000000	6.650656
688.000000	6.627180
687.000000	6.611343
686.000000	6.591436
685.000000	6.586495
684.000000	6.584002
683.000000	6.557400
682.000000	6.538793
681.000000	6.528574
680.000000	6.503342
679.000000	6.485637
678.000000	6.475844
677.000000	6.460130
676.000000	6.440129
675.000000	6.428720
674.000000	6.426021
673.000000	6.413052
672.000000	6.390713
671.000000	6.372223
670.000000	6.356003
669.000000	6.331212
668.000000	6.317564
667.000000	6.319127
666.000000	6.299086
665.000000	6.284103
664.000000	6.274254
663.000000	6.245905
662.000000	6.226352
661.000000	6.214145
660.000000	6.204827
659.000000	6.183037
658.000000	6.165185
657.000000	6.152351
656.000000	6.140806
655.000000	6.123681
654.000000	6.102704
653.000000	6.080695
652.000000	6.062394
651.000000	6.056239
650.000000	6.039240
649.000000	6.017110
648.000000	6.008323
647.000000	5.981161
646.000000	5.963852
645.000000	5.954265
644.000000	5.928684
643.000000	5.914105
642.000000	5.908046
641.000000	5.892683
640.000000	5.873628
639.000000	5.865261
638.000000	5.841206
637.000000	5.816083
636.000000	5.797785
635.000000	5.792045
634.000000	5.766876
633.000000	5.752149
632.000000	5.726309
631.000000	5.720078
630.000000	5.691780
629.000000	5.672005
628.000000	5.654020
627.000000	5.646292
626.000000	5.626013
625.000000	5.610272
624.000000	5.590072
623.000000	5.569903
622.000000	5.555726
621.000000	5.538532
620.000000	5.529952
619.000000	5.491294
618.000000	5.462062
617.000000	5.454873
616.000000	5.436799
615.000000	5.418458
614.000000	5.410450
613.000000	5.390118
612.000000	5.366152
611.000000	5.343697
610.000000	5.323377
609.000000	5.308749
608.000000	5.280518
607.000000	5.264067
606.000000	5.244836
605.000000	5.227246
604.000000	5.204998
603.000000	5.196403
602.000000	5.168886
601.000000	5.150077
600.000000	5.128943
599.000000	5.109773
598.000000	5.087344
597.000000	5.067483
596.000000	5.047561
595.000000	5.030554
594.000000	5.004388
593.000000	4.988685
592.000000	4.974243
591.000000	4.952305
590.000000	4.929917
589.000000	4.903611
588.000000	4.887599
587.000000	4.870787
586.000000	4.852680
585.000000	4.822192
584.000000	4.805716
583.000000	4.791033
582.000000	4.761459
581.000000	4.735205
580.000000	4.712082
579.000000	4.699178
578.000000	4.658315
577.000000	4.652038
576.000000	4.635211
575.000000	4.607352
574.000000	4.584934
573.000000	4.567596
572.000000	4.544157
571.000000	4.522222
570.000000	4.504760
569.000000	4.471982
568.000000	4.448792
567.000000	4.420816
566.000000	4.399645
565.000000	4.380448
564.000000	4.359887
563.000000	4.336943
562.000000	4.309610
561.000000	4.306841
560.000000	4.274070
559.000000	4.265734
558.000000	4.234655
557.000000	4.209295
556.000000	4.195839
555.000000	4.164893
554.000000	4.135269
553.000000	4.106823
552.000000	4.092673
551.000000	4.073185
550.000000	4.037164
549.000000	4.018598
548.000000	3.993582
547.000000	3.964877
546.000000	3.936588
545.000000	3.913493
544.000000	3.896547
543.000000	3.867058
542.000000	3.841315
541.000000	3.810006
540.000000	3.786623
539.000000	3.761639
538.000000	3.736636
537.000000	3.711928
536.000000	3.681821
535.000000	3.654028
534.000000	3.630313
533.000000	3.606551
532.000000	3.572693
531.000000	3.549763
530.000000	3.519334
529.000000	3.495159
528.000000	3.468239
527.000000	3.432936
526.000000	3.405764
525.000000	3.378048
524.000000	3.350335
523.000000	3.321697
522.000000	3.288019
521.000000	3.263610
520.000000	3.233442
519.000000	3.203588
518.000000	3.171664
517.000000	3.141487
516.000000	3.114924
515.000000	3.085047
514.000000	3.053989
513.000000	3.022099
512.000000	2.990936
511.000000	2.965433
510.000000	2.938705
509.000000	2.910010
508.000000	2.872499
507.000000	2.843699
506.000000	2.817485
505.000000	2.786644
504.000000	2.761553
503.000000	2.727029
502.000000	2.707037
501.000000	2.682111
500.000000	2.655616
499.000000	2.625955
498.000000	2.599458
497.000000	2.578616
496.000000	2.552905
495.000000	2.530447
494.000000	2.502091
493.000000	2.479144
492.000000	2.451182
491.000000	2.426847
490.000000	2.403119
489.000000	2.382005
488.000000	2.358625
487.000000	2.334055
486.000000	2.319646
485.000000	2.296237
484.000000	2.276470
483.000000	2.257824
482.000000	2.237435
481.000000	2.215555
480.000000	2.191010
479.000000	2.163564
478.000000	2.139177
477.000000	2.114777
476.000000	2.086484
475.000000	2.060034
474.000000	2.037811
473.000000	2.013466
472.000000	1.987873
471.000000	1.963825
470.000000	1.939559
469.000000	1.911039
468.000000	1.885872
467.000000	1.862840
466.000000	1.837187
465.000000	1.813479
464.000000	1.788408
463.000000	1.766383
462.000000	1.745627
461.000000	1.721269
460.000000	1.692599
459.000000	1.667199
458.000000	1.646144
457.000000	1.622885
456.000000	1.604328
455.000000	1.578037
454.000000	1.548839
453.000000	1.524843
452.000000	1.503280
451.000000	1.478267
450.000000	1.454805
449.000000	1.436528
448.000000	1.413572
447.000000	1.390292
446.000000	1.370687
445.000000	1.350450
444.000000	1.332520
443.000000	1.311022
442.000000	1.284872
441.000000	1.263130
440.000000	1.239881
439.000000	1.214148
438.000000	1.195137
437.000000	1.174350
436.000000	1.149846
435.000000	1.130493
434.000000	1.111691
433.000000	1.087276
432.000000	1.069706
431.000000	1.049762
430.000000	1.026952
429.000000	1.009269
428.000000	0.987726
427.000000	0.967643
426.000000	0.953586
425.000000	0.933382
424.000000	0.909078
423.000000	0.890002
422.000000	0.872398
421.000000	0.857458
420.000000	0.835424
419.000000	0.818638
418.000000	0.799032
417.000000	0.777970
416.000000	0.762768
415.000000	0.747899
414.000000	0.729408
413.000000	0.712574
412.000000	0.690962
411.000000	0.675148
410.000000	0.658951
409.000000	0.641993
408.000000	0.629287
407.000000	0.615917
406.000000	0.595139
405.000000	0.579776
404.000000	0.563744
403.000000	0.550463
402.000000	0.539320
401.000000	0.525035
400.000000	0.511096
399.000000	0.503592
398.000000	0.487061
397.000000	0.476408
396.000000	0.467213
395.000000	0.454966
394.000000	0.440386
393.000000	0.428401
392.000000	0.417334
391.000000	0.409006
390.000000	0.400009
389.000000	0.384819
388.000000	0.379541
387.000000	0.362524
386.000000	0.355139
385.000000	0.345806
384.000000	0.340151
383.000000	0.327740
382.000000	0.319495
381.000000	0.309381
380.000000	0.306554
379.000000	0.296253
378.000000	0.288337
377.000000	0.302207
376.000000	0.307341
375.000000	0.295238
374.000000	0.288357
373.000000	0.275727
372.000000	0.268658
371.000000	0.259561
370.000000	0.247106
369.000000	0.240489
368.000000	0.237886
367.000000	0.228887
366.000000	0.220513
365.000000	0.219092
364.000000	0.207776
363.000000	0.205343
362.000000	0.202228
361.000000	0.192858
360.000000	0.191060
359.000000	0.182341
358.000000	0.180250
357.000000	0.176917
356.000000	0.168902
355.000000	0.168638
354.000000	0.167914
353.000000	0.161319
352.000000	0.158442
351.000000	0.152961
350.000000	0.153678
349.000000	0.154723
348.000000	0.143192
347.000000	0.141935
346.000000	0.135352
345.000000	0.130127
344.000000	0.138615
343.000000	0.129351
342.000000	0.127829
341.000000	0.132367
340.000000	0.120205
339.000000	0.116097
338.000000	0.117464
337.000000	0.111025
336.000000	0.103455
335.000000	0.099939
334.000000	0.109557
333.000000	0.102904
332.000000	0.111216
331.000000	0.097217
330.000000	0.103428
329.000000	0.088095
328.000000	0.097462
327.000000	0.087080
326.000000	0.081534
325.000000	0.083320
324.000000	0.087244
323.000000	0.083828
322.000000	0.080089
321.000000	0.081433
320.000000	0.083525
319.000000	0.069821
318.000000	0.095385
317.000000	0.093803
316.000000	0.096406
315.000000	0.091630
314.000000	0.098823
313.000000	0.089682
312.000000	0.091549
311.000000	0.088871
310.000000	0.086416
309.000000	0.089337
308.000000	0.085435
307.000000	0.084965
306.000000	0.082868
305.000000	0.078098
304.000000	0.077853
303.000000	0.084978
302.000000	0.082395
301.000000	0.079526
300.000000	0.079236
299.000000	0.080879
298.000000	0.084684
297.000000	0.079133
296.000000	0.080179
295.000000	0.076442
294.000000	0.078700
293.000000	0.074834
292.000000	0.077432
291.000000	0.077725
290.000000	0.076587
289.000000	0.074317
288.000000	0.070503
287.000000	0.067512
286.000000	0.069844
285.000000	0.075309
284.000000	0.078023
283.000000	0.078155
282.000000	0.075196
281.000000	0.076333
280.000000	0.078694
279.000000	0.081086
278.000000	0.074780
277.000000	0.080383
276.000000	0.087038
275.000000	0.085778
274.000000	0.086339
273.000000	0.085158
272.000000	0.094954
271.000000	0.097542
270.000000	0.098683
269.000000	0.099226
268.000000	0.103345
267.000000	0.104335
266.000000	0.103864
265.000000	0.107162
264.000000	0.106306
263.000000	0.108445
262.000000	0.116463
261.000000	0.120904
260.000000	0.126752
259.000000	0.122189
258.000000	0.125192
257.000000	0.127608
256.000000	0.131784
255.000000	0.131518
254.000000	0.135957
253.000000	0.140425
252.000000	0.140561
251.000000	0.141208
250.000000	0.143048
249.000000	0.144418
248.000000	0.141046
247.000000	0.140419
246.000000	0.134822
245.000000	0.126338
244.000000	0.128325
243.000000	0.126341
242.000000	0.116009
241.000000	0.115413
240.000000	0.111091
239.000000	0.098085
238.000000	0.091741
237.000000	0.088631
236.000000	0.075595
235.000000	0.064691
234.000000	0.061207
233.000000	0.060656
232.000000	0.059671
231.000000	0.056125
230.000000	0.051706
229.000000	0.043429
228.000000	0.033271
227.000000	0.023921
226.000000	0.022079
225.000000	0.027946
224.000000	0.027396
223.000000	0.022440
222.000000	0.019147
221.000000	0.011222
220.000000	0.002043
219.000000	0.008610
218.000000	0.012067
217.000000	0.008961
216.000000	0.014378
215.000000	0.010643
214.000000	0.010469
213.000000	0.016592
212.000000	0.013901
211.000000	0.012185
210.000000	0.005285
209.000000	0.009164
208.000000	0.009194
207.000000	-0.009571
206.000000	-0.023705
205.000000	-0.016916
204.000000	-0.009048
203.000000	-0.008238
202.000000	-0.020172
201.000000	-0.033815
200.000000	-0.042142
