PE IR       SUBTECH     SPECTRUM    ASCII       PEDS        4.00        
   -1
3C-N10-C016_1.ASC
22/02/16
14:36:44.00
22/02/16
15:05:49.00
uco
Sample 016 By uco Date Wednesday, February 16 2022
450.000000
#HDR
-1
-1
#GR
cm-1
A
1.0
0.0
4000.000000
-1.000000
3551
8
0.032387
-0.002582
#DATA
4000.000000	0.001634
3999.000000	0.001552
3998.000000	0.001500
3997.000000	0.001508
3996.000000	0.001554
3995.000000	0.001589
3994.000000	0.001619
3993.000000	0.001670
3992.000000	0.001739
3991.000000	0.001787
3990.000000	0.001795
3989.000000	0.001785
3988.000000	0.001776
3987.000000	0.001752
3986.000000	0.001705
3985.000000	0.001663
3984.000000	0.001643
3983.000000	0.001634
3982.000000	0.001622
3981.000000	0.001609
3980.000000	0.001615
3979.000000	0.001654
3978.000000	0.001716
3977.000000	0.001786
3976.000000	0.001875
3975.000000	0.001979
3974.000000	0.002050
3973.000000	0.002061
3972.000000	0.002038
3971.000000	0.002027
3970.000000	0.002024
3969.000000	0.002005
3968.000000	0.001940
3967.000000	0.001817
3966.000000	0.001651
3965.000000	0.001515
3964.000000	0.001502
3963.000000	0.001633
3962.000000	0.001828
3961.000000	0.001998
3960.000000	0.002108
3959.000000	0.002162
3958.000000	0.002141
3957.000000	0.002084
3956.000000	0.002060
3955.000000	0.002056
3954.000000	0.002018
3953.000000	0.001913
3952.000000	0.001795
3951.000000	0.001753
3950.000000	0.001894
3949.000000	0.002184
3948.000000	0.002364
3947.000000	0.002336
3946.000000	0.002254
3945.000000	0.002317
3944.000000	0.002528
3943.000000	0.002690
3942.000000	0.002709
3941.000000	0.002684
3940.000000	0.002664
3939.000000	0.002569
3938.000000	0.002271
3937.000000	0.001847
3936.000000	0.001552
3935.000000	0.001486
3934.000000	0.001652
3933.000000	0.001995
3932.000000	0.002522
3931.000000	0.003077
3930.000000	0.003314
3929.000000	0.003107
3928.000000	0.002687
3927.000000	0.002492
3926.000000	0.002600
3925.000000	0.002676
3924.000000	0.002654
3923.000000	0.002766
3922.000000	0.002893
3921.000000	0.002694
3920.000000	0.002269
3919.000000	0.002255
3918.000000	0.002738
3917.000000	0.003124
3916.000000	0.003084
3915.000000	0.002880
3914.000000	0.002762
3913.000000	0.002622
3912.000000	0.002375
3911.000000	0.002259
3910.000000	0.002254
3909.000000	0.002203
3908.000000	0.002134
3907.000000	0.002161
3906.000000	0.002358
3905.000000	0.002411
3904.000000	0.002270
3903.000000	0.002405
3902.000000	0.003196
3901.000000	0.004312
3900.000000	0.004844
3899.000000	0.004463
3898.000000	0.003784
3897.000000	0.003391
3896.000000	0.003136
3895.000000	0.002834
3894.000000	0.002688
3893.000000	0.003180
3892.000000	0.003790
3891.000000	0.003344
3890.000000	0.002214
3889.000000	0.001772
3888.000000	0.002398
3887.000000	0.003084
3886.000000	0.002913
3885.000000	0.002079
3884.000000	0.001800
3883.000000	0.002656
3882.000000	0.003831
3881.000000	0.004437
3880.000000	0.004200
3879.000000	0.003416
3878.000000	0.002939
3877.000000	0.003086
3876.000000	0.003332
3875.000000	0.003139
3874.000000	0.002471
3873.000000	0.002185
3872.000000	0.003008
3871.000000	0.004049
3870.000000	0.003732
3869.000000	0.002480
3868.000000	0.002227
3867.000000	0.003292
3866.000000	0.003794
3865.000000	0.003130
3864.000000	0.002805
3863.000000	0.003403
3862.000000	0.003862
3861.000000	0.003793
3860.000000	0.003666
3859.000000	0.003885
3858.000000	0.004230
3857.000000	0.004195
3856.000000	0.003338
3855.000000	0.001578
3854.000000	-0.000287
3853.000000	-0.001964
3852.000000	-0.002582
3851.000000	-0.000976
3850.000000	0.001328
3849.000000	0.002686
3848.000000	0.003044
3847.000000	0.003090
3846.000000	0.002941
3845.000000	0.002798
3844.000000	0.002848
3843.000000	0.002833
3842.000000	0.002731
3841.000000	0.003117
3840.000000	0.003712
3839.000000	0.003856
3838.000000	0.003381
3837.000000	0.002656
3836.000000	0.002332
3835.000000	0.002585
3834.000000	0.003191
3833.000000	0.003693
3832.000000	0.003573
3831.000000	0.002905
3830.000000	0.002353
3829.000000	0.002498
3828.000000	0.003183
3827.000000	0.003626
3826.000000	0.003233
3825.000000	0.002710
3824.000000	0.002763
3823.000000	0.003209
3822.000000	0.003742
3821.000000	0.003551
3820.000000	0.002662
3819.000000	0.002581
3818.000000	0.003437
3817.000000	0.003632
3816.000000	0.002337
3815.000000	0.000774
3814.000000	0.000864
3813.000000	0.002270
3812.000000	0.002956
3811.000000	0.002396
3810.000000	0.001810
3809.000000	0.002108
3808.000000	0.002646
3807.000000	0.002118
3806.000000	0.000809
3805.000000	0.000538
3804.000000	0.001621
3803.000000	0.002882
3802.000000	0.003131
3801.000000	0.001972
3800.000000	0.000936
3799.000000	0.001520
3798.000000	0.002924
3797.000000	0.003723
3796.000000	0.003644
3795.000000	0.003216
3794.000000	0.003027
3793.000000	0.002899
3792.000000	0.002564
3791.000000	0.002277
3790.000000	0.002209
3789.000000	0.002115
3788.000000	0.001878
3787.000000	0.001809
3786.000000	0.002173
3785.000000	0.002635
3784.000000	0.002699
3783.000000	0.002513
3782.000000	0.002449
3781.000000	0.002607
3780.000000	0.002801
3779.000000	0.002839
3778.000000	0.002767
3777.000000	0.002873
3776.000000	0.002964
3775.000000	0.002576
3774.000000	0.001900
3773.000000	0.001688
3772.000000	0.002131
3771.000000	0.002606
3770.000000	0.002606
3769.000000	0.002388
3768.000000	0.002456
3767.000000	0.002886
3766.000000	0.003245
3765.000000	0.003048
3764.000000	0.002566
3763.000000	0.002441
3762.000000	0.002560
3761.000000	0.002490
3760.000000	0.002477
3759.000000	0.003077
3758.000000	0.003759
3757.000000	0.003818
3756.000000	0.003526
3755.000000	0.003114
3754.000000	0.002136
3753.000000	0.000529
3752.000000	-0.000175
3751.000000	0.000981
3750.000000	0.002025
3749.000000	0.001669
3748.000000	0.001394
3747.000000	0.002460
3746.000000	0.003971
3745.000000	0.003767
3744.000000	0.001250
3743.000000	-0.000651
3742.000000	0.000339
3741.000000	0.002321
3740.000000	0.002837
3739.000000	0.002382
3738.000000	0.002224
3737.000000	0.002514
3736.000000	0.003218
3735.000000	0.004376
3734.000000	0.005635
3733.000000	0.005955
3732.000000	0.004805
3731.000000	0.003052
3730.000000	0.002019
3729.000000	0.002017
3728.000000	0.002374
3727.000000	0.002407
3726.000000	0.002267
3725.000000	0.002477
3724.000000	0.003000
3723.000000	0.003273
3722.000000	0.003122
3721.000000	0.002879
3720.000000	0.002774
3719.000000	0.002852
3718.000000	0.002701
3717.000000	0.002108
3716.000000	0.001608
3715.000000	0.001326
3714.000000	0.000925
3713.000000	0.000729
3712.000000	0.001454
3711.000000	0.002842
3710.000000	0.003823
3709.000000	0.004119
3708.000000	0.003980
3707.000000	0.003467
3706.000000	0.002892
3705.000000	0.002547
3704.000000	0.002496
3703.000000	0.002693
3702.000000	0.002860
3701.000000	0.002729
3700.000000	0.002368
3699.000000	0.002162
3698.000000	0.002158
3697.000000	0.001992
3696.000000	0.001790
3695.000000	0.001883
3694.000000	0.001991
3693.000000	0.001741
3692.000000	0.001440
3691.000000	0.001712
3690.000000	0.002397
3689.000000	0.002520
3688.000000	0.001579
3687.000000	0.000768
3686.000000	0.001097
3685.000000	0.002020
3684.000000	0.002463
3683.000000	0.002328
3682.000000	0.002361
3681.000000	0.002601
3680.000000	0.002410
3679.000000	0.001762
3678.000000	0.001643
3677.000000	0.002674
3676.000000	0.004035
3675.000000	0.004033
3674.000000	0.003107
3673.000000	0.002972
3672.000000	0.003258
3671.000000	0.003184
3670.000000	0.003033
3669.000000	0.003012
3668.000000	0.003136
3667.000000	0.003304
3666.000000	0.003199
3665.000000	0.002830
3664.000000	0.002549
3663.000000	0.002608
3662.000000	0.002780
3661.000000	0.002629
3660.000000	0.002322
3659.000000	0.002276
3658.000000	0.002747
3657.000000	0.003206
3656.000000	0.003011
3655.000000	0.002551
3654.000000	0.002593
3653.000000	0.002706
3652.000000	0.002041
3651.000000	0.001524
3650.000000	0.002602
3649.000000	0.004629
3648.000000	0.005812
3647.000000	0.005802
3646.000000	0.005305
3645.000000	0.004763
3644.000000	0.004266
3643.000000	0.003870
3642.000000	0.003549
3641.000000	0.003305
3640.000000	0.003245
3639.000000	0.003212
3638.000000	0.003018
3637.000000	0.002816
3636.000000	0.002982
3635.000000	0.003414
3634.000000	0.003578
3633.000000	0.003404
3632.000000	0.003240
3631.000000	0.003194
3630.000000	0.003553
3629.000000	0.003952
3628.000000	0.003462
3627.000000	0.003091
3626.000000	0.003513
3625.000000	0.003908
3624.000000	0.003735
3623.000000	0.003389
3622.000000	0.003327
3621.000000	0.003541
3620.000000	0.003847
3619.000000	0.004029
3618.000000	0.003830
3617.000000	0.003599
3616.000000	0.003755
3615.000000	0.004213
3614.000000	0.004598
3613.000000	0.004702
3612.000000	0.004611
3611.000000	0.004447
3610.000000	0.004318
3609.000000	0.004432
3608.000000	0.004835
3607.000000	0.005246
3606.000000	0.005302
3605.000000	0.004901
3604.000000	0.004245
3603.000000	0.003704
3602.000000	0.003543
3601.000000	0.003675
3600.000000	0.003911
3599.000000	0.004105
3598.000000	0.004130
3597.000000	0.004036
3596.000000	0.004194
3595.000000	0.004574
3594.000000	0.004847
3593.000000	0.004832
3592.000000	0.004573
3591.000000	0.004139
3590.000000	0.003723
3589.000000	0.003796
3588.000000	0.004698
3587.000000	0.005698
3586.000000	0.006018
3585.000000	0.005793
3584.000000	0.005440
3583.000000	0.005058
3582.000000	0.004721
3581.000000	0.004515
3580.000000	0.004489
3579.000000	0.004544
3578.000000	0.004578
3577.000000	0.004609
3576.000000	0.004733
3575.000000	0.004929
3574.000000	0.005007
3573.000000	0.004884
3572.000000	0.004546
3571.000000	0.004049
3570.000000	0.003589
3569.000000	0.003650
3568.000000	0.004696
3567.000000	0.006344
3566.000000	0.007494
3565.000000	0.007698
3564.000000	0.007275
3563.000000	0.006627
3562.000000	0.006062
3561.000000	0.005782
3560.000000	0.005745
3559.000000	0.005747
3558.000000	0.005620
3557.000000	0.005352
3556.000000	0.005058
3555.000000	0.004933
3554.000000	0.005093
3553.000000	0.005465
3552.000000	0.005797
3551.000000	0.005845
3550.000000	0.005612
3549.000000	0.005300
3548.000000	0.005201
3547.000000	0.005534
3546.000000	0.006164
3545.000000	0.006696
3544.000000	0.006894
3543.000000	0.006783
3542.000000	0.006476
3541.000000	0.006108
3540.000000	0.005828
3539.000000	0.005739
3538.000000	0.005844
3537.000000	0.006066
3536.000000	0.006308
3535.000000	0.006419
3534.000000	0.006317
3533.000000	0.006067
3532.000000	0.005852
3531.000000	0.005816
3530.000000	0.005955
3529.000000	0.006177
3528.000000	0.006388
3527.000000	0.006542
3526.000000	0.006656
3525.000000	0.006821
3524.000000	0.007104
3523.000000	0.007403
3522.000000	0.007496
3521.000000	0.007315
3520.000000	0.007032
3519.000000	0.006814
3518.000000	0.006690
3517.000000	0.006631
3516.000000	0.006639
3515.000000	0.006650
3514.000000	0.006590
3513.000000	0.006506
3512.000000	0.006539
3511.000000	0.006745
3510.000000	0.007030
3509.000000	0.007220
3508.000000	0.007216
3507.000000	0.007043
3506.000000	0.006819
3505.000000	0.006741
3504.000000	0.006985
3503.000000	0.007462
3502.000000	0.007842
3501.000000	0.007912
3500.000000	0.007750
3499.000000	0.007545
3498.000000	0.007403
3497.000000	0.007354
3496.000000	0.007404
3495.000000	0.007488
3494.000000	0.007506
3493.000000	0.007437
3492.000000	0.007353
3491.000000	0.007307
3490.000000	0.007317
3489.000000	0.007409
3488.000000	0.007589
3487.000000	0.007771
3486.000000	0.007841
3485.000000	0.007795
3484.000000	0.007752
3483.000000	0.007798
3482.000000	0.007907
3481.000000	0.008015
3480.000000	0.008089
3479.000000	0.008103
3478.000000	0.008036
3477.000000	0.007932
3476.000000	0.007880
3475.000000	0.007897
3474.000000	0.007912
3473.000000	0.007888
3472.000000	0.007866
3471.000000	0.007866
3470.000000	0.007877
3469.000000	0.007922
3468.000000	0.008027
3467.000000	0.008134
3466.000000	0.008157
3465.000000	0.008106
3464.000000	0.008068
3463.000000	0.008098
3462.000000	0.008184
3461.000000	0.008305
3460.000000	0.008437
3459.000000	0.008524
3458.000000	0.008523
3457.000000	0.008472
3456.000000	0.008440
3455.000000	0.008441
3454.000000	0.008463
3453.000000	0.008474
3452.000000	0.008446
3451.000000	0.008386
3450.000000	0.008351
3449.000000	0.008427
3448.000000	0.008633
3447.000000	0.008874
3446.000000	0.009033
3445.000000	0.009087
3444.000000	0.009091
3443.000000	0.009088
3442.000000	0.009080
3441.000000	0.009067
3440.000000	0.009057
3439.000000	0.009053
3438.000000	0.009052
3437.000000	0.009059
3436.000000	0.009077
3435.000000	0.009102
3434.000000	0.009142
3433.000000	0.009188
3432.000000	0.009237
3431.000000	0.009296
3430.000000	0.009362
3429.000000	0.009411
3428.000000	0.009435
3427.000000	0.009450
3426.000000	0.009462
3425.000000	0.009459
3424.000000	0.009450
3423.000000	0.009474
3422.000000	0.009558
3421.000000	0.009684
3420.000000	0.009811
3419.000000	0.009894
3418.000000	0.009898
3417.000000	0.009818
3416.000000	0.009703
3415.000000	0.009628
3414.000000	0.009621
3413.000000	0.009654
3412.000000	0.009695
3411.000000	0.009736
3410.000000	0.009779
3409.000000	0.009823
3408.000000	0.009878
3407.000000	0.009943
3406.000000	0.009988
3405.000000	0.009993
3404.000000	0.009997
3403.000000	0.010038
3402.000000	0.010109
3401.000000	0.010191
3400.000000	0.010299
3399.000000	0.010431
3398.000000	0.010523
3397.000000	0.010519
3396.000000	0.010448
3395.000000	0.010393
3394.000000	0.010409
3393.000000	0.010488
3392.000000	0.010590
3391.000000	0.010663
3390.000000	0.010673
3389.000000	0.010634
3388.000000	0.010601
3387.000000	0.010602
3386.000000	0.010617
3385.000000	0.010626
3384.000000	0.010634
3383.000000	0.010639
3382.000000	0.010623
3381.000000	0.010600
3380.000000	0.010617
3379.000000	0.010687
3378.000000	0.010770
3377.000000	0.010832
3376.000000	0.010866
3375.000000	0.010867
3374.000000	0.010831
3373.000000	0.010800
3372.000000	0.010835
3371.000000	0.010941
3370.000000	0.011063
3369.000000	0.011163
3368.000000	0.011246
3367.000000	0.011308
3366.000000	0.011330
3365.000000	0.011319
3364.000000	0.011316
3363.000000	0.011349
3362.000000	0.011414
3361.000000	0.011497
3360.000000	0.011579
3359.000000	0.011633
3358.000000	0.011649
3357.000000	0.011662
3356.000000	0.011704
3355.000000	0.011753
3354.000000	0.011762
3353.000000	0.011745
3352.000000	0.011762
3351.000000	0.011839
3350.000000	0.011939
3349.000000	0.012029
3348.000000	0.012101
3347.000000	0.012151
3346.000000	0.012174
3345.000000	0.012188
3344.000000	0.012227
3343.000000	0.012284
3342.000000	0.012313
3341.000000	0.012308
3340.000000	0.012310
3339.000000	0.012354
3338.000000	0.012435
3337.000000	0.012541
3336.000000	0.012659
3335.000000	0.012756
3334.000000	0.012798
3333.000000	0.012786
3332.000000	0.012762
3331.000000	0.012759
3330.000000	0.012778
3329.000000	0.012808
3328.000000	0.012847
3327.000000	0.012892
3326.000000	0.012942
3325.000000	0.013004
3324.000000	0.013090
3323.000000	0.013178
3322.000000	0.013227
3321.000000	0.013230
3320.000000	0.013224
3319.000000	0.013238
3318.000000	0.013272
3317.000000	0.013310
3316.000000	0.013343
3315.000000	0.013366
3314.000000	0.013377
3313.000000	0.013386
3312.000000	0.013394
3311.000000	0.013400
3310.000000	0.013411
3309.000000	0.013451
3308.000000	0.013523
3307.000000	0.013590
3306.000000	0.013611
3305.000000	0.013595
3304.000000	0.013579
3303.000000	0.013581
3302.000000	0.013593
3301.000000	0.013616
3300.000000	0.013654
3299.000000	0.013693
3298.000000	0.013719
3297.000000	0.013742
3296.000000	0.013778
3295.000000	0.013816
3294.000000	0.013831
3293.000000	0.013830
3292.000000	0.013834
3291.000000	0.013834
3290.000000	0.013812
3289.000000	0.013767
3288.000000	0.013719
3287.000000	0.013682
3286.000000	0.013662
3285.000000	0.013681
3284.000000	0.013750
3283.000000	0.013828
3282.000000	0.013862
3281.000000	0.013852
3280.000000	0.013838
3279.000000	0.013825
3278.000000	0.013782
3277.000000	0.013703
3276.000000	0.013628
3275.000000	0.013586
3274.000000	0.013571
3273.000000	0.013578
3272.000000	0.013611
3271.000000	0.013656
3270.000000	0.013695
3269.000000	0.013719
3268.000000	0.013732
3267.000000	0.013724
3266.000000	0.013683
3265.000000	0.013627
3264.000000	0.013589
3263.000000	0.013565
3262.000000	0.013526
3261.000000	0.013474
3260.000000	0.013422
3259.000000	0.013360
3258.000000	0.013286
3257.000000	0.013252
3256.000000	0.013310
3255.000000	0.013427
3254.000000	0.013510
3253.000000	0.013506
3252.000000	0.013443
3251.000000	0.013362
3250.000000	0.013267
3249.000000	0.013166
3248.000000	0.013084
3247.000000	0.013047
3246.000000	0.013060
3245.000000	0.013113
3244.000000	0.013179
3243.000000	0.013212
3242.000000	0.013187
3241.000000	0.013134
3240.000000	0.013093
3239.000000	0.013063
3238.000000	0.013018
3237.000000	0.012962
3236.000000	0.012918
3235.000000	0.012887
3234.000000	0.012863
3233.000000	0.012853
3232.000000	0.012870
3231.000000	0.012892
3230.000000	0.012897
3229.000000	0.012899
3228.000000	0.012910
3227.000000	0.012904
3226.000000	0.012865
3225.000000	0.012821
3224.000000	0.012808
3223.000000	0.012806
3222.000000	0.012770
3221.000000	0.012717
3220.000000	0.012696
3219.000000	0.012701
3218.000000	0.012689
3217.000000	0.012659
3216.000000	0.012644
3215.000000	0.012649
3214.000000	0.012646
3213.000000	0.012619
3212.000000	0.012584
3211.000000	0.012566
3210.000000	0.012582
3209.000000	0.012638
3208.000000	0.012705
3207.000000	0.012731
3206.000000	0.012694
3205.000000	0.012626
3204.000000	0.012575
3203.000000	0.012541
3202.000000	0.012496
3201.000000	0.012437
3200.000000	0.012388
3199.000000	0.012372
3198.000000	0.012397
3197.000000	0.012451
3196.000000	0.012484
3195.000000	0.012447
3194.000000	0.012350
3193.000000	0.012256
3192.000000	0.012206
3191.000000	0.012173
3190.000000	0.012126
3189.000000	0.012076
3188.000000	0.012050
3187.000000	0.012051
3186.000000	0.012072
3185.000000	0.012116
3184.000000	0.012143
3183.000000	0.012089
3182.000000	0.011960
3181.000000	0.011840
3180.000000	0.011806
3179.000000	0.011845
3178.000000	0.011897
3177.000000	0.011921
3176.000000	0.011894
3175.000000	0.011811
3174.000000	0.011706
3173.000000	0.011644
3172.000000	0.011643
3171.000000	0.011647
3170.000000	0.011601
3169.000000	0.011516
3168.000000	0.011437
3167.000000	0.011375
3166.000000	0.011326
3165.000000	0.011302
3164.000000	0.011299
3163.000000	0.011292
3162.000000	0.011280
3161.000000	0.011283
3160.000000	0.011297
3159.000000	0.011294
3158.000000	0.011267
3157.000000	0.011229
3156.000000	0.011176
3155.000000	0.011092
3154.000000	0.011008
3153.000000	0.010985
3152.000000	0.011029
3151.000000	0.011078
3150.000000	0.011086
3149.000000	0.011069
3148.000000	0.011048
3147.000000	0.011003
3146.000000	0.010925
3145.000000	0.010848
3144.000000	0.010802
3143.000000	0.010770
3142.000000	0.010734
3141.000000	0.010712
3140.000000	0.010725
3139.000000	0.010749
3138.000000	0.010754
3137.000000	0.010749
3136.000000	0.010744
3135.000000	0.010729
3134.000000	0.010709
3133.000000	0.010710
3132.000000	0.010728
3131.000000	0.010706
3130.000000	0.010629
3129.000000	0.010543
3128.000000	0.010484
3127.000000	0.010432
3126.000000	0.010372
3125.000000	0.010323
3124.000000	0.010299
3123.000000	0.010293
3122.000000	0.010297
3121.000000	0.010313
3120.000000	0.010333
3119.000000	0.010339
3118.000000	0.010349
3117.000000	0.010402
3116.000000	0.010483
3115.000000	0.010530
3114.000000	0.010516
3113.000000	0.010473
3112.000000	0.010431
3111.000000	0.010388
3110.000000	0.010361
3109.000000	0.010375
3108.000000	0.010412
3107.000000	0.010426
3106.000000	0.010404
3105.000000	0.010374
3104.000000	0.010354
3103.000000	0.010354
3102.000000	0.010386
3101.000000	0.010448
3100.000000	0.010497
3099.000000	0.010485
3098.000000	0.010429
3097.000000	0.010406
3096.000000	0.010457
3095.000000	0.010539
3094.000000	0.010581
3093.000000	0.010559
3092.000000	0.010491
3091.000000	0.010407
3090.000000	0.010339
3089.000000	0.010307
3088.000000	0.010309
3087.000000	0.010323
3086.000000	0.010344
3085.000000	0.010377
3084.000000	0.010410
3083.000000	0.010419
3082.000000	0.010405
3081.000000	0.010394
3080.000000	0.010400
3079.000000	0.010413
3078.000000	0.010428
3077.000000	0.010445
3076.000000	0.010449
3075.000000	0.010419
3074.000000	0.010375
3073.000000	0.010350
3072.000000	0.010347
3071.000000	0.010340
3070.000000	0.010327
3069.000000	0.010330
3068.000000	0.010360
3067.000000	0.010398
3066.000000	0.010434
3065.000000	0.010472
3064.000000	0.010500
3063.000000	0.010496
3062.000000	0.010454
3061.000000	0.010399
3060.000000	0.010352
3059.000000	0.010313
3058.000000	0.010285
3057.000000	0.010282
3056.000000	0.010302
3055.000000	0.010312
3054.000000	0.010289
3053.000000	0.010241
3052.000000	0.010185
3051.000000	0.010130
3050.000000	0.010081
3049.000000	0.010045
3048.000000	0.010016
3047.000000	0.009976
3046.000000	0.009920
3045.000000	0.009870
3044.000000	0.009836
3043.000000	0.009801
3042.000000	0.009759
3041.000000	0.009726
3040.000000	0.009696
3039.000000	0.009637
3038.000000	0.009537
3037.000000	0.009442
3036.000000	0.009402
3035.000000	0.009409
3034.000000	0.009421
3033.000000	0.009433
3032.000000	0.009460
3031.000000	0.009483
3030.000000	0.009456
3029.000000	0.009360
3028.000000	0.009220
3027.000000	0.009084
3026.000000	0.008995
3025.000000	0.008963
3024.000000	0.008956
3023.000000	0.008934
3022.000000	0.008885
3021.000000	0.008832
3020.000000	0.008809
3019.000000	0.008837
3018.000000	0.008915
3017.000000	0.009024
3016.000000	0.009129
3015.000000	0.009204
3014.000000	0.009257
3013.000000	0.009313
3012.000000	0.009380
3011.000000	0.009432
3010.000000	0.009438
3009.000000	0.009390
3008.000000	0.009301
3007.000000	0.009199
3006.000000	0.009125
3005.000000	0.009098
3004.000000	0.009097
3003.000000	0.009076
3002.000000	0.009016
3001.000000	0.008937
3000.000000	0.008873
2999.000000	0.008845
2998.000000	0.008864
2997.000000	0.008925
2996.000000	0.009002
2995.000000	0.009058
2994.000000	0.009080
2993.000000	0.009083
2992.000000	0.009083
2991.000000	0.009089
2990.000000	0.009109
2989.000000	0.009150
2988.000000	0.009192
2987.000000	0.009200
2986.000000	0.009169
2985.000000	0.009145
2984.000000	0.009168
2983.000000	0.009231
2982.000000	0.009299
2981.000000	0.009349
2980.000000	0.009375
2979.000000	0.009382
2978.000000	0.009379
2977.000000	0.009375
2976.000000	0.009360
2975.000000	0.009311
2974.000000	0.009229
2973.000000	0.009134
2972.000000	0.009053
2971.000000	0.009005
2970.000000	0.009012
2969.000000	0.009082
2968.000000	0.009195
2967.000000	0.009322
2966.000000	0.009458
2965.000000	0.009617
2964.000000	0.009787
2963.000000	0.009930
2962.000000	0.010027
2961.000000	0.010101
2960.000000	0.010182
2959.000000	0.010277
2958.000000	0.010376
2957.000000	0.010472
2956.000000	0.010553
2955.000000	0.010614
2954.000000	0.010656
2953.000000	0.010678
2952.000000	0.010658
2951.000000	0.010589
2950.000000	0.010505
2949.000000	0.010442
2948.000000	0.010396
2947.000000	0.010339
2946.000000	0.010274
2945.000000	0.010242
2944.000000	0.010257
2943.000000	0.010289
2942.000000	0.010305
2941.000000	0.010305
2940.000000	0.010309
2939.000000	0.010343
2938.000000	0.010431
2937.000000	0.010575
2936.000000	0.010734
2935.000000	0.010861
2934.000000	0.010945
2933.000000	0.011009
2932.000000	0.011071
2931.000000	0.011147
2930.000000	0.011267
2929.000000	0.011465
2928.000000	0.011724
2927.000000	0.011996
2926.000000	0.012256
2925.000000	0.012516
2924.000000	0.012777
2923.000000	0.013014
2922.000000	0.013207
2921.000000	0.013352
2920.000000	0.013445
2919.000000	0.013477
2918.000000	0.013448
2917.000000	0.013360
2916.000000	0.013206
2915.000000	0.012987
2914.000000	0.012741
2913.000000	0.012510
2912.000000	0.012294
2911.000000	0.012072
2910.000000	0.011848
2909.000000	0.011659
2908.000000	0.011518
2907.000000	0.011403
2906.000000	0.011295
2905.000000	0.011196
2904.000000	0.011102
2903.000000	0.011009
2902.000000	0.010930
2901.000000	0.010879
2900.000000	0.010840
2899.000000	0.010783
2898.000000	0.010718
2897.000000	0.010677
2896.000000	0.010668
2895.000000	0.010658
2894.000000	0.010631
2893.000000	0.010603
2892.000000	0.010581
2891.000000	0.010551
2890.000000	0.010506
2889.000000	0.010462
2888.000000	0.010436
2887.000000	0.010425
2886.000000	0.010416
2885.000000	0.010394
2884.000000	0.010344
2883.000000	0.010273
2882.000000	0.010212
2881.000000	0.010185
2880.000000	0.010170
2879.000000	0.010127
2878.000000	0.010053
2877.000000	0.009986
2876.000000	0.009951
2875.000000	0.009946
2874.000000	0.009956
2873.000000	0.009960
2872.000000	0.009925
2871.000000	0.009836
2870.000000	0.009714
2869.000000	0.009601
2868.000000	0.009509
2867.000000	0.009430
2866.000000	0.009377
2865.000000	0.009384
2864.000000	0.009469
2863.000000	0.009617
2862.000000	0.009807
2861.000000	0.010010
2860.000000	0.010187
2859.000000	0.010319
2858.000000	0.010430
2857.000000	0.010562
2856.000000	0.010715
2855.000000	0.010860
2854.000000	0.010984
2853.000000	0.011095
2852.000000	0.011187
2851.000000	0.011242
2850.000000	0.011251
2849.000000	0.011214
2848.000000	0.011117
2847.000000	0.010952
2846.000000	0.010752
2845.000000	0.010569
2844.000000	0.010416
2843.000000	0.010277
2842.000000	0.010139
2841.000000	0.010008
2840.000000	0.009880
2839.000000	0.009750
2838.000000	0.009636
2837.000000	0.009560
2836.000000	0.009506
2835.000000	0.009441
2834.000000	0.009361
2833.000000	0.009303
2832.000000	0.009275
2831.000000	0.009254
2830.000000	0.009218
2829.000000	0.009177
2828.000000	0.009152
2827.000000	0.009148
2826.000000	0.009159
2825.000000	0.009171
2824.000000	0.009167
2823.000000	0.009145
2822.000000	0.009118
2821.000000	0.009090
2820.000000	0.009042
2819.000000	0.008970
2818.000000	0.008909
2817.000000	0.008893
2816.000000	0.008906
2815.000000	0.008906
2814.000000	0.008879
2813.000000	0.008846
2812.000000	0.008817
2811.000000	0.008786
2810.000000	0.008756
2809.000000	0.008742
2808.000000	0.008740
2807.000000	0.008727
2806.000000	0.008697
2805.000000	0.008660
2804.000000	0.008619
2803.000000	0.008577
2802.000000	0.008556
2801.000000	0.008567
2800.000000	0.008594
2799.000000	0.008610
2798.000000	0.008625
2797.000000	0.008662
2796.000000	0.008708
2795.000000	0.008726
2794.000000	0.008702
2793.000000	0.008658
2792.000000	0.008614
2791.000000	0.008579
2790.000000	0.008567
2789.000000	0.008585
2788.000000	0.008615
2787.000000	0.008629
2786.000000	0.008621
2785.000000	0.008610
2784.000000	0.008598
2783.000000	0.008577
2782.000000	0.008551
2781.000000	0.008536
2780.000000	0.008533
2779.000000	0.008526
2778.000000	0.008504
2777.000000	0.008470
2776.000000	0.008428
2775.000000	0.008387
2774.000000	0.008367
2773.000000	0.008372
2772.000000	0.008376
2771.000000	0.008354
2770.000000	0.008320
2769.000000	0.008303
2768.000000	0.008304
2767.000000	0.008305
2766.000000	0.008303
2765.000000	0.008307
2764.000000	0.008315
2763.000000	0.008315
2762.000000	0.008313
2761.000000	0.008315
2760.000000	0.008311
2759.000000	0.008285
2758.000000	0.008248
2757.000000	0.008220
2756.000000	0.008200
2755.000000	0.008178
2754.000000	0.008157
2753.000000	0.008148
2752.000000	0.008143
2751.000000	0.008129
2750.000000	0.008105
2749.000000	0.008080
2748.000000	0.008053
2747.000000	0.008036
2746.000000	0.008052
2745.000000	0.008104
2744.000000	0.008157
2743.000000	0.008179
2742.000000	0.008180
2741.000000	0.008184
2740.000000	0.008185
2739.000000	0.008164
2738.000000	0.008125
2737.000000	0.008085
2736.000000	0.008051
2735.000000	0.008030
2734.000000	0.008044
2733.000000	0.008089
2732.000000	0.008120
2731.000000	0.008101
2730.000000	0.008059
2729.000000	0.008041
2728.000000	0.008046
2727.000000	0.008043
2726.000000	0.008026
2725.000000	0.008015
2724.000000	0.008010
2723.000000	0.007996
2722.000000	0.007985
2721.000000	0.008007
2720.000000	0.008057
2719.000000	0.008098
2718.000000	0.008107
2717.000000	0.008094
2716.000000	0.008072
2715.000000	0.008049
2714.000000	0.008033
2713.000000	0.008026
2712.000000	0.008010
2711.000000	0.007976
2710.000000	0.007946
2709.000000	0.007940
2708.000000	0.007948
2707.000000	0.007951
2706.000000	0.007955
2705.000000	0.007968
2704.000000	0.007972
2703.000000	0.007948
2702.000000	0.007915
2701.000000	0.007907
2700.000000	0.007919
2699.000000	0.007922
2698.000000	0.007911
2697.000000	0.007897
2696.000000	0.007881
2695.000000	0.007857
2694.000000	0.007843
2693.000000	0.007857
2692.000000	0.007885
2691.000000	0.007896
2690.000000	0.007888
2689.000000	0.007883
2688.000000	0.007883
2687.000000	0.007878
2686.000000	0.007875
2685.000000	0.007893
2684.000000	0.007924
2683.000000	0.007944
2682.000000	0.007949
2681.000000	0.007950
2680.000000	0.007943
2679.000000	0.007921
2678.000000	0.007893
2677.000000	0.007877
2676.000000	0.007865
2675.000000	0.007841
2674.000000	0.007804
2673.000000	0.007768
2672.000000	0.007733
2671.000000	0.007696
2670.000000	0.007672
2669.000000	0.007672
2668.000000	0.007678
2667.000000	0.007660
2666.000000	0.007612
2665.000000	0.007532
2664.000000	0.007398
2663.000000	0.007194
2662.000000	0.006954
2661.000000	0.006736
2660.000000	0.006564
2659.000000	0.006430
2658.000000	0.006322
2657.000000	0.006238
2656.000000	0.006169
2655.000000	0.006095
2654.000000	0.006018
2653.000000	0.005943
2652.000000	0.005867
2651.000000	0.005793
2650.000000	0.005740
2649.000000	0.005719
2648.000000	0.005707
2647.000000	0.005676
2646.000000	0.005633
2645.000000	0.005596
2644.000000	0.005561
2643.000000	0.005524
2642.000000	0.005504
2641.000000	0.005511
2640.000000	0.005517
2639.000000	0.005492
2638.000000	0.005448
2637.000000	0.005411
2636.000000	0.005382
2635.000000	0.005353
2634.000000	0.005343
2633.000000	0.005367
2632.000000	0.005395
2631.000000	0.005386
2630.000000	0.005335
2629.000000	0.005268
2628.000000	0.005203
2627.000000	0.005160
2626.000000	0.005165
2625.000000	0.005213
2624.000000	0.005243
2623.000000	0.005216
2622.000000	0.005165
2621.000000	0.005148
2620.000000	0.005168
2619.000000	0.005199
2618.000000	0.005238
2617.000000	0.005291
2616.000000	0.005336
2615.000000	0.005358
2614.000000	0.005379
2613.000000	0.005404
2612.000000	0.005395
2611.000000	0.005344
2610.000000	0.005325
2609.000000	0.005406
2608.000000	0.005540
2607.000000	0.005626
2606.000000	0.005637
2605.000000	0.005615
2604.000000	0.005592
2603.000000	0.005575
2602.000000	0.005586
2601.000000	0.005636
2600.000000	0.005675
2599.000000	0.005647
2598.000000	0.005569
2597.000000	0.005511
2596.000000	0.005503
2595.000000	0.005525
2594.000000	0.005556
2593.000000	0.005587
2592.000000	0.005606
2591.000000	0.005619
2590.000000	0.005659
2589.000000	0.005716
2588.000000	0.005725
2587.000000	0.005661
2586.000000	0.005594
2585.000000	0.005600
2584.000000	0.005653
2583.000000	0.005686
2582.000000	0.005694
2581.000000	0.005713
2580.000000	0.005741
2579.000000	0.005765
2578.000000	0.005810
2577.000000	0.005899
2576.000000	0.005980
2575.000000	0.005994
2574.000000	0.005957
2573.000000	0.005930
2572.000000	0.005917
2571.000000	0.005889
2570.000000	0.005844
2569.000000	0.005809
2568.000000	0.005789
2567.000000	0.005799
2566.000000	0.005876
2565.000000	0.006006
2564.000000	0.006104
2563.000000	0.006110
2562.000000	0.006078
2561.000000	0.006076
2560.000000	0.006087
2559.000000	0.006068
2558.000000	0.006045
2557.000000	0.006055
2556.000000	0.006067
2555.000000	0.006045
2554.000000	0.006038
2553.000000	0.006102
2552.000000	0.006190
2551.000000	0.006216
2550.000000	0.006183
2549.000000	0.006161
2548.000000	0.006165
2547.000000	0.006153
2546.000000	0.006109
2545.000000	0.006055
2544.000000	0.006003
2543.000000	0.005975
2542.000000	0.006019
2541.000000	0.006149
2540.000000	0.006289
2539.000000	0.006355
2538.000000	0.006355
2537.000000	0.006347
2536.000000	0.006344
2535.000000	0.006322
2534.000000	0.006282
2533.000000	0.006228
2532.000000	0.006145
2531.000000	0.006044
2530.000000	0.005998
2529.000000	0.006047
2528.000000	0.006126
2527.000000	0.006156
2526.000000	0.006157
2525.000000	0.006190
2524.000000	0.006257
2523.000000	0.006323
2522.000000	0.006385
2521.000000	0.006436
2520.000000	0.006426
2519.000000	0.006335
2518.000000	0.006245
2517.000000	0.006241
2516.000000	0.006304
2515.000000	0.006359
2514.000000	0.006397
2513.000000	0.006454
2512.000000	0.006522
2511.000000	0.006555
2510.000000	0.006542
2509.000000	0.006498
2508.000000	0.006424
2507.000000	0.006338
2506.000000	0.006303
2505.000000	0.006345
2504.000000	0.006404
2503.000000	0.006413
2502.000000	0.006383
2501.000000	0.006346
2500.000000	0.006291
2499.000000	0.006218
2498.000000	0.006199
2497.000000	0.006282
2496.000000	0.006409
2495.000000	0.006480
2494.000000	0.006469
2493.000000	0.006405
2492.000000	0.006299
2491.000000	0.006168
2490.000000	0.006082
2489.000000	0.006092
2488.000000	0.006166
2487.000000	0.006247
2486.000000	0.006327
2485.000000	0.006405
2484.000000	0.006435
2483.000000	0.006406
2482.000000	0.006382
2481.000000	0.006421
2480.000000	0.006488
2479.000000	0.006521
2478.000000	0.006528
2477.000000	0.006532
2476.000000	0.006513
2475.000000	0.006453
2474.000000	0.006393
2473.000000	0.006359
2472.000000	0.006311
2471.000000	0.006228
2470.000000	0.006174
2469.000000	0.006204
2468.000000	0.006270
2467.000000	0.006289
2466.000000	0.006262
2465.000000	0.006237
2464.000000	0.006229
2463.000000	0.006237
2462.000000	0.006271
2461.000000	0.006310
2460.000000	0.006285
2459.000000	0.006184
2458.000000	0.006090
2457.000000	0.006063
2456.000000	0.006050
2455.000000	0.005996
2454.000000	0.005939
2453.000000	0.005919
2452.000000	0.005884
2451.000000	0.005793
2450.000000	0.005706
2449.000000	0.005696
2448.000000	0.005730
2447.000000	0.005751
2446.000000	0.005797
2445.000000	0.005924
2444.000000	0.006080
2443.000000	0.006171
2442.000000	0.006201
2441.000000	0.006245
2440.000000	0.006322
2439.000000	0.006386
2438.000000	0.006404
2437.000000	0.006370
2436.000000	0.006293
2435.000000	0.006229
2434.000000	0.006274
2433.000000	0.006433
2432.000000	0.006588
2431.000000	0.006653
2430.000000	0.006683
2429.000000	0.006753
2428.000000	0.006821
2427.000000	0.006812
2426.000000	0.006756
2425.000000	0.006731
2424.000000	0.006744
2423.000000	0.006759
2422.000000	0.006789
2421.000000	0.006849
2420.000000	0.006886
2419.000000	0.006848
2418.000000	0.006780
2417.000000	0.006757
2416.000000	0.006782
2415.000000	0.006808
2414.000000	0.006824
2413.000000	0.006827
2412.000000	0.006783
2411.000000	0.006699
2410.000000	0.006663
2409.000000	0.006743
2408.000000	0.006896
2407.000000	0.007047
2406.000000	0.007189
2405.000000	0.007325
2404.000000	0.007406
2403.000000	0.007412
2402.000000	0.007409
2401.000000	0.007448
2400.000000	0.007475
2399.000000	0.007438
2398.000000	0.007387
2397.000000	0.007380
2396.000000	0.007375
2395.000000	0.007320
2394.000000	0.007277
2393.000000	0.007332
2392.000000	0.007439
2391.000000	0.007484
2390.000000	0.007451
2389.000000	0.007412
2388.000000	0.007403
2387.000000	0.007403
2386.000000	0.007417
2385.000000	0.007464
2384.000000	0.007503
2383.000000	0.007494
2382.000000	0.007470
2381.000000	0.007486
2380.000000	0.007512
2379.000000	0.007450
2378.000000	0.007285
2377.000000	0.007068
2376.000000	0.006845
2375.000000	0.006663
2374.000000	0.006614
2373.000000	0.006756
2372.000000	0.006982
2371.000000	0.007152
2370.000000	0.007271
2369.000000	0.007426
2368.000000	0.007564
2367.000000	0.007531
2366.000000	0.007318
2365.000000	0.007051
2364.000000	0.006753
2363.000000	0.006285
2362.000000	0.005670
2361.000000	0.005239
2360.000000	0.005085
2359.000000	0.004976
2358.000000	0.004847
2357.000000	0.004807
2356.000000	0.005058
2355.000000	0.005617
2354.000000	0.006315
2353.000000	0.006905
2352.000000	0.006581
2351.000000	0.004569
2350.000000	0.001186
2349.000000	-0.001731
2348.000000	-0.002066
2347.000000	0.000558
2346.000000	0.004526
2345.000000	0.007060
2344.000000	0.006610
2343.000000	0.004396
2342.000000	0.002644
2341.000000	0.002443
2340.000000	0.002894
2339.000000	0.003230
2338.000000	0.003435
2337.000000	0.003619
2336.000000	0.003799
2335.000000	0.003917
2334.000000	0.004203
2333.000000	0.004758
2332.000000	0.005516
2331.000000	0.006095
2330.000000	0.006271
2329.000000	0.005867
2328.000000	0.005146
2327.000000	0.004108
2326.000000	0.003195
2325.000000	0.002577
2324.000000	0.002482
2323.000000	0.002834
2322.000000	0.003339
2321.000000	0.003820
2320.000000	0.004078
2319.000000	0.004202
2318.000000	0.004291
2317.000000	0.004429
2316.000000	0.004731
2315.000000	0.005137
2314.000000	0.005621
2313.000000	0.005843
2312.000000	0.005743
2311.000000	0.005317
2310.000000	0.004923
2309.000000	0.004590
2308.000000	0.004367
2307.000000	0.004139
2306.000000	0.004027
2305.000000	0.003985
2304.000000	0.004001
2303.000000	0.003983
2302.000000	0.003995
2301.000000	0.003984
2300.000000	0.003931
2299.000000	0.003793
2298.000000	0.003701
2297.000000	0.003640
2296.000000	0.003597
2295.000000	0.003510
2294.000000	0.003463
2293.000000	0.003407
2292.000000	0.003277
2291.000000	0.003046
2290.000000	0.002841
2289.000000	0.002728
2288.000000	0.002645
2287.000000	0.002540
2286.000000	0.002449
2285.000000	0.002426
2284.000000	0.002455
2283.000000	0.002565
2282.000000	0.002788
2281.000000	0.003059
2280.000000	0.003226
2279.000000	0.003284
2278.000000	0.003365
2277.000000	0.003508
2276.000000	0.003597
2275.000000	0.003603
2274.000000	0.003641
2273.000000	0.003736
2272.000000	0.003783
2271.000000	0.003764
2270.000000	0.003807
2269.000000	0.003925
2268.000000	0.003978
2267.000000	0.003946
2266.000000	0.003994
2265.000000	0.004175
2264.000000	0.004327
2263.000000	0.004368
2262.000000	0.004422
2261.000000	0.004533
2260.000000	0.004544
2259.000000	0.004387
2258.000000	0.004232
2257.000000	0.004236
2256.000000	0.004351
2255.000000	0.004530
2254.000000	0.004813
2253.000000	0.005104
2252.000000	0.005163
2251.000000	0.004945
2250.000000	0.004697
2249.000000	0.004571
2248.000000	0.004442
2247.000000	0.004228
2246.000000	0.004102
2245.000000	0.004186
2244.000000	0.004341
2243.000000	0.004400
2242.000000	0.004386
2241.000000	0.004339
2240.000000	0.004209
2239.000000	0.004063
2238.000000	0.004097
2237.000000	0.004305
2236.000000	0.004423
2235.000000	0.004349
2234.000000	0.004298
2233.000000	0.004405
2232.000000	0.004518
2231.000000	0.004539
2230.000000	0.004615
2229.000000	0.004807
2228.000000	0.004933
2227.000000	0.004908
2226.000000	0.004906
2225.000000	0.005014
2224.000000	0.005066
2223.000000	0.005012
2222.000000	0.005058
2221.000000	0.005270
2220.000000	0.005385
2219.000000	0.005237
2218.000000	0.004999
2217.000000	0.004831
2216.000000	0.004653
2215.000000	0.004447
2214.000000	0.004392
2213.000000	0.004486
2212.000000	0.004449
2211.000000	0.004176
2210.000000	0.003921
2209.000000	0.003844
2208.000000	0.003793
2207.000000	0.003714
2206.000000	0.003833
2205.000000	0.004212
2204.000000	0.004569
2203.000000	0.004756
2202.000000	0.004968
2201.000000	0.005253
2200.000000	0.005304
2199.000000	0.004969
2198.000000	0.004522
2197.000000	0.004216
2196.000000	0.003971
2195.000000	0.003745
2194.000000	0.003703
2193.000000	0.003814
2192.000000	0.003759
2191.000000	0.003493
2190.000000	0.003392
2189.000000	0.003639
2188.000000	0.003936
2187.000000	0.004060
2186.000000	0.004165
2185.000000	0.004319
2184.000000	0.004344
2183.000000	0.004322
2182.000000	0.004632
2181.000000	0.005176
2180.000000	0.005306
2179.000000	0.004822
2178.000000	0.004350
2177.000000	0.004446
2176.000000	0.004927
2175.000000	0.005398
2174.000000	0.005756
2173.000000	0.005875
2172.000000	0.005459
2171.000000	0.004575
2170.000000	0.003724
2169.000000	0.003115
2168.000000	0.002437
2167.000000	0.001624
2166.000000	0.001130
2165.000000	0.001066
2164.000000	0.000792
2163.000000	-0.000078
2162.000000	-0.000878
2161.000000	-0.000544
2160.000000	0.001418
2159.000000	0.004819
2158.000000	0.008833
2157.000000	0.012010
2156.000000	0.013285
2155.000000	0.013026
2154.000000	0.012390
2153.000000	0.011868
2152.000000	0.011157
2151.000000	0.010209
2150.000000	0.009500
2149.000000	0.009209
2148.000000	0.008981
2147.000000	0.008728
2146.000000	0.008831
2145.000000	0.009330
2144.000000	0.009691
2143.000000	0.009594
2142.000000	0.009283
2141.000000	0.008990
2140.000000	0.008653
2139.000000	0.008368
2138.000000	0.008481
2137.000000	0.009036
2136.000000	0.009672
2135.000000	0.010192
2134.000000	0.010698
2133.000000	0.011084
2132.000000	0.011025
2131.000000	0.010548
2130.000000	0.010073
2129.000000	0.009803
2128.000000	0.009527
2127.000000	0.009118
2126.000000	0.008741
2125.000000	0.008463
2124.000000	0.008125
2123.000000	0.007717
2122.000000	0.007468
2121.000000	0.007418
2120.000000	0.007318
2119.000000	0.007064
2118.000000	0.006827
2117.000000	0.006655
2116.000000	0.006349
2115.000000	0.005902
2114.000000	0.005624
2113.000000	0.005657
2112.000000	0.005759
2111.000000	0.005742
2110.000000	0.005741
2109.000000	0.005850
2108.000000	0.005894
2107.000000	0.005785
2106.000000	0.005717
2105.000000	0.005820
2104.000000	0.005942
2103.000000	0.005960
2102.000000	0.005942
2101.000000	0.005871
2100.000000	0.005614
2099.000000	0.005277
2098.000000	0.005225
2097.000000	0.005568
2096.000000	0.006000
2095.000000	0.006305
2094.000000	0.006560
2093.000000	0.006737
2092.000000	0.006602
2091.000000	0.006181
2090.000000	0.005833
2089.000000	0.005741
2088.000000	0.005695
2087.000000	0.005553
2086.000000	0.005459
2085.000000	0.005437
2084.000000	0.005238
2083.000000	0.004792
2082.000000	0.004394
2081.000000	0.004227
2080.000000	0.004145
2079.000000	0.004060
2078.000000	0.004135
2077.000000	0.004372
2076.000000	0.004474
2075.000000	0.004349
2074.000000	0.004246
2073.000000	0.004266
2072.000000	0.004202
2071.000000	0.004031
2070.000000	0.004051
2069.000000	0.004324
2068.000000	0.004515
2067.000000	0.004498
2066.000000	0.004571
2065.000000	0.004830
2064.000000	0.004920
2063.000000	0.004664
2062.000000	0.004360
2061.000000	0.004221
2060.000000	0.004083
2059.000000	0.003862
2058.000000	0.003738
2057.000000	0.003700
2056.000000	0.003491
2055.000000	0.003143
2054.000000	0.002869
2053.000000	0.002407
2052.000000	0.001266
2051.000000	-0.000197
2050.000000	-0.000754
2049.000000	0.000174
2048.000000	0.001654
2047.000000	0.002592
2046.000000	0.002968
2045.000000	0.003103
2044.000000	0.002878
2043.000000	0.002369
2042.000000	0.002239
2041.000000	0.002726
2040.000000	0.003118
2039.000000	0.002944
2038.000000	0.002698
2037.000000	0.002804
2036.000000	0.002905
2035.000000	0.002839
2034.000000	0.003208
2033.000000	0.004177
2032.000000	0.004862
2031.000000	0.004766
2030.000000	0.004573
2029.000000	0.004877
2028.000000	0.005240
2027.000000	0.005238
2026.000000	0.005228
2025.000000	0.005459
2024.000000	0.005532
2023.000000	0.005307
2022.000000	0.005331
2021.000000	0.005767
2020.000000	0.006001
2019.000000	0.005813
2018.000000	0.005794
2017.000000	0.006125
2016.000000	0.006116
2015.000000	0.005554
2014.000000	0.005181
2013.000000	0.005370
2012.000000	0.005529
2011.000000	0.005328
2010.000000	0.005338
2009.000000	0.005942
2008.000000	0.006692
2007.000000	0.007288
2006.000000	0.007988
2005.000000	0.008667
2004.000000	0.008731
2003.000000	0.008210
2002.000000	0.007863
2001.000000	0.007816
2000.000000	0.007419
1999.000000	0.006581
1998.000000	0.005981
1997.000000	0.005895
1996.000000	0.005775
1995.000000	0.005338
1994.000000	0.005031
1993.000000	0.005085
1992.000000	0.005041
1991.000000	0.004724
1990.000000	0.004653
1989.000000	0.004977
1988.000000	0.005083
1987.000000	0.004703
1986.000000	0.004365
1985.000000	0.004307
1984.000000	0.003954
1983.000000	0.002929
1982.000000	0.001728
1981.000000	0.000826
1980.000000	0.000228
1979.000000	0.000212
1978.000000	0.001389
1977.000000	0.003477
1976.000000	0.005149
1975.000000	0.005819
1974.000000	0.006138
1973.000000	0.006548
1972.000000	0.006654
1971.000000	0.006321
1970.000000	0.006106
1969.000000	0.006227
1968.000000	0.006222
1967.000000	0.005969
1966.000000	0.005993
1965.000000	0.006413
1964.000000	0.006664
1963.000000	0.006580
1962.000000	0.006737
1961.000000	0.007435
1960.000000	0.008258
1959.000000	0.008858
1958.000000	0.009307
1957.000000	0.009500
1956.000000	0.009083
1955.000000	0.008206
1954.000000	0.007470
1953.000000	0.007125
1952.000000	0.006854
1951.000000	0.006566
1950.000000	0.006644
1949.000000	0.007052
1948.000000	0.007212
1947.000000	0.006969
1946.000000	0.006810
1945.000000	0.006979
1944.000000	0.007140
1943.000000	0.007104
1942.000000	0.007100
1941.000000	0.007144
1940.000000	0.007004
1939.000000	0.006747
1938.000000	0.006708
1937.000000	0.006921
1936.000000	0.007055
1935.000000	0.007036
1934.000000	0.007107
1933.000000	0.007321
1932.000000	0.007336
1931.000000	0.007084
1930.000000	0.007012
1929.000000	0.007133
1928.000000	0.007103
1927.000000	0.006809
1926.000000	0.006640
1925.000000	0.006782
1924.000000	0.006798
1923.000000	0.006543
1922.000000	0.006377
1921.000000	0.006415
1920.000000	0.006317
1919.000000	0.005973
1918.000000	0.005826
1917.000000	0.005991
1916.000000	0.006052
1915.000000	0.005952
1914.000000	0.005949
1913.000000	0.006042
1912.000000	0.005943
1911.000000	0.005721
1910.000000	0.005831
1909.000000	0.006162
1908.000000	0.006263
1907.000000	0.006042
1906.000000	0.005913
1905.000000	0.006000
1904.000000	0.005830
1903.000000	0.005469
1902.000000	0.005512
1901.000000	0.005908
1900.000000	0.006067
1899.000000	0.005812
1898.000000	0.005606
1897.000000	0.005676
1896.000000	0.005599
1895.000000	0.005265
1894.000000	0.005109
1893.000000	0.005235
1892.000000	0.005238
1891.000000	0.005043
1890.000000	0.005121
1889.000000	0.005505
1888.000000	0.005638
1887.000000	0.005501
1886.000000	0.005564
1885.000000	0.005840
1884.000000	0.005829
1883.000000	0.005527
1882.000000	0.005477
1881.000000	0.005706
1880.000000	0.005767
1879.000000	0.005569
1878.000000	0.005457
1877.000000	0.005571
1876.000000	0.005543
1875.000000	0.005231
1874.000000	0.005073
1873.000000	0.005253
1872.000000	0.005318
1871.000000	0.005003
1870.000000	0.004794
1869.000000	0.005104
1868.000000	0.005401
1867.000000	0.005371
1866.000000	0.005484
1865.000000	0.005796
1864.000000	0.005796
1863.000000	0.005413
1862.000000	0.005208
1861.000000	0.005363
1860.000000	0.005409
1859.000000	0.005183
1858.000000	0.005118
1857.000000	0.005313
1856.000000	0.005321
1855.000000	0.005041
1854.000000	0.005015
1853.000000	0.005212
1852.000000	0.005246
1851.000000	0.005133
1850.000000	0.005088
1849.000000	0.005161
1848.000000	0.005146
1847.000000	0.005074
1846.000000	0.005099
1845.000000	0.005157
1844.000000	0.005068
1843.000000	0.004875
1842.000000	0.005023
1841.000000	0.005437
1840.000000	0.005582
1839.000000	0.005293
1838.000000	0.005096
1837.000000	0.005242
1836.000000	0.005266
1835.000000	0.005018
1834.000000	0.004854
1833.000000	0.004816
1832.000000	0.004740
1831.000000	0.004591
1830.000000	0.004610
1829.000000	0.004801
1828.000000	0.004892
1827.000000	0.004873
1826.000000	0.004873
1825.000000	0.005049
1824.000000	0.005166
1823.000000	0.005028
1822.000000	0.004939
1821.000000	0.005100
1820.000000	0.005373
1819.000000	0.005511
1818.000000	0.005777
1817.000000	0.006337
1816.000000	0.006551
1815.000000	0.006135
1814.000000	0.005558
1813.000000	0.005397
1812.000000	0.005482
1811.000000	0.005276
1810.000000	0.005086
1809.000000	0.005242
1808.000000	0.005269
1807.000000	0.004888
1806.000000	0.004553
1805.000000	0.004586
1804.000000	0.004484
1803.000000	0.004075
1802.000000	0.003808
1801.000000	0.004092
1800.000000	0.004480
1799.000000	0.004432
1798.000000	0.004314
1797.000000	0.004440
1796.000000	0.004463
1795.000000	0.004194
1794.000000	0.003824
1793.000000	0.003817
1792.000000	0.004053
1791.000000	0.003998
1790.000000	0.003970
1789.000000	0.004225
1788.000000	0.004293
1787.000000	0.003913
1786.000000	0.003587
1785.000000	0.003658
1784.000000	0.003602
1783.000000	0.003469
1782.000000	0.003466
1781.000000	0.003649
1780.000000	0.003869
1779.000000	0.003820
1778.000000	0.003735
1777.000000	0.003707
1776.000000	0.003763
1775.000000	0.003832
1774.000000	0.003497
1773.000000	0.002927
1772.000000	0.002910
1771.000000	0.003047
1770.000000	0.003133
1769.000000	0.003384
1768.000000	0.003490
1767.000000	0.003220
1766.000000	0.002785
1765.000000	0.002681
1764.000000	0.002755
1763.000000	0.002623
1762.000000	0.002240
1761.000000	0.002003
1760.000000	0.002013
1759.000000	0.002117
1758.000000	0.002156
1757.000000	0.001996
1756.000000	0.001920
1755.000000	0.001930
1754.000000	0.001816
1753.000000	0.001400
1752.000000	0.001114
1751.000000	0.001228
1750.000000	0.001594
1749.000000	0.002069
1748.000000	0.002485
1747.000000	0.002746
1746.000000	0.002519
1745.000000	0.002136
1744.000000	0.002109
1743.000000	0.002197
1742.000000	0.002038
1741.000000	0.001868
1740.000000	0.001808
1739.000000	0.001664
1738.000000	0.001535
1737.000000	0.001768
1736.000000	0.001772
1735.000000	0.001154
1734.000000	0.001174
1733.000000	0.001331
1732.000000	0.001498
1731.000000	0.002036
1730.000000	0.002578
1729.000000	0.002647
1728.000000	0.002341
1727.000000	0.002107
1726.000000	0.001901
1725.000000	0.001905
1724.000000	0.002023
1723.000000	0.001857
1722.000000	0.001699
1721.000000	0.001916
1720.000000	0.002045
1719.000000	0.001431
1718.000000	0.001167
1717.000000	0.002079
1716.000000	0.002692
1715.000000	0.002668
1714.000000	0.002979
1713.000000	0.003686
1712.000000	0.003951
1711.000000	0.003657
1710.000000	0.003518
1709.000000	0.003736
1708.000000	0.004009
1707.000000	0.004131
1706.000000	0.004588
1705.000000	0.005468
1704.000000	0.005959
1703.000000	0.006111
1702.000000	0.005832
1701.000000	0.005470
1700.000000	0.005888
1699.000000	0.005915
1698.000000	0.006989
1697.000000	0.009027
1696.000000	0.009946
1695.000000	0.009158
1694.000000	0.008448
1693.000000	0.009097
1692.000000	0.010075
1691.000000	0.010446
1690.000000	0.010736
1689.000000	0.011337
1688.000000	0.012323
1687.000000	0.013086
1686.000000	0.012742
1685.000000	0.012045
1684.000000	0.012774
1683.000000	0.013585
1682.000000	0.014336
1681.000000	0.015233
1680.000000	0.015942
1679.000000	0.016481
1678.000000	0.016892
1677.000000	0.017026
1676.000000	0.017087
1675.000000	0.017702
1674.000000	0.018225
1673.000000	0.018726
1672.000000	0.019557
1671.000000	0.020568
1670.000000	0.021704
1669.000000	0.022505
1668.000000	0.022849
1667.000000	0.023269
1666.000000	0.023796
1665.000000	0.024212
1664.000000	0.024381
1663.000000	0.024942
1662.000000	0.025857
1661.000000	0.026321
1660.000000	0.026735
1659.000000	0.027387
1658.000000	0.027912
1657.000000	0.028326
1656.000000	0.029163
1655.000000	0.029523
1654.000000	0.029012
1653.000000	0.029770
1652.000000	0.028625
1651.000000	0.027510
1650.000000	0.028355
1649.000000	0.029841
1648.000000	0.030839
1647.000000	0.031597
1646.000000	0.031833
1645.000000	0.031406
1644.000000	0.031056
1643.000000	0.031191
1642.000000	0.031565
1641.000000	0.031592
1640.000000	0.031496
1639.000000	0.031547
1638.000000	0.031789
1637.000000	0.031892
1636.000000	0.032241
1635.000000	0.032387
1634.000000	0.031805
1633.000000	0.031568
1632.000000	0.031630
1631.000000	0.031574
1630.000000	0.031389
1629.000000	0.031195
1628.000000	0.030891
1627.000000	0.030576
1626.000000	0.030225
1625.000000	0.029669
1624.000000	0.029000
1623.000000	0.028603
1622.000000	0.028262
1621.000000	0.027683
1620.000000	0.027323
1619.000000	0.027138
1618.000000	0.026567
1617.000000	0.025372
1616.000000	0.023979
1615.000000	0.023079
1614.000000	0.022932
1613.000000	0.022830
1612.000000	0.022199
1611.000000	0.021601
1610.000000	0.021423
1609.000000	0.021195
1608.000000	0.020674
1607.000000	0.020344
1606.000000	0.020140
1605.000000	0.019571
1604.000000	0.018956
1603.000000	0.018709
1602.000000	0.018578
1601.000000	0.018178
1600.000000	0.017694
1599.000000	0.017493
1598.000000	0.017399
1597.000000	0.017127
1596.000000	0.016816
1595.000000	0.016780
1594.000000	0.016896
1593.000000	0.016792
1592.000000	0.016514
1591.000000	0.016433
1590.000000	0.016560
1589.000000	0.016540
1588.000000	0.016386
1587.000000	0.016425
1586.000000	0.016732
1585.000000	0.016738
1584.000000	0.016565
1583.000000	0.016845
1582.000000	0.017289
1581.000000	0.017290
1580.000000	0.017268
1579.000000	0.017830
1578.000000	0.018350
1577.000000	0.018185
1576.000000	0.017863
1575.000000	0.017834
1574.000000	0.018089
1573.000000	0.018541
1572.000000	0.018914
1571.000000	0.019106
1570.000000	0.019582
1569.000000	0.019881
1568.000000	0.020004
1567.000000	0.020552
1566.000000	0.021316
1565.000000	0.021629
1564.000000	0.021952
1563.000000	0.022761
1562.000000	0.023584
1561.000000	0.022245
1560.000000	0.019908
1559.000000	0.022151
1558.000000	0.024362
1557.000000	0.023947
1556.000000	0.024115
1555.000000	0.025044
1554.000000	0.025400
1553.000000	0.025061
1552.000000	0.025208
1551.000000	0.025867
1550.000000	0.026498
1549.000000	0.026658
1548.000000	0.026496
1547.000000	0.026464
1546.000000	0.026511
1545.000000	0.026526
1544.000000	0.026757
1543.000000	0.026942
1542.000000	0.026869
1541.000000	0.027123
1540.000000	0.027910
1539.000000	0.027721
1538.000000	0.026596
1537.000000	0.026169
1536.000000	0.026321
1535.000000	0.026392
1534.000000	0.026341
1533.000000	0.026463
1532.000000	0.026359
1531.000000	0.025957
1530.000000	0.025668
1529.000000	0.025606
1528.000000	0.025504
1527.000000	0.025296
1526.000000	0.025031
1525.000000	0.024788
1524.000000	0.024707
1523.000000	0.024565
1522.000000	0.024376
1521.000000	0.024062
1520.000000	0.023263
1519.000000	0.022757
1518.000000	0.022900
1517.000000	0.023382
1516.000000	0.023494
1515.000000	0.023056
1514.000000	0.022534
1513.000000	0.022226
1512.000000	0.021883
1511.000000	0.021264
1510.000000	0.020720
1509.000000	0.020512
1508.000000	0.020691
1507.000000	0.021294
1506.000000	0.020971
1505.000000	0.019284
1504.000000	0.018212
1503.000000	0.017951
1502.000000	0.017681
1501.000000	0.017123
1500.000000	0.016498
1499.000000	0.015837
1498.000000	0.015242
1497.000000	0.015356
1496.000000	0.015675
1495.000000	0.015503
1494.000000	0.015382
1493.000000	0.015732
1492.000000	0.015998
1491.000000	0.015828
1490.000000	0.015829
1489.000000	0.016303
1488.000000	0.016417
1487.000000	0.015794
1486.000000	0.015281
1485.000000	0.014921
1484.000000	0.014515
1483.000000	0.014184
1482.000000	0.014073
1481.000000	0.014176
1480.000000	0.014102
1479.000000	0.013783
1478.000000	0.013531
1477.000000	0.013683
1476.000000	0.013878
1475.000000	0.013915
1474.000000	0.014144
1473.000000	0.014900
1472.000000	0.015674
1471.000000	0.015746
1470.000000	0.015680
1469.000000	0.015983
1468.000000	0.016236
1467.000000	0.016159
1466.000000	0.016141
1465.000000	0.016489
1464.000000	0.017015
1463.000000	0.017173
1462.000000	0.017135
1461.000000	0.017225
1460.000000	0.017439
1459.000000	0.017411
1458.000000	0.017343
1457.000000	0.017904
1456.000000	0.018201
1455.000000	0.018245
1454.000000	0.018706
1453.000000	0.019354
1452.000000	0.019838
1451.000000	0.019979
1450.000000	0.019927
1449.000000	0.020113
1448.000000	0.020399
1447.000000	0.020520
1446.000000	0.020237
1445.000000	0.019805
1444.000000	0.019766
1443.000000	0.019769
1442.000000	0.019415
1441.000000	0.018975
1440.000000	0.018970
1439.000000	0.018944
1438.000000	0.018335
1437.000000	0.017818
1436.000000	0.017944
1435.000000	0.018046
1434.000000	0.017954
1433.000000	0.017941
1432.000000	0.018050
1431.000000	0.018077
1430.000000	0.017845
1429.000000	0.017650
1428.000000	0.017497
1427.000000	0.017365
1426.000000	0.017131
1425.000000	0.016882
1424.000000	0.017175
1423.000000	0.017636
1422.000000	0.017573
1421.000000	0.016942
1420.000000	0.016469
1419.000000	0.016559
1418.000000	0.016584
1417.000000	0.016680
1416.000000	0.017205
1415.000000	0.017591
1414.000000	0.017334
1413.000000	0.016867
1412.000000	0.016892
1411.000000	0.017154
1410.000000	0.017034
1409.000000	0.016776
1408.000000	0.016721
1407.000000	0.016855
1406.000000	0.017002
1405.000000	0.017180
1404.000000	0.017563
1403.000000	0.017814
1402.000000	0.017680
1401.000000	0.017373
1400.000000	0.017337
1399.000000	0.017562
1398.000000	0.017613
1397.000000	0.017561
1396.000000	0.017631
1395.000000	0.017750
1394.000000	0.017456
1393.000000	0.016844
1392.000000	0.016567
1391.000000	0.016599
1390.000000	0.016431
1389.000000	0.015976
1388.000000	0.015589
1387.000000	0.015442
1386.000000	0.015340
1385.000000	0.015220
1384.000000	0.015251
1383.000000	0.015258
1382.000000	0.015040
1381.000000	0.014697
1380.000000	0.014394
1379.000000	0.014157
1378.000000	0.013877
1377.000000	0.013547
1376.000000	0.013324
1375.000000	0.013395
1374.000000	0.013535
1373.000000	0.013398
1372.000000	0.013014
1371.000000	0.012709
1370.000000	0.012549
1369.000000	0.012339
1368.000000	0.012070
1367.000000	0.011770
1366.000000	0.011416
1365.000000	0.011085
1364.000000	0.010952
1363.000000	0.011093
1362.000000	0.011280
1361.000000	0.011271
1360.000000	0.011135
1359.000000	0.011038
1358.000000	0.010976
1357.000000	0.010899
1356.000000	0.010849
1355.000000	0.010876
1354.000000	0.010922
1353.000000	0.010997
1352.000000	0.011070
1351.000000	0.011211
1350.000000	0.011429
1349.000000	0.011613
1348.000000	0.011787
1347.000000	0.011993
1346.000000	0.012187
1345.000000	0.012295
1344.000000	0.012336
1343.000000	0.012393
1342.000000	0.012522
1341.000000	0.012763
1340.000000	0.013149
1339.000000	0.013580
1338.000000	0.013839
1337.000000	0.013876
1336.000000	0.013825
1335.000000	0.013771
1334.000000	0.013696
1333.000000	0.013602
1332.000000	0.013538
1331.000000	0.013512
1330.000000	0.013438
1329.000000	0.013283
1328.000000	0.013118
1327.000000	0.013029
1326.000000	0.012969
1325.000000	0.012864
1324.000000	0.012776
1323.000000	0.012747
1322.000000	0.012707
1321.000000	0.012626
1320.000000	0.012607
1319.000000	0.012696
1318.000000	0.012773
1317.000000	0.012740
1316.000000	0.012658
1315.000000	0.012603
1314.000000	0.012558
1313.000000	0.012499
1312.000000	0.012455
1311.000000	0.012418
1310.000000	0.012315
1309.000000	0.012155
1308.000000	0.012029
1307.000000	0.011978
1306.000000	0.011936
1305.000000	0.011851
1304.000000	0.011786
1303.000000	0.011757
1302.000000	0.011692
1301.000000	0.011567
1300.000000	0.011460
1299.000000	0.011407
1298.000000	0.011347
1297.000000	0.011265
1296.000000	0.011236
1295.000000	0.011279
1294.000000	0.011305
1293.000000	0.011274
1292.000000	0.011259
1291.000000	0.011316
1290.000000	0.011421
1289.000000	0.011554
1288.000000	0.011730
1287.000000	0.011896
1286.000000	0.011960
1285.000000	0.011944
1284.000000	0.011977
1283.000000	0.012092
1282.000000	0.012192
1281.000000	0.012219
1280.000000	0.012231
1279.000000	0.012266
1278.000000	0.012266
1277.000000	0.012197
1276.000000	0.012105
1275.000000	0.012024
1274.000000	0.011929
1273.000000	0.011837
1272.000000	0.011823
1271.000000	0.011878
1270.000000	0.011890
1269.000000	0.011808
1268.000000	0.011715
1267.000000	0.011690
1266.000000	0.011714
1265.000000	0.011779
1264.000000	0.011930
1263.000000	0.012166
1262.000000	0.012427
1261.000000	0.012694
1260.000000	0.013005
1259.000000	0.013321
1258.000000	0.013523
1257.000000	0.013593
1256.000000	0.013640
1255.000000	0.013718
1254.000000	0.013777
1253.000000	0.013804
1252.000000	0.013873
1251.000000	0.014014
1250.000000	0.014161
1249.000000	0.014286
1248.000000	0.014444
1247.000000	0.014652
1246.000000	0.014834
1245.000000	0.014952
1244.000000	0.015053
1243.000000	0.015156
1242.000000	0.015213
1241.000000	0.015209
1240.000000	0.015193
1239.000000	0.015163
1238.000000	0.015064
1237.000000	0.014902
1236.000000	0.014761
1235.000000	0.014653
1234.000000	0.014494
1233.000000	0.014249
1232.000000	0.013985
1231.000000	0.013748
1230.000000	0.013509
1229.000000	0.013264
1228.000000	0.013057
1227.000000	0.012894
1226.000000	0.012721
1225.000000	0.012527
1224.000000	0.012343
1223.000000	0.012127
1222.000000	0.011778
1221.000000	0.011278
1220.000000	0.010733
1219.000000	0.010259
1218.000000	0.009907
1217.000000	0.009723
1216.000000	0.009731
1215.000000	0.009853
1214.000000	0.009951
1213.000000	0.009991
1212.000000	0.010039
1211.000000	0.010109
1210.000000	0.010126
1209.000000	0.010083
1208.000000	0.010064
1207.000000	0.010109
1206.000000	0.010166
1205.000000	0.010212
1204.000000	0.010282
1203.000000	0.010373
1202.000000	0.010426
1201.000000	0.010430
1200.000000	0.010441
1199.000000	0.010463
1198.000000	0.010429
1197.000000	0.010318
1196.000000	0.010191
1195.000000	0.010072
1194.000000	0.009923
1193.000000	0.009747
1192.000000	0.009614
1191.000000	0.009539
1190.000000	0.009456
1189.000000	0.009332
1188.000000	0.009212
1187.000000	0.009109
1186.000000	0.008961
1185.000000	0.008722
1184.000000	0.008452
1183.000000	0.008256
1182.000000	0.008221
1181.000000	0.008381
1180.000000	0.008672
1179.000000	0.008915
1178.000000	0.008969
1177.000000	0.008872
1176.000000	0.008774
1175.000000	0.008742
1174.000000	0.008725
1173.000000	0.008698
1172.000000	0.008707
1171.000000	0.008766
1170.000000	0.008823
1169.000000	0.008859
1168.000000	0.008926
1167.000000	0.009044
1166.000000	0.009175
1165.000000	0.009299
1164.000000	0.009442
1163.000000	0.009586
1162.000000	0.009684
1161.000000	0.009742
1160.000000	0.009816
1159.000000	0.009907
1158.000000	0.009943
1157.000000	0.009896
1156.000000	0.009814
1155.000000	0.009733
1154.000000	0.009643
1153.000000	0.009565
1152.000000	0.009552
1151.000000	0.009589
1150.000000	0.009598
1149.000000	0.009543
1148.000000	0.009461
1147.000000	0.009367
1146.000000	0.009230
1145.000000	0.009064
1144.000000	0.008926
1143.000000	0.008828
1142.000000	0.008721
1141.000000	0.008593
1140.000000	0.008492
1139.000000	0.008429
1138.000000	0.008358
1137.000000	0.008258
1136.000000	0.008170
1135.000000	0.008106
1134.000000	0.008030
1133.000000	0.007939
1132.000000	0.007876
1131.000000	0.007851
1130.000000	0.007830
1129.000000	0.007809
1128.000000	0.007833
1127.000000	0.007902
1126.000000	0.007960
1125.000000	0.007972
1124.000000	0.007964
1123.000000	0.007950
1122.000000	0.007927
1121.000000	0.007929
1120.000000	0.008000
1119.000000	0.008114
1118.000000	0.008185
1117.000000	0.008193
1116.000000	0.008197
1115.000000	0.008230
1114.000000	0.008263
1113.000000	0.008282
1112.000000	0.008314
1111.000000	0.008366
1110.000000	0.008410
1109.000000	0.008455
1108.000000	0.008542
1107.000000	0.008657
1106.000000	0.008741
1105.000000	0.008793
1104.000000	0.008864
1103.000000	0.008970
1102.000000	0.009072
1101.000000	0.009163
1100.000000	0.009259
1099.000000	0.009336
1098.000000	0.009351
1097.000000	0.009333
1096.000000	0.009363
1095.000000	0.009460
1094.000000	0.009576
1093.000000	0.009693
1092.000000	0.009838
1091.000000	0.010008
1090.000000	0.010173
1089.000000	0.010358
1088.000000	0.010621
1087.000000	0.010938
1086.000000	0.011222
1085.000000	0.011441
1084.000000	0.011644
1083.000000	0.011852
1082.000000	0.012038
1081.000000	0.012191
1080.000000	0.012321
1079.000000	0.012398
1078.000000	0.012370
1077.000000	0.012257
1076.000000	0.012125
1075.000000	0.011972
1074.000000	0.011753
1073.000000	0.011485
1072.000000	0.011259
1071.000000	0.011121
1070.000000	0.011040
1069.000000	0.010990
1068.000000	0.010969
1067.000000	0.010953
1066.000000	0.010909
1065.000000	0.010872
1064.000000	0.010914
1063.000000	0.011027
1062.000000	0.011128
1061.000000	0.011165
1060.000000	0.011159
1059.000000	0.011119
1058.000000	0.011027
1057.000000	0.010898
1056.000000	0.010786
1055.000000	0.010722
1054.000000	0.010708
1053.000000	0.010776
1052.000000	0.010969
1051.000000	0.011269
1050.000000	0.011609
1049.000000	0.011950
1048.000000	0.012255
1047.000000	0.012426
1046.000000	0.012387
1045.000000	0.012206
1044.000000	0.012040
1043.000000	0.011971
1042.000000	0.011961
1041.000000	0.011967
1040.000000	0.011998
1039.000000	0.012054
1038.000000	0.012109
1037.000000	0.012176
1036.000000	0.012288
1035.000000	0.012435
1034.000000	0.012570
1033.000000	0.012697
1032.000000	0.012852
1031.000000	0.013022
1030.000000	0.013145
1029.000000	0.013207
1028.000000	0.013250
1027.000000	0.013280
1026.000000	0.013263
1025.000000	0.013208
1024.000000	0.013169
1023.000000	0.013158
1022.000000	0.013127
1021.000000	0.013066
1020.000000	0.013014
1019.000000	0.012984
1018.000000	0.012951
1017.000000	0.012909
1016.000000	0.012869
1015.000000	0.012800
1014.000000	0.012650
1013.000000	0.012441
1012.000000	0.012253
1011.000000	0.012118
1010.000000	0.011990
1009.000000	0.011833
1008.000000	0.011669
1007.000000	0.011508
1006.000000	0.011320
1005.000000	0.011094
1004.000000	0.010862
1003.000000	0.010656
1002.000000	0.010477
1001.000000	0.010325
1000.000000	0.010197
999.000000	0.010064
998.000000	0.009894
997.000000	0.009709
996.000000	0.009559
995.000000	0.009438
994.000000	0.009295
993.000000	0.009117
992.000000	0.008944
991.000000	0.008797
990.000000	0.008654
989.000000	0.008504
988.000000	0.008360
987.000000	0.008215
986.000000	0.008046
985.000000	0.007859
984.000000	0.007694
983.000000	0.007553
982.000000	0.007405
981.000000	0.007252
980.000000	0.007125
979.000000	0.007023
978.000000	0.006910
977.000000	0.006782
976.000000	0.006678
975.000000	0.006613
974.000000	0.006561
973.000000	0.006496
972.000000	0.006420
971.000000	0.006321
970.000000	0.006178
969.000000	0.006005
968.000000	0.005837
967.000000	0.005675
966.000000	0.005493
965.000000	0.005307
964.000000	0.005158
963.000000	0.005047
962.000000	0.004937
961.000000	0.004833
960.000000	0.004787
959.000000	0.004796
958.000000	0.004775
957.000000	0.004658
956.000000	0.004457
955.000000	0.004233
954.000000	0.004037
953.000000	0.003908
952.000000	0.003860
951.000000	0.003854
950.000000	0.003837
949.000000	0.003811
948.000000	0.003817
947.000000	0.003853
946.000000	0.003863
945.000000	0.003820
944.000000	0.003752
943.000000	0.003689
942.000000	0.003634
941.000000	0.003602
940.000000	0.003618
939.000000	0.003667
938.000000	0.003698
937.000000	0.003691
936.000000	0.003664
935.000000	0.003634
934.000000	0.003597
933.000000	0.003567
932.000000	0.003566
931.000000	0.003571
930.000000	0.003537
929.000000	0.003471
928.000000	0.003423
927.000000	0.003402
926.000000	0.003368
925.000000	0.003297
924.000000	0.003215
923.000000	0.003139
922.000000	0.003064
921.000000	0.003000
920.000000	0.002977
919.000000	0.002981
918.000000	0.002953
917.000000	0.002866
916.000000	0.002757
915.000000	0.002658
914.000000	0.002561
913.000000	0.002464
912.000000	0.002387
911.000000	0.002336
910.000000	0.002287
909.000000	0.002227
908.000000	0.002174
907.000000	0.002144
906.000000	0.002141
905.000000	0.002167
904.000000	0.002219
903.000000	0.002262
902.000000	0.002261
901.000000	0.002229
900.000000	0.002195
899.000000	0.002136
898.000000	0.002000
897.000000	0.001806
896.000000	0.001646
895.000000	0.001578
894.000000	0.001577
893.000000	0.001596
892.000000	0.001619
891.000000	0.001630
890.000000	0.001602
889.000000	0.001540
888.000000	0.001494
887.000000	0.001499
886.000000	0.001536
885.000000	0.001577
884.000000	0.001631
883.000000	0.001731
882.000000	0.001894
881.000000	0.002128
880.000000	0.002426
879.000000	0.002760
878.000000	0.003079
877.000000	0.003344
876.000000	0.003522
875.000000	0.003576
874.000000	0.003502
873.000000	0.003352
872.000000	0.003193
871.000000	0.003046
870.000000	0.002896
869.000000	0.002761
868.000000	0.002678
867.000000	0.002639
866.000000	0.002596
865.000000	0.002525
864.000000	0.002452
863.000000	0.002404
862.000000	0.002379
861.000000	0.002381
860.000000	0.002419
859.000000	0.002468
858.000000	0.002477
857.000000	0.002428
856.000000	0.002358
855.000000	0.002304
854.000000	0.002270
853.000000	0.002250
852.000000	0.002248
851.000000	0.002265
850.000000	0.002295
849.000000	0.002340
848.000000	0.002402
847.000000	0.002444
846.000000	0.002420
845.000000	0.002334
844.000000	0.002242
843.000000	0.002186
842.000000	0.002155
841.000000	0.002125
840.000000	0.002103
839.000000	0.002106
838.000000	0.002122
837.000000	0.002114
836.000000	0.002045
835.000000	0.001902
834.000000	0.001709
833.000000	0.001513
832.000000	0.001369
831.000000	0.001306
830.000000	0.001333
829.000000	0.001427
828.000000	0.001537
827.000000	0.001605
826.000000	0.001639
825.000000	0.001713
824.000000	0.001876
823.000000	0.002082
822.000000	0.002249
821.000000	0.002360
820.000000	0.002441
819.000000	0.002482
818.000000	0.002440
817.000000	0.002312
816.000000	0.002141
815.000000	0.001974
814.000000	0.001834
813.000000	0.001749
812.000000	0.001750
811.000000	0.001826
810.000000	0.001923
809.000000	0.001982
808.000000	0.001965
807.000000	0.001868
806.000000	0.001739
805.000000	0.001663
804.000000	0.001683
803.000000	0.001755
802.000000	0.001808
801.000000	0.001828
800.000000	0.001852
799.000000	0.001879
798.000000	0.001880
797.000000	0.001856
796.000000	0.001847
795.000000	0.001857
794.000000	0.001847
793.000000	0.001814
792.000000	0.001811
791.000000	0.001881
790.000000	0.001991
789.000000	0.002082
788.000000	0.002123
787.000000	0.002111
786.000000	0.002052
785.000000	0.001979
784.000000	0.001960
783.000000	0.002041
782.000000	0.002191
781.000000	0.002312
780.000000	0.002327
779.000000	0.002241
778.000000	0.002115
777.000000	0.002009
776.000000	0.001939
775.000000	0.001895
774.000000	0.001869
773.000000	0.001857
772.000000	0.001847
771.000000	0.001828
770.000000	0.001806
769.000000	0.001808
768.000000	0.001850
767.000000	0.001916
766.000000	0.001989
765.000000	0.002066
764.000000	0.002147
763.000000	0.002203
762.000000	0.002186
761.000000	0.002091
760.000000	0.001978
759.000000	0.001920
758.000000	0.001939
757.000000	0.001987
756.000000	0.002001
755.000000	0.001957
754.000000	0.001872
753.000000	0.001784
752.000000	0.001730
751.000000	0.001738
750.000000	0.001806
749.000000	0.001894
748.000000	0.001963
747.000000	0.002010
746.000000	0.002067
745.000000	0.002147
744.000000	0.002224
743.000000	0.002268
742.000000	0.002259
741.000000	0.002181
740.000000	0.002044
739.000000	0.001924
738.000000	0.001925
737.000000	0.002072
736.000000	0.002269
735.000000	0.002401
734.000000	0.002445
733.000000	0.002455
732.000000	0.002482
731.000000	0.002541
730.000000	0.002619
729.000000	0.002689
728.000000	0.002736
727.000000	0.002784
726.000000	0.002869
725.000000	0.003001
724.000000	0.003163
723.000000	0.003346
722.000000	0.003548
721.000000	0.003718
720.000000	0.003773
719.000000	0.003722
718.000000	0.003690
717.000000	0.003780
716.000000	0.003951
715.000000	0.004093
714.000000	0.004158
713.000000	0.004168
712.000000	0.004140
711.000000	0.004079
710.000000	0.004022
709.000000	0.004025
708.000000	0.004093
707.000000	0.004194
706.000000	0.004293
705.000000	0.004367
704.000000	0.004392
703.000000	0.004358
702.000000	0.004315
701.000000	0.004315
700.000000	0.004332
699.000000	0.004321
698.000000	0.004279
697.000000	0.004231
696.000000	0.004172
695.000000	0.004079
694.000000	0.003980
693.000000	0.003896
692.000000	0.003790
691.000000	0.003649
690.000000	0.003551
689.000000	0.003589
688.000000	0.003750
687.000000	0.003932
686.000000	0.004084
685.000000	0.004164
684.000000	0.004105
683.000000	0.003930
682.000000	0.003782
681.000000	0.003756
680.000000	0.003804
679.000000	0.003856
678.000000	0.003942
677.000000	0.004037
676.000000	0.004057
675.000000	0.004065
674.000000	0.004184
673.000000	0.004321
672.000000	0.004162
671.000000	0.003738
670.000000	0.003716
669.000000	0.004794
668.000000	0.005692
667.000000	0.006033
666.000000	0.006874
665.000000	0.006754
664.000000	0.005675
663.000000	0.004959
662.000000	0.004721
661.000000	0.004606
660.000000	0.004525
659.000000	0.004593
658.000000	0.004724
657.000000	0.004769
656.000000	0.004754
655.000000	0.004751
654.000000	0.004665
653.000000	0.004473
652.000000	0.004351
651.000000	0.004411
650.000000	0.004567
649.000000	0.004718
648.000000	0.004888
647.000000	0.005076
646.000000	0.005194
645.000000	0.005232
644.000000	0.005259
643.000000	0.005283
642.000000	0.005248
641.000000	0.005172
640.000000	0.005162
639.000000	0.005237
638.000000	0.005291
637.000000	0.005293
636.000000	0.005331
635.000000	0.005430
634.000000	0.005510
633.000000	0.005522
632.000000	0.005474
631.000000	0.005345
630.000000	0.005150
629.000000	0.005044
628.000000	0.005187
627.000000	0.005480
626.000000	0.005660
625.000000	0.005644
624.000000	0.005570
623.000000	0.005530
622.000000	0.005473
621.000000	0.005402
620.000000	0.005414
619.000000	0.005511
618.000000	0.005586
617.000000	0.005654
616.000000	0.005854
615.000000	0.006158
614.000000	0.006321
613.000000	0.006227
612.000000	0.006036
611.000000	0.005901
610.000000	0.005782
609.000000	0.005614
608.000000	0.005489
607.000000	0.005520
606.000000	0.005653
605.000000	0.005793
604.000000	0.005933
603.000000	0.006058
602.000000	0.006065
601.000000	0.005883
600.000000	0.005632
599.000000	0.005517
598.000000	0.005583
597.000000	0.005730
596.000000	0.005867
595.000000	0.005980
594.000000	0.006078
593.000000	0.006173
592.000000	0.006279
591.000000	0.006355
590.000000	0.006343
589.000000	0.006254
588.000000	0.006186
587.000000	0.006179
586.000000	0.006173
585.000000	0.006146
584.000000	0.006162
583.000000	0.006238
582.000000	0.006269
581.000000	0.006192
580.000000	0.006105
579.000000	0.006126
578.000000	0.006256
577.000000	0.006474
576.000000	0.006768
575.000000	0.007005
574.000000	0.006963
573.000000	0.006648
572.000000	0.006379
571.000000	0.006448
570.000000	0.006816
569.000000	0.007225
568.000000	0.007499
567.000000	0.007560
566.000000	0.007379
565.000000	0.007061
564.000000	0.006847
563.000000	0.006859
562.000000	0.006929
561.000000	0.006858
560.000000	0.006679
559.000000	0.006556
558.000000	0.006536
557.000000	0.006569
556.000000	0.006602
555.000000	0.006578
554.000000	0.006459
553.000000	0.006358
552.000000	0.006486
551.000000	0.006848
550.000000	0.007131
549.000000	0.007059
548.000000	0.006727
547.000000	0.006435
546.000000	0.006356
545.000000	0.006459
544.000000	0.006661
543.000000	0.006830
542.000000	0.006785
541.000000	0.006487
540.000000	0.006130
539.000000	0.005901
538.000000	0.005769
537.000000	0.005655
536.000000	0.005666
535.000000	0.005934
534.000000	0.006361
533.000000	0.006704
532.000000	0.006797
531.000000	0.006652
530.000000	0.006377
529.000000	0.006128
528.000000	0.006069
527.000000	0.006280
526.000000	0.006611
525.000000	0.006813
524.000000	0.006843
523.000000	0.006784
522.000000	0.006674
521.000000	0.006511
520.000000	0.006326
519.000000	0.006163
518.000000	0.006011
517.000000	0.005854
516.000000	0.005753
515.000000	0.005755
514.000000	0.005799
513.000000	0.005758
512.000000	0.005551
511.000000	0.005201
510.000000	0.004817
509.000000	0.004493
508.000000	0.004214
507.000000	0.003963
506.000000	0.003768
505.000000	0.003739
504.000000	0.003925
503.000000	0.004220
502.000000	0.004416
501.000000	0.004391
500.000000	0.004240
499.000000	0.004103
498.000000	0.004033
497.000000	0.004025
496.000000	0.004048
495.000000	0.004044
494.000000	0.003988
493.000000	0.003939
492.000000	0.004030
491.000000	0.004276
490.000000	0.004460
489.000000	0.004360
488.000000	0.003986
487.000000	0.003563
486.000000	0.003253
485.000000	0.003072
484.000000	0.003050
483.000000	0.003283
482.000000	0.003724
481.000000	0.004058
480.000000	0.004016
479.000000	0.003648
478.000000	0.003225
477.000000	0.002992
476.000000	0.002969
475.000000	0.002957
474.000000	0.002817
473.000000	0.002668
472.000000	0.002748
471.000000	0.003093
470.000000	0.003447
469.000000	0.003633
468.000000	0.003686
467.000000	0.003561
466.000000	0.003179
465.000000	0.002740
464.000000	0.002619
463.000000	0.002904
462.000000	0.003203
461.000000	0.003098
460.000000	0.002622
459.000000	0.002082
458.000000	0.001698
457.000000	0.001550
456.000000	0.001606
455.000000	0.001707
454.000000	0.001697
453.000000	0.001570
452.000000	0.001575
451.000000	0.001706
450.000000	0.001696
