PE IR       SUBTECH     SPECTRUM    ASCII       PEDS        4.00        
   -1
3C-N10-C009_1.ASC
22/02/16
14:26:59.00
22/02/16
15:05:48.00
uco
Sample 009 By uco Date Wednesday, February 16 2022
450.000000
#HDR
-1
-1
#GR
cm-1
A
1.0
0.0
4000.000000
-1.000000
3551
8
0.017690
-0.005593
#DATA
4000.000000	-0.000656
3999.000000	-0.000738
3998.000000	-0.000797
3997.000000	-0.000796
3996.000000	-0.000756
3995.000000	-0.000724
3994.000000	-0.000702
3993.000000	-0.000660
3992.000000	-0.000595
3991.000000	-0.000540
3990.000000	-0.000513
3989.000000	-0.000497
3988.000000	-0.000480
3987.000000	-0.000485
3986.000000	-0.000522
3985.000000	-0.000569
3984.000000	-0.000602
3983.000000	-0.000626
3982.000000	-0.000652
3981.000000	-0.000677
3980.000000	-0.000682
3979.000000	-0.000651
3978.000000	-0.000591
3977.000000	-0.000518
3976.000000	-0.000423
3975.000000	-0.000311
3974.000000	-0.000227
3973.000000	-0.000195
3972.000000	-0.000192
3971.000000	-0.000181
3970.000000	-0.000174
3969.000000	-0.000202
3968.000000	-0.000286
3967.000000	-0.000430
3966.000000	-0.000608
3965.000000	-0.000749
3964.000000	-0.000762
3963.000000	-0.000629
3962.000000	-0.000435
3961.000000	-0.000274
3960.000000	-0.000178
3959.000000	-0.000137
3958.000000	-0.000167
3957.000000	-0.000226
3956.000000	-0.000248
3955.000000	-0.000249
3954.000000	-0.000283
3953.000000	-0.000391
3952.000000	-0.000519
3951.000000	-0.000569
3950.000000	-0.000424
3949.000000	-0.000111
3948.000000	0.000100
3947.000000	0.000085
3946.000000	-0.000008
3945.000000	0.000038
3944.000000	0.000253
3943.000000	0.000438
3942.000000	0.000484
3941.000000	0.000477
3940.000000	0.000475
3939.000000	0.000406
3938.000000	0.000128
3937.000000	-0.000302
3936.000000	-0.000627
3935.000000	-0.000729
3934.000000	-0.000588
3933.000000	-0.000268
3932.000000	0.000228
3931.000000	0.000751
3930.000000	0.000967
3929.000000	0.000749
3928.000000	0.000314
3927.000000	0.000096
3926.000000	0.000193
3925.000000	0.000273
3924.000000	0.000263
3923.000000	0.000399
3922.000000	0.000578
3921.000000	0.000448
3920.000000	0.000075
3919.000000	0.000071
3918.000000	0.000543
3917.000000	0.000922
3916.000000	0.000877
3915.000000	0.000668
3914.000000	0.000565
3913.000000	0.000474
3912.000000	0.000292
3911.000000	0.000224
3910.000000	0.000228
3909.000000	0.000139
3908.000000	-0.000004
3907.000000	-0.000056
3906.000000	0.000091
3905.000000	0.000136
3904.000000	-0.000006
3903.000000	0.000101
3902.000000	0.000859
3901.000000	0.001986
3900.000000	0.002569
3899.000000	0.002219
3898.000000	0.001514
3897.000000	0.001071
3896.000000	0.000787
3895.000000	0.000478
3894.000000	0.000345
3893.000000	0.000883
3892.000000	0.001581
3891.000000	0.001196
3890.000000	0.000036
3889.000000	-0.000495
3888.000000	0.000075
3887.000000	0.000788
3886.000000	0.000657
3885.000000	-0.000228
3884.000000	-0.000620
3883.000000	0.000188
3882.000000	0.001451
3881.000000	0.002227
3880.000000	0.002102
3879.000000	0.001302
3878.000000	0.000743
3877.000000	0.000833
3876.000000	0.001081
3875.000000	0.000901
3874.000000	0.000179
3873.000000	-0.000237
3872.000000	0.000489
3871.000000	0.001575
3870.000000	0.001366
3869.000000	0.000111
3868.000000	-0.000259
3867.000000	0.000718
3866.000000	0.001251
3865.000000	0.000679
3864.000000	0.000420
3863.000000	0.001071
3862.000000	0.001597
3861.000000	0.001582
3860.000000	0.001461
3859.000000	0.001615
3858.000000	0.001832
3857.000000	0.001618
3856.000000	0.000601
3855.000000	-0.001233
3854.000000	-0.003136
3853.000000	-0.004908
3852.000000	-0.005593
3851.000000	-0.003872
3850.000000	-0.001297
3849.000000	0.000356
3848.000000	0.000922
3847.000000	0.001068
3846.000000	0.000945
3845.000000	0.000783
3844.000000	0.000778
3843.000000	0.000650
3842.000000	0.000356
3841.000000	0.000511
3840.000000	0.000934
3839.000000	0.001016
3838.000000	0.000573
3837.000000	-0.000076
3836.000000	-0.000300
3835.000000	0.000071
3834.000000	0.000808
3833.000000	0.001445
3832.000000	0.001430
3831.000000	0.000790
3830.000000	0.000201
3829.000000	0.000292
3828.000000	0.000961
3827.000000	0.001430
3826.000000	0.001045
3825.000000	0.000461
3824.000000	0.000421
3823.000000	0.000818
3822.000000	0.001369
3821.000000	0.001168
3820.000000	0.000156
3819.000000	-0.000083
3818.000000	0.000741
3817.000000	0.001096
3816.000000	0.000018
3815.000000	-0.001440
3814.000000	-0.001313
3813.000000	0.000182
3812.000000	0.001001
3811.000000	0.000524
3810.000000	-0.000076
3809.000000	0.000164
3808.000000	0.000666
3807.000000	0.000082
3806.000000	-0.001395
3805.000000	-0.001919
3804.000000	-0.001048
3803.000000	0.000167
3802.000000	0.000530
3801.000000	-0.000546
3800.000000	-0.001596
3799.000000	-0.000991
3798.000000	0.000557
3797.000000	0.001587
3796.000000	0.001701
3795.000000	0.001368
3794.000000	0.001223
3793.000000	0.001156
3792.000000	0.000891
3791.000000	0.000645
3790.000000	0.000573
3789.000000	0.000434
3788.000000	0.000127
3787.000000	-0.000015
3786.000000	0.000310
3785.000000	0.000782
3784.000000	0.000872
3783.000000	0.000696
3782.000000	0.000633
3781.000000	0.000811
3780.000000	0.001050
3779.000000	0.001125
3778.000000	0.001066
3777.000000	0.001184
3776.000000	0.001318
3775.000000	0.000985
3774.000000	0.000326
3773.000000	0.000073
3772.000000	0.000465
3771.000000	0.000917
3770.000000	0.000885
3769.000000	0.000588
3768.000000	0.000571
3767.000000	0.000981
3766.000000	0.001396
3765.000000	0.001254
3764.000000	0.000756
3763.000000	0.000567
3762.000000	0.000643
3761.000000	0.000564
3760.000000	0.000534
3759.000000	0.001099
3758.000000	0.001761
3757.000000	0.001797
3756.000000	0.001444
3755.000000	0.000926
3754.000000	-0.000167
3753.000000	-0.001872
3752.000000	-0.002669
3751.000000	-0.001581
3750.000000	-0.000561
3749.000000	-0.000930
3748.000000	-0.001238
3747.000000	-0.000166
3746.000000	0.001518
3745.000000	0.001587
3744.000000	-0.000875
3743.000000	-0.002958
3742.000000	-0.002093
3741.000000	-0.000069
3740.000000	0.000553
3739.000000	0.000146
3738.000000	-0.000027
3737.000000	0.000225
3736.000000	0.000882
3735.000000	0.001980
3734.000000	0.003212
3733.000000	0.003569
3732.000000	0.002474
3731.000000	0.000746
3730.000000	-0.000272
3729.000000	-0.000235
3728.000000	0.000203
3727.000000	0.000322
3726.000000	0.000202
3725.000000	0.000384
3724.000000	0.000929
3723.000000	0.001309
3722.000000	0.001298
3721.000000	0.001177
3720.000000	0.001176
3719.000000	0.001356
3718.000000	0.001314
3717.000000	0.000787
3716.000000	0.000269
3715.000000	-0.000051
3714.000000	-0.000387
3713.000000	-0.000392
3712.000000	0.000521
3711.000000	0.001901
3710.000000	0.002617
3709.000000	0.002491
3708.000000	0.002011
3707.000000	0.001368
3706.000000	0.000815
3705.000000	0.000538
3704.000000	0.000540
3703.000000	0.000802
3702.000000	0.001029
3701.000000	0.000960
3700.000000	0.000640
3699.000000	0.000486
3698.000000	0.000557
3697.000000	0.000481
3696.000000	0.000324
3695.000000	0.000398
3694.000000	0.000439
3693.000000	0.000058
3692.000000	-0.000434
3691.000000	-0.000362
3690.000000	0.000257
3689.000000	0.000455
3688.000000	-0.000353
3687.000000	-0.001059
3686.000000	-0.000617
3685.000000	0.000444
3684.000000	0.001008
3683.000000	0.000925
3682.000000	0.000914
3681.000000	0.001066
3680.000000	0.000749
3679.000000	-0.000071
3678.000000	-0.000392
3677.000000	0.000533
3676.000000	0.001905
3675.000000	0.001883
3674.000000	0.000826
3673.000000	0.000562
3672.000000	0.000860
3671.000000	0.000959
3670.000000	0.001011
3669.000000	0.001093
3668.000000	0.001267
3667.000000	0.001514
3666.000000	0.001529
3665.000000	0.001279
3664.000000	0.001075
3663.000000	0.001158
3662.000000	0.001323
3661.000000	0.001151
3660.000000	0.000809
3659.000000	0.000726
3658.000000	0.001174
3657.000000	0.001617
3656.000000	0.001360
3655.000000	0.000775
3654.000000	0.000682
3653.000000	0.000695
3652.000000	-0.000057
3651.000000	-0.000697
3650.000000	0.000220
3649.000000	0.002158
3648.000000	0.003399
3647.000000	0.003542
3646.000000	0.003196
3645.000000	0.002761
3644.000000	0.002350
3643.000000	0.002031
3642.000000	0.001770
3641.000000	0.001558
3640.000000	0.001516
3639.000000	0.001507
3638.000000	0.001327
3637.000000	0.001101
3636.000000	0.001210
3635.000000	0.001578
3634.000000	0.001666
3633.000000	0.001388
3632.000000	0.001115
3631.000000	0.001012
3630.000000	0.001373
3629.000000	0.001752
3628.000000	0.001159
3627.000000	0.000688
3626.000000	0.001120
3625.000000	0.001623
3624.000000	0.001565
3623.000000	0.001270
3622.000000	0.001200
3621.000000	0.001387
3620.000000	0.001667
3619.000000	0.001820
3618.000000	0.001584
3617.000000	0.001316
3616.000000	0.001467
3615.000000	0.001976
3614.000000	0.002452
3613.000000	0.002669
3612.000000	0.002727
3611.000000	0.002753
3610.000000	0.002775
3609.000000	0.002869
3608.000000	0.003053
3607.000000	0.003155
3606.000000	0.002989
3605.000000	0.002523
3604.000000	0.001886
3603.000000	0.001348
3602.000000	0.001150
3601.000000	0.001239
3600.000000	0.001434
3599.000000	0.001606
3598.000000	0.001628
3597.000000	0.001544
3596.000000	0.001718
3595.000000	0.002132
3594.000000	0.002458
3593.000000	0.002503
3592.000000	0.002303
3591.000000	0.001910
3590.000000	0.001514
3589.000000	0.001577
3588.000000	0.002456
3587.000000	0.003421
3586.000000	0.003708
3585.000000	0.003463
3584.000000	0.003117
3583.000000	0.002763
3582.000000	0.002454
3581.000000	0.002276
3580.000000	0.002265
3579.000000	0.002320
3578.000000	0.002324
3577.000000	0.002304
3576.000000	0.002374
3575.000000	0.002531
3574.000000	0.002593
3573.000000	0.002461
3572.000000	0.002110
3571.000000	0.001567
3570.000000	0.001014
3569.000000	0.000934
3568.000000	0.001828
3567.000000	0.003359
3566.000000	0.004454
3565.000000	0.004659
3564.000000	0.004287
3563.000000	0.003717
3562.000000	0.003228
3561.000000	0.003001
3560.000000	0.002994
3559.000000	0.003015
3558.000000	0.002902
3557.000000	0.002633
3556.000000	0.002309
3555.000000	0.002127
3554.000000	0.002235
3553.000000	0.002590
3552.000000	0.002933
3551.000000	0.002990
3550.000000	0.002740
3549.000000	0.002386
3548.000000	0.002235
3547.000000	0.002512
3546.000000	0.003094
3545.000000	0.003598
3544.000000	0.003801
3543.000000	0.003722
3542.000000	0.003453
3541.000000	0.003100
3540.000000	0.002792
3539.000000	0.002639
3538.000000	0.002672
3537.000000	0.002847
3536.000000	0.003077
3535.000000	0.003196
3534.000000	0.003099
3533.000000	0.002826
3532.000000	0.002559
3531.000000	0.002452
3530.000000	0.002530
3529.000000	0.002719
3528.000000	0.002922
3527.000000	0.003068
3526.000000	0.003164
3525.000000	0.003300
3524.000000	0.003561
3523.000000	0.003857
3522.000000	0.003970
3521.000000	0.003830
3520.000000	0.003599
3519.000000	0.003427
3518.000000	0.003329
3517.000000	0.003272
3516.000000	0.003265
3515.000000	0.003250
3514.000000	0.003150
3513.000000	0.003009
3512.000000	0.002976
3511.000000	0.003129
3510.000000	0.003383
3509.000000	0.003559
3508.000000	0.003537
3507.000000	0.003334
3506.000000	0.003079
3505.000000	0.002982
3504.000000	0.003222
3503.000000	0.003704
3502.000000	0.004086
3501.000000	0.004152
3500.000000	0.003979
3499.000000	0.003759
3498.000000	0.003602
3497.000000	0.003547
3496.000000	0.003603
3495.000000	0.003708
3494.000000	0.003753
3493.000000	0.003703
3492.000000	0.003616
3491.000000	0.003538
3490.000000	0.003490
3489.000000	0.003519
3488.000000	0.003644
3487.000000	0.003788
3486.000000	0.003833
3485.000000	0.003769
3484.000000	0.003712
3483.000000	0.003746
3482.000000	0.003848
3481.000000	0.003959
3480.000000	0.004044
3479.000000	0.004070
3478.000000	0.004007
3477.000000	0.003899
3476.000000	0.003840
3475.000000	0.003855
3474.000000	0.003873
3473.000000	0.003844
3472.000000	0.003798
3471.000000	0.003761
3470.000000	0.003734
3469.000000	0.003754
3468.000000	0.003844
3467.000000	0.003935
3466.000000	0.003935
3465.000000	0.003857
3464.000000	0.003798
3463.000000	0.003814
3462.000000	0.003888
3461.000000	0.003996
3460.000000	0.004116
3459.000000	0.004194
3458.000000	0.004186
3457.000000	0.004126
3456.000000	0.004084
3455.000000	0.004077
3454.000000	0.004091
3453.000000	0.004093
3452.000000	0.004044
3451.000000	0.003940
3450.000000	0.003845
3449.000000	0.003868
3448.000000	0.004051
3447.000000	0.004300
3446.000000	0.004472
3445.000000	0.004521
3444.000000	0.004500
3443.000000	0.004464
3442.000000	0.004428
3441.000000	0.004399
3440.000000	0.004388
3439.000000	0.004393
3438.000000	0.004399
3437.000000	0.004397
3436.000000	0.004387
3435.000000	0.004373
3434.000000	0.004373
3433.000000	0.004389
3432.000000	0.004419
3431.000000	0.004473
3430.000000	0.004545
3429.000000	0.004611
3428.000000	0.004650
3427.000000	0.004670
3426.000000	0.004667
3425.000000	0.004627
3424.000000	0.004566
3423.000000	0.004537
3422.000000	0.004581
3421.000000	0.004689
3420.000000	0.004814
3419.000000	0.004903
3418.000000	0.004912
3417.000000	0.004838
3416.000000	0.004728
3415.000000	0.004648
3414.000000	0.004626
3413.000000	0.004642
3412.000000	0.004679
3411.000000	0.004734
3410.000000	0.004797
3409.000000	0.004851
3408.000000	0.004892
3407.000000	0.004925
3406.000000	0.004931
3405.000000	0.004903
3404.000000	0.004881
3403.000000	0.004899
3402.000000	0.004944
3401.000000	0.004995
3400.000000	0.005075
3399.000000	0.005191
3398.000000	0.005281
3397.000000	0.005275
3396.000000	0.005186
3395.000000	0.005094
3394.000000	0.005068
3393.000000	0.005122
3392.000000	0.005222
3391.000000	0.005307
3390.000000	0.005324
3389.000000	0.005275
3388.000000	0.005215
3387.000000	0.005182
3386.000000	0.005172
3385.000000	0.005170
3384.000000	0.005178
3383.000000	0.005185
3382.000000	0.005171
3381.000000	0.005152
3380.000000	0.005174
3379.000000	0.005244
3378.000000	0.005324
3377.000000	0.005381
3376.000000	0.005413
3375.000000	0.005408
3374.000000	0.005347
3373.000000	0.005263
3372.000000	0.005225
3371.000000	0.005258
3370.000000	0.005333
3369.000000	0.005420
3368.000000	0.005509
3367.000000	0.005573
3366.000000	0.005581
3365.000000	0.005546
3364.000000	0.005524
3363.000000	0.005553
3362.000000	0.005622
3361.000000	0.005696
3360.000000	0.005740
3359.000000	0.005729
3358.000000	0.005677
3357.000000	0.005639
3356.000000	0.005659
3355.000000	0.005706
3354.000000	0.005722
3353.000000	0.005708
3352.000000	0.005719
3351.000000	0.005777
3350.000000	0.005851
3349.000000	0.005916
3348.000000	0.005970
3347.000000	0.006009
3346.000000	0.006016
3345.000000	0.006007
3344.000000	0.006019
3343.000000	0.006051
3342.000000	0.006062
3341.000000	0.006041
3340.000000	0.006026
3339.000000	0.006051
3338.000000	0.006117
3337.000000	0.006215
3336.000000	0.006329
3335.000000	0.006422
3334.000000	0.006448
3333.000000	0.006400
3332.000000	0.006319
3331.000000	0.006251
3330.000000	0.006218
3329.000000	0.006221
3328.000000	0.006256
3327.000000	0.006303
3326.000000	0.006343
3325.000000	0.006382
3324.000000	0.006438
3323.000000	0.006502
3322.000000	0.006537
3321.000000	0.006531
3320.000000	0.006506
3319.000000	0.006488
3318.000000	0.006480
3317.000000	0.006478
3316.000000	0.006484
3315.000000	0.006493
3314.000000	0.006501
3313.000000	0.006509
3312.000000	0.006511
3311.000000	0.006501
3310.000000	0.006494
3309.000000	0.006520
3308.000000	0.006589
3307.000000	0.006663
3306.000000	0.006698
3305.000000	0.006702
3304.000000	0.006703
3303.000000	0.006709
3302.000000	0.006709
3301.000000	0.006714
3300.000000	0.006739
3299.000000	0.006771
3298.000000	0.006785
3297.000000	0.006784
3296.000000	0.006790
3295.000000	0.006805
3294.000000	0.006813
3293.000000	0.006816
3292.000000	0.006822
3291.000000	0.006814
3290.000000	0.006772
3289.000000	0.006708
3288.000000	0.006655
3287.000000	0.006628
3286.000000	0.006629
3285.000000	0.006664
3284.000000	0.006731
3283.000000	0.006788
3282.000000	0.006790
3281.000000	0.006755
3280.000000	0.006732
3279.000000	0.006721
3278.000000	0.006684
3277.000000	0.006611
3276.000000	0.006546
3275.000000	0.006526
3274.000000	0.006545
3273.000000	0.006588
3272.000000	0.006646
3271.000000	0.006701
3270.000000	0.006740
3269.000000	0.006762
3268.000000	0.006776
3267.000000	0.006774
3266.000000	0.006737
3265.000000	0.006679
3264.000000	0.006635
3263.000000	0.006614
3262.000000	0.006596
3261.000000	0.006580
3260.000000	0.006569
3259.000000	0.006539
3258.000000	0.006485
3257.000000	0.006457
3256.000000	0.006513
3255.000000	0.006632
3254.000000	0.006728
3253.000000	0.006749
3252.000000	0.006713
3251.000000	0.006650
3250.000000	0.006566
3249.000000	0.006478
3248.000000	0.006421
3247.000000	0.006414
3246.000000	0.006452
3245.000000	0.006516
3244.000000	0.006581
3243.000000	0.006609
3242.000000	0.006580
3241.000000	0.006528
3240.000000	0.006493
3239.000000	0.006468
3238.000000	0.006424
3237.000000	0.006367
3236.000000	0.006329
3235.000000	0.006322
3234.000000	0.006338
3233.000000	0.006369
3232.000000	0.006402
3231.000000	0.006412
3230.000000	0.006395
3229.000000	0.006387
3228.000000	0.006408
3227.000000	0.006421
3226.000000	0.006398
3225.000000	0.006363
3224.000000	0.006354
3223.000000	0.006351
3222.000000	0.006320
3221.000000	0.006286
3220.000000	0.006296
3219.000000	0.006326
3218.000000	0.006315
3217.000000	0.006269
3216.000000	0.006248
3215.000000	0.006278
3214.000000	0.006322
3213.000000	0.006341
3212.000000	0.006331
3211.000000	0.006313
3210.000000	0.006317
3209.000000	0.006363
3208.000000	0.006432
3207.000000	0.006469
3206.000000	0.006440
3205.000000	0.006373
3204.000000	0.006321
3203.000000	0.006298
3202.000000	0.006276
3201.000000	0.006240
3200.000000	0.006202
3199.000000	0.006187
3198.000000	0.006217
3197.000000	0.006286
3196.000000	0.006344
3195.000000	0.006337
3194.000000	0.006272
3193.000000	0.006207
3192.000000	0.006177
3191.000000	0.006153
3190.000000	0.006105
3189.000000	0.006050
3188.000000	0.006021
3187.000000	0.006028
3186.000000	0.006072
3185.000000	0.006153
3184.000000	0.006223
3183.000000	0.006207
3182.000000	0.006105
3181.000000	0.006009
3180.000000	0.005995
3179.000000	0.006048
3178.000000	0.006110
3177.000000	0.006149
3176.000000	0.006148
3175.000000	0.006097
3174.000000	0.006012
3173.000000	0.005948
3172.000000	0.005934
3171.000000	0.005925
3170.000000	0.005877
3169.000000	0.005808
3168.000000	0.005762
3167.000000	0.005751
3166.000000	0.005758
3165.000000	0.005771
3164.000000	0.005773
3163.000000	0.005749
3162.000000	0.005717
3161.000000	0.005714
3160.000000	0.005744
3159.000000	0.005775
3158.000000	0.005792
3157.000000	0.005797
3156.000000	0.005773
3155.000000	0.005698
3154.000000	0.005604
3153.000000	0.005566
3152.000000	0.005603
3151.000000	0.005660
3150.000000	0.005691
3149.000000	0.005704
3148.000000	0.005706
3147.000000	0.005677
3146.000000	0.005613
3145.000000	0.005550
3144.000000	0.005515
3143.000000	0.005493
3142.000000	0.005473
3141.000000	0.005479
3140.000000	0.005525
3139.000000	0.005576
3138.000000	0.005593
3137.000000	0.005580
3136.000000	0.005552
3135.000000	0.005516
3134.000000	0.005491
3133.000000	0.005513
3132.000000	0.005565
3131.000000	0.005577
3130.000000	0.005526
3129.000000	0.005462
3128.000000	0.005427
3127.000000	0.005397
3126.000000	0.005347
3125.000000	0.005294
3124.000000	0.005260
3123.000000	0.005254
3122.000000	0.005273
3121.000000	0.005314
3120.000000	0.005355
3119.000000	0.005374
3118.000000	0.005386
3117.000000	0.005435
3116.000000	0.005511
3115.000000	0.005553
3114.000000	0.005536
3113.000000	0.005490
3112.000000	0.005441
3111.000000	0.005391
3110.000000	0.005356
3109.000000	0.005367
3108.000000	0.005406
3107.000000	0.005422
3106.000000	0.005402
3105.000000	0.005374
3104.000000	0.005361
3103.000000	0.005370
3102.000000	0.005416
3101.000000	0.005492
3100.000000	0.005547
3099.000000	0.005525
3098.000000	0.005448
3097.000000	0.005401
3096.000000	0.005439
3095.000000	0.005518
3094.000000	0.005569
3093.000000	0.005565
3092.000000	0.005522
3091.000000	0.005460
3090.000000	0.005401
3089.000000	0.005358
3088.000000	0.005331
3087.000000	0.005309
3086.000000	0.005297
3085.000000	0.005311
3084.000000	0.005341
3083.000000	0.005362
3082.000000	0.005366
3081.000000	0.005374
3080.000000	0.005393
3079.000000	0.005412
3078.000000	0.005424
3077.000000	0.005438
3076.000000	0.005438
3075.000000	0.005405
3074.000000	0.005357
3073.000000	0.005334
3072.000000	0.005343
3071.000000	0.005357
3070.000000	0.005363
3069.000000	0.005375
3068.000000	0.005397
3067.000000	0.005418
3066.000000	0.005435
3065.000000	0.005458
3064.000000	0.005484
3063.000000	0.005489
3062.000000	0.005466
3061.000000	0.005433
3060.000000	0.005402
3059.000000	0.005369
3058.000000	0.005341
3057.000000	0.005341
3056.000000	0.005377
3055.000000	0.005419
3054.000000	0.005435
3053.000000	0.005418
3052.000000	0.005372
3051.000000	0.005311
3050.000000	0.005257
3049.000000	0.005233
3048.000000	0.005235
3047.000000	0.005230
3046.000000	0.005202
3045.000000	0.005172
3044.000000	0.005154
3043.000000	0.005135
3042.000000	0.005102
3041.000000	0.005064
3040.000000	0.005016
3039.000000	0.004939
3038.000000	0.004841
3037.000000	0.004772
3036.000000	0.004767
3035.000000	0.004798
3034.000000	0.004818
3033.000000	0.004829
3032.000000	0.004859
3031.000000	0.004898
3030.000000	0.004896
3029.000000	0.004826
3028.000000	0.004709
3027.000000	0.004593
3026.000000	0.004518
3025.000000	0.004494
3024.000000	0.004491
3023.000000	0.004474
3022.000000	0.004441
3021.000000	0.004420
3020.000000	0.004433
3019.000000	0.004486
3018.000000	0.004570
3017.000000	0.004666
3016.000000	0.004750
3015.000000	0.004802
3014.000000	0.004836
3013.000000	0.004883
3012.000000	0.004950
3011.000000	0.005007
3010.000000	0.005018
3009.000000	0.004976
3008.000000	0.004893
3007.000000	0.004795
3006.000000	0.004719
3005.000000	0.004690
3004.000000	0.004688
3003.000000	0.004676
3002.000000	0.004637
3001.000000	0.004593
3000.000000	0.004567
2999.000000	0.004562
2998.000000	0.004575
2997.000000	0.004608
2996.000000	0.004648
2995.000000	0.004672
2994.000000	0.004674
2993.000000	0.004668
2992.000000	0.004669
2991.000000	0.004681
2990.000000	0.004703
2989.000000	0.004738
2988.000000	0.004768
2987.000000	0.004762
2986.000000	0.004719
2985.000000	0.004684
2984.000000	0.004696
2983.000000	0.004740
2982.000000	0.004780
2981.000000	0.004797
2980.000000	0.004794
2979.000000	0.004782
2978.000000	0.004771
2977.000000	0.004762
2976.000000	0.004741
2975.000000	0.004689
2974.000000	0.004603
2973.000000	0.004501
2972.000000	0.004407
2971.000000	0.004337
2970.000000	0.004307
2969.000000	0.004328
2968.000000	0.004387
2967.000000	0.004469
2966.000000	0.004575
2965.000000	0.004720
2964.000000	0.004881
2963.000000	0.005010
2962.000000	0.005090
2961.000000	0.005144
2960.000000	0.005195
2959.000000	0.005243
2958.000000	0.005288
2957.000000	0.005342
2956.000000	0.005410
2955.000000	0.005477
2954.000000	0.005528
2953.000000	0.005550
2952.000000	0.005525
2951.000000	0.005449
2950.000000	0.005357
2949.000000	0.005292
2948.000000	0.005247
2947.000000	0.005180
2946.000000	0.005085
2945.000000	0.005006
2944.000000	0.004976
2943.000000	0.004975
2942.000000	0.004966
2941.000000	0.004936
2940.000000	0.004898
2939.000000	0.004877
2938.000000	0.004903
2937.000000	0.004985
2936.000000	0.005089
2935.000000	0.005172
2934.000000	0.005222
2933.000000	0.005261
2932.000000	0.005296
2931.000000	0.005325
2930.000000	0.005374
2929.000000	0.005491
2928.000000	0.005691
2927.000000	0.005939
2926.000000	0.006196
2925.000000	0.006446
2924.000000	0.006681
2923.000000	0.006877
2922.000000	0.007027
2921.000000	0.007143
2920.000000	0.007233
2919.000000	0.007291
2918.000000	0.007312
2917.000000	0.007292
2916.000000	0.007218
2915.000000	0.007088
2914.000000	0.006932
2913.000000	0.006785
2912.000000	0.006650
2911.000000	0.006508
2910.000000	0.006365
2909.000000	0.006250
2908.000000	0.006173
2907.000000	0.006117
2906.000000	0.006066
2905.000000	0.006021
2904.000000	0.005974
2903.000000	0.005912
2902.000000	0.005847
2901.000000	0.005798
2900.000000	0.005764
2899.000000	0.005728
2898.000000	0.005698
2897.000000	0.005698
2896.000000	0.005719
2895.000000	0.005722
2894.000000	0.005694
2893.000000	0.005654
2892.000000	0.005623
2891.000000	0.005597
2890.000000	0.005572
2889.000000	0.005554
2888.000000	0.005547
2887.000000	0.005543
2886.000000	0.005535
2885.000000	0.005514
2884.000000	0.005470
2883.000000	0.005409
2882.000000	0.005359
2881.000000	0.005337
2880.000000	0.005320
2879.000000	0.005273
2878.000000	0.005202
2877.000000	0.005145
2876.000000	0.005122
2875.000000	0.005122
2874.000000	0.005137
2873.000000	0.005156
2872.000000	0.005151
2871.000000	0.005094
2870.000000	0.004991
2869.000000	0.004878
2868.000000	0.004774
2867.000000	0.004680
2866.000000	0.004612
2865.000000	0.004605
2864.000000	0.004674
2863.000000	0.004808
2862.000000	0.004986
2861.000000	0.005182
2860.000000	0.005353
2859.000000	0.005471
2858.000000	0.005556
2857.000000	0.005646
2856.000000	0.005753
2855.000000	0.005858
2854.000000	0.005955
2853.000000	0.006053
2852.000000	0.006145
2851.000000	0.006212
2850.000000	0.006252
2849.000000	0.006272
2848.000000	0.006257
2847.000000	0.006189
2846.000000	0.006084
2845.000000	0.005979
2844.000000	0.005891
2843.000000	0.005809
2842.000000	0.005725
2841.000000	0.005644
2840.000000	0.005561
2839.000000	0.005471
2838.000000	0.005390
2837.000000	0.005336
2836.000000	0.005294
2835.000000	0.005238
2834.000000	0.005179
2833.000000	0.005152
2832.000000	0.005160
2831.000000	0.005161
2830.000000	0.005128
2829.000000	0.005078
2828.000000	0.005044
2827.000000	0.005038
2826.000000	0.005057
2825.000000	0.005087
2824.000000	0.005112
2823.000000	0.005124
2822.000000	0.005127
2821.000000	0.005117
2820.000000	0.005077
2819.000000	0.005009
2818.000000	0.004950
2817.000000	0.004939
2816.000000	0.004958
2815.000000	0.004964
2814.000000	0.004942
2813.000000	0.004912
2812.000000	0.004887
2811.000000	0.004867
2810.000000	0.004857
2809.000000	0.004859
2808.000000	0.004860
2807.000000	0.004836
2806.000000	0.004792
2805.000000	0.004746
2804.000000	0.004710
2803.000000	0.004689
2802.000000	0.004698
2801.000000	0.004739
2800.000000	0.004781
2799.000000	0.004797
2798.000000	0.004805
2797.000000	0.004834
2796.000000	0.004879
2795.000000	0.004902
2794.000000	0.004892
2793.000000	0.004867
2792.000000	0.004843
2791.000000	0.004823
2790.000000	0.004820
2789.000000	0.004844
2788.000000	0.004876
2787.000000	0.004884
2786.000000	0.004868
2785.000000	0.004852
2784.000000	0.004842
2783.000000	0.004825
2782.000000	0.004797
2781.000000	0.004769
2780.000000	0.004743
2779.000000	0.004713
2778.000000	0.004681
2777.000000	0.004655
2776.000000	0.004636
2775.000000	0.004624
2774.000000	0.004631
2773.000000	0.004656
2772.000000	0.004673
2771.000000	0.004658
2770.000000	0.004622
2769.000000	0.004598
2768.000000	0.004591
2767.000000	0.004591
2766.000000	0.004593
2765.000000	0.004606
2764.000000	0.004621
2763.000000	0.004624
2762.000000	0.004621
2761.000000	0.004629
2760.000000	0.004643
2759.000000	0.004643
2758.000000	0.004631
2757.000000	0.004618
2756.000000	0.004607
2755.000000	0.004593
2754.000000	0.004580
2753.000000	0.004572
2752.000000	0.004561
2751.000000	0.004538
2750.000000	0.004510
2749.000000	0.004489
2748.000000	0.004471
2747.000000	0.004464
2746.000000	0.004489
2745.000000	0.004549
2744.000000	0.004603
2743.000000	0.004618
2742.000000	0.004608
2741.000000	0.004607
2740.000000	0.004612
2739.000000	0.004597
2738.000000	0.004560
2737.000000	0.004517
2736.000000	0.004482
2735.000000	0.004466
2734.000000	0.004486
2733.000000	0.004537
2732.000000	0.004575
2731.000000	0.004570
2730.000000	0.004546
2729.000000	0.004548
2728.000000	0.004573
2727.000000	0.004585
2726.000000	0.004570
2725.000000	0.004540
2724.000000	0.004498
2723.000000	0.004446
2722.000000	0.004417
2721.000000	0.004446
2720.000000	0.004520
2719.000000	0.004581
2718.000000	0.004598
2717.000000	0.004581
2716.000000	0.004555
2715.000000	0.004537
2714.000000	0.004533
2713.000000	0.004542
2712.000000	0.004543
2711.000000	0.004524
2710.000000	0.004505
2709.000000	0.004505
2708.000000	0.004517
2707.000000	0.004523
2706.000000	0.004523
2705.000000	0.004530
2704.000000	0.004531
2703.000000	0.004512
2702.000000	0.004488
2701.000000	0.004484
2700.000000	0.004495
2699.000000	0.004497
2698.000000	0.004484
2697.000000	0.004468
2696.000000	0.004453
2695.000000	0.004438
2694.000000	0.004437
2693.000000	0.004462
2692.000000	0.004491
2691.000000	0.004503
2690.000000	0.004502
2689.000000	0.004505
2688.000000	0.004507
2687.000000	0.004497
2686.000000	0.004487
2685.000000	0.004498
2684.000000	0.004525
2683.000000	0.004546
2682.000000	0.004555
2681.000000	0.004558
2680.000000	0.004545
2679.000000	0.004510
2678.000000	0.004472
2677.000000	0.004453
2676.000000	0.004446
2675.000000	0.004435
2674.000000	0.004424
2673.000000	0.004422
2672.000000	0.004416
2671.000000	0.004394
2670.000000	0.004365
2669.000000	0.004350
2668.000000	0.004339
2667.000000	0.004307
2666.000000	0.004244
2665.000000	0.004144
2664.000000	0.003990
2663.000000	0.003780
2662.000000	0.003554
2661.000000	0.003365
2660.000000	0.003226
2659.000000	0.003115
2658.000000	0.003018
2657.000000	0.002938
2656.000000	0.002868
2655.000000	0.002796
2654.000000	0.002720
2653.000000	0.002640
2652.000000	0.002556
2651.000000	0.002481
2650.000000	0.002444
2649.000000	0.002447
2648.000000	0.002448
2647.000000	0.002414
2646.000000	0.002366
2645.000000	0.002335
2644.000000	0.002320
2643.000000	0.002305
2642.000000	0.002298
2641.000000	0.002311
2640.000000	0.002323
2639.000000	0.002311
2638.000000	0.002286
2637.000000	0.002271
2636.000000	0.002252
2635.000000	0.002212
2634.000000	0.002172
2633.000000	0.002166
2632.000000	0.002179
2631.000000	0.002176
2630.000000	0.002149
2629.000000	0.002117
2628.000000	0.002087
2627.000000	0.002072
2626.000000	0.002100
2625.000000	0.002171
2624.000000	0.002229
2623.000000	0.002224
2622.000000	0.002175
2621.000000	0.002131
2620.000000	0.002109
2619.000000	0.002103
2618.000000	0.002121
2617.000000	0.002164
2616.000000	0.002202
2615.000000	0.002223
2614.000000	0.002258
2613.000000	0.002315
2612.000000	0.002343
2611.000000	0.002316
2610.000000	0.002294
2609.000000	0.002347
2608.000000	0.002452
2607.000000	0.002536
2606.000000	0.002576
2605.000000	0.002598
2604.000000	0.002606
2603.000000	0.002600
2602.000000	0.002604
2601.000000	0.002634
2600.000000	0.002642
2599.000000	0.002586
2598.000000	0.002503
2597.000000	0.002468
2596.000000	0.002496
2595.000000	0.002543
2594.000000	0.002576
2593.000000	0.002590
2592.000000	0.002586
2591.000000	0.002586
2590.000000	0.002623
2589.000000	0.002688
2588.000000	0.002713
2587.000000	0.002670
2586.000000	0.002632
2585.000000	0.002667
2584.000000	0.002744
2583.000000	0.002793
2582.000000	0.002814
2581.000000	0.002846
2580.000000	0.002885
2579.000000	0.002911
2578.000000	0.002950
2577.000000	0.003032
2576.000000	0.003116
2575.000000	0.003135
2574.000000	0.003089
2573.000000	0.003026
2572.000000	0.002965
2571.000000	0.002902
2570.000000	0.002849
2569.000000	0.002817
2568.000000	0.002800
2567.000000	0.002817
2566.000000	0.002921
2565.000000	0.003098
2564.000000	0.003243
2563.000000	0.003282
2562.000000	0.003260
2561.000000	0.003246
2560.000000	0.003233
2559.000000	0.003193
2558.000000	0.003164
2557.000000	0.003181
2556.000000	0.003197
2555.000000	0.003168
2554.000000	0.003151
2553.000000	0.003219
2552.000000	0.003332
2551.000000	0.003399
2550.000000	0.003407
2549.000000	0.003415
2548.000000	0.003431
2547.000000	0.003421
2546.000000	0.003375
2545.000000	0.003314
2544.000000	0.003248
2543.000000	0.003203
2542.000000	0.003238
2541.000000	0.003362
2540.000000	0.003486
2539.000000	0.003524
2538.000000	0.003499
2537.000000	0.003483
2536.000000	0.003476
2535.000000	0.003433
2534.000000	0.003357
2533.000000	0.003278
2532.000000	0.003200
2531.000000	0.003140
2530.000000	0.003150
2529.000000	0.003245
2528.000000	0.003346
2527.000000	0.003382
2526.000000	0.003391
2525.000000	0.003440
2524.000000	0.003513
2523.000000	0.003554
2522.000000	0.003570
2521.000000	0.003586
2520.000000	0.003569
2519.000000	0.003488
2518.000000	0.003403
2517.000000	0.003395
2516.000000	0.003448
2515.000000	0.003489
2514.000000	0.003509
2513.000000	0.003550
2512.000000	0.003618
2511.000000	0.003678
2510.000000	0.003714
2509.000000	0.003724
2508.000000	0.003687
2507.000000	0.003612
2506.000000	0.003563
2505.000000	0.003579
2504.000000	0.003613
2503.000000	0.003606
2502.000000	0.003577
2501.000000	0.003562
2500.000000	0.003546
2499.000000	0.003518
2498.000000	0.003533
2497.000000	0.003628
2496.000000	0.003747
2495.000000	0.003804
2494.000000	0.003790
2493.000000	0.003740
2492.000000	0.003655
2491.000000	0.003534
2490.000000	0.003435
2489.000000	0.003407
2488.000000	0.003436
2487.000000	0.003486
2486.000000	0.003561
2485.000000	0.003656
2484.000000	0.003712
2483.000000	0.003699
2482.000000	0.003672
2481.000000	0.003689
2480.000000	0.003727
2479.000000	0.003752
2478.000000	0.003783
2477.000000	0.003829
2476.000000	0.003836
2475.000000	0.003772
2474.000000	0.003697
2473.000000	0.003659
2472.000000	0.003619
2471.000000	0.003540
2470.000000	0.003482
2469.000000	0.003508
2468.000000	0.003568
2467.000000	0.003574
2466.000000	0.003528
2465.000000	0.003492
2464.000000	0.003489
2463.000000	0.003507
2462.000000	0.003547
2461.000000	0.003591
2460.000000	0.003577
2459.000000	0.003487
2458.000000	0.003394
2457.000000	0.003351
2456.000000	0.003315
2455.000000	0.003237
2454.000000	0.003162
2453.000000	0.003138
2452.000000	0.003122
2451.000000	0.003074
2450.000000	0.003045
2449.000000	0.003084
2448.000000	0.003139
2447.000000	0.003145
2446.000000	0.003151
2445.000000	0.003239
2444.000000	0.003373
2443.000000	0.003462
2442.000000	0.003497
2441.000000	0.003544
2440.000000	0.003622
2439.000000	0.003695
2438.000000	0.003733
2437.000000	0.003725
2436.000000	0.003664
2435.000000	0.003600
2434.000000	0.003637
2433.000000	0.003795
2432.000000	0.003957
2431.000000	0.004018
2430.000000	0.004023
2429.000000	0.004057
2428.000000	0.004097
2427.000000	0.004078
2426.000000	0.004022
2425.000000	0.003997
2424.000000	0.004009
2423.000000	0.004025
2422.000000	0.004062
2421.000000	0.004138
2420.000000	0.004202
2419.000000	0.004194
2418.000000	0.004138
2417.000000	0.004100
2416.000000	0.004086
2415.000000	0.004075
2414.000000	0.004078
2413.000000	0.004089
2412.000000	0.004061
2411.000000	0.003982
2410.000000	0.003939
2409.000000	0.004007
2408.000000	0.004150
2407.000000	0.004303
2406.000000	0.004464
2405.000000	0.004637
2404.000000	0.004757
2403.000000	0.004784
2402.000000	0.004779
2401.000000	0.004806
2400.000000	0.004825
2399.000000	0.004783
2398.000000	0.004726
2397.000000	0.004713
2396.000000	0.004701
2395.000000	0.004631
2394.000000	0.004564
2393.000000	0.004598
2392.000000	0.004708
2391.000000	0.004776
2390.000000	0.004773
2389.000000	0.004756
2388.000000	0.004757
2387.000000	0.004754
2386.000000	0.004746
2385.000000	0.004758
2384.000000	0.004760
2383.000000	0.004708
2382.000000	0.004608
2381.000000	0.004496
2380.000000	0.004355
2379.000000	0.004136
2378.000000	0.003864
2377.000000	0.003613
2376.000000	0.003417
2375.000000	0.003287
2374.000000	0.003341
2373.000000	0.003677
2372.000000	0.004192
2371.000000	0.004652
2370.000000	0.004924
2369.000000	0.005138
2368.000000	0.005371
2367.000000	0.005454
2366.000000	0.005297
2365.000000	0.005160
2364.000000	0.005138
2363.000000	0.004817
2362.000000	0.004282
2361.000000	0.004232
2360.000000	0.004482
2359.000000	0.004758
2358.000000	0.005024
2357.000000	0.005353
2356.000000	0.006267
2355.000000	0.007201
2354.000000	0.007865
2353.000000	0.008210
2352.000000	0.007341
2351.000000	0.005045
2350.000000	0.002864
2349.000000	0.004699
2348.000000	0.010826
2347.000000	0.016750
2346.000000	0.017690
2345.000000	0.011635
2344.000000	0.002678
2343.000000	-0.003489
2342.000000	-0.003918
2341.000000	-0.000759
2340.000000	0.001706
2339.000000	0.003172
2338.000000	0.003942
2337.000000	0.004684
2336.000000	0.005165
2335.000000	0.005409
2334.000000	0.005783
2333.000000	0.006460
2332.000000	0.007202
2331.000000	0.007404
2330.000000	0.006772
2329.000000	0.005883
2328.000000	0.005288
2327.000000	0.004662
2326.000000	0.004731
2325.000000	0.004540
2324.000000	0.004707
2323.000000	0.004320
2322.000000	0.004055
2321.000000	0.004126
2320.000000	0.004431
2319.000000	0.004978
2318.000000	0.005256
2317.000000	0.005647
2316.000000	0.006040
2315.000000	0.006463
2314.000000	0.006608
2313.000000	0.006165
2312.000000	0.005382
2311.000000	0.004413
2310.000000	0.003862
2309.000000	0.003437
2308.000000	0.003276
2307.000000	0.002934
2306.000000	0.002769
2305.000000	0.002530
2304.000000	0.002433
2303.000000	0.002231
2302.000000	0.002125
2301.000000	0.001970
2300.000000	0.001805
2299.000000	0.001530
2298.000000	0.001358
2297.000000	0.001210
2296.000000	0.001155
2295.000000	0.001036
2294.000000	0.001029
2293.000000	0.000949
2292.000000	0.000842
2291.000000	0.000578
2290.000000	0.000390
2289.000000	0.000267
2288.000000	0.000210
2287.000000	0.000108
2286.000000	0.000020
2285.000000	-0.000014
2284.000000	0.000036
2283.000000	0.000210
2282.000000	0.000504
2281.000000	0.000787
2280.000000	0.000865
2279.000000	0.000796
2278.000000	0.000781
2277.000000	0.000909
2276.000000	0.001015
2275.000000	0.001045
2274.000000	0.001077
2273.000000	0.001160
2272.000000	0.001202
2271.000000	0.001171
2270.000000	0.001184
2269.000000	0.001252
2268.000000	0.001279
2267.000000	0.001261
2266.000000	0.001348
2265.000000	0.001569
2264.000000	0.001754
2263.000000	0.001812
2262.000000	0.001855
2261.000000	0.001909
2260.000000	0.001880
2259.000000	0.001745
2258.000000	0.001671
2257.000000	0.001735
2256.000000	0.001824
2255.000000	0.001936
2254.000000	0.002179
2253.000000	0.002524
2252.000000	0.002691
2251.000000	0.002576
2250.000000	0.002370
2249.000000	0.002224
2248.000000	0.002058
2247.000000	0.001822
2246.000000	0.001696
2245.000000	0.001779
2244.000000	0.001933
2243.000000	0.001998
2242.000000	0.001995
2241.000000	0.001944
2240.000000	0.001804
2239.000000	0.001664
2238.000000	0.001718
2237.000000	0.001921
2236.000000	0.001990
2235.000000	0.001855
2234.000000	0.001773
2233.000000	0.001885
2232.000000	0.002019
2231.000000	0.002061
2230.000000	0.002145
2229.000000	0.002311
2228.000000	0.002369
2227.000000	0.002276
2226.000000	0.002267
2225.000000	0.002435
2224.000000	0.002559
2223.000000	0.002536
2222.000000	0.002573
2221.000000	0.002769
2220.000000	0.002888
2219.000000	0.002763
2218.000000	0.002558
2217.000000	0.002427
2216.000000	0.002279
2215.000000	0.002083
2214.000000	0.002013
2213.000000	0.002084
2212.000000	0.002046
2211.000000	0.001813
2210.000000	0.001625
2209.000000	0.001601
2208.000000	0.001554
2207.000000	0.001425
2206.000000	0.001469
2205.000000	0.001791
2204.000000	0.002131
2203.000000	0.002317
2202.000000	0.002483
2201.000000	0.002659
2200.000000	0.002605
2199.000000	0.002276
2198.000000	0.001971
2197.000000	0.001843
2196.000000	0.001686
2195.000000	0.001421
2194.000000	0.001296
2193.000000	0.001387
2192.000000	0.001412
2191.000000	0.001262
2190.000000	0.001234
2189.000000	0.001481
2188.000000	0.001736
2187.000000	0.001797
2186.000000	0.001793
2185.000000	0.001781
2184.000000	0.001663
2183.000000	0.001660
2182.000000	0.002192
2181.000000	0.003030
2180.000000	0.003333
2179.000000	0.002828
2178.000000	0.002233
2177.000000	0.002237
2176.000000	0.002690
2175.000000	0.003123
2174.000000	0.003372
2173.000000	0.003344
2172.000000	0.002834
2171.000000	0.001942
2170.000000	0.001127
2169.000000	0.000554
2168.000000	-0.000080
2167.000000	-0.000841
2166.000000	-0.001333
2165.000000	-0.001484
2164.000000	-0.001850
2163.000000	-0.002642
2162.000000	-0.003130
2161.000000	-0.002384
2160.000000	-0.000136
2159.000000	0.003308
2158.000000	0.007177
2157.000000	0.010146
2156.000000	0.011245
2155.000000	0.010871
2154.000000	0.010151
2153.000000	0.009527
2152.000000	0.008679
2151.000000	0.007597
2150.000000	0.006826
2149.000000	0.006584
2148.000000	0.006496
2147.000000	0.006401
2146.000000	0.006601
2145.000000	0.007125
2144.000000	0.007495
2143.000000	0.007450
2142.000000	0.007216
2141.000000	0.006959
2140.000000	0.006586
2139.000000	0.006221
2138.000000	0.006247
2137.000000	0.006727
2136.000000	0.007322
2135.000000	0.007865
2134.000000	0.008445
2133.000000	0.008884
2132.000000	0.008799
2131.000000	0.008224
2130.000000	0.007634
2129.000000	0.007274
2128.000000	0.006945
2127.000000	0.006509
2126.000000	0.006121
2125.000000	0.005848
2124.000000	0.005538
2123.000000	0.005187
2122.000000	0.005007
2121.000000	0.005005
2120.000000	0.004914
2119.000000	0.004646
2118.000000	0.004403
2117.000000	0.004246
2116.000000	0.003979
2115.000000	0.003583
2114.000000	0.003333
2113.000000	0.003328
2112.000000	0.003321
2111.000000	0.003178
2110.000000	0.003101
2109.000000	0.003212
2108.000000	0.003315
2107.000000	0.003274
2106.000000	0.003251
2105.000000	0.003366
2104.000000	0.003494
2103.000000	0.003542
2102.000000	0.003570
2101.000000	0.003514
2100.000000	0.003205
2099.000000	0.002786
2098.000000	0.002699
2097.000000	0.003090
2096.000000	0.003623
2095.000000	0.004023
2094.000000	0.004329
2093.000000	0.004517
2092.000000	0.004376
2091.000000	0.003942
2090.000000	0.003562
2089.000000	0.003392
2088.000000	0.003234
2087.000000	0.002998
2086.000000	0.002870
2085.000000	0.002865
2084.000000	0.002689
2083.000000	0.002252
2082.000000	0.001866
2081.000000	0.001725
2080.000000	0.001666
2079.000000	0.001579
2078.000000	0.001626
2077.000000	0.001822
2076.000000	0.001891
2075.000000	0.001776
2074.000000	0.001747
2073.000000	0.001886
2072.000000	0.001936
2071.000000	0.001828
2070.000000	0.001858
2069.000000	0.002097
2068.000000	0.002218
2067.000000	0.002109
2066.000000	0.002091
2065.000000	0.002300
2064.000000	0.002405
2063.000000	0.002227
2062.000000	0.002033
2061.000000	0.001995
2060.000000	0.001927
2059.000000	0.001754
2058.000000	0.001667
2057.000000	0.001645
2056.000000	0.001415
2055.000000	0.001015
2054.000000	0.000694
2053.000000	0.000224
2052.000000	-0.000886
2051.000000	-0.002316
2050.000000	-0.002885
2049.000000	-0.002040
2048.000000	-0.000681
2047.000000	0.000174
2046.000000	0.000549
2045.000000	0.000723
2044.000000	0.000493
2043.000000	-0.000100
2042.000000	-0.000348
2041.000000	0.000045
2040.000000	0.000386
2039.000000	0.000207
2038.000000	0.000028
2037.000000	0.000285
2036.000000	0.000568
2035.000000	0.000613
2034.000000	0.000978
2033.000000	0.001899
2032.000000	0.002616
2031.000000	0.002684
2030.000000	0.002712
2029.000000	0.003164
2028.000000	0.003538
2027.000000	0.003445
2026.000000	0.003323
2025.000000	0.003485
2024.000000	0.003569
2023.000000	0.003446
2022.000000	0.003611
2021.000000	0.004116
2020.000000	0.004262
2019.000000	0.003862
2018.000000	0.003651
2017.000000	0.003938
2016.000000	0.004041
2015.000000	0.003637
2014.000000	0.003332
2013.000000	0.003431
2012.000000	0.003395
2011.000000	0.003023
2010.000000	0.002980
2009.000000	0.003626
2008.000000	0.004422
2007.000000	0.005029
2006.000000	0.005753
2005.000000	0.006503
2004.000000	0.006633
2003.000000	0.006105
2002.000000	0.005684
2001.000000	0.005574
2000.000000	0.005171
1999.000000	0.004343
1998.000000	0.003727
1997.000000	0.003641
1996.000000	0.003618
1995.000000	0.003382
1994.000000	0.003268
1993.000000	0.003380
1992.000000	0.003243
1991.000000	0.002770
1990.000000	0.002561
1989.000000	0.002783
1988.000000	0.002818
1987.000000	0.002396
1986.000000	0.002038
1985.000000	0.001940
1984.000000	0.001518
1983.000000	0.000453
1982.000000	-0.000656
1981.000000	-0.001296
1980.000000	-0.001556
1979.000000	-0.001319
1978.000000	-0.000077
1977.000000	0.001913
1976.000000	0.003411
1975.000000	0.003890
1974.000000	0.004042
1973.000000	0.004380
1972.000000	0.004578
1971.000000	0.004464
1970.000000	0.004454
1969.000000	0.004639
1968.000000	0.004554
1967.000000	0.004169
1966.000000	0.004077
1965.000000	0.004396
1964.000000	0.004547
1963.000000	0.004386
1962.000000	0.004526
1961.000000	0.005282
1960.000000	0.006205
1959.000000	0.006877
1958.000000	0.007304
1957.000000	0.007370
1956.000000	0.006809
1955.000000	0.005880
1954.000000	0.005210
1953.000000	0.004957
1952.000000	0.004702
1951.000000	0.004357
1950.000000	0.004404
1949.000000	0.004887
1948.000000	0.005203
1947.000000	0.005093
1946.000000	0.004943
1945.000000	0.004992
1944.000000	0.004995
1943.000000	0.004879
1942.000000	0.004918
1941.000000	0.005067
1940.000000	0.005015
1939.000000	0.004798
1938.000000	0.004768
1937.000000	0.004976
1936.000000	0.005097
1935.000000	0.005058
1934.000000	0.005103
1933.000000	0.005290
1932.000000	0.005280
1931.000000	0.005011
1930.000000	0.004919
1929.000000	0.005013
1928.000000	0.004956
1927.000000	0.004651
1926.000000	0.004491
1925.000000	0.004642
1924.000000	0.004669
1923.000000	0.004440
1922.000000	0.004293
1921.000000	0.004295
1920.000000	0.004102
1919.000000	0.003660
1918.000000	0.003484
1917.000000	0.003675
1916.000000	0.003756
1915.000000	0.003647
1914.000000	0.003639
1913.000000	0.003758
1912.000000	0.003702
1911.000000	0.003528
1910.000000	0.003700
1909.000000	0.004120
1908.000000	0.004308
1907.000000	0.004121
1906.000000	0.003962
1905.000000	0.003984
1904.000000	0.003763
1903.000000	0.003380
1902.000000	0.003401
1901.000000	0.003748
1900.000000	0.003833
1899.000000	0.003515
1898.000000	0.003283
1897.000000	0.003366
1896.000000	0.003340
1895.000000	0.003085
1894.000000	0.003017
1893.000000	0.003210
1892.000000	0.003238
1891.000000	0.003023
1890.000000	0.003044
1889.000000	0.003349
1888.000000	0.003402
1887.000000	0.003212
1886.000000	0.003263
1885.000000	0.003560
1884.000000	0.003574
1883.000000	0.003269
1882.000000	0.003181
1881.000000	0.003358
1880.000000	0.003398
1879.000000	0.003236
1878.000000	0.003207
1877.000000	0.003408
1876.000000	0.003428
1875.000000	0.003120
1874.000000	0.002951
1873.000000	0.003132
1872.000000	0.003221
1871.000000	0.002955
1870.000000	0.002820
1869.000000	0.003219
1868.000000	0.003581
1867.000000	0.003542
1866.000000	0.003573
1865.000000	0.003774
1864.000000	0.003689
1863.000000	0.003270
1862.000000	0.003066
1861.000000	0.003220
1860.000000	0.003240
1859.000000	0.002974
1858.000000	0.002879
1857.000000	0.003073
1856.000000	0.003101
1855.000000	0.002849
1854.000000	0.002852
1853.000000	0.003085
1852.000000	0.003156
1851.000000	0.003046
1850.000000	0.002961
1849.000000	0.002983
1848.000000	0.002958
1847.000000	0.002934
1846.000000	0.003049
1845.000000	0.003209
1844.000000	0.003192
1843.000000	0.002995
1842.000000	0.003057
1841.000000	0.003353
1840.000000	0.003413
1839.000000	0.003107
1838.000000	0.002943
1837.000000	0.003126
1836.000000	0.003176
1835.000000	0.002960
1834.000000	0.002847
1833.000000	0.002878
1832.000000	0.002864
1831.000000	0.002749
1830.000000	0.002786
1829.000000	0.002983
1828.000000	0.003049
1827.000000	0.002979
1826.000000	0.002929
1825.000000	0.003083
1824.000000	0.003194
1823.000000	0.003030
1822.000000	0.002889
1821.000000	0.003000
1820.000000	0.003247
1819.000000	0.003388
1818.000000	0.003668
1817.000000	0.004231
1816.000000	0.004434
1815.000000	0.004005
1814.000000	0.003427
1813.000000	0.003274
1812.000000	0.003372
1811.000000	0.003187
1810.000000	0.003023
1809.000000	0.003186
1808.000000	0.003189
1807.000000	0.002766
1806.000000	0.002395
1805.000000	0.002419
1804.000000	0.002348
1803.000000	0.002003
1802.000000	0.001812
1801.000000	0.002160
1800.000000	0.002571
1799.000000	0.002496
1798.000000	0.002326
1797.000000	0.002418
1796.000000	0.002455
1795.000000	0.002235
1794.000000	0.001915
1793.000000	0.001939
1792.000000	0.002193
1791.000000	0.002139
1790.000000	0.002078
1789.000000	0.002279
1788.000000	0.002307
1787.000000	0.001915
1786.000000	0.001593
1785.000000	0.001668
1784.000000	0.001621
1783.000000	0.001496
1782.000000	0.001485
1781.000000	0.001666
1780.000000	0.001904
1779.000000	0.001885
1778.000000	0.001823
1777.000000	0.001819
1776.000000	0.001908
1775.000000	0.002015
1774.000000	0.001716
1773.000000	0.001199
1772.000000	0.001256
1771.000000	0.001429
1770.000000	0.001451
1769.000000	0.001564
1768.000000	0.001554
1767.000000	0.001247
1766.000000	0.000818
1765.000000	0.000707
1764.000000	0.000758
1763.000000	0.000621
1762.000000	0.000269
1761.000000	0.000068
1760.000000	0.000073
1759.000000	0.000138
1758.000000	0.000120
1757.000000	-0.000075
1756.000000	-0.000169
1755.000000	-0.000208
1754.000000	-0.000427
1753.000000	-0.000954
1752.000000	-0.001269
1751.000000	-0.001063
1750.000000	-0.000557
1749.000000	-0.000007
1748.000000	0.000395
1747.000000	0.000589
1746.000000	0.000283
1745.000000	-0.000170
1744.000000	-0.000233
1743.000000	-0.000122
1742.000000	-0.000224
1741.000000	-0.000363
1740.000000	-0.000423
1739.000000	-0.000541
1738.000000	-0.000639
1737.000000	-0.000448
1736.000000	-0.000570
1735.000000	-0.001313
1734.000000	-0.001271
1733.000000	-0.000954
1732.000000	-0.000646
1731.000000	-0.000067
1730.000000	0.000438
1729.000000	0.000456
1728.000000	0.000111
1727.000000	-0.000163
1726.000000	-0.000403
1725.000000	-0.000413
1724.000000	-0.000277
1723.000000	-0.000356
1722.000000	-0.000369
1721.000000	-0.000030
1720.000000	0.000109
1719.000000	-0.000608
1718.000000	-0.000949
1717.000000	0.000017
1716.000000	0.000736
1715.000000	0.000746
1714.000000	0.000972
1713.000000	0.001511
1712.000000	0.001603
1711.000000	0.001187
1710.000000	0.000990
1709.000000	0.001204
1708.000000	0.001480
1707.000000	0.001548
1706.000000	0.001911
1705.000000	0.002725
1704.000000	0.003185
1703.000000	0.003299
1702.000000	0.002962
1701.000000	0.002476
1700.000000	0.002697
1699.000000	0.002466
1698.000000	0.003153
1697.000000	0.004711
1696.000000	0.005264
1695.000000	0.004351
1694.000000	0.003619
1693.000000	0.004157
1692.000000	0.004890
1691.000000	0.004978
1690.000000	0.005029
1689.000000	0.005428
1688.000000	0.006198
1687.000000	0.006735
1686.000000	0.006219
1685.000000	0.005413
1684.000000	0.006121
1683.000000	0.006886
1682.000000	0.007394
1681.000000	0.007907
1680.000000	0.008259
1679.000000	0.008568
1678.000000	0.008830
1677.000000	0.008791
1676.000000	0.008613
1675.000000	0.008972
1674.000000	0.009267
1673.000000	0.009545
1672.000000	0.010122
1671.000000	0.010857
1670.000000	0.011700
1669.000000	0.012172
1668.000000	0.012149
1667.000000	0.012217
1666.000000	0.012450
1665.000000	0.012608
1664.000000	0.012514
1663.000000	0.012811
1662.000000	0.013468
1661.000000	0.013660
1660.000000	0.013782
1659.000000	0.014182
1658.000000	0.014554
1657.000000	0.014855
1656.000000	0.015513
1655.000000	0.015597
1654.000000	0.014828
1653.000000	0.015530
1652.000000	0.014459
1651.000000	0.013432
1650.000000	0.014293
1649.000000	0.015609
1648.000000	0.016334
1647.000000	0.016890
1646.000000	0.017025
1645.000000	0.016484
1644.000000	0.015988
1643.000000	0.015968
1642.000000	0.016207
1641.000000	0.016181
1640.000000	0.016110
1639.000000	0.016193
1638.000000	0.016434
1637.000000	0.016553
1636.000000	0.017032
1635.000000	0.017344
1634.000000	0.016807
1633.000000	0.016482
1632.000000	0.016426
1631.000000	0.016323
1630.000000	0.016203
1629.000000	0.016162
1628.000000	0.016059
1627.000000	0.015960
1626.000000	0.015824
1625.000000	0.015491
1624.000000	0.015074
1623.000000	0.014957
1622.000000	0.014861
1621.000000	0.014435
1620.000000	0.014129
1619.000000	0.013960
1618.000000	0.013494
1617.000000	0.012619
1616.000000	0.011719
1615.000000	0.011275
1614.000000	0.011418
1613.000000	0.011479
1612.000000	0.011001
1611.000000	0.010614
1610.000000	0.010685
1609.000000	0.010714
1608.000000	0.010458
1607.000000	0.010382
1606.000000	0.010383
1605.000000	0.009972
1604.000000	0.009498
1603.000000	0.009394
1602.000000	0.009401
1601.000000	0.009126
1600.000000	0.008756
1599.000000	0.008667
1598.000000	0.008684
1597.000000	0.008517
1596.000000	0.008301
1595.000000	0.008344
1594.000000	0.008519
1593.000000	0.008454
1592.000000	0.008201
1591.000000	0.008134
1590.000000	0.008262
1589.000000	0.008234
1588.000000	0.008061
1587.000000	0.008061
1586.000000	0.008301
1585.000000	0.008232
1584.000000	0.008001
1583.000000	0.008231
1582.000000	0.008635
1581.000000	0.008613
1580.000000	0.008549
1579.000000	0.008976
1578.000000	0.009270
1577.000000	0.008911
1576.000000	0.008563
1575.000000	0.008636
1574.000000	0.008965
1573.000000	0.009389
1572.000000	0.009675
1571.000000	0.009781
1570.000000	0.010172
1569.000000	0.010360
1568.000000	0.010323
1567.000000	0.010673
1566.000000	0.011233
1565.000000	0.011369
1564.000000	0.011545
1563.000000	0.012205
1562.000000	0.012897
1561.000000	0.011555
1560.000000	0.009236
1559.000000	0.011547
1558.000000	0.013778
1557.000000	0.013100
1556.000000	0.012859
1555.000000	0.013407
1554.000000	0.013512
1553.000000	0.013043
1552.000000	0.013068
1551.000000	0.013576
1550.000000	0.014087
1549.000000	0.014184
1548.000000	0.013977
1547.000000	0.013888
1546.000000	0.013891
1545.000000	0.013923
1544.000000	0.014235
1543.000000	0.014489
1542.000000	0.014393
1541.000000	0.014538
1540.000000	0.015281
1539.000000	0.015125
1538.000000	0.014027
1537.000000	0.013615
1536.000000	0.013761
1535.000000	0.013835
1534.000000	0.013847
1533.000000	0.014071
1532.000000	0.014001
1531.000000	0.013563
1530.000000	0.013259
1529.000000	0.013227
1528.000000	0.013181
1527.000000	0.013075
1526.000000	0.012977
1525.000000	0.012914
1524.000000	0.012930
1523.000000	0.012799
1522.000000	0.012671
1521.000000	0.012572
1520.000000	0.012035
1519.000000	0.011690
1518.000000	0.011880
1517.000000	0.012385
1516.000000	0.012546
1515.000000	0.012131
1514.000000	0.011594
1513.000000	0.011302
1512.000000	0.011063
1511.000000	0.010619
1510.000000	0.010240
1509.000000	0.010148
1508.000000	0.010472
1507.000000	0.011448
1506.000000	0.011541
1505.000000	0.010014
1504.000000	0.008952
1503.000000	0.008676
1502.000000	0.008432
1501.000000	0.008007
1500.000000	0.007589
1499.000000	0.007109
1498.000000	0.006627
1497.000000	0.006840
1496.000000	0.007306
1495.000000	0.007335
1494.000000	0.007424
1493.000000	0.007949
1492.000000	0.008351
1491.000000	0.008309
1490.000000	0.008470
1489.000000	0.009107
1488.000000	0.009315
1487.000000	0.008716
1486.000000	0.008185
1485.000000	0.007786
1484.000000	0.007334
1483.000000	0.006956
1482.000000	0.006825
1481.000000	0.006935
1480.000000	0.006877
1479.000000	0.006564
1478.000000	0.006307
1477.000000	0.006437
1476.000000	0.006586
1475.000000	0.006550
1474.000000	0.006684
1473.000000	0.007343
1472.000000	0.008017
1471.000000	0.007948
1470.000000	0.007699
1469.000000	0.007821
1468.000000	0.007931
1467.000000	0.007753
1466.000000	0.007635
1465.000000	0.007857
1464.000000	0.008234
1463.000000	0.008251
1462.000000	0.008122
1461.000000	0.008171
1460.000000	0.008333
1459.000000	0.008187
1458.000000	0.007949
1457.000000	0.008371
1456.000000	0.008577
1455.000000	0.008526
1454.000000	0.008857
1453.000000	0.009350
1452.000000	0.009726
1451.000000	0.009835
1450.000000	0.009781
1449.000000	0.009948
1448.000000	0.010212
1447.000000	0.010316
1446.000000	0.010000
1445.000000	0.009529
1444.000000	0.009469
1443.000000	0.009494
1442.000000	0.009211
1441.000000	0.008870
1440.000000	0.008959
1439.000000	0.009017
1438.000000	0.008502
1437.000000	0.008103
1436.000000	0.008350
1435.000000	0.008528
1434.000000	0.008448
1433.000000	0.008424
1432.000000	0.008546
1431.000000	0.008626
1430.000000	0.008468
1429.000000	0.008341
1428.000000	0.008240
1427.000000	0.008140
1426.000000	0.007910
1425.000000	0.007667
1424.000000	0.007991
1423.000000	0.008488
1422.000000	0.008438
1421.000000	0.007817
1420.000000	0.007380
1419.000000	0.007533
1418.000000	0.007609
1417.000000	0.007686
1416.000000	0.008131
1415.000000	0.008437
1414.000000	0.008134
1413.000000	0.007647
1412.000000	0.007657
1411.000000	0.007910
1410.000000	0.007799
1409.000000	0.007563
1408.000000	0.007533
1407.000000	0.007686
1406.000000	0.007836
1405.000000	0.008006
1404.000000	0.008387
1403.000000	0.008642
1402.000000	0.008519
1401.000000	0.008232
1400.000000	0.008235
1399.000000	0.008525
1398.000000	0.008653
1397.000000	0.008659
1396.000000	0.008778
1395.000000	0.008953
1394.000000	0.008708
1393.000000	0.008114
1392.000000	0.007825
1391.000000	0.007841
1390.000000	0.007676
1389.000000	0.007251
1388.000000	0.006933
1387.000000	0.006888
1386.000000	0.006884
1385.000000	0.006822
1384.000000	0.006879
1383.000000	0.006921
1382.000000	0.006767
1381.000000	0.006498
1380.000000	0.006264
1379.000000	0.006104
1378.000000	0.005923
1377.000000	0.005709
1376.000000	0.005600
1375.000000	0.005780
1374.000000	0.006028
1373.000000	0.005985
1372.000000	0.005654
1371.000000	0.005367
1370.000000	0.005223
1369.000000	0.005061
1368.000000	0.004886
1367.000000	0.004702
1366.000000	0.004452
1365.000000	0.004195
1364.000000	0.004117
1363.000000	0.004328
1362.000000	0.004619
1361.000000	0.004708
1360.000000	0.004630
1359.000000	0.004544
1358.000000	0.004470
1357.000000	0.004378
1356.000000	0.004319
1355.000000	0.004344
1354.000000	0.004390
1353.000000	0.004456
1352.000000	0.004500
1351.000000	0.004588
1350.000000	0.004741
1349.000000	0.004863
1348.000000	0.004986
1347.000000	0.005145
1346.000000	0.005297
1345.000000	0.005366
1344.000000	0.005367
1343.000000	0.005362
1342.000000	0.005400
1341.000000	0.005544
1340.000000	0.005868
1339.000000	0.006292
1338.000000	0.006568
1337.000000	0.006609
1336.000000	0.006547
1335.000000	0.006481
1334.000000	0.006406
1333.000000	0.006325
1332.000000	0.006288
1331.000000	0.006304
1330.000000	0.006279
1329.000000	0.006171
1328.000000	0.006054
1327.000000	0.006012
1326.000000	0.005999
1325.000000	0.005934
1324.000000	0.005873
1323.000000	0.005860
1322.000000	0.005833
1321.000000	0.005768
1320.000000	0.005771
1319.000000	0.005889
1318.000000	0.005996
1317.000000	0.005988
1316.000000	0.005917
1315.000000	0.005856
1314.000000	0.005797
1313.000000	0.005739
1312.000000	0.005728
1311.000000	0.005755
1310.000000	0.005724
1309.000000	0.005621
1308.000000	0.005524
1307.000000	0.005482
1306.000000	0.005447
1305.000000	0.005387
1304.000000	0.005364
1303.000000	0.005386
1302.000000	0.005366
1301.000000	0.005268
1300.000000	0.005170
1299.000000	0.005113
1298.000000	0.005054
1297.000000	0.004986
1296.000000	0.004974
1295.000000	0.005027
1294.000000	0.005054
1293.000000	0.005023
1292.000000	0.005008
1291.000000	0.005055
1290.000000	0.005126
1289.000000	0.005213
1288.000000	0.005350
1287.000000	0.005507
1286.000000	0.005584
1285.000000	0.005575
1284.000000	0.005585
1283.000000	0.005647
1282.000000	0.005693
1281.000000	0.005691
1280.000000	0.005706
1279.000000	0.005754
1278.000000	0.005756
1277.000000	0.005679
1276.000000	0.005585
1275.000000	0.005513
1274.000000	0.005426
1273.000000	0.005329
1272.000000	0.005295
1271.000000	0.005327
1270.000000	0.005330
1269.000000	0.005256
1268.000000	0.005182
1267.000000	0.005170
1266.000000	0.005186
1265.000000	0.005215
1264.000000	0.005318
1263.000000	0.005508
1262.000000	0.005728
1261.000000	0.005955
1260.000000	0.006217
1259.000000	0.006474
1258.000000	0.006615
1257.000000	0.006632
1256.000000	0.006637
1255.000000	0.006680
1254.000000	0.006700
1253.000000	0.006673
1252.000000	0.006669
1251.000000	0.006716
1250.000000	0.006758
1249.000000	0.006774
1248.000000	0.006836
1247.000000	0.006978
1246.000000	0.007121
1245.000000	0.007204
1244.000000	0.007260
1243.000000	0.007309
1242.000000	0.007314
1241.000000	0.007267
1240.000000	0.007208
1239.000000	0.007131
1238.000000	0.006990
1237.000000	0.006811
1236.000000	0.006684
1235.000000	0.006616
1234.000000	0.006508
1233.000000	0.006310
1232.000000	0.006088
1231.000000	0.005898
1230.000000	0.005719
1229.000000	0.005547
1228.000000	0.005425
1227.000000	0.005361
1226.000000	0.005301
1225.000000	0.005229
1224.000000	0.005163
1223.000000	0.005062
1222.000000	0.004830
1221.000000	0.004453
1220.000000	0.004037
1219.000000	0.003690
1218.000000	0.003454
1217.000000	0.003364
1216.000000	0.003432
1215.000000	0.003584
1214.000000	0.003702
1213.000000	0.003766
1212.000000	0.003843
1211.000000	0.003933
1210.000000	0.003961
1209.000000	0.003922
1208.000000	0.003905
1207.000000	0.003942
1206.000000	0.003975
1205.000000	0.003983
1204.000000	0.004017
1203.000000	0.004093
1202.000000	0.004160
1201.000000	0.004200
1200.000000	0.004252
1199.000000	0.004319
1198.000000	0.004340
1197.000000	0.004305
1196.000000	0.004263
1195.000000	0.004223
1194.000000	0.004147
1193.000000	0.004047
1192.000000	0.003995
1191.000000	0.004004
1190.000000	0.004001
1189.000000	0.003959
1188.000000	0.003921
1187.000000	0.003894
1186.000000	0.003805
1185.000000	0.003608
1184.000000	0.003369
1183.000000	0.003203
1182.000000	0.003201
1181.000000	0.003397
1180.000000	0.003722
1179.000000	0.003992
1178.000000	0.004052
1177.000000	0.003936
1176.000000	0.003795
1175.000000	0.003709
1174.000000	0.003645
1173.000000	0.003587
1172.000000	0.003575
1171.000000	0.003604
1170.000000	0.003612
1169.000000	0.003587
1168.000000	0.003589
1167.000000	0.003649
1166.000000	0.003728
1165.000000	0.003804
1164.000000	0.003891
1163.000000	0.003972
1162.000000	0.003998
1161.000000	0.003977
1160.000000	0.003973
1159.000000	0.003998
1158.000000	0.003996
1157.000000	0.003946
1156.000000	0.003883
1155.000000	0.003822
1154.000000	0.003746
1153.000000	0.003678
1152.000000	0.003678
1151.000000	0.003739
1150.000000	0.003789
1149.000000	0.003795
1148.000000	0.003787
1147.000000	0.003769
1146.000000	0.003707
1145.000000	0.003618
1144.000000	0.003560
1143.000000	0.003536
1142.000000	0.003492
1141.000000	0.003418
1140.000000	0.003364
1139.000000	0.003334
1138.000000	0.003273
1137.000000	0.003173
1136.000000	0.003088
1135.000000	0.003042
1134.000000	0.002993
1133.000000	0.002924
1132.000000	0.002874
1131.000000	0.002862
1130.000000	0.002858
1129.000000	0.002859
1128.000000	0.002899
1127.000000	0.002980
1126.000000	0.003049
1125.000000	0.003080
1124.000000	0.003087
1123.000000	0.003074
1122.000000	0.003031
1121.000000	0.002995
1120.000000	0.003018
1119.000000	0.003079
1118.000000	0.003105
1117.000000	0.003083
1116.000000	0.003068
1115.000000	0.003085
1114.000000	0.003099
1113.000000	0.003101
1112.000000	0.003115
1111.000000	0.003140
1110.000000	0.003150
1109.000000	0.003169
1108.000000	0.003254
1107.000000	0.003378
1106.000000	0.003463
1105.000000	0.003490
1104.000000	0.003508
1103.000000	0.003540
1102.000000	0.003560
1101.000000	0.003578
1100.000000	0.003630
1099.000000	0.003698
1098.000000	0.003728
1097.000000	0.003727
1096.000000	0.003760
1095.000000	0.003842
1094.000000	0.003931
1093.000000	0.004007
1092.000000	0.004092
1091.000000	0.004171
1090.000000	0.004223
1089.000000	0.004284
1088.000000	0.004421
1087.000000	0.004613
1086.000000	0.004775
1085.000000	0.004882
1084.000000	0.004978
1083.000000	0.005078
1082.000000	0.005158
1081.000000	0.005230
1080.000000	0.005329
1079.000000	0.005428
1078.000000	0.005461
1077.000000	0.005429
1076.000000	0.005381
1075.000000	0.005307
1074.000000	0.005155
1073.000000	0.004955
1072.000000	0.004804
1071.000000	0.004737
1070.000000	0.004701
1069.000000	0.004665
1068.000000	0.004656
1067.000000	0.004673
1066.000000	0.004672
1065.000000	0.004659
1064.000000	0.004687
1063.000000	0.004765
1062.000000	0.004826
1061.000000	0.004824
1060.000000	0.004776
1059.000000	0.004692
1058.000000	0.004555
1057.000000	0.004384
1056.000000	0.004229
1055.000000	0.004125
1054.000000	0.004084
1053.000000	0.004143
1052.000000	0.004336
1051.000000	0.004631
1050.000000	0.004949
1049.000000	0.005254
1048.000000	0.005519
1047.000000	0.005656
1046.000000	0.005594
1045.000000	0.005404
1044.000000	0.005242
1043.000000	0.005174
1042.000000	0.005144
1041.000000	0.005101
1040.000000	0.005065
1039.000000	0.005054
1038.000000	0.005046
1037.000000	0.005045
1036.000000	0.005078
1035.000000	0.005143
1034.000000	0.005208
1033.000000	0.005271
1032.000000	0.005355
1031.000000	0.005434
1030.000000	0.005451
1029.000000	0.005418
1028.000000	0.005400
1027.000000	0.005413
1026.000000	0.005406
1025.000000	0.005359
1024.000000	0.005308
1023.000000	0.005271
1022.000000	0.005223
1021.000000	0.005160
1020.000000	0.005114
1019.000000	0.005102
1018.000000	0.005104
1017.000000	0.005119
1016.000000	0.005151
1015.000000	0.005163
1014.000000	0.005105
1013.000000	0.004992
1012.000000	0.004886
1011.000000	0.004806
1010.000000	0.004716
1009.000000	0.004606
1008.000000	0.004506
1007.000000	0.004419
1006.000000	0.004311
1005.000000	0.004180
1004.000000	0.004069
1003.000000	0.003993
1002.000000	0.003925
1001.000000	0.003846
1000.000000	0.003756
999.000000	0.003643
998.000000	0.003494
997.000000	0.003348
996.000000	0.003262
995.000000	0.003228
994.000000	0.003177
993.000000	0.003078
992.000000	0.002967
991.000000	0.002872
990.000000	0.002788
989.000000	0.002717
988.000000	0.002670
987.000000	0.002623
986.000000	0.002536
985.000000	0.002419
984.000000	0.002316
983.000000	0.002244
982.000000	0.002180
981.000000	0.002122
980.000000	0.002093
979.000000	0.002082
978.000000	0.002051
977.000000	0.002007
976.000000	0.001990
975.000000	0.001999
974.000000	0.001993
973.000000	0.001962
972.000000	0.001939
971.000000	0.001929
970.000000	0.001900
969.000000	0.001839
968.000000	0.001762
967.000000	0.001659
966.000000	0.001513
965.000000	0.001358
964.000000	0.001258
963.000000	0.001217
962.000000	0.001180
961.000000	0.001131
960.000000	0.001114
959.000000	0.001145
958.000000	0.001167
957.000000	0.001121
956.000000	0.001004
955.000000	0.000842
954.000000	0.000677
953.000000	0.000565
952.000000	0.000546
951.000000	0.000585
950.000000	0.000613
949.000000	0.000619
948.000000	0.000643
947.000000	0.000692
946.000000	0.000714
945.000000	0.000688
944.000000	0.000645
943.000000	0.000611
942.000000	0.000574
941.000000	0.000542
940.000000	0.000549
939.000000	0.000587
938.000000	0.000603
937.000000	0.000571
936.000000	0.000515
935.000000	0.000462
934.000000	0.000416
933.000000	0.000395
932.000000	0.000418
931.000000	0.000456
930.000000	0.000446
929.000000	0.000386
928.000000	0.000335
927.000000	0.000316
926.000000	0.000287
925.000000	0.000218
924.000000	0.000143
923.000000	0.000098
922.000000	0.000079
921.000000	0.000075
920.000000	0.000085
919.000000	0.000086
918.000000	0.000034
917.000000	-0.000069
916.000000	-0.000165
915.000000	-0.000211
914.000000	-0.000227
913.000000	-0.000241
912.000000	-0.000247
911.000000	-0.000237
910.000000	-0.000233
909.000000	-0.000256
908.000000	-0.000289
907.000000	-0.000305
906.000000	-0.000294
905.000000	-0.000264
904.000000	-0.000223
903.000000	-0.000186
902.000000	-0.000165
901.000000	-0.000153
900.000000	-0.000149
899.000000	-0.000189
898.000000	-0.000309
897.000000	-0.000482
896.000000	-0.000632
895.000000	-0.000710
894.000000	-0.000722
893.000000	-0.000694
892.000000	-0.000645
891.000000	-0.000612
890.000000	-0.000638
889.000000	-0.000721
888.000000	-0.000802
887.000000	-0.000826
886.000000	-0.000788
885.000000	-0.000721
884.000000	-0.000660
883.000000	-0.000615
882.000000	-0.000554
881.000000	-0.000426
880.000000	-0.000215
879.000000	0.000030
878.000000	0.000250
877.000000	0.000428
876.000000	0.000559
875.000000	0.000597
874.000000	0.000517
873.000000	0.000376
872.000000	0.000276
871.000000	0.000252
870.000000	0.000260
869.000000	0.000267
868.000000	0.000277
867.000000	0.000279
866.000000	0.000235
865.000000	0.000135
864.000000	0.000026
863.000000	-0.000046
862.000000	-0.000072
861.000000	-0.000062
860.000000	-0.000028
859.000000	0.000006
858.000000	0.000006
857.000000	-0.000027
856.000000	-0.000068
855.000000	-0.000104
854.000000	-0.000142
853.000000	-0.000179
852.000000	-0.000197
851.000000	-0.000191
850.000000	-0.000167
849.000000	-0.000115
848.000000	-0.000032
847.000000	0.000038
846.000000	0.000038
845.000000	-0.000037
844.000000	-0.000128
843.000000	-0.000187
842.000000	-0.000214
841.000000	-0.000223
840.000000	-0.000204
839.000000	-0.000162
838.000000	-0.000136
837.000000	-0.000168
836.000000	-0.000268
835.000000	-0.000415
834.000000	-0.000579
833.000000	-0.000734
832.000000	-0.000850
831.000000	-0.000907
830.000000	-0.000902
829.000000	-0.000853
828.000000	-0.000798
827.000000	-0.000758
826.000000	-0.000697
825.000000	-0.000549
824.000000	-0.000308
823.000000	-0.000055
822.000000	0.000125
821.000000	0.000236
820.000000	0.000322
819.000000	0.000376
818.000000	0.000353
817.000000	0.000244
816.000000	0.000093
815.000000	-0.000058
814.000000	-0.000192
813.000000	-0.000286
812.000000	-0.000302
811.000000	-0.000229
810.000000	-0.000114
809.000000	-0.000028
808.000000	-0.000024
807.000000	-0.000111
806.000000	-0.000230
805.000000	-0.000300
804.000000	-0.000284
803.000000	-0.000218
802.000000	-0.000150
801.000000	-0.000082
800.000000	-0.000005
799.000000	0.000050
798.000000	0.000043
797.000000	-0.000009
796.000000	-0.000057
795.000000	-0.000094
794.000000	-0.000149
793.000000	-0.000203
792.000000	-0.000192
791.000000	-0.000091
790.000000	0.000040
789.000000	0.000130
788.000000	0.000157
787.000000	0.000131
786.000000	0.000057
785.000000	-0.000045
784.000000	-0.000113
783.000000	-0.000094
782.000000	-0.000007
781.000000	0.000068
780.000000	0.000062
779.000000	-0.000033
778.000000	-0.000181
777.000000	-0.000325
776.000000	-0.000406
775.000000	-0.000393
774.000000	-0.000318
773.000000	-0.000263
772.000000	-0.000286
771.000000	-0.000353
770.000000	-0.000380
769.000000	-0.000332
768.000000	-0.000261
767.000000	-0.000230
766.000000	-0.000224
765.000000	-0.000192
764.000000	-0.000127
763.000000	-0.000089
762.000000	-0.000126
761.000000	-0.000232
760.000000	-0.000362
759.000000	-0.000470
758.000000	-0.000522
757.000000	-0.000502
756.000000	-0.000436
755.000000	-0.000382
754.000000	-0.000384
753.000000	-0.000436
752.000000	-0.000493
751.000000	-0.000510
750.000000	-0.000477
749.000000	-0.000425
748.000000	-0.000393
747.000000	-0.000384
746.000000	-0.000355
745.000000	-0.000279
744.000000	-0.000183
743.000000	-0.000124
742.000000	-0.000136
741.000000	-0.000209
740.000000	-0.000304
739.000000	-0.000362
738.000000	-0.000331
737.000000	-0.000222
736.000000	-0.000117
735.000000	-0.000077
734.000000	-0.000076
733.000000	-0.000045
732.000000	0.000029
731.000000	0.000099
730.000000	0.000127
729.000000	0.000108
728.000000	0.000083
727.000000	0.000092
726.000000	0.000147
725.000000	0.000257
724.000000	0.000406
723.000000	0.000535
722.000000	0.000582
721.000000	0.000542
720.000000	0.000491
719.000000	0.000528
718.000000	0.000670
717.000000	0.000832
716.000000	0.000921
715.000000	0.000934
714.000000	0.000939
713.000000	0.000967
712.000000	0.000980
711.000000	0.000930
710.000000	0.000838
709.000000	0.000746
708.000000	0.000680
707.000000	0.000648
706.000000	0.000638
705.000000	0.000652
704.000000	0.000695
703.000000	0.000755
702.000000	0.000848
701.000000	0.000943
700.000000	0.000953
699.000000	0.000853
698.000000	0.000703
697.000000	0.000602
696.000000	0.000562
695.000000	0.000516
694.000000	0.000470
693.000000	0.000429
692.000000	0.000347
691.000000	0.000228
690.000000	0.000149
689.000000	0.000221
688.000000	0.000422
687.000000	0.000611
686.000000	0.000729
685.000000	0.000758
684.000000	0.000673
683.000000	0.000521
682.000000	0.000438
681.000000	0.000481
680.000000	0.000571
679.000000	0.000595
678.000000	0.000637
677.000000	0.000620
676.000000	0.000488
675.000000	0.000548
674.000000	0.000684
673.000000	0.000790
672.000000	0.001027
671.000000	0.001523
670.000000	0.002097
669.000000	0.002780
668.000000	0.003809
667.000000	0.006553
666.000000	0.009706
665.000000	0.009169
664.000000	0.005722
663.000000	0.002386
662.000000	0.000761
661.000000	0.000523
660.000000	0.000639
659.000000	0.000644
658.000000	0.000727
657.000000	0.000841
656.000000	0.000803
655.000000	0.000808
654.000000	0.000774
653.000000	0.000673
652.000000	0.000647
651.000000	0.000752
650.000000	0.000882
649.000000	0.000975
648.000000	0.001137
647.000000	0.001371
646.000000	0.001511
645.000000	0.001503
644.000000	0.001450
643.000000	0.001434
642.000000	0.001415
641.000000	0.001352
640.000000	0.001320
639.000000	0.001353
638.000000	0.001359
637.000000	0.001313
636.000000	0.001318
635.000000	0.001410
634.000000	0.001511
633.000000	0.001557
632.000000	0.001542
631.000000	0.001440
630.000000	0.001243
629.000000	0.001071
628.000000	0.001092
627.000000	0.001273
626.000000	0.001415
625.000000	0.001460
624.000000	0.001497
623.000000	0.001565
622.000000	0.001591
621.000000	0.001549
620.000000	0.001499
619.000000	0.001453
618.000000	0.001393
617.000000	0.001412
616.000000	0.001620
615.000000	0.001891
614.000000	0.001960
613.000000	0.001801
612.000000	0.001654
611.000000	0.001644
610.000000	0.001620
609.000000	0.001444
608.000000	0.001224
607.000000	0.001126
606.000000	0.001147
605.000000	0.001246
604.000000	0.001420
603.000000	0.001608
602.000000	0.001659
601.000000	0.001518
600.000000	0.001352
599.000000	0.001357
598.000000	0.001497
597.000000	0.001620
596.000000	0.001693
595.000000	0.001794
594.000000	0.001940
593.000000	0.002061
592.000000	0.002112
591.000000	0.002095
590.000000	0.002028
589.000000	0.001952
588.000000	0.001944
587.000000	0.002008
586.000000	0.002054
585.000000	0.002029
584.000000	0.001998
583.000000	0.002018
582.000000	0.002007
581.000000	0.001876
580.000000	0.001665
579.000000	0.001491
578.000000	0.001420
577.000000	0.001500
576.000000	0.001758
575.000000	0.002068
574.000000	0.002192
573.000000	0.002075
572.000000	0.001943
571.000000	0.002025
570.000000	0.002312
569.000000	0.002639
568.000000	0.002872
567.000000	0.002899
566.000000	0.002658
565.000000	0.002282
564.000000	0.002063
563.000000	0.002129
562.000000	0.002275
561.000000	0.002268
560.000000	0.002131
559.000000	0.002017
558.000000	0.001956
557.000000	0.001914
556.000000	0.001890
555.000000	0.001862
554.000000	0.001772
553.000000	0.001693
552.000000	0.001818
551.000000	0.002159
550.000000	0.002414
549.000000	0.002342
548.000000	0.002090
547.000000	0.001978
546.000000	0.002110
545.000000	0.002349
544.000000	0.002561
543.000000	0.002648
542.000000	0.002484
541.000000	0.002061
540.000000	0.001604
539.000000	0.001341
538.000000	0.001255
537.000000	0.001206
536.000000	0.001225
535.000000	0.001437
534.000000	0.001814
533.000000	0.002180
532.000000	0.002360
531.000000	0.002298
530.000000	0.002034
529.000000	0.001696
528.000000	0.001458
527.000000	0.001439
526.000000	0.001563
525.000000	0.001648
524.000000	0.001652
523.000000	0.001617
522.000000	0.001558
521.000000	0.001508
520.000000	0.001510
519.000000	0.001525
518.000000	0.001422
517.000000	0.001178
516.000000	0.000990
515.000000	0.001042
514.000000	0.001287
513.000000	0.001523
512.000000	0.001601
511.000000	0.001485
510.000000	0.001235
509.000000	0.000932
508.000000	0.000604
507.000000	0.000280
506.000000	-0.000010
505.000000	-0.000157
504.000000	-0.000064
503.000000	0.000208
502.000000	0.000416
501.000000	0.000391
500.000000	0.000279
499.000000	0.000326
498.000000	0.000570
497.000000	0.000847
496.000000	0.001014
495.000000	0.001067
494.000000	0.001058
493.000000	0.000982
492.000000	0.000861
491.000000	0.000781
490.000000	0.000774
489.000000	0.000784
488.000000	0.000711
487.000000	0.000509
486.000000	0.000168
485.000000	-0.000234
484.000000	-0.000479
483.000000	-0.000336
482.000000	0.000150
481.000000	0.000622
480.000000	0.000793
479.000000	0.000675
478.000000	0.000429
477.000000	0.000200
476.000000	0.000043
475.000000	-0.000082
474.000000	-0.000192
473.000000	-0.000221
472.000000	-0.000117
471.000000	0.000029
470.000000	0.000049
469.000000	0.000017
468.000000	0.000164
467.000000	0.000406
466.000000	0.000373
465.000000	0.000006
464.000000	-0.000300
463.000000	-0.000213
462.000000	0.000070
461.000000	0.000118
460.000000	-0.000158
459.000000	-0.000533
458.000000	-0.000814
457.000000	-0.000938
456.000000	-0.000932
455.000000	-0.000907
454.000000	-0.000932
453.000000	-0.000939
452.000000	-0.000602
451.000000	-0.000048
450.000000	0.000226
