PE IR       SUBTECH     SPECTRUM    ASCII       PEDS        4.00        
   -1
3C-N10-F005_1.ASC
22/02/16
15:21:30.00
22/02/16
15:56:00.00
uco
Sample 005 By uco Date Wednesday, February 16 2022
450.000000
#HDR
-1
-1
#GR
cm-1
A
1.0
0.0
4000.000000
-1.000000
3551
8
0.052966
0.004543
#DATA
4000.000000	0.005039
3999.000000	0.005049
3998.000000	0.005058
3997.000000	0.005080
3996.000000	0.005105
3995.000000	0.005125
3994.000000	0.005136
3993.000000	0.005139
3992.000000	0.005140
3991.000000	0.005142
3990.000000	0.005146
3989.000000	0.005148
3988.000000	0.005147
3987.000000	0.005145
3986.000000	0.005148
3985.000000	0.005159
3984.000000	0.005169
3983.000000	0.005169
3982.000000	0.005156
3981.000000	0.005137
3980.000000	0.005125
3979.000000	0.005127
3978.000000	0.005138
3977.000000	0.005150
3976.000000	0.005156
3975.000000	0.005157
3974.000000	0.005155
3973.000000	0.005154
3972.000000	0.005158
3971.000000	0.005169
3970.000000	0.005184
3969.000000	0.005196
3968.000000	0.005200
3967.000000	0.005197
3966.000000	0.005194
3965.000000	0.005195
3964.000000	0.005204
3963.000000	0.005220
3962.000000	0.005240
3961.000000	0.005256
3960.000000	0.005263
3959.000000	0.005262
3958.000000	0.005256
3957.000000	0.005249
3956.000000	0.005242
3955.000000	0.005236
3954.000000	0.005234
3953.000000	0.005240
3952.000000	0.005249
3951.000000	0.005251
3950.000000	0.005236
3949.000000	0.005206
3948.000000	0.005172
3947.000000	0.005150
3946.000000	0.005145
3945.000000	0.005157
3944.000000	0.005180
3943.000000	0.005207
3942.000000	0.005236
3941.000000	0.005264
3940.000000	0.005284
3939.000000	0.005290
3938.000000	0.005280
3937.000000	0.005265
3936.000000	0.005257
3935.000000	0.005262
3934.000000	0.005269
3933.000000	0.005265
3932.000000	0.005242
3931.000000	0.005211
3930.000000	0.005185
3929.000000	0.005172
3928.000000	0.005173
3927.000000	0.005184
3926.000000	0.005201
3925.000000	0.005219
3924.000000	0.005232
3923.000000	0.005236
3922.000000	0.005226
3921.000000	0.005204
3920.000000	0.005183
3919.000000	0.005176
3918.000000	0.005184
3917.000000	0.005195
3916.000000	0.005201
3915.000000	0.005204
3914.000000	0.005212
3913.000000	0.005224
3912.000000	0.005237
3911.000000	0.005244
3910.000000	0.005243
3909.000000	0.005237
3908.000000	0.005229
3907.000000	0.005223
3906.000000	0.005218
3905.000000	0.005212
3904.000000	0.005209
3903.000000	0.005215
3902.000000	0.005226
3901.000000	0.005233
3900.000000	0.005230
3899.000000	0.005229
3898.000000	0.005240
3897.000000	0.005260
3896.000000	0.005281
3895.000000	0.005299
3894.000000	0.005311
3893.000000	0.005313
3892.000000	0.005305
3891.000000	0.005297
3890.000000	0.005302
3889.000000	0.005312
3888.000000	0.005307
3887.000000	0.005276
3886.000000	0.005233
3885.000000	0.005206
3884.000000	0.005210
3883.000000	0.005234
3882.000000	0.005252
3881.000000	0.005258
3880.000000	0.005264
3879.000000	0.005282
3878.000000	0.005303
3877.000000	0.005303
3876.000000	0.005275
3875.000000	0.005233
3874.000000	0.005205
3873.000000	0.005210
3872.000000	0.005243
3871.000000	0.005283
3870.000000	0.005310
3869.000000	0.005323
3868.000000	0.005332
3867.000000	0.005335
3866.000000	0.005326
3865.000000	0.005314
3864.000000	0.005315
3863.000000	0.005330
3862.000000	0.005349
3861.000000	0.005362
3860.000000	0.005368
3859.000000	0.005373
3858.000000	0.005378
3857.000000	0.005384
3856.000000	0.005389
3855.000000	0.005388
3854.000000	0.005376
3853.000000	0.005358
3852.000000	0.005349
3851.000000	0.005344
3850.000000	0.005328
3849.000000	0.005302
3848.000000	0.005281
3847.000000	0.005268
3846.000000	0.005258
3845.000000	0.005242
3844.000000	0.005222
3843.000000	0.005207
3842.000000	0.005202
3841.000000	0.005207
3840.000000	0.005214
3839.000000	0.005222
3838.000000	0.005237
3837.000000	0.005262
3836.000000	0.005292
3835.000000	0.005323
3834.000000	0.005355
3833.000000	0.005390
3832.000000	0.005421
3831.000000	0.005433
3830.000000	0.005413
3829.000000	0.005362
3828.000000	0.005293
3827.000000	0.005235
3826.000000	0.005211
3825.000000	0.005232
3824.000000	0.005286
3823.000000	0.005345
3822.000000	0.005376
3821.000000	0.005366
3820.000000	0.005340
3819.000000	0.005323
3818.000000	0.005311
3817.000000	0.005300
3816.000000	0.005296
3815.000000	0.005301
3814.000000	0.005306
3813.000000	0.005287
3812.000000	0.005247
3811.000000	0.005212
3810.000000	0.005205
3809.000000	0.005218
3808.000000	0.005226
3807.000000	0.005222
3806.000000	0.005222
3805.000000	0.005239
3804.000000	0.005265
3803.000000	0.005283
3802.000000	0.005288
3801.000000	0.005285
3800.000000	0.005287
3799.000000	0.005285
3798.000000	0.005267
3797.000000	0.005240
3796.000000	0.005223
3795.000000	0.005223
3794.000000	0.005225
3793.000000	0.005214
3792.000000	0.005192
3791.000000	0.005176
3790.000000	0.005173
3789.000000	0.005178
3788.000000	0.005181
3787.000000	0.005182
3786.000000	0.005183
3785.000000	0.005183
3784.000000	0.005182
3783.000000	0.005182
3782.000000	0.005180
3781.000000	0.005169
3780.000000	0.005153
3779.000000	0.005145
3778.000000	0.005156
3777.000000	0.005178
3776.000000	0.005192
3775.000000	0.005194
3774.000000	0.005191
3773.000000	0.005194
3772.000000	0.005206
3771.000000	0.005219
3770.000000	0.005226
3769.000000	0.005228
3768.000000	0.005227
3767.000000	0.005213
3766.000000	0.005184
3765.000000	0.005145
3764.000000	0.005114
3763.000000	0.005102
3762.000000	0.005102
3761.000000	0.005105
3760.000000	0.005106
3759.000000	0.005112
3758.000000	0.005126
3757.000000	0.005142
3756.000000	0.005156
3755.000000	0.005168
3754.000000	0.005175
3753.000000	0.005175
3752.000000	0.005172
3751.000000	0.005180
3750.000000	0.005208
3749.000000	0.005247
3748.000000	0.005280
3747.000000	0.005297
3746.000000	0.005297
3745.000000	0.005287
3744.000000	0.005281
3743.000000	0.005283
3742.000000	0.005267
3741.000000	0.005220
3740.000000	0.005168
3739.000000	0.005152
3738.000000	0.005179
3737.000000	0.005216
3736.000000	0.005220
3735.000000	0.005191
3734.000000	0.005165
3733.000000	0.005164
3732.000000	0.005174
3731.000000	0.005174
3730.000000	0.005156
3729.000000	0.005120
3728.000000	0.005077
3727.000000	0.005039
3726.000000	0.005019
3725.000000	0.005021
3724.000000	0.005037
3723.000000	0.005052
3722.000000	0.005061
3721.000000	0.005061
3720.000000	0.005053
3719.000000	0.005044
3718.000000	0.005040
3717.000000	0.005044
3716.000000	0.005055
3715.000000	0.005077
3714.000000	0.005111
3713.000000	0.005156
3712.000000	0.005206
3711.000000	0.005256
3710.000000	0.005301
3709.000000	0.005325
3708.000000	0.005316
3707.000000	0.005271
3706.000000	0.005208
3705.000000	0.005152
3704.000000	0.005116
3703.000000	0.005098
3702.000000	0.005083
3701.000000	0.005063
3700.000000	0.005039
3699.000000	0.005020
3698.000000	0.005011
3697.000000	0.005014
3696.000000	0.005033
3695.000000	0.005067
3694.000000	0.005101
3693.000000	0.005117
3692.000000	0.005113
3691.000000	0.005109
3690.000000	0.005128
3689.000000	0.005176
3688.000000	0.005236
3687.000000	0.005280
3686.000000	0.005291
3685.000000	0.005275
3684.000000	0.005254
3683.000000	0.005249
3682.000000	0.005266
3681.000000	0.005291
3680.000000	0.005311
3679.000000	0.005324
3678.000000	0.005334
3677.000000	0.005331
3676.000000	0.005312
3675.000000	0.005300
3674.000000	0.005322
3673.000000	0.005358
3672.000000	0.005370
3671.000000	0.005357
3670.000000	0.005341
3669.000000	0.005346
3668.000000	0.005364
3667.000000	0.005373
3666.000000	0.005365
3665.000000	0.005361
3664.000000	0.005382
3663.000000	0.005427
3662.000000	0.005479
3661.000000	0.005516
3660.000000	0.005533
3659.000000	0.005536
3658.000000	0.005533
3657.000000	0.005534
3656.000000	0.005549
3655.000000	0.005580
3654.000000	0.005618
3653.000000	0.005648
3652.000000	0.005665
3651.000000	0.005679
3650.000000	0.005709
3649.000000	0.005768
3648.000000	0.005860
3647.000000	0.005966
3646.000000	0.006059
3645.000000	0.006111
3644.000000	0.006115
3643.000000	0.006084
3642.000000	0.006046
3641.000000	0.006028
3640.000000	0.006045
3639.000000	0.006087
3638.000000	0.006136
3637.000000	0.006174
3636.000000	0.006197
3635.000000	0.006213
3634.000000	0.006236
3633.000000	0.006274
3632.000000	0.006328
3631.000000	0.006387
3630.000000	0.006435
3629.000000	0.006471
3628.000000	0.006511
3627.000000	0.006565
3626.000000	0.006615
3625.000000	0.006647
3624.000000	0.006671
3623.000000	0.006699
3622.000000	0.006733
3621.000000	0.006764
3620.000000	0.006790
3619.000000	0.006817
3618.000000	0.006855
3617.000000	0.006903
3616.000000	0.006952
3615.000000	0.006999
3614.000000	0.007044
3613.000000	0.007087
3612.000000	0.007131
3611.000000	0.007183
3610.000000	0.007241
3609.000000	0.007303
3608.000000	0.007364
3607.000000	0.007420
3606.000000	0.007464
3605.000000	0.007495
3604.000000	0.007521
3603.000000	0.007557
3602.000000	0.007605
3601.000000	0.007654
3600.000000	0.007694
3599.000000	0.007729
3598.000000	0.007770
3597.000000	0.007823
3596.000000	0.007888
3595.000000	0.007963
3594.000000	0.008042
3593.000000	0.008112
3592.000000	0.008164
3591.000000	0.008206
3590.000000	0.008250
3589.000000	0.008307
3588.000000	0.008381
3587.000000	0.008468
3586.000000	0.008562
3585.000000	0.008652
3584.000000	0.008717
3583.000000	0.008756
3582.000000	0.008779
3581.000000	0.008806
3580.000000	0.008850
3579.000000	0.008919
3578.000000	0.009008
3577.000000	0.009106
3576.000000	0.009201
3575.000000	0.009290
3574.000000	0.009370
3573.000000	0.009443
3572.000000	0.009506
3571.000000	0.009561
3570.000000	0.009610
3569.000000	0.009655
3568.000000	0.009700
3567.000000	0.009756
3566.000000	0.009831
3565.000000	0.009918
3564.000000	0.009996
3563.000000	0.010055
3562.000000	0.010099
3561.000000	0.010143
3560.000000	0.010204
3559.000000	0.010289
3558.000000	0.010389
3557.000000	0.010484
3556.000000	0.010558
3555.000000	0.010607
3554.000000	0.010647
3553.000000	0.010696
3552.000000	0.010765
3551.000000	0.010853
3550.000000	0.010946
3549.000000	0.011030
3548.000000	0.011099
3547.000000	0.011160
3546.000000	0.011223
3545.000000	0.011293
3544.000000	0.011368
3543.000000	0.011446
3542.000000	0.011526
3541.000000	0.011607
3540.000000	0.011688
3539.000000	0.011769
3538.000000	0.011849
3537.000000	0.011926
3536.000000	0.012004
3535.000000	0.012085
3534.000000	0.012169
3533.000000	0.012246
3532.000000	0.012314
3531.000000	0.012375
3530.000000	0.012436
3529.000000	0.012495
3528.000000	0.012555
3527.000000	0.012619
3526.000000	0.012687
3525.000000	0.012756
3524.000000	0.012822
3523.000000	0.012889
3522.000000	0.012963
3521.000000	0.013039
3520.000000	0.013110
3519.000000	0.013175
3518.000000	0.013241
3517.000000	0.013314
3516.000000	0.013390
3515.000000	0.013463
3514.000000	0.013527
3513.000000	0.013584
3512.000000	0.013643
3511.000000	0.013708
3510.000000	0.013781
3509.000000	0.013860
3508.000000	0.013942
3507.000000	0.014020
3506.000000	0.014084
3505.000000	0.014125
3504.000000	0.014149
3503.000000	0.014174
3502.000000	0.014224
3501.000000	0.014304
3500.000000	0.014404
3499.000000	0.014508
3498.000000	0.014603
3497.000000	0.014675
3496.000000	0.014722
3495.000000	0.014754
3494.000000	0.014782
3493.000000	0.014816
3492.000000	0.014855
3491.000000	0.014895
3490.000000	0.014933
3489.000000	0.014969
3488.000000	0.015011
3487.000000	0.015067
3486.000000	0.015132
3485.000000	0.015192
3484.000000	0.015237
3483.000000	0.015271
3482.000000	0.015315
3481.000000	0.015385
3480.000000	0.015481
3479.000000	0.015588
3478.000000	0.015680
3477.000000	0.015744
3476.000000	0.015785
3475.000000	0.015819
3474.000000	0.015859
3473.000000	0.015908
3472.000000	0.015962
3471.000000	0.016022
3470.000000	0.016086
3469.000000	0.016151
3468.000000	0.016214
3467.000000	0.016273
3466.000000	0.016324
3465.000000	0.016359
3464.000000	0.016377
3463.000000	0.016387
3462.000000	0.016407
3461.000000	0.016449
3460.000000	0.016513
3459.000000	0.016590
3458.000000	0.016668
3457.000000	0.016737
3456.000000	0.016792
3455.000000	0.016838
3454.000000	0.016884
3453.000000	0.016938
3452.000000	0.017000
3451.000000	0.017060
3450.000000	0.017102
3449.000000	0.017126
3448.000000	0.017145
3447.000000	0.017181
3446.000000	0.017242
3445.000000	0.017314
3444.000000	0.017379
3443.000000	0.017430
3442.000000	0.017471
3441.000000	0.017512
3440.000000	0.017560
3439.000000	0.017619
3438.000000	0.017689
3437.000000	0.017764
3436.000000	0.017836
3435.000000	0.017904
3434.000000	0.017965
3433.000000	0.018014
3432.000000	0.018054
3431.000000	0.018094
3430.000000	0.018137
3429.000000	0.018178
3428.000000	0.018215
3427.000000	0.018257
3426.000000	0.018312
3425.000000	0.018378
3424.000000	0.018445
3423.000000	0.018505
3422.000000	0.018561
3421.000000	0.018615
3420.000000	0.018667
3419.000000	0.018717
3418.000000	0.018761
3417.000000	0.018797
3416.000000	0.018828
3415.000000	0.018863
3414.000000	0.018916
3413.000000	0.018989
3412.000000	0.019068
3411.000000	0.019136
3410.000000	0.019184
3409.000000	0.019218
3408.000000	0.019253
3407.000000	0.019299
3406.000000	0.019356
3405.000000	0.019413
3404.000000	0.019466
3403.000000	0.019520
3402.000000	0.019577
3401.000000	0.019632
3400.000000	0.019678
3399.000000	0.019714
3398.000000	0.019746
3397.000000	0.019786
3396.000000	0.019844
3395.000000	0.019916
3394.000000	0.019994
3393.000000	0.020064
3392.000000	0.020122
3391.000000	0.020168
3390.000000	0.020200
3389.000000	0.020220
3388.000000	0.020236
3387.000000	0.020263
3386.000000	0.020309
3385.000000	0.020370
3384.000000	0.020436
3383.000000	0.020502
3382.000000	0.020565
3381.000000	0.020630
3380.000000	0.020708
3379.000000	0.020807
3378.000000	0.020924
3377.000000	0.021044
3376.000000	0.021150
3375.000000	0.021229
3374.000000	0.021281
3373.000000	0.021315
3372.000000	0.021354
3371.000000	0.021418
3370.000000	0.021509
3369.000000	0.021609
3368.000000	0.021700
3367.000000	0.021774
3366.000000	0.021835
3365.000000	0.021890
3364.000000	0.021951
3363.000000	0.022028
3362.000000	0.022123
3361.000000	0.022229
3360.000000	0.022332
3359.000000	0.022426
3358.000000	0.022514
3357.000000	0.022598
3356.000000	0.022688
3355.000000	0.022792
3354.000000	0.022908
3353.000000	0.023024
3352.000000	0.023129
3351.000000	0.023224
3350.000000	0.023316
3349.000000	0.023413
3348.000000	0.023520
3347.000000	0.023636
3346.000000	0.023754
3345.000000	0.023865
3344.000000	0.023969
3343.000000	0.024078
3342.000000	0.024196
3341.000000	0.024314
3340.000000	0.024419
3339.000000	0.024510
3338.000000	0.024596
3337.000000	0.024678
3336.000000	0.024751
3335.000000	0.024814
3334.000000	0.024876
3333.000000	0.024955
3332.000000	0.025060
3331.000000	0.025184
3330.000000	0.025303
3329.000000	0.025391
3328.000000	0.025448
3327.000000	0.025498
3326.000000	0.025563
3325.000000	0.025644
3324.000000	0.025720
3323.000000	0.025781
3322.000000	0.025831
3321.000000	0.025880
3320.000000	0.025928
3319.000000	0.025970
3318.000000	0.026001
3317.000000	0.026022
3316.000000	0.026045
3315.000000	0.026080
3314.000000	0.026136
3313.000000	0.026204
3312.000000	0.026269
3311.000000	0.026319
3310.000000	0.026355
3309.000000	0.026385
3308.000000	0.026417
3307.000000	0.026450
3306.000000	0.026485
3305.000000	0.026528
3304.000000	0.026587
3303.000000	0.026660
3302.000000	0.026730
3301.000000	0.026773
3300.000000	0.026782
3299.000000	0.026776
3298.000000	0.026779
3297.000000	0.026803
3296.000000	0.026840
3295.000000	0.026873
3294.000000	0.026891
3293.000000	0.026891
3292.000000	0.026881
3291.000000	0.026872
3290.000000	0.026873
3289.000000	0.026885
3288.000000	0.026901
3287.000000	0.026913
3286.000000	0.026919
3285.000000	0.026919
3284.000000	0.026916
3283.000000	0.026908
3282.000000	0.026892
3281.000000	0.026871
3280.000000	0.026853
3279.000000	0.026841
3278.000000	0.026829
3277.000000	0.026802
3276.000000	0.026754
3275.000000	0.026688
3274.000000	0.026617
3273.000000	0.026553
3272.000000	0.026504
3271.000000	0.026477
3270.000000	0.026463
3269.000000	0.026447
3268.000000	0.026416
3267.000000	0.026371
3266.000000	0.026320
3265.000000	0.026271
3264.000000	0.026230
3263.000000	0.026200
3262.000000	0.026178
3261.000000	0.026148
3260.000000	0.026096
3259.000000	0.026021
3258.000000	0.025931
3257.000000	0.025844
3256.000000	0.025775
3255.000000	0.025726
3254.000000	0.025685
3253.000000	0.025631
3252.000000	0.025557
3251.000000	0.025473
3250.000000	0.025395
3249.000000	0.025329
3248.000000	0.025273
3247.000000	0.025223
3246.000000	0.025181
3245.000000	0.025145
3244.000000	0.025113
3243.000000	0.025078
3242.000000	0.025033
3241.000000	0.024975
3240.000000	0.024914
3239.000000	0.024865
3238.000000	0.024828
3237.000000	0.024791
3236.000000	0.024743
3235.000000	0.024690
3234.000000	0.024641
3233.000000	0.024596
3232.000000	0.024551
3231.000000	0.024501
3230.000000	0.024450
3229.000000	0.024394
3228.000000	0.024330
3227.000000	0.024258
3226.000000	0.024188
3225.000000	0.024135
3224.000000	0.024106
3223.000000	0.024094
3222.000000	0.024082
3221.000000	0.024058
3220.000000	0.024016
3219.000000	0.023963
3218.000000	0.023904
3217.000000	0.023843
3216.000000	0.023779
3215.000000	0.023719
3214.000000	0.023668
3213.000000	0.023623
3212.000000	0.023579
3211.000000	0.023530
3210.000000	0.023473
3209.000000	0.023411
3208.000000	0.023351
3207.000000	0.023302
3206.000000	0.023264
3205.000000	0.023225
3204.000000	0.023178
3203.000000	0.023123
3202.000000	0.023070
3201.000000	0.023025
3200.000000	0.022982
3199.000000	0.022933
3198.000000	0.022871
3197.000000	0.022801
3196.000000	0.022732
3195.000000	0.022667
3194.000000	0.022600
3193.000000	0.022522
3192.000000	0.022434
3191.000000	0.022343
3190.000000	0.022261
3189.000000	0.022194
3188.000000	0.022145
3187.000000	0.022109
3186.000000	0.022073
3185.000000	0.022023
3184.000000	0.021961
3183.000000	0.021895
3182.000000	0.021831
3181.000000	0.021764
3180.000000	0.021684
3179.000000	0.021593
3178.000000	0.021500
3177.000000	0.021414
3176.000000	0.021333
3175.000000	0.021256
3174.000000	0.021180
3173.000000	0.021104
3172.000000	0.021030
3171.000000	0.020958
3170.000000	0.020888
3169.000000	0.020817
3168.000000	0.020747
3167.000000	0.020679
3166.000000	0.020613
3165.000000	0.020548
3164.000000	0.020487
3163.000000	0.020432
3162.000000	0.020378
3161.000000	0.020310
3160.000000	0.020222
3159.000000	0.020119
3158.000000	0.020019
3157.000000	0.019935
3156.000000	0.019869
3155.000000	0.019814
3154.000000	0.019757
3153.000000	0.019690
3152.000000	0.019621
3151.000000	0.019560
3150.000000	0.019515
3149.000000	0.019480
3148.000000	0.019447
3147.000000	0.019409
3146.000000	0.019363
3145.000000	0.019311
3144.000000	0.019258
3143.000000	0.019213
3142.000000	0.019173
3141.000000	0.019125
3140.000000	0.019058
3139.000000	0.018977
3138.000000	0.018896
3137.000000	0.018828
3136.000000	0.018782
3135.000000	0.018760
3134.000000	0.018752
3133.000000	0.018738
3132.000000	0.018705
3131.000000	0.018657
3130.000000	0.018605
3129.000000	0.018554
3128.000000	0.018507
3127.000000	0.018468
3126.000000	0.018444
3125.000000	0.018425
3124.000000	0.018396
3123.000000	0.018349
3122.000000	0.018292
3121.000000	0.018242
3120.000000	0.018209
3119.000000	0.018194
3118.000000	0.018192
3117.000000	0.018194
3116.000000	0.018194
3115.000000	0.018190
3114.000000	0.018185
3113.000000	0.018181
3112.000000	0.018177
3111.000000	0.018170
3110.000000	0.018162
3109.000000	0.018157
3108.000000	0.018159
3107.000000	0.018172
3106.000000	0.018194
3105.000000	0.018222
3104.000000	0.018254
3103.000000	0.018287
3102.000000	0.018321
3101.000000	0.018350
3100.000000	0.018374
3099.000000	0.018398
3098.000000	0.018426
3097.000000	0.018458
3096.000000	0.018486
3095.000000	0.018500
3094.000000	0.018501
3093.000000	0.018492
3092.000000	0.018483
3091.000000	0.018482
3090.000000	0.018496
3089.000000	0.018526
3088.000000	0.018562
3087.000000	0.018594
3086.000000	0.018617
3085.000000	0.018637
3084.000000	0.018657
3083.000000	0.018677
3082.000000	0.018685
3081.000000	0.018676
3080.000000	0.018655
3079.000000	0.018636
3078.000000	0.018629
3077.000000	0.018641
3076.000000	0.018667
3075.000000	0.018699
3074.000000	0.018725
3073.000000	0.018741
3072.000000	0.018749
3071.000000	0.018746
3070.000000	0.018727
3069.000000	0.018690
3068.000000	0.018642
3067.000000	0.018595
3066.000000	0.018553
3065.000000	0.018512
3064.000000	0.018469
3063.000000	0.018426
3062.000000	0.018388
3061.000000	0.018357
3060.000000	0.018327
3059.000000	0.018288
3058.000000	0.018237
3057.000000	0.018179
3056.000000	0.018117
3055.000000	0.018056
3054.000000	0.017992
3053.000000	0.017923
3052.000000	0.017855
3051.000000	0.017791
3050.000000	0.017733
3049.000000	0.017676
3048.000000	0.017616
3047.000000	0.017553
3046.000000	0.017484
3045.000000	0.017412
3044.000000	0.017342
3043.000000	0.017284
3042.000000	0.017239
3041.000000	0.017196
3040.000000	0.017144
3039.000000	0.017081
3038.000000	0.017010
3037.000000	0.016939
3036.000000	0.016872
3035.000000	0.016815
3034.000000	0.016768
3033.000000	0.016722
3032.000000	0.016670
3031.000000	0.016607
3030.000000	0.016536
3029.000000	0.016464
3028.000000	0.016397
3027.000000	0.016337
3026.000000	0.016288
3025.000000	0.016249
3024.000000	0.016216
3023.000000	0.016183
3022.000000	0.016144
3021.000000	0.016098
3020.000000	0.016048
3019.000000	0.016003
3018.000000	0.015965
3017.000000	0.015935
3016.000000	0.015915
3015.000000	0.015905
3014.000000	0.015908
3013.000000	0.015921
3012.000000	0.015945
3011.000000	0.015976
3010.000000	0.016005
3009.000000	0.016023
3008.000000	0.016027
3007.000000	0.016023
3006.000000	0.016021
3005.000000	0.016025
3004.000000	0.016033
3003.000000	0.016041
3002.000000	0.016046
3001.000000	0.016043
3000.000000	0.016033
2999.000000	0.016016
2998.000000	0.015995
2997.000000	0.015977
2996.000000	0.015971
2995.000000	0.015985
2994.000000	0.016015
2993.000000	0.016055
2992.000000	0.016100
2991.000000	0.016152
2990.000000	0.016212
2989.000000	0.016277
2988.000000	0.016341
2987.000000	0.016404
2986.000000	0.016467
2985.000000	0.016537
2984.000000	0.016618
2983.000000	0.016709
2982.000000	0.016802
2981.000000	0.016888
2980.000000	0.016970
2979.000000	0.017058
2978.000000	0.017164
2977.000000	0.017285
2976.000000	0.017411
2975.000000	0.017542
2974.000000	0.017681
2973.000000	0.017827
2972.000000	0.017972
2971.000000	0.018110
2970.000000	0.018245
2969.000000	0.018396
2968.000000	0.018580
2967.000000	0.018799
2966.000000	0.019040
2965.000000	0.019284
2964.000000	0.019519
2963.000000	0.019743
2962.000000	0.019957
2961.000000	0.020163
2960.000000	0.020356
2959.000000	0.020523
2958.000000	0.020657
2957.000000	0.020759
2956.000000	0.020840
2955.000000	0.020904
2954.000000	0.020949
2953.000000	0.020971
2952.000000	0.020980
2951.000000	0.020996
2950.000000	0.021034
2949.000000	0.021094
2948.000000	0.021175
2947.000000	0.021289
2946.000000	0.021456
2945.000000	0.021678
2944.000000	0.021943
2943.000000	0.022234
2942.000000	0.022544
2941.000000	0.022877
2940.000000	0.023243
2939.000000	0.023643
2938.000000	0.024079
2937.000000	0.024548
2936.000000	0.025043
2935.000000	0.025550
2934.000000	0.026055
2933.000000	0.026549
2932.000000	0.027034
2931.000000	0.027509
2930.000000	0.027972
2929.000000	0.028413
2928.000000	0.028821
2927.000000	0.029187
2926.000000	0.029496
2925.000000	0.029726
2924.000000	0.029854
2923.000000	0.029860
2922.000000	0.029741
2921.000000	0.029507
2920.000000	0.029178
2919.000000	0.028769
2918.000000	0.028289
2917.000000	0.027749
2916.000000	0.027169
2915.000000	0.026573
2914.000000	0.025982
2913.000000	0.025412
2912.000000	0.024875
2911.000000	0.024373
2910.000000	0.023904
2909.000000	0.023467
2908.000000	0.023069
2907.000000	0.022719
2906.000000	0.022409
2905.000000	0.022126
2904.000000	0.021858
2903.000000	0.021606
2902.000000	0.021376
2901.000000	0.021167
2900.000000	0.020974
2899.000000	0.020792
2898.000000	0.020612
2897.000000	0.020429
2896.000000	0.020243
2895.000000	0.020059
2894.000000	0.019883
2893.000000	0.019716
2892.000000	0.019559
2891.000000	0.019415
2890.000000	0.019287
2889.000000	0.019172
2888.000000	0.019064
2887.000000	0.018960
2886.000000	0.018859
2885.000000	0.018761
2884.000000	0.018672
2883.000000	0.018597
2882.000000	0.018542
2881.000000	0.018509
2880.000000	0.018500
2879.000000	0.018511
2878.000000	0.018541
2877.000000	0.018589
2876.000000	0.018657
2875.000000	0.018739
2874.000000	0.018814
2873.000000	0.018857
2872.000000	0.018859
2871.000000	0.018834
2870.000000	0.018811
2869.000000	0.018805
2868.000000	0.018814
2867.000000	0.018838
2866.000000	0.018894
2865.000000	0.019003
2864.000000	0.019179
2863.000000	0.019417
2862.000000	0.019714
2861.000000	0.020067
2860.000000	0.020475
2859.000000	0.020920
2858.000000	0.021375
2857.000000	0.021812
2856.000000	0.022204
2855.000000	0.022517
2854.000000	0.022711
2853.000000	0.022747
2852.000000	0.022612
2851.000000	0.022314
2850.000000	0.021878
2849.000000	0.021336
2848.000000	0.020729
2847.000000	0.020098
2846.000000	0.019477
2845.000000	0.018883
2844.000000	0.018327
2843.000000	0.017818
2842.000000	0.017362
2841.000000	0.016962
2840.000000	0.016615
2839.000000	0.016321
2838.000000	0.016078
2837.000000	0.015882
2836.000000	0.015722
2835.000000	0.015589
2834.000000	0.015474
2833.000000	0.015370
2832.000000	0.015264
2831.000000	0.015146
2830.000000	0.015017
2829.000000	0.014894
2828.000000	0.014792
2827.000000	0.014715
2826.000000	0.014654
2825.000000	0.014595
2824.000000	0.014531
2823.000000	0.014463
2822.000000	0.014392
2821.000000	0.014321
2820.000000	0.014252
2819.000000	0.014189
2818.000000	0.014134
2817.000000	0.014088
2816.000000	0.014045
2815.000000	0.014000
2814.000000	0.013945
2813.000000	0.013883
2812.000000	0.013825
2811.000000	0.013778
2810.000000	0.013744
2809.000000	0.013711
2808.000000	0.013670
2807.000000	0.013624
2806.000000	0.013579
2805.000000	0.013542
2804.000000	0.013507
2803.000000	0.013468
2802.000000	0.013422
2801.000000	0.013372
2800.000000	0.013325
2799.000000	0.013285
2798.000000	0.013254
2797.000000	0.013232
2796.000000	0.013217
2795.000000	0.013202
2794.000000	0.013180
2793.000000	0.013150
2792.000000	0.013114
2791.000000	0.013082
2790.000000	0.013059
2789.000000	0.013048
2788.000000	0.013038
2787.000000	0.013015
2786.000000	0.012973
2785.000000	0.012920
2784.000000	0.012870
2783.000000	0.012826
2782.000000	0.012785
2781.000000	0.012743
2780.000000	0.012705
2779.000000	0.012677
2778.000000	0.012661
2777.000000	0.012646
2776.000000	0.012625
2775.000000	0.012595
2774.000000	0.012562
2773.000000	0.012532
2772.000000	0.012514
2771.000000	0.012506
2770.000000	0.012503
2769.000000	0.012497
2768.000000	0.012481
2767.000000	0.012447
2766.000000	0.012393
2765.000000	0.012328
2764.000000	0.012267
2763.000000	0.012219
2762.000000	0.012184
2761.000000	0.012154
2760.000000	0.012124
2759.000000	0.012102
2758.000000	0.012093
2757.000000	0.012093
2756.000000	0.012096
2755.000000	0.012098
2754.000000	0.012101
2753.000000	0.012102
2752.000000	0.012090
2751.000000	0.012062
2750.000000	0.012027
2749.000000	0.011998
2748.000000	0.011978
2747.000000	0.011958
2746.000000	0.011935
2745.000000	0.011913
2744.000000	0.011898
2743.000000	0.011890
2742.000000	0.011883
2741.000000	0.011875
2740.000000	0.011865
2739.000000	0.011849
2738.000000	0.011822
2737.000000	0.011783
2736.000000	0.011744
2735.000000	0.011720
2734.000000	0.011716
2733.000000	0.011723
2732.000000	0.011727
2731.000000	0.011715
2730.000000	0.011685
2729.000000	0.011640
2728.000000	0.011592
2727.000000	0.011551
2726.000000	0.011525
2725.000000	0.011514
2724.000000	0.011511
2723.000000	0.011504
2722.000000	0.011491
2721.000000	0.011474
2720.000000	0.011454
2719.000000	0.011430
2718.000000	0.011400
2717.000000	0.011367
2716.000000	0.011335
2715.000000	0.011310
2714.000000	0.011297
2713.000000	0.011294
2712.000000	0.011295
2711.000000	0.011291
2710.000000	0.011283
2709.000000	0.011276
2708.000000	0.011271
2707.000000	0.011264
2706.000000	0.011250
2705.000000	0.011229
2704.000000	0.011202
2703.000000	0.011170
2702.000000	0.011136
2701.000000	0.011110
2700.000000	0.011095
2699.000000	0.011090
2698.000000	0.011088
2697.000000	0.011085
2696.000000	0.011082
2695.000000	0.011076
2694.000000	0.011068
2693.000000	0.011056
2692.000000	0.011045
2691.000000	0.011036
2690.000000	0.011032
2689.000000	0.011036
2688.000000	0.011046
2687.000000	0.011052
2686.000000	0.011045
2685.000000	0.011022
2684.000000	0.010996
2683.000000	0.010978
2682.000000	0.010976
2681.000000	0.010983
2680.000000	0.010987
2679.000000	0.010975
2678.000000	0.010944
2677.000000	0.010904
2676.000000	0.010875
2675.000000	0.010869
2674.000000	0.010883
2673.000000	0.010902
2672.000000	0.010912
2671.000000	0.010909
2670.000000	0.010898
2669.000000	0.010889
2668.000000	0.010886
2667.000000	0.010888
2666.000000	0.010891
2665.000000	0.010893
2664.000000	0.010889
2663.000000	0.010873
2662.000000	0.010844
2661.000000	0.010804
2660.000000	0.010764
2659.000000	0.010729
2658.000000	0.010703
2657.000000	0.010684
2656.000000	0.010665
2655.000000	0.010641
2654.000000	0.010608
2653.000000	0.010569
2652.000000	0.010533
2651.000000	0.010507
2650.000000	0.010492
2649.000000	0.010482
2648.000000	0.010464
2647.000000	0.010430
2646.000000	0.010386
2645.000000	0.010344
2644.000000	0.010313
2643.000000	0.010289
2642.000000	0.010267
2641.000000	0.010245
2640.000000	0.010222
2639.000000	0.010197
2638.000000	0.010171
2637.000000	0.010147
2636.000000	0.010125
2635.000000	0.010094
2634.000000	0.010050
2633.000000	0.009999
2632.000000	0.009956
2631.000000	0.009930
2630.000000	0.009920
2629.000000	0.009916
2628.000000	0.009910
2627.000000	0.009894
2626.000000	0.009872
2625.000000	0.009847
2624.000000	0.009823
2623.000000	0.009796
2622.000000	0.009763
2621.000000	0.009731
2620.000000	0.009705
2619.000000	0.009681
2618.000000	0.009650
2617.000000	0.009611
2616.000000	0.009566
2615.000000	0.009524
2614.000000	0.009488
2613.000000	0.009455
2612.000000	0.009420
2611.000000	0.009379
2610.000000	0.009337
2609.000000	0.009311
2608.000000	0.009308
2607.000000	0.009317
2606.000000	0.009320
2605.000000	0.009307
2604.000000	0.009283
2603.000000	0.009264
2602.000000	0.009261
2601.000000	0.009279
2600.000000	0.009304
2599.000000	0.009313
2598.000000	0.009290
2597.000000	0.009245
2596.000000	0.009196
2595.000000	0.009159
2594.000000	0.009134
2593.000000	0.009116
2592.000000	0.009102
2591.000000	0.009093
2590.000000	0.009094
2589.000000	0.009106
2588.000000	0.009118
2587.000000	0.009109
2586.000000	0.009073
2585.000000	0.009022
2584.000000	0.008979
2583.000000	0.008945
2582.000000	0.008915
2581.000000	0.008886
2580.000000	0.008872
2579.000000	0.008878
2578.000000	0.008893
2577.000000	0.008901
2576.000000	0.008895
2575.000000	0.008875
2574.000000	0.008847
2573.000000	0.008815
2572.000000	0.008784
2571.000000	0.008761
2570.000000	0.008752
2569.000000	0.008757
2568.000000	0.008766
2567.000000	0.008764
2566.000000	0.008749
2565.000000	0.008736
2564.000000	0.008742
2563.000000	0.008764
2562.000000	0.008784
2561.000000	0.008788
2560.000000	0.008778
2559.000000	0.008764
2558.000000	0.008749
2557.000000	0.008723
2556.000000	0.008676
2555.000000	0.008606
2554.000000	0.008537
2553.000000	0.008491
2552.000000	0.008475
2551.000000	0.008479
2550.000000	0.008489
2549.000000	0.008506
2548.000000	0.008527
2547.000000	0.008541
2546.000000	0.008536
2545.000000	0.008523
2544.000000	0.008520
2543.000000	0.008538
2542.000000	0.008569
2541.000000	0.008593
2540.000000	0.008592
2539.000000	0.008561
2538.000000	0.008516
2537.000000	0.008487
2536.000000	0.008492
2535.000000	0.008522
2534.000000	0.008550
2533.000000	0.008558
2532.000000	0.008544
2531.000000	0.008515
2530.000000	0.008479
2529.000000	0.008453
2528.000000	0.008452
2527.000000	0.008483
2526.000000	0.008531
2525.000000	0.008568
2524.000000	0.008572
2523.000000	0.008546
2522.000000	0.008509
2521.000000	0.008487
2520.000000	0.008479
2519.000000	0.008470
2518.000000	0.008444
2517.000000	0.008405
2516.000000	0.008366
2515.000000	0.008338
2514.000000	0.008314
2513.000000	0.008286
2512.000000	0.008251
2511.000000	0.008221
2510.000000	0.008211
2509.000000	0.008224
2508.000000	0.008244
2507.000000	0.008260
2506.000000	0.008279
2505.000000	0.008309
2504.000000	0.008338
2503.000000	0.008346
2502.000000	0.008328
2501.000000	0.008306
2500.000000	0.008290
2499.000000	0.008276
2498.000000	0.008258
2497.000000	0.008251
2496.000000	0.008266
2495.000000	0.008290
2494.000000	0.008300
2493.000000	0.008286
2492.000000	0.008257
2491.000000	0.008224
2490.000000	0.008194
2489.000000	0.008170
2488.000000	0.008151
2487.000000	0.008134
2486.000000	0.008120
2485.000000	0.008116
2484.000000	0.008120
2483.000000	0.008115
2482.000000	0.008092
2481.000000	0.008063
2480.000000	0.008049
2479.000000	0.008056
2478.000000	0.008075
2477.000000	0.008089
2476.000000	0.008084
2475.000000	0.008052
2474.000000	0.008003
2473.000000	0.007970
2472.000000	0.007973
2471.000000	0.008006
2470.000000	0.008035
2469.000000	0.008040
2468.000000	0.008018
2467.000000	0.007988
2466.000000	0.007965
2465.000000	0.007961
2464.000000	0.007971
2463.000000	0.007980
2462.000000	0.007983
2461.000000	0.007985
2460.000000	0.007994
2459.000000	0.008011
2458.000000	0.008028
2457.000000	0.008040
2456.000000	0.008039
2455.000000	0.008018
2454.000000	0.007986
2453.000000	0.007963
2452.000000	0.007970
2451.000000	0.008005
2450.000000	0.008048
2449.000000	0.008077
2448.000000	0.008075
2447.000000	0.008039
2446.000000	0.007985
2445.000000	0.007946
2444.000000	0.007942
2443.000000	0.007964
2442.000000	0.007984
2441.000000	0.007981
2440.000000	0.007955
2439.000000	0.007922
2438.000000	0.007904
2437.000000	0.007913
2436.000000	0.007937
2435.000000	0.007950
2434.000000	0.007944
2433.000000	0.007935
2432.000000	0.007934
2431.000000	0.007920
2430.000000	0.007872
2429.000000	0.007797
2428.000000	0.007734
2427.000000	0.007713
2426.000000	0.007729
2425.000000	0.007756
2424.000000	0.007774
2423.000000	0.007787
2422.000000	0.007810
2421.000000	0.007846
2420.000000	0.007880
2419.000000	0.007888
2418.000000	0.007868
2417.000000	0.007840
2416.000000	0.007826
2415.000000	0.007833
2414.000000	0.007855
2413.000000	0.007880
2412.000000	0.007893
2411.000000	0.007880
2410.000000	0.007846
2409.000000	0.007803
2408.000000	0.007767
2407.000000	0.007738
2406.000000	0.007722
2405.000000	0.007730
2404.000000	0.007764
2403.000000	0.007810
2402.000000	0.007849
2401.000000	0.007870
2400.000000	0.007862
2399.000000	0.007826
2398.000000	0.007780
2397.000000	0.007758
2396.000000	0.007781
2395.000000	0.007827
2394.000000	0.007860
2393.000000	0.007864
2392.000000	0.007849
2391.000000	0.007833
2390.000000	0.007827
2389.000000	0.007828
2388.000000	0.007820
2387.000000	0.007791
2386.000000	0.007751
2385.000000	0.007734
2384.000000	0.007767
2383.000000	0.007842
2382.000000	0.007925
2381.000000	0.007980
2380.000000	0.007993
2379.000000	0.007972
2378.000000	0.007939
2377.000000	0.007912
2376.000000	0.007889
2375.000000	0.007853
2374.000000	0.007804
2373.000000	0.007766
2372.000000	0.007757
2371.000000	0.007761
2370.000000	0.007752
2369.000000	0.007735
2368.000000	0.007742
2367.000000	0.007791
2366.000000	0.007868
2365.000000	0.007937
2364.000000	0.007956
2363.000000	0.007913
2362.000000	0.007855
2361.000000	0.007847
2360.000000	0.007913
2359.000000	0.008005
2358.000000	0.008044
2357.000000	0.008007
2356.000000	0.007934
2355.000000	0.007875
2354.000000	0.007870
2353.000000	0.007901
2352.000000	0.007916
2351.000000	0.007878
2350.000000	0.007832
2349.000000	0.007861
2348.000000	0.007989
2347.000000	0.008162
2346.000000	0.008259
2345.000000	0.008207
2344.000000	0.008051
2343.000000	0.007911
2342.000000	0.007865
2341.000000	0.007882
2340.000000	0.007912
2339.000000	0.007928
2338.000000	0.007934
2337.000000	0.007944
2336.000000	0.007965
2335.000000	0.007984
2334.000000	0.007988
2333.000000	0.007978
2332.000000	0.007969
2331.000000	0.007958
2330.000000	0.007943
2329.000000	0.007937
2328.000000	0.007958
2327.000000	0.008037
2326.000000	0.008165
2325.000000	0.008311
2324.000000	0.008401
2323.000000	0.008381
2322.000000	0.008259
2321.000000	0.008095
2320.000000	0.007955
2319.000000	0.007859
2318.000000	0.007815
2317.000000	0.007822
2316.000000	0.007859
2315.000000	0.007887
2314.000000	0.007877
2313.000000	0.007844
2312.000000	0.007817
2311.000000	0.007806
2310.000000	0.007799
2309.000000	0.007792
2308.000000	0.007787
2307.000000	0.007786
2306.000000	0.007790
2305.000000	0.007803
2304.000000	0.007819
2303.000000	0.007817
2302.000000	0.007779
2301.000000	0.007719
2300.000000	0.007668
2299.000000	0.007646
2298.000000	0.007658
2297.000000	0.007689
2296.000000	0.007714
2295.000000	0.007716
2294.000000	0.007695
2293.000000	0.007685
2292.000000	0.007707
2291.000000	0.007751
2290.000000	0.007794
2289.000000	0.007825
2288.000000	0.007841
2287.000000	0.007836
2286.000000	0.007811
2285.000000	0.007782
2284.000000	0.007762
2283.000000	0.007735
2282.000000	0.007680
2281.000000	0.007607
2280.000000	0.007545
2279.000000	0.007509
2278.000000	0.007498
2277.000000	0.007504
2276.000000	0.007517
2275.000000	0.007524
2274.000000	0.007525
2273.000000	0.007535
2272.000000	0.007552
2271.000000	0.007550
2270.000000	0.007510
2269.000000	0.007448
2268.000000	0.007388
2267.000000	0.007341
2266.000000	0.007317
2265.000000	0.007342
2264.000000	0.007420
2263.000000	0.007512
2262.000000	0.007559
2261.000000	0.007543
2260.000000	0.007487
2259.000000	0.007419
2258.000000	0.007356
2257.000000	0.007301
2256.000000	0.007241
2255.000000	0.007150
2254.000000	0.007035
2253.000000	0.006937
2252.000000	0.006895
2251.000000	0.006910
2250.000000	0.006965
2249.000000	0.007046
2248.000000	0.007124
2247.000000	0.007173
2246.000000	0.007200
2245.000000	0.007234
2244.000000	0.007266
2243.000000	0.007246
2242.000000	0.007165
2241.000000	0.007093
2240.000000	0.007084
2239.000000	0.007107
2238.000000	0.007093
2237.000000	0.007037
2236.000000	0.006988
2235.000000	0.006969
2234.000000	0.006975
2233.000000	0.007013
2232.000000	0.007083
2231.000000	0.007145
2230.000000	0.007136
2229.000000	0.007045
2228.000000	0.006915
2227.000000	0.006811
2226.000000	0.006780
2225.000000	0.006836
2224.000000	0.006925
2223.000000	0.006970
2222.000000	0.006949
2221.000000	0.006932
2220.000000	0.006979
2219.000000	0.007065
2218.000000	0.007138
2217.000000	0.007183
2216.000000	0.007202
2215.000000	0.007171
2214.000000	0.007085
2213.000000	0.007000
2212.000000	0.006961
2211.000000	0.006929
2210.000000	0.006839
2209.000000	0.006713
2208.000000	0.006634
2207.000000	0.006638
2206.000000	0.006686
2205.000000	0.006729
2204.000000	0.006751
2203.000000	0.006759
2202.000000	0.006778
2201.000000	0.006831
2200.000000	0.006890
2199.000000	0.006879
2198.000000	0.006784
2197.000000	0.006707
2196.000000	0.006770
2195.000000	0.006959
2194.000000	0.007137
2193.000000	0.007185
2192.000000	0.007089
2191.000000	0.006922
2190.000000	0.006770
2189.000000	0.006676
2188.000000	0.006628
2187.000000	0.006607
2186.000000	0.006644
2185.000000	0.006775
2184.000000	0.006928
2183.000000	0.006957
2182.000000	0.006824
2181.000000	0.006658
2180.000000	0.006589
2179.000000	0.006596
2178.000000	0.006592
2177.000000	0.006551
2176.000000	0.006467
2175.000000	0.006306
2174.000000	0.006085
2173.000000	0.005923
2172.000000	0.005924
2171.000000	0.006052
2170.000000	0.006219
2169.000000	0.006406
2168.000000	0.006615
2167.000000	0.006777
2166.000000	0.006794
2165.000000	0.006659
2164.000000	0.006436
2163.000000	0.006178
2162.000000	0.005933
2161.000000	0.005765
2160.000000	0.005658
2159.000000	0.005475
2158.000000	0.005172
2157.000000	0.004936
2156.000000	0.004942
2155.000000	0.005148
2154.000000	0.005416
2153.000000	0.005677
2152.000000	0.005902
2151.000000	0.006038
2150.000000	0.006074
2149.000000	0.006096
2148.000000	0.006183
2147.000000	0.006289
2146.000000	0.006321
2145.000000	0.006270
2144.000000	0.006201
2143.000000	0.006149
2142.000000	0.006123
2141.000000	0.006152
2140.000000	0.006248
2139.000000	0.006353
2138.000000	0.006387
2137.000000	0.006340
2136.000000	0.006250
2135.000000	0.006146
2134.000000	0.006051
2133.000000	0.006020
2132.000000	0.006089
2131.000000	0.006228
2130.000000	0.006367
2129.000000	0.006471
2128.000000	0.006533
2127.000000	0.006543
2126.000000	0.006502
2125.000000	0.006455
2124.000000	0.006462
2123.000000	0.006541
2122.000000	0.006658
2121.000000	0.006773
2120.000000	0.006862
2119.000000	0.006912
2118.000000	0.006920
2117.000000	0.006904
2116.000000	0.006885
2115.000000	0.006868
2114.000000	0.006863
2113.000000	0.006890
2112.000000	0.006950
2111.000000	0.007009
2110.000000	0.007040
2109.000000	0.007054
2108.000000	0.007065
2107.000000	0.007048
2106.000000	0.006969
2105.000000	0.006849
2104.000000	0.006755
2103.000000	0.006730
2102.000000	0.006770
2101.000000	0.006838
2100.000000	0.006893
2099.000000	0.006906
2098.000000	0.006876
2097.000000	0.006841
2096.000000	0.006825
2095.000000	0.006810
2094.000000	0.006771
2093.000000	0.006719
2092.000000	0.006692
2091.000000	0.006707
2090.000000	0.006750
2089.000000	0.006799
2088.000000	0.006833
2087.000000	0.006836
2086.000000	0.006822
2085.000000	0.006829
2084.000000	0.006874
2083.000000	0.006930
2082.000000	0.006956
2081.000000	0.006951
2080.000000	0.006933
2079.000000	0.006906
2078.000000	0.006859
2077.000000	0.006780
2076.000000	0.006670
2075.000000	0.006536
2074.000000	0.006412
2073.000000	0.006342
2072.000000	0.006341
2071.000000	0.006376
2070.000000	0.006406
2069.000000	0.006411
2068.000000	0.006386
2067.000000	0.006356
2066.000000	0.006372
2065.000000	0.006470
2064.000000	0.006598
2063.000000	0.006663
2062.000000	0.006645
2061.000000	0.006599
2060.000000	0.006550
2059.000000	0.006449
2058.000000	0.006279
2057.000000	0.006120
2056.000000	0.006063
2055.000000	0.006111
2054.000000	0.006224
2053.000000	0.006366
2052.000000	0.006484
2051.000000	0.006507
2050.000000	0.006424
2049.000000	0.006330
2048.000000	0.006309
2047.000000	0.006325
2046.000000	0.006304
2045.000000	0.006252
2044.000000	0.006204
2043.000000	0.006136
2042.000000	0.006024
2041.000000	0.005914
2040.000000	0.005864
2039.000000	0.005848
2038.000000	0.005817
2037.000000	0.005775
2036.000000	0.005740
2035.000000	0.005689
2034.000000	0.005625
2033.000000	0.005606
2032.000000	0.005629
2031.000000	0.005588
2030.000000	0.005445
2029.000000	0.005326
2028.000000	0.005346
2027.000000	0.005447
2026.000000	0.005522
2025.000000	0.005588
2024.000000	0.005720
2023.000000	0.005879
2022.000000	0.005944
2021.000000	0.005861
2020.000000	0.005685
2019.000000	0.005500
2018.000000	0.005363
2017.000000	0.005282
2016.000000	0.005198
2015.000000	0.005047
2014.000000	0.004881
2013.000000	0.004831
2012.000000	0.004929
2011.000000	0.005059
2010.000000	0.005124
2009.000000	0.005152
2008.000000	0.005195
2007.000000	0.005234
2006.000000	0.005253
2005.000000	0.005289
2004.000000	0.005340
2003.000000	0.005359
2002.000000	0.005353
2001.000000	0.005393
2000.000000	0.005475
1999.000000	0.005484
1998.000000	0.005380
1997.000000	0.005265
1996.000000	0.005233
1995.000000	0.005252
1994.000000	0.005267
1993.000000	0.005304
1992.000000	0.005382
1991.000000	0.005408
1990.000000	0.005297
1989.000000	0.005112
1988.000000	0.005002
1987.000000	0.005038
1986.000000	0.005192
1985.000000	0.005409
1984.000000	0.005617
1983.000000	0.005743
1982.000000	0.005794
1981.000000	0.005849
1980.000000	0.005908
1979.000000	0.005836
1978.000000	0.005560
1977.000000	0.005236
1976.000000	0.005079
1975.000000	0.005099
1974.000000	0.005164
1973.000000	0.005215
1972.000000	0.005260
1971.000000	0.005288
1970.000000	0.005277
1969.000000	0.005252
1968.000000	0.005243
1967.000000	0.005222
1966.000000	0.005161
1965.000000	0.005088
1964.000000	0.005037
1963.000000	0.005004
1962.000000	0.004992
1961.000000	0.005034
1960.000000	0.005121
1959.000000	0.005179
1958.000000	0.005164
1957.000000	0.005117
1956.000000	0.005089
1955.000000	0.005081
1954.000000	0.005077
1953.000000	0.005077
1952.000000	0.005081
1951.000000	0.005082
1950.000000	0.005102
1949.000000	0.005183
1948.000000	0.005313
1947.000000	0.005402
1946.000000	0.005386
1945.000000	0.005285
1944.000000	0.005172
1943.000000	0.005110
1942.000000	0.005151
1941.000000	0.005293
1940.000000	0.005456
1939.000000	0.005539
1938.000000	0.005513
1937.000000	0.005426
1936.000000	0.005332
1935.000000	0.005254
1934.000000	0.005222
1933.000000	0.005267
1932.000000	0.005371
1931.000000	0.005478
1930.000000	0.005554
1929.000000	0.005614
1928.000000	0.005645
1927.000000	0.005614
1926.000000	0.005534
1925.000000	0.005474
1924.000000	0.005486
1923.000000	0.005529
1922.000000	0.005546
1921.000000	0.005538
1920.000000	0.005534
1919.000000	0.005539
1918.000000	0.005534
1917.000000	0.005520
1916.000000	0.005503
1915.000000	0.005482
1914.000000	0.005460
1913.000000	0.005445
1912.000000	0.005426
1911.000000	0.005386
1910.000000	0.005331
1909.000000	0.005294
1908.000000	0.005285
1907.000000	0.005291
1906.000000	0.005312
1905.000000	0.005358
1904.000000	0.005420
1903.000000	0.005460
1902.000000	0.005476
1901.000000	0.005507
1900.000000	0.005555
1899.000000	0.005574
1898.000000	0.005540
1897.000000	0.005491
1896.000000	0.005474
1895.000000	0.005486
1894.000000	0.005489
1893.000000	0.005459
1892.000000	0.005406
1891.000000	0.005358
1890.000000	0.005348
1889.000000	0.005383
1888.000000	0.005417
1887.000000	0.005412
1886.000000	0.005403
1885.000000	0.005447
1884.000000	0.005526
1883.000000	0.005554
1882.000000	0.005496
1881.000000	0.005406
1880.000000	0.005344
1879.000000	0.005316
1878.000000	0.005311
1877.000000	0.005324
1876.000000	0.005349
1875.000000	0.005368
1874.000000	0.005370
1873.000000	0.005361
1872.000000	0.005340
1871.000000	0.005300
1870.000000	0.005253
1869.000000	0.005226
1868.000000	0.005220
1867.000000	0.005205
1866.000000	0.005176
1865.000000	0.005169
1864.000000	0.005191
1863.000000	0.005213
1862.000000	0.005225
1861.000000	0.005258
1860.000000	0.005326
1859.000000	0.005400
1858.000000	0.005453
1857.000000	0.005484
1856.000000	0.005485
1855.000000	0.005442
1854.000000	0.005372
1853.000000	0.005319
1852.000000	0.005287
1851.000000	0.005247
1850.000000	0.005200
1849.000000	0.005155
1848.000000	0.005093
1847.000000	0.005011
1846.000000	0.004976
1845.000000	0.005061
1844.000000	0.005210
1843.000000	0.005275
1842.000000	0.005234
1841.000000	0.005208
1840.000000	0.005260
1839.000000	0.005329
1838.000000	0.005335
1837.000000	0.005297
1836.000000	0.005276
1835.000000	0.005272
1834.000000	0.005246
1833.000000	0.005198
1832.000000	0.005150
1831.000000	0.005109
1830.000000	0.005074
1829.000000	0.005056
1828.000000	0.005056
1827.000000	0.005066
1826.000000	0.005094
1825.000000	0.005140
1824.000000	0.005175
1823.000000	0.005179
1822.000000	0.005175
1821.000000	0.005192
1820.000000	0.005211
1819.000000	0.005195
1818.000000	0.005155
1817.000000	0.005139
1816.000000	0.005167
1815.000000	0.005198
1814.000000	0.005207
1813.000000	0.005201
1812.000000	0.005182
1811.000000	0.005137
1810.000000	0.005077
1809.000000	0.005049
1808.000000	0.005071
1807.000000	0.005112
1806.000000	0.005141
1805.000000	0.005163
1804.000000	0.005192
1803.000000	0.005207
1802.000000	0.005195
1801.000000	0.005170
1800.000000	0.005153
1799.000000	0.005156
1798.000000	0.005178
1797.000000	0.005216
1796.000000	0.005241
1795.000000	0.005228
1794.000000	0.005201
1793.000000	0.005197
1792.000000	0.005209
1791.000000	0.005200
1790.000000	0.005161
1789.000000	0.005134
1788.000000	0.005142
1787.000000	0.005174
1786.000000	0.005214
1785.000000	0.005256
1784.000000	0.005271
1783.000000	0.005220
1782.000000	0.005147
1781.000000	0.005122
1780.000000	0.005143
1779.000000	0.005156
1778.000000	0.005136
1777.000000	0.005107
1776.000000	0.005061
1775.000000	0.004981
1774.000000	0.004914
1773.000000	0.004927
1772.000000	0.004985
1771.000000	0.005019
1770.000000	0.005047
1769.000000	0.005153
1768.000000	0.005343
1767.000000	0.005494
1766.000000	0.005525
1765.000000	0.005513
1764.000000	0.005579
1763.000000	0.005742
1762.000000	0.005946
1761.000000	0.006148
1760.000000	0.006348
1759.000000	0.006589
1758.000000	0.006944
1757.000000	0.007443
1756.000000	0.007966
1755.000000	0.008374
1754.000000	0.008712
1753.000000	0.009139
1752.000000	0.009700
1751.000000	0.010245
1750.000000	0.010625
1749.000000	0.010891
1748.000000	0.011140
1747.000000	0.011342
1746.000000	0.011460
1745.000000	0.011499
1744.000000	0.011448
1743.000000	0.011276
1742.000000	0.011001
1741.000000	0.010690
1740.000000	0.010366
1739.000000	0.009961
1738.000000	0.009470
1737.000000	0.009020
1736.000000	0.008719
1735.000000	0.008491
1734.000000	0.008156
1733.000000	0.007708
1732.000000	0.007291
1731.000000	0.007018
1730.000000	0.006904
1729.000000	0.006881
1728.000000	0.006855
1727.000000	0.006775
1726.000000	0.006668
1725.000000	0.006568
1724.000000	0.006477
1723.000000	0.006364
1722.000000	0.006215
1721.000000	0.006083
1720.000000	0.006019
1719.000000	0.005995
1718.000000	0.005930
1717.000000	0.005853
1716.000000	0.005868
1715.000000	0.005987
1714.000000	0.006179
1713.000000	0.006418
1712.000000	0.006669
1711.000000	0.006904
1710.000000	0.007132
1709.000000	0.007379
1708.000000	0.007644
1707.000000	0.007939
1706.000000	0.008295
1705.000000	0.008686
1704.000000	0.009021
1703.000000	0.009326
1702.000000	0.009835
1701.000000	0.010740
1700.000000	0.011664
1699.000000	0.012015
1698.000000	0.012028
1697.000000	0.012379
1696.000000	0.013275
1695.000000	0.014274
1694.000000	0.014914
1693.000000	0.015315
1692.000000	0.015773
1691.000000	0.016334
1690.000000	0.016905
1689.000000	0.017422
1688.000000	0.017844
1687.000000	0.018203
1686.000000	0.018657
1685.000000	0.019418
1684.000000	0.020401
1683.000000	0.021236
1682.000000	0.021852
1681.000000	0.022504
1680.000000	0.023302
1679.000000	0.024100
1678.000000	0.024823
1677.000000	0.025641
1676.000000	0.026706
1675.000000	0.027811
1674.000000	0.028629
1673.000000	0.029207
1672.000000	0.029852
1671.000000	0.030741
1670.000000	0.031842
1669.000000	0.033038
1668.000000	0.034154
1667.000000	0.035057
1666.000000	0.035816
1665.000000	0.036628
1664.000000	0.037626
1663.000000	0.038711
1662.000000	0.039688
1661.000000	0.040522
1660.000000	0.041287
1659.000000	0.042006
1658.000000	0.042629
1657.000000	0.043116
1656.000000	0.043534
1655.000000	0.044059
1654.000000	0.044893
1653.000000	0.045965
1652.000000	0.046750
1651.000000	0.046935
1650.000000	0.046918
1649.000000	0.047122
1648.000000	0.047601
1647.000000	0.048236
1646.000000	0.048871
1645.000000	0.049413
1644.000000	0.049837
1643.000000	0.050186
1642.000000	0.050518
1641.000000	0.050857
1640.000000	0.051150
1639.000000	0.051346
1638.000000	0.051492
1637.000000	0.051752
1636.000000	0.052197
1635.000000	0.052655
1634.000000	0.052891
1633.000000	0.052921
1632.000000	0.052933
1631.000000	0.052966
1630.000000	0.052947
1629.000000	0.052819
1628.000000	0.052572
1627.000000	0.052197
1626.000000	0.051711
1625.000000	0.051152
1624.000000	0.050518
1623.000000	0.049772
1622.000000	0.048942
1621.000000	0.048107
1620.000000	0.047306
1619.000000	0.046511
1618.000000	0.045620
1617.000000	0.044558
1616.000000	0.043430
1615.000000	0.042399
1614.000000	0.041498
1613.000000	0.040667
1612.000000	0.039827
1611.000000	0.038916
1610.000000	0.037952
1609.000000	0.037000
1608.000000	0.036107
1607.000000	0.035280
1606.000000	0.034523
1605.000000	0.033826
1604.000000	0.033158
1603.000000	0.032518
1602.000000	0.031929
1601.000000	0.031395
1600.000000	0.030904
1599.000000	0.030452
1598.000000	0.030041
1597.000000	0.029661
1596.000000	0.029307
1595.000000	0.029000
1594.000000	0.028765
1593.000000	0.028594
1592.000000	0.028462
1591.000000	0.028362
1590.000000	0.028307
1589.000000	0.028296
1588.000000	0.028318
1587.000000	0.028378
1586.000000	0.028478
1585.000000	0.028611
1584.000000	0.028759
1583.000000	0.028935
1582.000000	0.029164
1581.000000	0.029404
1580.000000	0.029583
1579.000000	0.029720
1578.000000	0.029926
1577.000000	0.030287
1576.000000	0.030771
1575.000000	0.031245
1574.000000	0.031623
1573.000000	0.031963
1572.000000	0.032367
1571.000000	0.032898
1570.000000	0.033529
1569.000000	0.034164
1568.000000	0.034718
1567.000000	0.035230
1566.000000	0.035810
1565.000000	0.036461
1564.000000	0.037044
1563.000000	0.037451
1562.000000	0.037785
1561.000000	0.038244
1560.000000	0.038993
1559.000000	0.039862
1558.000000	0.040647
1557.000000	0.041236
1556.000000	0.041697
1555.000000	0.042254
1554.000000	0.042880
1553.000000	0.043402
1552.000000	0.043787
1551.000000	0.044165
1550.000000	0.044580
1549.000000	0.044953
1548.000000	0.045220
1547.000000	0.045411
1546.000000	0.045582
1545.000000	0.045712
1544.000000	0.045755
1543.000000	0.045752
1542.000000	0.045760
1541.000000	0.045779
1540.000000	0.045826
1539.000000	0.045955
1538.000000	0.046035
1537.000000	0.045989
1536.000000	0.045952
1535.000000	0.045955
1534.000000	0.045906
1533.000000	0.045729
1532.000000	0.045474
1531.000000	0.045212
1530.000000	0.044955
1529.000000	0.044701
1528.000000	0.044437
1527.000000	0.044145
1526.000000	0.043825
1525.000000	0.043476
1524.000000	0.043102
1523.000000	0.042715
1522.000000	0.042300
1521.000000	0.041875
1520.000000	0.041471
1519.000000	0.041073
1518.000000	0.040700
1517.000000	0.040371
1516.000000	0.040073
1515.000000	0.039754
1514.000000	0.039378
1513.000000	0.038947
1512.000000	0.038445
1511.000000	0.037838
1510.000000	0.037142
1509.000000	0.036397
1508.000000	0.035570
1507.000000	0.034639
1506.000000	0.033934
1505.000000	0.033503
1504.000000	0.033040
1503.000000	0.032529
1502.000000	0.032008
1501.000000	0.031458
1500.000000	0.030874
1499.000000	0.030246
1498.000000	0.029575
1497.000000	0.028893
1496.000000	0.028263
1495.000000	0.027667
1494.000000	0.027075
1493.000000	0.026527
1492.000000	0.026029
1491.000000	0.025481
1490.000000	0.024829
1489.000000	0.024231
1488.000000	0.023851
1487.000000	0.023637
1486.000000	0.023469
1485.000000	0.023335
1484.000000	0.023241
1483.000000	0.023177
1482.000000	0.023142
1481.000000	0.023155
1480.000000	0.023218
1479.000000	0.023306
1478.000000	0.023415
1477.000000	0.023557
1476.000000	0.023729
1475.000000	0.023928
1474.000000	0.024245
1473.000000	0.024807
1472.000000	0.025577
1471.000000	0.026336
1470.000000	0.026959
1469.000000	0.027513
1468.000000	0.028069
1467.000000	0.028613
1466.000000	0.029138
1465.000000	0.029661
1464.000000	0.030134
1463.000000	0.030482
1462.000000	0.030724
1461.000000	0.030956
1460.000000	0.031236
1459.000000	0.031588
1458.000000	0.032083
1457.000000	0.032777
1456.000000	0.033461
1455.000000	0.033849
1454.000000	0.034040
1453.000000	0.034241
1452.000000	0.034453
1451.000000	0.034595
1450.000000	0.034658
1449.000000	0.034697
1448.000000	0.034719
1447.000000	0.034676
1446.000000	0.034582
1445.000000	0.034486
1444.000000	0.034391
1443.000000	0.034271
1442.000000	0.034099
1441.000000	0.033879
1440.000000	0.033636
1439.000000	0.033410
1438.000000	0.033206
1437.000000	0.032962
1436.000000	0.032603
1435.000000	0.032135
1434.000000	0.031658
1433.000000	0.031269
1432.000000	0.030969
1431.000000	0.030693
1430.000000	0.030419
1429.000000	0.030185
1428.000000	0.030011
1427.000000	0.029845
1426.000000	0.029666
1425.000000	0.029503
1424.000000	0.029362
1423.000000	0.029244
1422.000000	0.029167
1421.000000	0.029170
1420.000000	0.029239
1419.000000	0.029272
1418.000000	0.029218
1417.000000	0.029157
1416.000000	0.029165
1415.000000	0.029223
1414.000000	0.029276
1413.000000	0.029316
1412.000000	0.029379
1411.000000	0.029484
1410.000000	0.029610
1409.000000	0.029738
1408.000000	0.029876
1407.000000	0.030016
1406.000000	0.030157
1405.000000	0.030314
1404.000000	0.030477
1403.000000	0.030598
1402.000000	0.030660
1401.000000	0.030703
1400.000000	0.030737
1399.000000	0.030707
1398.000000	0.030591
1397.000000	0.030448
1396.000000	0.030341
1395.000000	0.030253
1394.000000	0.030151
1393.000000	0.030024
1392.000000	0.029887
1391.000000	0.029754
1390.000000	0.029639
1389.000000	0.029541
1388.000000	0.029442
1387.000000	0.029302
1386.000000	0.029116
1385.000000	0.028931
1384.000000	0.028782
1383.000000	0.028655
1382.000000	0.028518
1381.000000	0.028376
1380.000000	0.028247
1379.000000	0.028108
1378.000000	0.027913
1377.000000	0.027656
1376.000000	0.027358
1375.000000	0.027034
1374.000000	0.026710
1373.000000	0.026424
1372.000000	0.026169
1371.000000	0.025895
1370.000000	0.025580
1369.000000	0.025237
1368.000000	0.024887
1367.000000	0.024537
1366.000000	0.024185
1365.000000	0.023832
1364.000000	0.023480
1363.000000	0.023139
1362.000000	0.022851
1361.000000	0.022654
1360.000000	0.022532
1359.000000	0.022437
1358.000000	0.022355
1357.000000	0.022303
1356.000000	0.022297
1355.000000	0.022325
1354.000000	0.022372
1353.000000	0.022444
1352.000000	0.022550
1351.000000	0.022679
1350.000000	0.022823
1349.000000	0.023001
1348.000000	0.023228
1347.000000	0.023491
1346.000000	0.023767
1345.000000	0.024051
1344.000000	0.024331
1343.000000	0.024576
1342.000000	0.024764
1341.000000	0.024913
1340.000000	0.025052
1339.000000	0.025192
1338.000000	0.025326
1337.000000	0.025444
1336.000000	0.025532
1335.000000	0.025563
1334.000000	0.025521
1333.000000	0.025415
1332.000000	0.025259
1331.000000	0.025054
1330.000000	0.024811
1329.000000	0.024571
1328.000000	0.024367
1327.000000	0.024192
1326.000000	0.024030
1325.000000	0.023886
1324.000000	0.023772
1323.000000	0.023678
1322.000000	0.023589
1321.000000	0.023514
1320.000000	0.023471
1319.000000	0.023454
1318.000000	0.023445
1317.000000	0.023436
1316.000000	0.023417
1315.000000	0.023361
1314.000000	0.023254
1313.000000	0.023110
1312.000000	0.022952
1311.000000	0.022791
1310.000000	0.022628
1309.000000	0.022474
1308.000000	0.022336
1307.000000	0.022196
1306.000000	0.022042
1305.000000	0.021888
1304.000000	0.021749
1303.000000	0.021616
1302.000000	0.021472
1301.000000	0.021323
1300.000000	0.021187
1299.000000	0.021067
1298.000000	0.020963
1297.000000	0.020888
1296.000000	0.020857
1295.000000	0.020863
1294.000000	0.020895
1293.000000	0.020960
1292.000000	0.021064
1291.000000	0.021199
1290.000000	0.021354
1289.000000	0.021530
1288.000000	0.021727
1287.000000	0.021927
1286.000000	0.022122
1285.000000	0.022320
1284.000000	0.022517
1283.000000	0.022686
1282.000000	0.022808
1281.000000	0.022898
1280.000000	0.022967
1279.000000	0.023000
1278.000000	0.022987
1277.000000	0.022957
1276.000000	0.022938
1275.000000	0.022923
1274.000000	0.022889
1273.000000	0.022846
1272.000000	0.022821
1271.000000	0.022826
1270.000000	0.022852
1269.000000	0.022898
1268.000000	0.022957
1267.000000	0.023020
1266.000000	0.023090
1265.000000	0.023193
1264.000000	0.023341
1263.000000	0.023511
1262.000000	0.023679
1261.000000	0.023852
1260.000000	0.024046
1259.000000	0.024252
1258.000000	0.024461
1257.000000	0.024679
1256.000000	0.024910
1255.000000	0.025143
1254.000000	0.025382
1253.000000	0.025655
1252.000000	0.025980
1251.000000	0.026338
1250.000000	0.026700
1249.000000	0.027064
1248.000000	0.027428
1247.000000	0.027779
1246.000000	0.028112
1245.000000	0.028444
1244.000000	0.028775
1243.000000	0.029080
1242.000000	0.029352
1241.000000	0.029613
1240.000000	0.029873
1239.000000	0.030101
1238.000000	0.030267
1237.000000	0.030379
1236.000000	0.030438
1235.000000	0.030426
1234.000000	0.030344
1233.000000	0.030224
1232.000000	0.030083
1231.000000	0.029893
1230.000000	0.029631
1229.000000	0.029315
1228.000000	0.028957
1227.000000	0.028536
1226.000000	0.028036
1225.000000	0.027490
1224.000000	0.026933
1223.000000	0.026367
1222.000000	0.025793
1221.000000	0.025238
1220.000000	0.024732
1219.000000	0.024270
1218.000000	0.023847
1217.000000	0.023489
1216.000000	0.023222
1215.000000	0.023027
1214.000000	0.022879
1213.000000	0.022780
1212.000000	0.022743
1211.000000	0.022766
1210.000000	0.022834
1209.000000	0.022949
1208.000000	0.023105
1207.000000	0.023265
1206.000000	0.023397
1205.000000	0.023501
1204.000000	0.023581
1203.000000	0.023618
1202.000000	0.023597
1201.000000	0.023525
1200.000000	0.023405
1199.000000	0.023215
1198.000000	0.022949
1197.000000	0.022642
1196.000000	0.022331
1195.000000	0.022019
1194.000000	0.021709
1193.000000	0.021419
1192.000000	0.021156
1191.000000	0.020888
1190.000000	0.020586
1189.000000	0.020275
1188.000000	0.019998
1187.000000	0.019762
1186.000000	0.019553
1185.000000	0.019371
1184.000000	0.019224
1183.000000	0.019104
1182.000000	0.019003
1181.000000	0.018935
1180.000000	0.018913
1179.000000	0.018918
1178.000000	0.018931
1177.000000	0.018955
1176.000000	0.019002
1175.000000	0.019060
1174.000000	0.019127
1173.000000	0.019228
1172.000000	0.019374
1171.000000	0.019536
1170.000000	0.019684
1169.000000	0.019829
1168.000000	0.019994
1167.000000	0.020170
1166.000000	0.020336
1165.000000	0.020493
1164.000000	0.020647
1163.000000	0.020782
1162.000000	0.020876
1161.000000	0.020932
1160.000000	0.020952
1159.000000	0.020920
1158.000000	0.020826
1157.000000	0.020682
1156.000000	0.020494
1155.000000	0.020251
1154.000000	0.019969
1153.000000	0.019695
1152.000000	0.019454
1151.000000	0.019220
1150.000000	0.018966
1149.000000	0.018704
1148.000000	0.018444
1147.000000	0.018169
1146.000000	0.017866
1145.000000	0.017564
1144.000000	0.017289
1143.000000	0.017023
1142.000000	0.016741
1141.000000	0.016455
1140.000000	0.016185
1139.000000	0.015927
1138.000000	0.015677
1137.000000	0.015454
1136.000000	0.015262
1135.000000	0.015067
1134.000000	0.014855
1133.000000	0.014668
1132.000000	0.014557
1131.000000	0.014509
1130.000000	0.014478
1129.000000	0.014448
1128.000000	0.014436
1127.000000	0.014451
1126.000000	0.014493
1125.000000	0.014569
1124.000000	0.014680
1123.000000	0.014794
1122.000000	0.014882
1121.000000	0.014953
1120.000000	0.015025
1119.000000	0.015095
1118.000000	0.015163
1117.000000	0.015245
1116.000000	0.015345
1115.000000	0.015433
1114.000000	0.015492
1113.000000	0.015545
1112.000000	0.015612
1111.000000	0.015676
1110.000000	0.015720
1109.000000	0.015766
1108.000000	0.015831
1107.000000	0.015889
1106.000000	0.015925
1105.000000	0.015973
1104.000000	0.016065
1103.000000	0.016174
1102.000000	0.016262
1101.000000	0.016331
1100.000000	0.016399
1099.000000	0.016451
1098.000000	0.016469
1097.000000	0.016470
1096.000000	0.016488
1095.000000	0.016529
1094.000000	0.016599
1093.000000	0.016727
1092.000000	0.016932
1091.000000	0.017188
1090.000000	0.017463
1089.000000	0.017759
1088.000000	0.018085
1087.000000	0.018417
1086.000000	0.018733
1085.000000	0.019037
1084.000000	0.019326
1083.000000	0.019560
1082.000000	0.019703
1081.000000	0.019762
1080.000000	0.019749
1079.000000	0.019655
1078.000000	0.019487
1077.000000	0.019288
1076.000000	0.019070
1075.000000	0.018803
1074.000000	0.018485
1073.000000	0.018181
1072.000000	0.017948
1071.000000	0.017774
1070.000000	0.017631
1069.000000	0.017533
1068.000000	0.017496
1067.000000	0.017498
1066.000000	0.017524
1065.000000	0.017593
1064.000000	0.017708
1063.000000	0.017818
1062.000000	0.017882
1061.000000	0.017919
1060.000000	0.017958
1059.000000	0.017981
1058.000000	0.017963
1057.000000	0.017924
1056.000000	0.017889
1055.000000	0.017840
1054.000000	0.017761
1053.000000	0.017679
1052.000000	0.017618
1051.000000	0.017560
1050.000000	0.017487
1049.000000	0.017420
1048.000000	0.017374
1047.000000	0.017322
1046.000000	0.017245
1045.000000	0.017179
1044.000000	0.017154
1043.000000	0.017156
1042.000000	0.017169
1041.000000	0.017220
1040.000000	0.017332
1039.000000	0.017489
1038.000000	0.017680
1037.000000	0.017924
1036.000000	0.018225
1035.000000	0.018527
1034.000000	0.018780
1033.000000	0.018990
1032.000000	0.019172
1031.000000	0.019292
1030.000000	0.019323
1029.000000	0.019284
1028.000000	0.019198
1027.000000	0.019052
1026.000000	0.018845
1025.000000	0.018630
1024.000000	0.018448
1023.000000	0.018278
1022.000000	0.018089
1021.000000	0.017892
1020.000000	0.017710
1019.000000	0.017532
1018.000000	0.017354
1017.000000	0.017203
1016.000000	0.017080
1015.000000	0.016937
1014.000000	0.016749
1013.000000	0.016549
1012.000000	0.016358
1011.000000	0.016146
1010.000000	0.015892
1009.000000	0.015639
1008.000000	0.015420
1007.000000	0.015207
1006.000000	0.014967
1005.000000	0.014729
1004.000000	0.014531
1003.000000	0.014358
1002.000000	0.014175
1001.000000	0.013990
1000.000000	0.013817
999.000000	0.013639
998.000000	0.013434
997.000000	0.013216
996.000000	0.012998
995.000000	0.012767
994.000000	0.012528
993.000000	0.012316
992.000000	0.012149
991.000000	0.011994
990.000000	0.011830
989.000000	0.011687
988.000000	0.011578
987.000000	0.011471
986.000000	0.011345
985.000000	0.011239
984.000000	0.011183
983.000000	0.011144
982.000000	0.011084
981.000000	0.011026
980.000000	0.010999
979.000000	0.010978
978.000000	0.010933
977.000000	0.010882
976.000000	0.010847
975.000000	0.010800
974.000000	0.010709
973.000000	0.010592
972.000000	0.010482
971.000000	0.010370
970.000000	0.010247
969.000000	0.010136
968.000000	0.010047
967.000000	0.009936
966.000000	0.009762
965.000000	0.009553
964.000000	0.009354
963.000000	0.009171
962.000000	0.008995
961.000000	0.008842
960.000000	0.008725
959.000000	0.008611
958.000000	0.008469
957.000000	0.008314
956.000000	0.008172
955.000000	0.008038
954.000000	0.007906
953.000000	0.007798
952.000000	0.007727
951.000000	0.007660
950.000000	0.007582
949.000000	0.007524
948.000000	0.007506
947.000000	0.007491
946.000000	0.007454
945.000000	0.007426
944.000000	0.007431
943.000000	0.007438
942.000000	0.007414
941.000000	0.007382
940.000000	0.007375
939.000000	0.007373
938.000000	0.007346
937.000000	0.007299
936.000000	0.007248
935.000000	0.007179
934.000000	0.007094
933.000000	0.007029
932.000000	0.007000
931.000000	0.006970
930.000000	0.006910
929.000000	0.006849
928.000000	0.006803
927.000000	0.006736
926.000000	0.006633
925.000000	0.006551
924.000000	0.006534
923.000000	0.006551
922.000000	0.006551
921.000000	0.006534
920.000000	0.006509
919.000000	0.006445
918.000000	0.006321
917.000000	0.006175
916.000000	0.006047
915.000000	0.005924
914.000000	0.005797
913.000000	0.005708
912.000000	0.005677
911.000000	0.005657
910.000000	0.005597
909.000000	0.005525
908.000000	0.005485
907.000000	0.005462
906.000000	0.005426
905.000000	0.005395
904.000000	0.005395
903.000000	0.005403
902.000000	0.005391
901.000000	0.005371
900.000000	0.005344
899.000000	0.005276
898.000000	0.005162
897.000000	0.005068
896.000000	0.005035
895.000000	0.005021
894.000000	0.004980
893.000000	0.004947
892.000000	0.004969
891.000000	0.005021
890.000000	0.005049
889.000000	0.005058
888.000000	0.005075
887.000000	0.005092
886.000000	0.005113
885.000000	0.005186
884.000000	0.005334
883.000000	0.005509
882.000000	0.005665
881.000000	0.005833
880.000000	0.006048
879.000000	0.006269
878.000000	0.006447
877.000000	0.006599
876.000000	0.006748
875.000000	0.006847
874.000000	0.006847
873.000000	0.006763
872.000000	0.006627
871.000000	0.006443
870.000000	0.006234
869.000000	0.006075
868.000000	0.005990
867.000000	0.005909
866.000000	0.005775
865.000000	0.005628
864.000000	0.005524
863.000000	0.005453
862.000000	0.005397
861.000000	0.005389
860.000000	0.005439
859.000000	0.005473
858.000000	0.005438
857.000000	0.005385
856.000000	0.005390
855.000000	0.005446
854.000000	0.005515
853.000000	0.005596
852.000000	0.005690
851.000000	0.005744
850.000000	0.005731
849.000000	0.005693
848.000000	0.005660
847.000000	0.005594
846.000000	0.005482
845.000000	0.005390
844.000000	0.005362
843.000000	0.005337
842.000000	0.005254
841.000000	0.005147
840.000000	0.005075
839.000000	0.005029
838.000000	0.004992
837.000000	0.004995
836.000000	0.005043
835.000000	0.005067
834.000000	0.005025
833.000000	0.004985
832.000000	0.005005
831.000000	0.005042
830.000000	0.005034
829.000000	0.005011
828.000000	0.005019
827.000000	0.005024
826.000000	0.004987
825.000000	0.004963
824.000000	0.005005
823.000000	0.005064
822.000000	0.005070
821.000000	0.005042
820.000000	0.005030
819.000000	0.005024
818.000000	0.005016
817.000000	0.005052
816.000000	0.005155
815.000000	0.005257
814.000000	0.005298
813.000000	0.005302
812.000000	0.005301
811.000000	0.005272
810.000000	0.005208
809.000000	0.005163
808.000000	0.005165
807.000000	0.005158
806.000000	0.005112
805.000000	0.005083
804.000000	0.005093
803.000000	0.005071
802.000000	0.004978
801.000000	0.004902
800.000000	0.004920
799.000000	0.004981
798.000000	0.005013
797.000000	0.005043
796.000000	0.005114
795.000000	0.005190
794.000000	0.005225
793.000000	0.005255
792.000000	0.005314
791.000000	0.005361
790.000000	0.005373
789.000000	0.005410
788.000000	0.005510
787.000000	0.005601
786.000000	0.005611
785.000000	0.005580
784.000000	0.005580
783.000000	0.005595
782.000000	0.005581
781.000000	0.005553
780.000000	0.005536
779.000000	0.005516
778.000000	0.005501
777.000000	0.005545
776.000000	0.005650
775.000000	0.005728
774.000000	0.005726
773.000000	0.005699
772.000000	0.005699
771.000000	0.005698
770.000000	0.005677
769.000000	0.005688
768.000000	0.005745
767.000000	0.005774
766.000000	0.005746
765.000000	0.005748
764.000000	0.005834
763.000000	0.005912
762.000000	0.005890
761.000000	0.005814
760.000000	0.005774
759.000000	0.005770
758.000000	0.005778
757.000000	0.005826
756.000000	0.005925
755.000000	0.005992
754.000000	0.005971
753.000000	0.005931
752.000000	0.005948
751.000000	0.006005
750.000000	0.006064
749.000000	0.006150
748.000000	0.006266
747.000000	0.006331
746.000000	0.006320
745.000000	0.006335
744.000000	0.006453
743.000000	0.006595
742.000000	0.006665
741.000000	0.006696
740.000000	0.006763
739.000000	0.006848
738.000000	0.006909
737.000000	0.006983
736.000000	0.007105
735.000000	0.007219
734.000000	0.007273
733.000000	0.007328
732.000000	0.007462
731.000000	0.007644
730.000000	0.007810
729.000000	0.007979
728.000000	0.008183
727.000000	0.008381
726.000000	0.008526
725.000000	0.008640
724.000000	0.008744
723.000000	0.008798
722.000000	0.008808
721.000000	0.008872
720.000000	0.009041
719.000000	0.009219
718.000000	0.009314
717.000000	0.009361
716.000000	0.009429
715.000000	0.009499
714.000000	0.009555
713.000000	0.009654
712.000000	0.009816
711.000000	0.009948
710.000000	0.009988
709.000000	0.010009
708.000000	0.010090
707.000000	0.010186
706.000000	0.010246
705.000000	0.010320
704.000000	0.010444
703.000000	0.010534
702.000000	0.010524
701.000000	0.010491
700.000000	0.010528
699.000000	0.010600
698.000000	0.010649
697.000000	0.010712
696.000000	0.010828
695.000000	0.010933
694.000000	0.010965
693.000000	0.010977
692.000000	0.011027
691.000000	0.011066
690.000000	0.011050
689.000000	0.011043
688.000000	0.011093
687.000000	0.011128
686.000000	0.011100
685.000000	0.011108
684.000000	0.011238
683.000000	0.011418
682.000000	0.011543
681.000000	0.011619
680.000000	0.011676
679.000000	0.011673
678.000000	0.011620
677.000000	0.011650
676.000000	0.011835
675.000000	0.012063
674.000000	0.012206
673.000000	0.012289
672.000000	0.012357
671.000000	0.012357
670.000000	0.012255
669.000000	0.012167
668.000000	0.012222
667.000000	0.012413
666.000000	0.012613
665.000000	0.012789
664.000000	0.012971
663.000000	0.013093
662.000000	0.013092
661.000000	0.013038
660.000000	0.013019
659.000000	0.013016
658.000000	0.013017
657.000000	0.013113
656.000000	0.013327
655.000000	0.013511
654.000000	0.013541
653.000000	0.013488
652.000000	0.013442
651.000000	0.013364
650.000000	0.013243
649.000000	0.013198
648.000000	0.013284
647.000000	0.013351
646.000000	0.013277
645.000000	0.013148
644.000000	0.013079
643.000000	0.013031
642.000000	0.012956
641.000000	0.012933
640.000000	0.013008
639.000000	0.013065
638.000000	0.013026
637.000000	0.013007
636.000000	0.013092
635.000000	0.013147
634.000000	0.013050
633.000000	0.012920
632.000000	0.012946
631.000000	0.013108
630.000000	0.013270
629.000000	0.013400
628.000000	0.013512
627.000000	0.013553
626.000000	0.013518
625.000000	0.013541
624.000000	0.013700
623.000000	0.013868
622.000000	0.013918
621.000000	0.013908
620.000000	0.013919
619.000000	0.013883
618.000000	0.013741
617.000000	0.013620
616.000000	0.013654
615.000000	0.013775
614.000000	0.013860
613.000000	0.013914
612.000000	0.013953
611.000000	0.013880
610.000000	0.013669
609.000000	0.013499
608.000000	0.013516
607.000000	0.013625
606.000000	0.013667
605.000000	0.013651
604.000000	0.013646
603.000000	0.013626
602.000000	0.013582
601.000000	0.013607
600.000000	0.013693
599.000000	0.013674
598.000000	0.013519
597.000000	0.013456
596.000000	0.013615
595.000000	0.013803
594.000000	0.013814
593.000000	0.013747
592.000000	0.013787
591.000000	0.013892
590.000000	0.013935
589.000000	0.013952
588.000000	0.013997
587.000000	0.013964
586.000000	0.013780
585.000000	0.013599
584.000000	0.013574
583.000000	0.013628
582.000000	0.013656
581.000000	0.013737
580.000000	0.013929
579.000000	0.014062
578.000000	0.013993
577.000000	0.013851
576.000000	0.013810
575.000000	0.013845
574.000000	0.013888
573.000000	0.014018
572.000000	0.014255
571.000000	0.014431
570.000000	0.014471
569.000000	0.014568
568.000000	0.014835
567.000000	0.015060
566.000000	0.015081
565.000000	0.015089
564.000000	0.015283
563.000000	0.015523
562.000000	0.015606
561.000000	0.015619
560.000000	0.015709
559.000000	0.015759
558.000000	0.015640
557.000000	0.015511
556.000000	0.015552
555.000000	0.015634
554.000000	0.015548
553.000000	0.015365
552.000000	0.015256
551.000000	0.015196
550.000000	0.015105
549.000000	0.015049
548.000000	0.015054
547.000000	0.014972
546.000000	0.014796
545.000000	0.014790
544.000000	0.015045
543.000000	0.015227
542.000000	0.015051
541.000000	0.014706
540.000000	0.014502
539.000000	0.014420
538.000000	0.014350
537.000000	0.014429
536.000000	0.014793
535.000000	0.015233
534.000000	0.015476
533.000000	0.015578
532.000000	0.015693
531.000000	0.015717
530.000000	0.015527
529.000000	0.015298
528.000000	0.015259
527.000000	0.015344
526.000000	0.015393
525.000000	0.015458
524.000000	0.015607
523.000000	0.015683
522.000000	0.015565
521.000000	0.015393
520.000000	0.015257
519.000000	0.014956
518.000000	0.014362
517.000000	0.013755
516.000000	0.013445
515.000000	0.013354
514.000000	0.013313
513.000000	0.013381
512.000000	0.013572
511.000000	0.013644
510.000000	0.013467
509.000000	0.013281
508.000000	0.013274
507.000000	0.013227
506.000000	0.012919
505.000000	0.012529
504.000000	0.012276
503.000000	0.012034
502.000000	0.011674
501.000000	0.011398
500.000000	0.011339
499.000000	0.011238
498.000000	0.010897
497.000000	0.010569
496.000000	0.010532
495.000000	0.010621
494.000000	0.010575
493.000000	0.010500
492.000000	0.010576
491.000000	0.010615
490.000000	0.010387
489.000000	0.010066
488.000000	0.009908
487.000000	0.009792
486.000000	0.009502
485.000000	0.009194
484.000000	0.009143
483.000000	0.009263
482.000000	0.009322
481.000000	0.009349
480.000000	0.009420
479.000000	0.009354
478.000000	0.009031
477.000000	0.008717
476.000000	0.008650
475.000000	0.008639
474.000000	0.008450
473.000000	0.008271
472.000000	0.008307
471.000000	0.008265
470.000000	0.007854
469.000000	0.007363
468.000000	0.007177
467.000000	0.007196
466.000000	0.007145
465.000000	0.007116
464.000000	0.007247
463.000000	0.007233
462.000000	0.006732
461.000000	0.005964
460.000000	0.005365
459.000000	0.004970
458.000000	0.004641
457.000000	0.004543
456.000000	0.004778
455.000000	0.005021
454.000000	0.005044
453.000000	0.005052
452.000000	0.005226
451.000000	0.005351
450.000000	0.005276
