PE IR       SUBTECH     SPECTRUM    ASCII       PEDS        4.00        
   -1
3C-N10-F029_1.ASC
22/02/16
15:45:13.00
22/02/16
15:56:00.00
uco
Sample 029 By uco Date Wednesday, February 16 2022
450.000000
#HDR
-1
-1
#GR
cm-1
A
1.0
0.0
4000.000000
-1.000000
3551
8
0.071148
0.005753
#DATA
4000.000000	0.006195
3999.000000	0.006190
3998.000000	0.006190
3997.000000	0.006203
3996.000000	0.006224
3995.000000	0.006240
3994.000000	0.006242
3993.000000	0.006232
3992.000000	0.006219
3991.000000	0.006211
3990.000000	0.006208
3989.000000	0.006205
3988.000000	0.006201
3987.000000	0.006201
3986.000000	0.006211
3985.000000	0.006231
3984.000000	0.006250
3983.000000	0.006258
3982.000000	0.006248
3981.000000	0.006228
3980.000000	0.006214
3979.000000	0.006216
3978.000000	0.006230
3977.000000	0.006245
3976.000000	0.006250
3975.000000	0.006243
3974.000000	0.006233
3973.000000	0.006232
3972.000000	0.006247
3971.000000	0.006274
3970.000000	0.006302
3969.000000	0.006320
3968.000000	0.006325
3967.000000	0.006320
3966.000000	0.006311
3965.000000	0.006305
3964.000000	0.006309
3963.000000	0.006326
3962.000000	0.006353
3961.000000	0.006382
3960.000000	0.006402
3959.000000	0.006409
3958.000000	0.006407
3957.000000	0.006402
3956.000000	0.006396
3955.000000	0.006392
3954.000000	0.006392
3953.000000	0.006397
3952.000000	0.006402
3951.000000	0.006398
3950.000000	0.006380
3949.000000	0.006353
3948.000000	0.006328
3947.000000	0.006312
3946.000000	0.006312
3945.000000	0.006329
3944.000000	0.006362
3943.000000	0.006399
3942.000000	0.006426
3941.000000	0.006432
3940.000000	0.006418
3939.000000	0.006392
3938.000000	0.006363
3937.000000	0.006340
3936.000000	0.006331
3935.000000	0.006339
3934.000000	0.006361
3933.000000	0.006382
3932.000000	0.006387
3931.000000	0.006370
3930.000000	0.006342
3929.000000	0.006322
3928.000000	0.006320
3927.000000	0.006338
3926.000000	0.006366
3925.000000	0.006392
3924.000000	0.006407
3923.000000	0.006412
3922.000000	0.006411
3921.000000	0.006408
3920.000000	0.006401
3919.000000	0.006387
3918.000000	0.006366
3917.000000	0.006347
3916.000000	0.006337
3915.000000	0.006337
3914.000000	0.006343
3913.000000	0.006354
3912.000000	0.006367
3911.000000	0.006378
3910.000000	0.006391
3909.000000	0.006407
3908.000000	0.006429
3907.000000	0.006448
3906.000000	0.006455
3905.000000	0.006448
3904.000000	0.006435
3903.000000	0.006423
3902.000000	0.006416
3901.000000	0.006407
3900.000000	0.006394
3899.000000	0.006380
3898.000000	0.006373
3897.000000	0.006377
3896.000000	0.006395
3895.000000	0.006420
3894.000000	0.006437
3893.000000	0.006435
3892.000000	0.006417
3891.000000	0.006400
3890.000000	0.006387
3889.000000	0.006371
3888.000000	0.006346
3887.000000	0.006320
3886.000000	0.006310
3885.000000	0.006319
3884.000000	0.006334
3883.000000	0.006345
3882.000000	0.006349
3881.000000	0.006347
3880.000000	0.006339
3879.000000	0.006323
3878.000000	0.006301
3877.000000	0.006280
3876.000000	0.006275
3875.000000	0.006297
3874.000000	0.006337
3873.000000	0.006369
3872.000000	0.006382
3871.000000	0.006393
3870.000000	0.006418
3869.000000	0.006444
3868.000000	0.006444
3867.000000	0.006413
3866.000000	0.006379
3865.000000	0.006367
3864.000000	0.006376
3863.000000	0.006385
3862.000000	0.006387
3861.000000	0.006388
3860.000000	0.006397
3859.000000	0.006417
3858.000000	0.006440
3857.000000	0.006453
3856.000000	0.006443
3855.000000	0.006409
3854.000000	0.006370
3853.000000	0.006350
3852.000000	0.006346
3851.000000	0.006343
3850.000000	0.006333
3849.000000	0.006326
3848.000000	0.006326
3847.000000	0.006334
3846.000000	0.006348
3845.000000	0.006367
3844.000000	0.006388
3843.000000	0.006401
3842.000000	0.006401
3841.000000	0.006387
3840.000000	0.006372
3839.000000	0.006370
3838.000000	0.006378
3837.000000	0.006383
3836.000000	0.006372
3835.000000	0.006352
3834.000000	0.006338
3833.000000	0.006344
3832.000000	0.006369
3831.000000	0.006397
3830.000000	0.006407
3829.000000	0.006388
3828.000000	0.006352
3827.000000	0.006323
3826.000000	0.006318
3825.000000	0.006333
3824.000000	0.006351
3823.000000	0.006368
3822.000000	0.006390
3821.000000	0.006418
3820.000000	0.006440
3819.000000	0.006446
3818.000000	0.006438
3817.000000	0.006435
3816.000000	0.006444
3815.000000	0.006443
3814.000000	0.006409
3813.000000	0.006349
3812.000000	0.006293
3811.000000	0.006263
3810.000000	0.006254
3809.000000	0.006253
3808.000000	0.006256
3807.000000	0.006280
3806.000000	0.006329
3805.000000	0.006386
3804.000000	0.006431
3803.000000	0.006461
3802.000000	0.006481
3801.000000	0.006492
3800.000000	0.006485
3799.000000	0.006453
3798.000000	0.006405
3797.000000	0.006355
3796.000000	0.006319
3795.000000	0.006298
3794.000000	0.006286
3793.000000	0.006278
3792.000000	0.006275
3791.000000	0.006278
3790.000000	0.006283
3789.000000	0.006289
3788.000000	0.006291
3787.000000	0.006288
3786.000000	0.006289
3785.000000	0.006301
3784.000000	0.006327
3783.000000	0.006353
3782.000000	0.006361
3781.000000	0.006345
3780.000000	0.006315
3779.000000	0.006289
3778.000000	0.006278
3777.000000	0.006277
3776.000000	0.006274
3775.000000	0.006265
3774.000000	0.006253
3773.000000	0.006239
3772.000000	0.006231
3771.000000	0.006240
3770.000000	0.006264
3769.000000	0.006289
3768.000000	0.006299
3767.000000	0.006294
3766.000000	0.006286
3765.000000	0.006284
3764.000000	0.006284
3763.000000	0.006276
3762.000000	0.006259
3761.000000	0.006243
3760.000000	0.006235
3759.000000	0.006237
3758.000000	0.006250
3757.000000	0.006269
3756.000000	0.006287
3755.000000	0.006300
3754.000000	0.006308
3753.000000	0.006315
3752.000000	0.006315
3751.000000	0.006302
3750.000000	0.006291
3749.000000	0.006297
3748.000000	0.006307
3747.000000	0.006303
3746.000000	0.006287
3745.000000	0.006290
3744.000000	0.006322
3743.000000	0.006352
3742.000000	0.006350
3741.000000	0.006325
3740.000000	0.006300
3739.000000	0.006287
3738.000000	0.006292
3737.000000	0.006318
3736.000000	0.006344
3735.000000	0.006336
3734.000000	0.006287
3733.000000	0.006229
3732.000000	0.006193
3731.000000	0.006184
3730.000000	0.006182
3729.000000	0.006177
3728.000000	0.006171
3727.000000	0.006174
3726.000000	0.006186
3725.000000	0.006201
3724.000000	0.006220
3723.000000	0.006242
3722.000000	0.006256
3721.000000	0.006250
3720.000000	0.006221
3719.000000	0.006184
3718.000000	0.006161
3717.000000	0.006161
3716.000000	0.006173
3715.000000	0.006186
3714.000000	0.006200
3713.000000	0.006224
3712.000000	0.006254
3711.000000	0.006278
3710.000000	0.006285
3709.000000	0.006280
3708.000000	0.006269
3707.000000	0.006257
3706.000000	0.006246
3705.000000	0.006235
3704.000000	0.006219
3703.000000	0.006196
3702.000000	0.006171
3701.000000	0.006157
3700.000000	0.006162
3699.000000	0.006179
3698.000000	0.006201
3697.000000	0.006222
3696.000000	0.006237
3695.000000	0.006241
3694.000000	0.006235
3693.000000	0.006224
3692.000000	0.006216
3691.000000	0.006217
3690.000000	0.006235
3689.000000	0.006274
3688.000000	0.006321
3687.000000	0.006345
3686.000000	0.006338
3685.000000	0.006317
3684.000000	0.006309
3683.000000	0.006324
3682.000000	0.006357
3681.000000	0.006403
3680.000000	0.006461
3679.000000	0.006526
3678.000000	0.006581
3677.000000	0.006611
3676.000000	0.006610
3675.000000	0.006590
3674.000000	0.006562
3673.000000	0.006528
3672.000000	0.006495
3671.000000	0.006481
3670.000000	0.006502
3669.000000	0.006548
3668.000000	0.006597
3667.000000	0.006636
3666.000000	0.006663
3665.000000	0.006687
3664.000000	0.006717
3663.000000	0.006754
3662.000000	0.006795
3661.000000	0.006828
3660.000000	0.006846
3659.000000	0.006848
3658.000000	0.006844
3657.000000	0.006855
3656.000000	0.006893
3655.000000	0.006950
3654.000000	0.007006
3653.000000	0.007055
3652.000000	0.007109
3651.000000	0.007180
3650.000000	0.007258
3649.000000	0.007329
3648.000000	0.007396
3647.000000	0.007470
3646.000000	0.007550
3645.000000	0.007620
3644.000000	0.007667
3643.000000	0.007687
3642.000000	0.007686
3641.000000	0.007677
3640.000000	0.007675
3639.000000	0.007690
3638.000000	0.007723
3637.000000	0.007765
3636.000000	0.007814
3635.000000	0.007873
3634.000000	0.007939
3633.000000	0.007994
3632.000000	0.008023
3631.000000	0.008037
3630.000000	0.008068
3629.000000	0.008137
3628.000000	0.008226
3627.000000	0.008306
3626.000000	0.008370
3625.000000	0.008426
3624.000000	0.008477
3623.000000	0.008521
3622.000000	0.008557
3621.000000	0.008599
3620.000000	0.008654
3619.000000	0.008719
3618.000000	0.008784
3617.000000	0.008848
3616.000000	0.008915
3615.000000	0.008991
3614.000000	0.009076
3613.000000	0.009158
3612.000000	0.009221
3611.000000	0.009269
3610.000000	0.009318
3609.000000	0.009380
3608.000000	0.009454
3607.000000	0.009524
3606.000000	0.009583
3605.000000	0.009637
3604.000000	0.009697
3603.000000	0.009768
3602.000000	0.009846
3601.000000	0.009922
3600.000000	0.009985
3599.000000	0.010037
3598.000000	0.010090
3597.000000	0.010159
3596.000000	0.010248
3595.000000	0.010350
3594.000000	0.010448
3593.000000	0.010528
3592.000000	0.010579
3591.000000	0.010608
3590.000000	0.010640
3589.000000	0.010706
3588.000000	0.010820
3587.000000	0.010961
3586.000000	0.011098
3585.000000	0.011212
3584.000000	0.011305
3583.000000	0.011381
3582.000000	0.011448
3581.000000	0.011516
3580.000000	0.011597
3579.000000	0.011692
3578.000000	0.011795
3577.000000	0.011896
3576.000000	0.011989
3575.000000	0.012073
3574.000000	0.012149
3573.000000	0.012220
3572.000000	0.012288
3571.000000	0.012360
3570.000000	0.012446
3569.000000	0.012558
3568.000000	0.012697
3567.000000	0.012842
3566.000000	0.012969
3565.000000	0.013063
3564.000000	0.013123
3563.000000	0.013161
3562.000000	0.013196
3561.000000	0.013246
3560.000000	0.013322
3559.000000	0.013424
3558.000000	0.013546
3557.000000	0.013673
3556.000000	0.013793
3555.000000	0.013904
3554.000000	0.014015
3553.000000	0.014139
3552.000000	0.014273
3551.000000	0.014396
3550.000000	0.014487
3549.000000	0.014551
3548.000000	0.014609
3547.000000	0.014685
3546.000000	0.014788
3545.000000	0.014905
3544.000000	0.015018
3543.000000	0.015115
3542.000000	0.015198
3541.000000	0.015276
3540.000000	0.015355
3539.000000	0.015439
3538.000000	0.015528
3537.000000	0.015624
3536.000000	0.015726
3535.000000	0.015833
3534.000000	0.015945
3533.000000	0.016062
3532.000000	0.016186
3531.000000	0.016309
3530.000000	0.016422
3529.000000	0.016516
3528.000000	0.016596
3527.000000	0.016676
3526.000000	0.016771
3525.000000	0.016881
3524.000000	0.016993
3523.000000	0.017089
3522.000000	0.017164
3521.000000	0.017226
3520.000000	0.017291
3519.000000	0.017367
3518.000000	0.017452
3517.000000	0.017540
3516.000000	0.017622
3515.000000	0.017700
3514.000000	0.017776
3513.000000	0.017858
3512.000000	0.017952
3511.000000	0.018060
3510.000000	0.018174
3509.000000	0.018283
3508.000000	0.018378
3507.000000	0.018458
3506.000000	0.018531
3505.000000	0.018607
3504.000000	0.018690
3503.000000	0.018776
3502.000000	0.018855
3501.000000	0.018930
3500.000000	0.019010
3499.000000	0.019103
3498.000000	0.019208
3497.000000	0.019310
3496.000000	0.019391
3495.000000	0.019445
3494.000000	0.019485
3493.000000	0.019529
3492.000000	0.019590
3491.000000	0.019665
3490.000000	0.019743
3489.000000	0.019815
3488.000000	0.019880
3487.000000	0.019942
3486.000000	0.020004
3485.000000	0.020069
3484.000000	0.020138
3483.000000	0.020214
3482.000000	0.020296
3481.000000	0.020382
3480.000000	0.020464
3479.000000	0.020541
3478.000000	0.020615
3477.000000	0.020692
3476.000000	0.020770
3475.000000	0.020843
3474.000000	0.020903
3473.000000	0.020952
3472.000000	0.021004
3471.000000	0.021075
3470.000000	0.021166
3469.000000	0.021260
3468.000000	0.021333
3467.000000	0.021381
3466.000000	0.021419
3465.000000	0.021466
3464.000000	0.021529
3463.000000	0.021607
3462.000000	0.021693
3461.000000	0.021780
3460.000000	0.021863
3459.000000	0.021935
3458.000000	0.021998
3457.000000	0.022053
3456.000000	0.022099
3455.000000	0.022144
3454.000000	0.022196
3453.000000	0.022265
3452.000000	0.022343
3451.000000	0.022418
3450.000000	0.022484
3449.000000	0.022551
3448.000000	0.022632
3447.000000	0.022727
3446.000000	0.022825
3445.000000	0.022910
3444.000000	0.022975
3443.000000	0.023028
3442.000000	0.023074
3441.000000	0.023117
3440.000000	0.023161
3439.000000	0.023214
3438.000000	0.023284
3437.000000	0.023373
3436.000000	0.023474
3435.000000	0.023576
3434.000000	0.023677
3433.000000	0.023775
3432.000000	0.023867
3431.000000	0.023947
3430.000000	0.024012
3429.000000	0.024063
3428.000000	0.024107
3427.000000	0.024153
3426.000000	0.024210
3425.000000	0.024279
3424.000000	0.024357
3423.000000	0.024435
3422.000000	0.024513
3421.000000	0.024590
3420.000000	0.024658
3419.000000	0.024713
3418.000000	0.024757
3417.000000	0.024806
3416.000000	0.024875
3415.000000	0.024967
3414.000000	0.025072
3413.000000	0.025172
3412.000000	0.025256
3411.000000	0.025320
3410.000000	0.025372
3409.000000	0.025428
3408.000000	0.025498
3407.000000	0.025586
3406.000000	0.025679
3405.000000	0.025764
3404.000000	0.025830
3403.000000	0.025881
3402.000000	0.025928
3401.000000	0.025979
3400.000000	0.026034
3399.000000	0.026086
3398.000000	0.026132
3397.000000	0.026180
3396.000000	0.026243
3395.000000	0.026328
3394.000000	0.026430
3393.000000	0.026534
3392.000000	0.026625
3391.000000	0.026698
3390.000000	0.026759
3389.000000	0.026811
3388.000000	0.026858
3387.000000	0.026904
3386.000000	0.026961
3385.000000	0.027037
3384.000000	0.027129
3383.000000	0.027226
3382.000000	0.027316
3381.000000	0.027396
3380.000000	0.027471
3379.000000	0.027552
3378.000000	0.027647
3377.000000	0.027758
3376.000000	0.027877
3375.000000	0.027990
3374.000000	0.028089
3373.000000	0.028177
3372.000000	0.028267
3371.000000	0.028367
3370.000000	0.028480
3369.000000	0.028597
3368.000000	0.028710
3367.000000	0.028816
3366.000000	0.028919
3365.000000	0.029020
3364.000000	0.029119
3363.000000	0.029215
3362.000000	0.029309
3361.000000	0.029407
3360.000000	0.029515
3359.000000	0.029631
3358.000000	0.029755
3357.000000	0.029883
3356.000000	0.030015
3355.000000	0.030153
3354.000000	0.030296
3353.000000	0.030442
3352.000000	0.030582
3351.000000	0.030711
3350.000000	0.030828
3349.000000	0.030940
3348.000000	0.031056
3347.000000	0.031183
3346.000000	0.031318
3345.000000	0.031449
3344.000000	0.031567
3343.000000	0.031676
3342.000000	0.031786
3341.000000	0.031905
3340.000000	0.032028
3339.000000	0.032145
3338.000000	0.032257
3337.000000	0.032368
3336.000000	0.032480
3335.000000	0.032588
3334.000000	0.032683
3333.000000	0.032767
3332.000000	0.032852
3331.000000	0.032953
3330.000000	0.033068
3329.000000	0.033182
3328.000000	0.033284
3327.000000	0.033375
3326.000000	0.033463
3325.000000	0.033555
3324.000000	0.033648
3323.000000	0.033742
3322.000000	0.033838
3321.000000	0.033933
3320.000000	0.034017
3319.000000	0.034086
3318.000000	0.034142
3317.000000	0.034193
3316.000000	0.034243
3315.000000	0.034297
3314.000000	0.034362
3313.000000	0.034440
3312.000000	0.034513
3311.000000	0.034560
3310.000000	0.034575
3309.000000	0.034571
3308.000000	0.034571
3307.000000	0.034596
3306.000000	0.034656
3305.000000	0.034746
3304.000000	0.034849
3303.000000	0.034949
3302.000000	0.035033
3301.000000	0.035090
3300.000000	0.035117
3299.000000	0.035124
3298.000000	0.035131
3297.000000	0.035156
3296.000000	0.035199
3295.000000	0.035241
3294.000000	0.035265
3293.000000	0.035269
3292.000000	0.035262
3291.000000	0.035259
3290.000000	0.035266
3289.000000	0.035283
3288.000000	0.035305
3287.000000	0.035326
3286.000000	0.035340
3285.000000	0.035340
3284.000000	0.035321
3283.000000	0.035289
3282.000000	0.035255
3281.000000	0.035232
3280.000000	0.035223
3279.000000	0.035218
3278.000000	0.035202
3277.000000	0.035165
3276.000000	0.035098
3275.000000	0.035007
3274.000000	0.034904
3273.000000	0.034810
3272.000000	0.034738
3271.000000	0.034693
3270.000000	0.034662
3269.000000	0.034628
3268.000000	0.034582
3267.000000	0.034524
3266.000000	0.034458
3265.000000	0.034389
3264.000000	0.034316
3263.000000	0.034247
3262.000000	0.034188
3261.000000	0.034142
3260.000000	0.034098
3259.000000	0.034037
3258.000000	0.033952
3257.000000	0.033848
3256.000000	0.033742
3255.000000	0.033650
3254.000000	0.033568
3253.000000	0.033482
3252.000000	0.033381
3251.000000	0.033271
3250.000000	0.033172
3249.000000	0.033095
3248.000000	0.033038
3247.000000	0.032988
3246.000000	0.032938
3245.000000	0.032886
3244.000000	0.032831
3243.000000	0.032766
3242.000000	0.032689
3241.000000	0.032603
3240.000000	0.032519
3239.000000	0.032449
3238.000000	0.032395
3237.000000	0.032348
3236.000000	0.032290
3235.000000	0.032213
3234.000000	0.032120
3233.000000	0.032026
3232.000000	0.031941
3231.000000	0.031877
3230.000000	0.031830
3229.000000	0.031787
3228.000000	0.031723
3227.000000	0.031635
3226.000000	0.031544
3225.000000	0.031477
3224.000000	0.031440
3223.000000	0.031416
3222.000000	0.031385
3221.000000	0.031334
3220.000000	0.031256
3219.000000	0.031152
3218.000000	0.031034
3217.000000	0.030920
3216.000000	0.030826
3215.000000	0.030756
3214.000000	0.030709
3213.000000	0.030674
3212.000000	0.030637
3211.000000	0.030584
3210.000000	0.030512
3209.000000	0.030431
3208.000000	0.030352
3207.000000	0.030280
3206.000000	0.030213
3205.000000	0.030149
3204.000000	0.030083
3203.000000	0.030014
3202.000000	0.029943
3201.000000	0.029869
3200.000000	0.029787
3199.000000	0.029695
3198.000000	0.029597
3197.000000	0.029499
3196.000000	0.029403
3195.000000	0.029305
3194.000000	0.029206
3193.000000	0.029112
3192.000000	0.029021
3191.000000	0.028925
3190.000000	0.028824
3189.000000	0.028726
3188.000000	0.028638
3187.000000	0.028556
3186.000000	0.028469
3185.000000	0.028377
3184.000000	0.028285
3183.000000	0.028199
3182.000000	0.028116
3181.000000	0.028028
3180.000000	0.027930
3179.000000	0.027824
3178.000000	0.027717
3177.000000	0.027611
3176.000000	0.027503
3175.000000	0.027396
3174.000000	0.027294
3173.000000	0.027195
3172.000000	0.027091
3171.000000	0.026975
3170.000000	0.026852
3169.000000	0.026741
3168.000000	0.026648
3167.000000	0.026566
3166.000000	0.026477
3165.000000	0.026371
3164.000000	0.026256
3163.000000	0.026146
3162.000000	0.026049
3161.000000	0.025963
3160.000000	0.025873
3159.000000	0.025768
3158.000000	0.025656
3157.000000	0.025554
3156.000000	0.025471
3155.000000	0.025395
3154.000000	0.025311
3153.000000	0.025218
3152.000000	0.025127
3151.000000	0.025050
3150.000000	0.024982
3149.000000	0.024914
3148.000000	0.024842
3147.000000	0.024772
3146.000000	0.024711
3145.000000	0.024660
3144.000000	0.024608
3143.000000	0.024540
3142.000000	0.024449
3141.000000	0.024345
3140.000000	0.024247
3139.000000	0.024168
3138.000000	0.024107
3137.000000	0.024051
3136.000000	0.023995
3135.000000	0.023941
3134.000000	0.023894
3133.000000	0.023849
3132.000000	0.023799
3131.000000	0.023740
3130.000000	0.023673
3129.000000	0.023610
3128.000000	0.023565
3127.000000	0.023544
3126.000000	0.023543
3125.000000	0.023543
3124.000000	0.023518
3123.000000	0.023454
3122.000000	0.023362
3121.000000	0.023269
3120.000000	0.023202
3119.000000	0.023166
3118.000000	0.023155
3117.000000	0.023158
3116.000000	0.023168
3115.000000	0.023185
3114.000000	0.023204
3113.000000	0.023212
3112.000000	0.023198
3111.000000	0.023162
3110.000000	0.023123
3109.000000	0.023103
3108.000000	0.023116
3107.000000	0.023159
3106.000000	0.023214
3105.000000	0.023263
3104.000000	0.023296
3103.000000	0.023315
3102.000000	0.023325
3101.000000	0.023335
3100.000000	0.023350
3099.000000	0.023377
3098.000000	0.023417
3097.000000	0.023466
3096.000000	0.023509
3095.000000	0.023534
3094.000000	0.023541
3093.000000	0.023540
3092.000000	0.023545
3091.000000	0.023560
3090.000000	0.023585
3089.000000	0.023618
3088.000000	0.023655
3087.000000	0.023692
3086.000000	0.023724
3085.000000	0.023750
3084.000000	0.023768
3083.000000	0.023778
3082.000000	0.023778
3081.000000	0.023767
3080.000000	0.023746
3079.000000	0.023722
3078.000000	0.023714
3077.000000	0.023736
3076.000000	0.023778
3075.000000	0.023811
3074.000000	0.023811
3073.000000	0.023785
3072.000000	0.023759
3071.000000	0.023755
3070.000000	0.023773
3069.000000	0.023792
3068.000000	0.023789
3067.000000	0.023754
3066.000000	0.023692
3065.000000	0.023616
3064.000000	0.023540
3063.000000	0.023469
3062.000000	0.023400
3061.000000	0.023328
3060.000000	0.023249
3059.000000	0.023164
3058.000000	0.023081
3057.000000	0.023008
3056.000000	0.022947
3055.000000	0.022890
3054.000000	0.022825
3053.000000	0.022750
3052.000000	0.022668
3051.000000	0.022582
3050.000000	0.022494
3049.000000	0.022405
3048.000000	0.022321
3047.000000	0.022247
3046.000000	0.022183
3045.000000	0.022123
3044.000000	0.022057
3043.000000	0.021981
3042.000000	0.021893
3041.000000	0.021798
3040.000000	0.021702
3039.000000	0.021613
3038.000000	0.021536
3037.000000	0.021466
3036.000000	0.021392
3035.000000	0.021307
3034.000000	0.021218
3033.000000	0.021138
3032.000000	0.021071
3031.000000	0.021007
3030.000000	0.020936
3029.000000	0.020858
3028.000000	0.020785
3027.000000	0.020729
3026.000000	0.020688
3025.000000	0.020652
3024.000000	0.020603
3023.000000	0.020529
3022.000000	0.020432
3021.000000	0.020331
3020.000000	0.020246
3019.000000	0.020186
3018.000000	0.020151
3017.000000	0.020136
3016.000000	0.020133
3015.000000	0.020138
3014.000000	0.020152
3013.000000	0.020176
3012.000000	0.020217
3011.000000	0.020272
3010.000000	0.020334
3009.000000	0.020389
3008.000000	0.020425
3007.000000	0.020439
3006.000000	0.020439
3005.000000	0.020435
3004.000000	0.020432
3003.000000	0.020427
3002.000000	0.020413
3001.000000	0.020389
3000.000000	0.020356
2999.000000	0.020322
2998.000000	0.020295
2997.000000	0.020282
2996.000000	0.020289
2995.000000	0.020317
2994.000000	0.020363
2993.000000	0.020425
2992.000000	0.020498
2991.000000	0.020579
2990.000000	0.020666
2989.000000	0.020760
2988.000000	0.020863
2987.000000	0.020971
2986.000000	0.021076
2985.000000	0.021175
2984.000000	0.021276
2983.000000	0.021392
2982.000000	0.021531
2981.000000	0.021690
2980.000000	0.021860
2979.000000	0.022036
2978.000000	0.022216
2977.000000	0.022401
2976.000000	0.022590
2975.000000	0.022787
2974.000000	0.023003
2973.000000	0.023244
2972.000000	0.023506
2971.000000	0.023778
2970.000000	0.024052
2969.000000	0.024337
2968.000000	0.024647
2967.000000	0.024988
2966.000000	0.025351
2965.000000	0.025717
2964.000000	0.026075
2963.000000	0.026422
2962.000000	0.026760
2961.000000	0.027090
2960.000000	0.027404
2959.000000	0.027698
2958.000000	0.027963
2957.000000	0.028187
2956.000000	0.028357
2955.000000	0.028471
2954.000000	0.028539
2953.000000	0.028578
2952.000000	0.028609
2951.000000	0.028652
2950.000000	0.028718
2949.000000	0.028806
2948.000000	0.028918
2947.000000	0.029073
2946.000000	0.029296
2945.000000	0.029602
2944.000000	0.029982
2943.000000	0.030424
2942.000000	0.030924
2941.000000	0.031491
2940.000000	0.032127
2939.000000	0.032826
2938.000000	0.033575
2937.000000	0.034365
2936.000000	0.035189
2935.000000	0.036039
2934.000000	0.036909
2933.000000	0.037782
2932.000000	0.038641
2931.000000	0.039467
2930.000000	0.040254
2929.000000	0.041000
2928.000000	0.041694
2927.000000	0.042318
2926.000000	0.042848
2925.000000	0.043250
2924.000000	0.043485
2923.000000	0.043523
2922.000000	0.043356
2921.000000	0.043005
2920.000000	0.042494
2919.000000	0.041841
2918.000000	0.041056
2917.000000	0.040160
2916.000000	0.039186
2915.000000	0.038171
2914.000000	0.037154
2913.000000	0.036166
2912.000000	0.035231
2911.000000	0.034362
2910.000000	0.033562
2909.000000	0.032836
2908.000000	0.032187
2907.000000	0.031616
2906.000000	0.031110
2905.000000	0.030646
2904.000000	0.030204
2903.000000	0.029779
2902.000000	0.029373
2901.000000	0.028993
2900.000000	0.028643
2899.000000	0.028323
2898.000000	0.028029
2897.000000	0.027748
2896.000000	0.027464
2895.000000	0.027167
2894.000000	0.026860
2893.000000	0.026557
2892.000000	0.026277
2891.000000	0.026031
2890.000000	0.025821
2889.000000	0.025636
2888.000000	0.025460
2887.000000	0.025279
2886.000000	0.025093
2885.000000	0.024917
2884.000000	0.024767
2883.000000	0.024660
2882.000000	0.024597
2881.000000	0.024573
2880.000000	0.024576
2879.000000	0.024600
2878.000000	0.024647
2877.000000	0.024724
2876.000000	0.024832
2875.000000	0.024963
2874.000000	0.025093
2873.000000	0.025193
2872.000000	0.025238
2871.000000	0.025233
2870.000000	0.025206
2869.000000	0.025191
2868.000000	0.025211
2867.000000	0.025284
2866.000000	0.025426
2865.000000	0.025655
2864.000000	0.025980
2863.000000	0.026401
2862.000000	0.026920
2861.000000	0.027534
2860.000000	0.028226
2859.000000	0.028960
2858.000000	0.029701
2857.000000	0.030417
2856.000000	0.031071
2855.000000	0.031606
2854.000000	0.031953
2853.000000	0.032055
2852.000000	0.031882
2851.000000	0.031439
2850.000000	0.030751
2849.000000	0.029867
2848.000000	0.028843
2847.000000	0.027742
2846.000000	0.026633
2845.000000	0.025583
2844.000000	0.024639
2843.000000	0.023823
2842.000000	0.023127
2841.000000	0.022529
2840.000000	0.022007
2839.000000	0.021544
2838.000000	0.021138
2837.000000	0.020789
2836.000000	0.020496
2835.000000	0.020251
2834.000000	0.020044
2833.000000	0.019862
2832.000000	0.019688
2831.000000	0.019511
2830.000000	0.019331
2829.000000	0.019160
2828.000000	0.019008
2827.000000	0.018873
2826.000000	0.018747
2825.000000	0.018624
2824.000000	0.018504
2823.000000	0.018387
2822.000000	0.018278
2821.000000	0.018180
2820.000000	0.018093
2819.000000	0.018014
2818.000000	0.017935
2817.000000	0.017857
2816.000000	0.017784
2815.000000	0.017717
2814.000000	0.017655
2813.000000	0.017595
2812.000000	0.017539
2811.000000	0.017486
2810.000000	0.017429
2809.000000	0.017363
2808.000000	0.017289
2807.000000	0.017216
2806.000000	0.017150
2805.000000	0.017090
2804.000000	0.017028
2803.000000	0.016966
2802.000000	0.016910
2801.000000	0.016864
2800.000000	0.016819
2799.000000	0.016767
2798.000000	0.016709
2797.000000	0.016655
2796.000000	0.016613
2795.000000	0.016579
2794.000000	0.016548
2793.000000	0.016514
2792.000000	0.016474
2791.000000	0.016426
2790.000000	0.016370
2789.000000	0.016317
2788.000000	0.016274
2787.000000	0.016240
2786.000000	0.016204
2785.000000	0.016160
2784.000000	0.016111
2783.000000	0.016066
2782.000000	0.016027
2781.000000	0.015990
2780.000000	0.015949
2779.000000	0.015903
2778.000000	0.015857
2777.000000	0.015821
2776.000000	0.015799
2775.000000	0.015782
2774.000000	0.015756
2773.000000	0.015716
2772.000000	0.015671
2771.000000	0.015630
2770.000000	0.015595
2769.000000	0.015559
2768.000000	0.015515
2767.000000	0.015461
2766.000000	0.015397
2765.000000	0.015331
2764.000000	0.015272
2763.000000	0.015225
2762.000000	0.015186
2761.000000	0.015152
2760.000000	0.015125
2759.000000	0.015114
2758.000000	0.015121
2757.000000	0.015133
2756.000000	0.015136
2755.000000	0.015130
2754.000000	0.015118
2753.000000	0.015104
2752.000000	0.015081
2751.000000	0.015047
2750.000000	0.015008
2749.000000	0.014970
2748.000000	0.014936
2747.000000	0.014905
2746.000000	0.014878
2745.000000	0.014859
2744.000000	0.014839
2743.000000	0.014809
2742.000000	0.014770
2741.000000	0.014733
2740.000000	0.014707
2739.000000	0.014690
2738.000000	0.014674
2737.000000	0.014650
2736.000000	0.014621
2735.000000	0.014591
2734.000000	0.014570
2733.000000	0.014559
2732.000000	0.014556
2731.000000	0.014550
2730.000000	0.014530
2729.000000	0.014493
2728.000000	0.014444
2727.000000	0.014391
2726.000000	0.014345
2725.000000	0.014311
2724.000000	0.014291
2723.000000	0.014278
2722.000000	0.014261
2721.000000	0.014231
2720.000000	0.014194
2719.000000	0.014161
2718.000000	0.014140
2717.000000	0.014127
2716.000000	0.014109
2715.000000	0.014082
2714.000000	0.014054
2713.000000	0.014035
2712.000000	0.014023
2711.000000	0.014009
2710.000000	0.013988
2709.000000	0.013961
2708.000000	0.013930
2707.000000	0.013896
2706.000000	0.013862
2705.000000	0.013837
2704.000000	0.013824
2703.000000	0.013823
2702.000000	0.013827
2701.000000	0.013833
2700.000000	0.013835
2699.000000	0.013827
2698.000000	0.013805
2697.000000	0.013771
2696.000000	0.013733
2695.000000	0.013697
2694.000000	0.013673
2693.000000	0.013663
2692.000000	0.013663
2691.000000	0.013664
2690.000000	0.013665
2689.000000	0.013669
2688.000000	0.013675
2687.000000	0.013677
2686.000000	0.013666
2685.000000	0.013645
2684.000000	0.013627
2683.000000	0.013621
2682.000000	0.013628
2681.000000	0.013644
2680.000000	0.013655
2679.000000	0.013649
2678.000000	0.013618
2677.000000	0.013567
2676.000000	0.013512
2675.000000	0.013472
2674.000000	0.013458
2673.000000	0.013468
2672.000000	0.013483
2671.000000	0.013483
2670.000000	0.013461
2669.000000	0.013427
2668.000000	0.013402
2667.000000	0.013395
2666.000000	0.013400
2665.000000	0.013402
2664.000000	0.013389
2663.000000	0.013366
2662.000000	0.013340
2661.000000	0.013315
2660.000000	0.013286
2659.000000	0.013246
2658.000000	0.013196
2657.000000	0.013147
2656.000000	0.013111
2655.000000	0.013089
2654.000000	0.013072
2653.000000	0.013052
2652.000000	0.013028
2651.000000	0.013004
2650.000000	0.012987
2649.000000	0.012972
2648.000000	0.012947
2647.000000	0.012910
2646.000000	0.012868
2645.000000	0.012831
2644.000000	0.012803
2643.000000	0.012780
2642.000000	0.012754
2641.000000	0.012720
2640.000000	0.012674
2639.000000	0.012618
2638.000000	0.012565
2637.000000	0.012522
2636.000000	0.012488
2635.000000	0.012456
2634.000000	0.012419
2633.000000	0.012383
2632.000000	0.012352
2631.000000	0.012329
2630.000000	0.012313
2629.000000	0.012301
2628.000000	0.012280
2627.000000	0.012241
2626.000000	0.012186
2625.000000	0.012131
2624.000000	0.012092
2623.000000	0.012068
2622.000000	0.012053
2621.000000	0.012039
2620.000000	0.012024
2619.000000	0.012004
2618.000000	0.011969
2617.000000	0.011909
2616.000000	0.011831
2615.000000	0.011758
2614.000000	0.011708
2613.000000	0.011681
2612.000000	0.011654
2611.000000	0.011614
2610.000000	0.011574
2609.000000	0.011561
2608.000000	0.011579
2607.000000	0.011605
2606.000000	0.011611
2605.000000	0.011590
2604.000000	0.011552
2603.000000	0.011513
2602.000000	0.011485
2601.000000	0.011473
2600.000000	0.011470
2599.000000	0.011462
2598.000000	0.011441
2597.000000	0.011413
2596.000000	0.011393
2595.000000	0.011387
2594.000000	0.011391
2593.000000	0.011391
2592.000000	0.011376
2591.000000	0.011347
2590.000000	0.011315
2589.000000	0.011288
2588.000000	0.011266
2587.000000	0.011243
2586.000000	0.011225
2585.000000	0.011216
2584.000000	0.011205
2583.000000	0.011172
2582.000000	0.011108
2581.000000	0.011028
2580.000000	0.010959
2579.000000	0.010921
2578.000000	0.010920
2577.000000	0.010948
2576.000000	0.010987
2575.000000	0.011015
2574.000000	0.011015
2573.000000	0.010981
2572.000000	0.010928
2571.000000	0.010883
2570.000000	0.010878
2569.000000	0.010911
2568.000000	0.010948
2567.000000	0.010947
2566.000000	0.010903
2565.000000	0.010844
2564.000000	0.010802
2563.000000	0.010785
2562.000000	0.010783
2561.000000	0.010788
2560.000000	0.010790
2559.000000	0.010785
2558.000000	0.010775
2557.000000	0.010762
2556.000000	0.010742
2555.000000	0.010709
2554.000000	0.010669
2553.000000	0.010637
2552.000000	0.010624
2551.000000	0.010630
2550.000000	0.010650
2549.000000	0.010680
2548.000000	0.010705
2547.000000	0.010708
2546.000000	0.010682
2545.000000	0.010646
2544.000000	0.010621
2543.000000	0.010621
2542.000000	0.010645
2541.000000	0.010681
2540.000000	0.010706
2539.000000	0.010697
2538.000000	0.010652
2537.000000	0.010601
2536.000000	0.010581
2535.000000	0.010602
2534.000000	0.010646
2533.000000	0.010686
2532.000000	0.010703
2531.000000	0.010685
2530.000000	0.010640
2529.000000	0.010588
2528.000000	0.010553
2527.000000	0.010540
2526.000000	0.010539
2525.000000	0.010535
2524.000000	0.010524
2523.000000	0.010517
2522.000000	0.010527
2521.000000	0.010554
2520.000000	0.010579
2519.000000	0.010576
2518.000000	0.010536
2517.000000	0.010473
2516.000000	0.010410
2515.000000	0.010358
2514.000000	0.010324
2513.000000	0.010308
2512.000000	0.010310
2511.000000	0.010320
2510.000000	0.010326
2509.000000	0.010317
2508.000000	0.010297
2507.000000	0.010288
2506.000000	0.010311
2505.000000	0.010354
2504.000000	0.010380
2503.000000	0.010362
2502.000000	0.010321
2501.000000	0.010293
2500.000000	0.010294
2499.000000	0.010303
2498.000000	0.010301
2497.000000	0.010296
2496.000000	0.010303
2495.000000	0.010320
2494.000000	0.010326
2493.000000	0.010305
2492.000000	0.010252
2491.000000	0.010180
2490.000000	0.010114
2489.000000	0.010080
2488.000000	0.010084
2487.000000	0.010108
2486.000000	0.010134
2485.000000	0.010151
2484.000000	0.010160
2483.000000	0.010155
2482.000000	0.010135
2481.000000	0.010101
2480.000000	0.010064
2479.000000	0.010037
2478.000000	0.010030
2477.000000	0.010039
2476.000000	0.010051
2475.000000	0.010052
2474.000000	0.010043
2473.000000	0.010033
2472.000000	0.010025
2471.000000	0.010019
2470.000000	0.010015
2469.000000	0.010012
2468.000000	0.010000
2467.000000	0.009973
2466.000000	0.009939
2465.000000	0.009916
2464.000000	0.009912
2463.000000	0.009914
2462.000000	0.009917
2461.000000	0.009924
2460.000000	0.009935
2459.000000	0.009948
2458.000000	0.009962
2457.000000	0.009976
2456.000000	0.009980
2455.000000	0.009958
2454.000000	0.009912
2453.000000	0.009870
2452.000000	0.009853
2451.000000	0.009859
2450.000000	0.009880
2449.000000	0.009910
2448.000000	0.009943
2447.000000	0.009963
2446.000000	0.009960
2445.000000	0.009945
2444.000000	0.009937
2443.000000	0.009941
2442.000000	0.009951
2441.000000	0.009953
2440.000000	0.009936
2439.000000	0.009896
2438.000000	0.009845
2437.000000	0.009806
2436.000000	0.009789
2435.000000	0.009779
2434.000000	0.009761
2433.000000	0.009739
2432.000000	0.009727
2431.000000	0.009727
2430.000000	0.009725
2429.000000	0.009712
2428.000000	0.009697
2427.000000	0.009689
2426.000000	0.009688
2425.000000	0.009682
2424.000000	0.009666
2423.000000	0.009651
2422.000000	0.009656
2421.000000	0.009681
2420.000000	0.009706
2419.000000	0.009709
2418.000000	0.009689
2417.000000	0.009670
2416.000000	0.009670
2415.000000	0.009694
2414.000000	0.009736
2413.000000	0.009784
2412.000000	0.009817
2411.000000	0.009814
2410.000000	0.009771
2409.000000	0.009702
2408.000000	0.009632
2407.000000	0.009579
2406.000000	0.009555
2405.000000	0.009564
2404.000000	0.009591
2403.000000	0.009615
2402.000000	0.009621
2401.000000	0.009619
2400.000000	0.009622
2399.000000	0.009636
2398.000000	0.009661
2397.000000	0.009693
2396.000000	0.009728
2395.000000	0.009756
2394.000000	0.009768
2393.000000	0.009764
2392.000000	0.009755
2391.000000	0.009752
2390.000000	0.009758
2389.000000	0.009767
2388.000000	0.009768
2387.000000	0.009756
2386.000000	0.009744
2385.000000	0.009747
2384.000000	0.009769
2383.000000	0.009800
2382.000000	0.009820
2381.000000	0.009818
2380.000000	0.009796
2379.000000	0.009771
2378.000000	0.009758
2377.000000	0.009760
2376.000000	0.009768
2375.000000	0.009778
2374.000000	0.009800
2373.000000	0.009835
2372.000000	0.009868
2371.000000	0.009880
2370.000000	0.009874
2369.000000	0.009869
2368.000000	0.009872
2367.000000	0.009882
2366.000000	0.009895
2365.000000	0.009906
2364.000000	0.009912
2363.000000	0.009929
2362.000000	0.009981
2361.000000	0.010064
2360.000000	0.010142
2359.000000	0.010179
2358.000000	0.010161
2357.000000	0.010100
2356.000000	0.010027
2355.000000	0.009991
2354.000000	0.009987
2353.000000	0.009967
2352.000000	0.009911
2351.000000	0.009860
2350.000000	0.009866
2349.000000	0.009934
2348.000000	0.010033
2347.000000	0.010103
2346.000000	0.010111
2345.000000	0.010082
2344.000000	0.010059
2343.000000	0.010060
2342.000000	0.010065
2341.000000	0.010065
2340.000000	0.010068
2339.000000	0.010083
2338.000000	0.010101
2337.000000	0.010108
2336.000000	0.010099
2335.000000	0.010079
2334.000000	0.010051
2333.000000	0.010021
2332.000000	0.009999
2331.000000	0.009994
2330.000000	0.010004
2329.000000	0.010025
2328.000000	0.010071
2327.000000	0.010154
2326.000000	0.010260
2325.000000	0.010344
2324.000000	0.010360
2323.000000	0.010308
2322.000000	0.010235
2321.000000	0.010194
2320.000000	0.010195
2319.000000	0.010208
2318.000000	0.010210
2317.000000	0.010196
2316.000000	0.010163
2315.000000	0.010103
2314.000000	0.010024
2313.000000	0.009949
2312.000000	0.009895
2311.000000	0.009858
2310.000000	0.009825
2309.000000	0.009798
2308.000000	0.009777
2307.000000	0.009760
2306.000000	0.009747
2305.000000	0.009745
2304.000000	0.009750
2303.000000	0.009740
2302.000000	0.009704
2301.000000	0.009655
2300.000000	0.009625
2299.000000	0.009625
2298.000000	0.009644
2297.000000	0.009652
2296.000000	0.009625
2295.000000	0.009559
2294.000000	0.009481
2293.000000	0.009428
2292.000000	0.009415
2291.000000	0.009430
2290.000000	0.009455
2289.000000	0.009485
2288.000000	0.009513
2287.000000	0.009523
2286.000000	0.009504
2285.000000	0.009462
2284.000000	0.009410
2283.000000	0.009361
2282.000000	0.009326
2281.000000	0.009303
2280.000000	0.009277
2279.000000	0.009236
2278.000000	0.009195
2277.000000	0.009188
2276.000000	0.009219
2275.000000	0.009261
2274.000000	0.009288
2273.000000	0.009299
2272.000000	0.009294
2271.000000	0.009263
2270.000000	0.009214
2269.000000	0.009176
2268.000000	0.009164
2267.000000	0.009155
2266.000000	0.009133
2265.000000	0.009116
2264.000000	0.009132
2263.000000	0.009179
2262.000000	0.009231
2261.000000	0.009264
2260.000000	0.009265
2259.000000	0.009222
2258.000000	0.009138
2257.000000	0.009029
2256.000000	0.008912
2255.000000	0.008804
2254.000000	0.008731
2253.000000	0.008710
2252.000000	0.008727
2251.000000	0.008746
2250.000000	0.008752
2249.000000	0.008763
2248.000000	0.008792
2247.000000	0.008824
2246.000000	0.008842
2245.000000	0.008844
2244.000000	0.008825
2243.000000	0.008771
2242.000000	0.008681
2241.000000	0.008579
2240.000000	0.008495
2239.000000	0.008448
2238.000000	0.008455
2237.000000	0.008523
2236.000000	0.008621
2235.000000	0.008696
2234.000000	0.008727
2233.000000	0.008728
2232.000000	0.008714
2231.000000	0.008685
2230.000000	0.008653
2229.000000	0.008641
2228.000000	0.008645
2227.000000	0.008633
2226.000000	0.008600
2225.000000	0.008580
2224.000000	0.008594
2223.000000	0.008619
2222.000000	0.008642
2221.000000	0.008686
2220.000000	0.008765
2219.000000	0.008840
2218.000000	0.008868
2217.000000	0.008852
2216.000000	0.008810
2215.000000	0.008743
2214.000000	0.008652
2213.000000	0.008563
2212.000000	0.008501
2211.000000	0.008449
2210.000000	0.008377
2209.000000	0.008295
2208.000000	0.008245
2207.000000	0.008263
2206.000000	0.008352
2205.000000	0.008474
2204.000000	0.008560
2203.000000	0.008563
2202.000000	0.008522
2201.000000	0.008522
2200.000000	0.008596
2199.000000	0.008681
2198.000000	0.008705
2197.000000	0.008676
2196.000000	0.008650
2195.000000	0.008639
2194.000000	0.008581
2193.000000	0.008421
2192.000000	0.008185
2191.000000	0.007984
2190.000000	0.007925
2189.000000	0.008001
2188.000000	0.008096
2187.000000	0.008130
2186.000000	0.008161
2185.000000	0.008291
2184.000000	0.008507
2183.000000	0.008675
2182.000000	0.008701
2181.000000	0.008602
2180.000000	0.008447
2179.000000	0.008288
2178.000000	0.008165
2177.000000	0.008091
2176.000000	0.007998
2175.000000	0.007801
2174.000000	0.007541
2173.000000	0.007369
2172.000000	0.007375
2171.000000	0.007498
2170.000000	0.007632
2169.000000	0.007732
2168.000000	0.007799
2167.000000	0.007831
2166.000000	0.007841
2165.000000	0.007857
2164.000000	0.007869
2163.000000	0.007822
2162.000000	0.007711
2161.000000	0.007579
2160.000000	0.007409
2159.000000	0.007123
2158.000000	0.006761
2157.000000	0.006521
2156.000000	0.006542
2155.000000	0.006789
2154.000000	0.007168
2153.000000	0.007594
2152.000000	0.007956
2151.000000	0.008131
2150.000000	0.008102
2149.000000	0.007974
2148.000000	0.007861
2147.000000	0.007790
2146.000000	0.007758
2145.000000	0.007785
2144.000000	0.007870
2143.000000	0.007956
2142.000000	0.008005
2141.000000	0.008053
2140.000000	0.008148
2139.000000	0.008260
2138.000000	0.008298
2137.000000	0.008198
2136.000000	0.007988
2135.000000	0.007768
2134.000000	0.007658
2133.000000	0.007710
2132.000000	0.007868
2131.000000	0.008020
2130.000000	0.008096
2129.000000	0.008110
2128.000000	0.008098
2127.000000	0.008079
2126.000000	0.008061
2125.000000	0.008065
2124.000000	0.008102
2123.000000	0.008159
2122.000000	0.008223
2121.000000	0.008307
2120.000000	0.008425
2119.000000	0.008554
2118.000000	0.008643
2117.000000	0.008660
2116.000000	0.008614
2115.000000	0.008555
2114.000000	0.008536
2113.000000	0.008575
2112.000000	0.008638
2111.000000	0.008669
2110.000000	0.008646
2109.000000	0.008599
2108.000000	0.008571
2107.000000	0.008573
2106.000000	0.008588
2105.000000	0.008592
2104.000000	0.008577
2103.000000	0.008553
2102.000000	0.008547
2101.000000	0.008560
2100.000000	0.008558
2099.000000	0.008510
2098.000000	0.008438
2097.000000	0.008387
2096.000000	0.008360
2095.000000	0.008317
2094.000000	0.008244
2093.000000	0.008187
2092.000000	0.008205
2091.000000	0.008295
2090.000000	0.008405
2089.000000	0.008471
2088.000000	0.008467
2087.000000	0.008415
2086.000000	0.008365
2085.000000	0.008358
2084.000000	0.008397
2083.000000	0.008456
2082.000000	0.008517
2081.000000	0.008559
2080.000000	0.008552
2079.000000	0.008491
2078.000000	0.008414
2077.000000	0.008373
2076.000000	0.008367
2075.000000	0.008353
2074.000000	0.008304
2073.000000	0.008227
2072.000000	0.008148
2071.000000	0.008098
2070.000000	0.008098
2069.000000	0.008117
2068.000000	0.008078
2067.000000	0.007951
2066.000000	0.007814
2065.000000	0.007779
2064.000000	0.007852
2063.000000	0.007941
2062.000000	0.007979
2061.000000	0.007963
2060.000000	0.007903
2059.000000	0.007807
2058.000000	0.007719
2057.000000	0.007679
2056.000000	0.007664
2055.000000	0.007617
2054.000000	0.007553
2053.000000	0.007538
2052.000000	0.007575
2051.000000	0.007582
2050.000000	0.007516
2049.000000	0.007426
2048.000000	0.007356
2047.000000	0.007290
2046.000000	0.007224
2045.000000	0.007207
2044.000000	0.007252
2043.000000	0.007304
2042.000000	0.007327
2041.000000	0.007345
2040.000000	0.007366
2039.000000	0.007343
2038.000000	0.007252
2037.000000	0.007111
2036.000000	0.006918
2035.000000	0.006668
2034.000000	0.006452
2033.000000	0.006410
2032.000000	0.006531
2031.000000	0.006635
2030.000000	0.006610
2029.000000	0.006532
2028.000000	0.006518
2027.000000	0.006575
2026.000000	0.006662
2025.000000	0.006772
2024.000000	0.006902
2023.000000	0.007006
2022.000000	0.007041
2021.000000	0.006995
2020.000000	0.006870
2019.000000	0.006700
2018.000000	0.006559
2017.000000	0.006464
2016.000000	0.006308
2015.000000	0.006024
2014.000000	0.005761
2013.000000	0.005753
2012.000000	0.006018
2011.000000	0.006343
2010.000000	0.006577
2009.000000	0.006754
2008.000000	0.006925
2007.000000	0.007044
2006.000000	0.007078
2005.000000	0.007081
2004.000000	0.007080
2003.000000	0.007027
2002.000000	0.006910
2001.000000	0.006802
2000.000000	0.006749
1999.000000	0.006718
1998.000000	0.006690
1997.000000	0.006702
1996.000000	0.006762
1995.000000	0.006809
1994.000000	0.006806
1993.000000	0.006791
1992.000000	0.006784
1991.000000	0.006732
1990.000000	0.006606
1989.000000	0.006473
1988.000000	0.006423
1987.000000	0.006471
1986.000000	0.006589
1985.000000	0.006758
1984.000000	0.006949
1983.000000	0.007112
1982.000000	0.007228
1981.000000	0.007309
1980.000000	0.007335
1979.000000	0.007265
1978.000000	0.007134
1977.000000	0.007046
1976.000000	0.007006
1975.000000	0.006905
1974.000000	0.006707
1973.000000	0.006542
1972.000000	0.006537
1971.000000	0.006671
1970.000000	0.006825
1969.000000	0.006895
1968.000000	0.006843
1967.000000	0.006710
1966.000000	0.006605
1965.000000	0.006603
1964.000000	0.006669
1963.000000	0.006724
1962.000000	0.006759
1961.000000	0.006818
1960.000000	0.006885
1959.000000	0.006891
1958.000000	0.006823
1957.000000	0.006736
1956.000000	0.006672
1955.000000	0.006629
1954.000000	0.006616
1953.000000	0.006649
1952.000000	0.006701
1951.000000	0.006721
1950.000000	0.006717
1949.000000	0.006748
1948.000000	0.006828
1947.000000	0.006899
1946.000000	0.006910
1945.000000	0.006857
1944.000000	0.006761
1943.000000	0.006671
1942.000000	0.006663
1941.000000	0.006755
1940.000000	0.006854
1939.000000	0.006869
1938.000000	0.006824
1937.000000	0.006816
1936.000000	0.006878
1935.000000	0.006954
1934.000000	0.006993
1933.000000	0.007009
1932.000000	0.007029
1931.000000	0.007044
1930.000000	0.007049
1929.000000	0.007047
1928.000000	0.007024
1927.000000	0.006958
1926.000000	0.006864
1925.000000	0.006789
1924.000000	0.006747
1923.000000	0.006705
1922.000000	0.006668
1921.000000	0.006672
1920.000000	0.006720
1919.000000	0.006759
1918.000000	0.006750
1917.000000	0.006724
1916.000000	0.006730
1915.000000	0.006776
1914.000000	0.006833
1913.000000	0.006859
1912.000000	0.006818
1911.000000	0.006712
1910.000000	0.006597
1909.000000	0.006539
1908.000000	0.006550
1907.000000	0.006597
1906.000000	0.006661
1905.000000	0.006746
1904.000000	0.006833
1903.000000	0.006891
1902.000000	0.006931
1901.000000	0.006989
1900.000000	0.007057
1899.000000	0.007091
1898.000000	0.007073
1897.000000	0.007028
1896.000000	0.006970
1895.000000	0.006886
1894.000000	0.006780
1893.000000	0.006693
1892.000000	0.006659
1891.000000	0.006670
1890.000000	0.006702
1889.000000	0.006737
1888.000000	0.006749
1887.000000	0.006728
1886.000000	0.006706
1885.000000	0.006719
1884.000000	0.006748
1883.000000	0.006745
1882.000000	0.006706
1881.000000	0.006669
1880.000000	0.006653
1879.000000	0.006653
1878.000000	0.006667
1877.000000	0.006700
1876.000000	0.006738
1875.000000	0.006739
1874.000000	0.006680
1873.000000	0.006582
1872.000000	0.006477
1871.000000	0.006381
1870.000000	0.006303
1869.000000	0.006267
1868.000000	0.006292
1867.000000	0.006346
1866.000000	0.006394
1865.000000	0.006440
1864.000000	0.006489
1863.000000	0.006534
1862.000000	0.006577
1861.000000	0.006623
1860.000000	0.006655
1859.000000	0.006656
1858.000000	0.006647
1857.000000	0.006658
1856.000000	0.006678
1855.000000	0.006677
1854.000000	0.006657
1853.000000	0.006638
1852.000000	0.006597
1851.000000	0.006506
1850.000000	0.006387
1849.000000	0.006279
1848.000000	0.006202
1847.000000	0.006159
1846.000000	0.006176
1845.000000	0.006257
1844.000000	0.006333
1843.000000	0.006337
1842.000000	0.006314
1841.000000	0.006348
1840.000000	0.006423
1839.000000	0.006455
1838.000000	0.006416
1837.000000	0.006376
1836.000000	0.006389
1835.000000	0.006423
1834.000000	0.006437
1833.000000	0.006438
1832.000000	0.006430
1831.000000	0.006373
1830.000000	0.006261
1829.000000	0.006168
1828.000000	0.006142
1827.000000	0.006164
1826.000000	0.006207
1825.000000	0.006246
1824.000000	0.006277
1823.000000	0.006310
1822.000000	0.006361
1821.000000	0.006422
1820.000000	0.006444
1819.000000	0.006400
1818.000000	0.006333
1817.000000	0.006309
1816.000000	0.006334
1815.000000	0.006354
1814.000000	0.006344
1813.000000	0.006315
1812.000000	0.006275
1811.000000	0.006220
1810.000000	0.006166
1809.000000	0.006157
1808.000000	0.006196
1807.000000	0.006249
1806.000000	0.006297
1805.000000	0.006347
1804.000000	0.006388
1803.000000	0.006386
1802.000000	0.006342
1801.000000	0.006303
1800.000000	0.006303
1799.000000	0.006317
1798.000000	0.006316
1797.000000	0.006315
1796.000000	0.006328
1795.000000	0.006348
1794.000000	0.006371
1793.000000	0.006375
1792.000000	0.006347
1791.000000	0.006309
1790.000000	0.006296
1789.000000	0.006328
1788.000000	0.006394
1787.000000	0.006455
1786.000000	0.006484
1785.000000	0.006490
1784.000000	0.006469
1783.000000	0.006417
1782.000000	0.006364
1781.000000	0.006346
1780.000000	0.006363
1779.000000	0.006383
1778.000000	0.006380
1777.000000	0.006352
1776.000000	0.006271
1775.000000	0.006131
1774.000000	0.005998
1773.000000	0.005941
1772.000000	0.005978
1771.000000	0.006103
1770.000000	0.006294
1769.000000	0.006533
1768.000000	0.006771
1767.000000	0.006918
1766.000000	0.006978
1765.000000	0.007060
1764.000000	0.007243
1763.000000	0.007490
1762.000000	0.007741
1761.000000	0.008008
1760.000000	0.008341
1759.000000	0.008780
1758.000000	0.009368
1757.000000	0.010097
1756.000000	0.010840
1755.000000	0.011479
1754.000000	0.012057
1753.000000	0.012709
1752.000000	0.013459
1751.000000	0.014173
1750.000000	0.014762
1749.000000	0.015314
1748.000000	0.015846
1747.000000	0.016235
1746.000000	0.016413
1745.000000	0.016421
1744.000000	0.016304
1743.000000	0.016087
1742.000000	0.015803
1741.000000	0.015463
1740.000000	0.014976
1739.000000	0.014281
1738.000000	0.013525
1737.000000	0.012887
1736.000000	0.012373
1735.000000	0.011774
1734.000000	0.010935
1733.000000	0.010132
1732.000000	0.009696
1731.000000	0.009595
1730.000000	0.009619
1729.000000	0.009629
1728.000000	0.009576
1727.000000	0.009448
1726.000000	0.009278
1725.000000	0.009106
1724.000000	0.008947
1723.000000	0.008784
1722.000000	0.008633
1721.000000	0.008530
1720.000000	0.008421
1719.000000	0.008148
1718.000000	0.007688
1717.000000	0.007383
1716.000000	0.007517
1715.000000	0.007954
1714.000000	0.008449
1713.000000	0.008878
1712.000000	0.009236
1711.000000	0.009549
1710.000000	0.009854
1709.000000	0.010196
1708.000000	0.010602
1707.000000	0.011062
1706.000000	0.011552
1705.000000	0.012052
1704.000000	0.012529
1703.000000	0.013044
1702.000000	0.013864
1701.000000	0.015095
1700.000000	0.016057
1699.000000	0.016202
1698.000000	0.016116
1697.000000	0.016584
1696.000000	0.017789
1695.000000	0.019183
1694.000000	0.020242
1693.000000	0.021100
1692.000000	0.021941
1691.000000	0.022748
1690.000000	0.023500
1689.000000	0.024177
1688.000000	0.024704
1687.000000	0.025080
1686.000000	0.025583
1685.000000	0.026582
1684.000000	0.028037
1683.000000	0.029451
1682.000000	0.030530
1681.000000	0.031494
1680.000000	0.032532
1679.000000	0.033578
1678.000000	0.034624
1677.000000	0.035834
1676.000000	0.037312
1675.000000	0.038746
1674.000000	0.039774
1673.000000	0.040545
1672.000000	0.041458
1671.000000	0.042690
1670.000000	0.044209
1669.000000	0.045831
1668.000000	0.047267
1667.000000	0.048380
1666.000000	0.049332
1665.000000	0.050387
1664.000000	0.051682
1663.000000	0.053089
1662.000000	0.054384
1661.000000	0.055504
1660.000000	0.056528
1659.000000	0.057480
1658.000000	0.058298
1657.000000	0.058898
1656.000000	0.059302
1655.000000	0.059735
1654.000000	0.060627
1653.000000	0.062062
1652.000000	0.063146
1651.000000	0.063560
1650.000000	0.063959
1649.000000	0.064492
1648.000000	0.065088
1647.000000	0.065850
1646.000000	0.066705
1645.000000	0.067407
1644.000000	0.067900
1643.000000	0.068310
1642.000000	0.068674
1641.000000	0.069000
1640.000000	0.069260
1639.000000	0.069389
1638.000000	0.069438
1637.000000	0.069645
1636.000000	0.070214
1635.000000	0.070885
1634.000000	0.071148
1633.000000	0.071028
1632.000000	0.070829
1631.000000	0.070623
1630.000000	0.070374
1629.000000	0.070020
1628.000000	0.069521
1627.000000	0.068875
1626.000000	0.068118
1625.000000	0.067273
1624.000000	0.066312
1623.000000	0.065209
1622.000000	0.064027
1621.000000	0.062842
1620.000000	0.061652
1619.000000	0.060375
1618.000000	0.058922
1617.000000	0.057328
1616.000000	0.055837
1615.000000	0.054656
1614.000000	0.053702
1613.000000	0.052745
1612.000000	0.051634
1611.000000	0.050392
1610.000000	0.049128
1609.000000	0.047913
1608.000000	0.046766
1607.000000	0.045708
1606.000000	0.044743
1605.000000	0.043826
1604.000000	0.042921
1603.000000	0.042067
1602.000000	0.041319
1601.000000	0.040672
1600.000000	0.040086
1599.000000	0.039549
1598.000000	0.039057
1597.000000	0.038589
1596.000000	0.038143
1595.000000	0.037777
1594.000000	0.037532
1593.000000	0.037361
1592.000000	0.037205
1591.000000	0.037077
1590.000000	0.037024
1589.000000	0.037050
1588.000000	0.037133
1587.000000	0.037279
1586.000000	0.037492
1585.000000	0.037728
1584.000000	0.037953
1583.000000	0.038210
1582.000000	0.038545
1581.000000	0.038888
1580.000000	0.039111
1579.000000	0.039182
1578.000000	0.039216
1577.000000	0.039435
1576.000000	0.039993
1575.000000	0.040777
1574.000000	0.041558
1573.000000	0.042233
1572.000000	0.042840
1571.000000	0.043499
1570.000000	0.044270
1569.000000	0.045045
1568.000000	0.045687
1567.000000	0.046265
1566.000000	0.046951
1565.000000	0.047727
1564.000000	0.048380
1563.000000	0.048788
1562.000000	0.049036
1561.000000	0.049486
1560.000000	0.050340
1559.000000	0.051549
1558.000000	0.052932
1557.000000	0.053838
1556.000000	0.054360
1555.000000	0.055007
1554.000000	0.055741
1553.000000	0.056409
1552.000000	0.056948
1551.000000	0.057491
1550.000000	0.058075
1549.000000	0.058622
1548.000000	0.059026
1547.000000	0.059313
1546.000000	0.059540
1545.000000	0.059669
1544.000000	0.059690
1543.000000	0.059680
1542.000000	0.059675
1541.000000	0.059656
1540.000000	0.059786
1539.000000	0.060102
1538.000000	0.060291
1537.000000	0.060354
1536.000000	0.060426
1535.000000	0.060454
1534.000000	0.060390
1533.000000	0.060192
1532.000000	0.059875
1531.000000	0.059469
1530.000000	0.059047
1529.000000	0.058644
1528.000000	0.058221
1527.000000	0.057771
1526.000000	0.057321
1525.000000	0.056843
1524.000000	0.056288
1523.000000	0.055659
1522.000000	0.055038
1521.000000	0.054568
1520.000000	0.054254
1519.000000	0.053986
1518.000000	0.053687
1517.000000	0.053317
1516.000000	0.052900
1515.000000	0.052432
1514.000000	0.051878
1513.000000	0.051219
1512.000000	0.050400
1511.000000	0.049406
1510.000000	0.048259
1509.000000	0.047002
1508.000000	0.045618
1507.000000	0.044422
1506.000000	0.043852
1505.000000	0.043436
1504.000000	0.042859
1503.000000	0.042300
1502.000000	0.041685
1501.000000	0.040987
1500.000000	0.040210
1499.000000	0.039330
1498.000000	0.038323
1497.000000	0.037298
1496.000000	0.036413
1495.000000	0.035685
1494.000000	0.035065
1493.000000	0.034503
1492.000000	0.033894
1491.000000	0.033102
1490.000000	0.032180
1489.000000	0.031451
1488.000000	0.031067
1487.000000	0.030851
1486.000000	0.030656
1485.000000	0.030483
1484.000000	0.030357
1483.000000	0.030279
1482.000000	0.030246
1481.000000	0.030288
1480.000000	0.030423
1479.000000	0.030629
1478.000000	0.030884
1477.000000	0.031158
1476.000000	0.031410
1475.000000	0.031669
1474.000000	0.032117
1473.000000	0.032960
1472.000000	0.034144
1471.000000	0.035311
1470.000000	0.036265
1469.000000	0.037095
1468.000000	0.037873
1467.000000	0.038594
1466.000000	0.039279
1465.000000	0.039960
1464.000000	0.040567
1463.000000	0.040993
1462.000000	0.041285
1461.000000	0.041563
1460.000000	0.041845
1459.000000	0.042135
1458.000000	0.042606
1457.000000	0.043437
1456.000000	0.044295
1455.000000	0.044814
1454.000000	0.045171
1453.000000	0.045509
1452.000000	0.045765
1451.000000	0.045910
1450.000000	0.045985
1449.000000	0.046050
1448.000000	0.046089
1447.000000	0.046054
1446.000000	0.045956
1445.000000	0.045830
1444.000000	0.045690
1443.000000	0.045519
1442.000000	0.045291
1441.000000	0.045008
1440.000000	0.044697
1439.000000	0.044404
1438.000000	0.044137
1437.000000	0.043812
1436.000000	0.043331
1435.000000	0.042732
1434.000000	0.042163
1433.000000	0.041704
1432.000000	0.041323
1431.000000	0.040957
1430.000000	0.040593
1429.000000	0.040268
1428.000000	0.039992
1427.000000	0.039736
1426.000000	0.039501
1425.000000	0.039300
1424.000000	0.039147
1423.000000	0.039048
1422.000000	0.038992
1421.000000	0.038999
1420.000000	0.039054
1419.000000	0.039063
1418.000000	0.039022
1417.000000	0.039027
1416.000000	0.039108
1415.000000	0.039211
1414.000000	0.039273
1413.000000	0.039280
1412.000000	0.039283
1411.000000	0.039335
1410.000000	0.039434
1409.000000	0.039554
1408.000000	0.039677
1407.000000	0.039786
1406.000000	0.039888
1405.000000	0.040006
1404.000000	0.040136
1403.000000	0.040227
1402.000000	0.040267
1401.000000	0.040286
1400.000000	0.040266
1399.000000	0.040146
1398.000000	0.039931
1397.000000	0.039707
1396.000000	0.039548
1395.000000	0.039461
1394.000000	0.039387
1393.000000	0.039258
1392.000000	0.039068
1391.000000	0.038854
1390.000000	0.038624
1389.000000	0.038371
1388.000000	0.038101
1387.000000	0.037844
1386.000000	0.037639
1385.000000	0.037489
1384.000000	0.037357
1383.000000	0.037197
1382.000000	0.036983
1381.000000	0.036738
1380.000000	0.036499
1379.000000	0.036253
1378.000000	0.035957
1377.000000	0.035588
1376.000000	0.035153
1375.000000	0.034684
1374.000000	0.034249
1373.000000	0.033891
1372.000000	0.033568
1371.000000	0.033223
1370.000000	0.032838
1369.000000	0.032419
1368.000000	0.031992
1367.000000	0.031572
1366.000000	0.031138
1365.000000	0.030665
1364.000000	0.030149
1363.000000	0.029661
1362.000000	0.029306
1361.000000	0.029098
1360.000000	0.028959
1359.000000	0.028841
1358.000000	0.028739
1357.000000	0.028667
1356.000000	0.028633
1355.000000	0.028646
1354.000000	0.028707
1353.000000	0.028813
1352.000000	0.028955
1351.000000	0.029127
1350.000000	0.029331
1349.000000	0.029572
1348.000000	0.029847
1347.000000	0.030147
1346.000000	0.030458
1345.000000	0.030763
1344.000000	0.031038
1343.000000	0.031253
1342.000000	0.031386
1341.000000	0.031453
1340.000000	0.031521
1339.000000	0.031667
1338.000000	0.031882
1337.000000	0.032080
1336.000000	0.032197
1335.000000	0.032217
1334.000000	0.032155
1333.000000	0.032026
1332.000000	0.031844
1331.000000	0.031623
1330.000000	0.031382
1329.000000	0.031140
1328.000000	0.030912
1327.000000	0.030707
1326.000000	0.030527
1325.000000	0.030364
1324.000000	0.030212
1323.000000	0.030066
1322.000000	0.029925
1321.000000	0.029797
1320.000000	0.029694
1319.000000	0.029626
1318.000000	0.029592
1317.000000	0.029571
1316.000000	0.029530
1315.000000	0.029445
1314.000000	0.029310
1313.000000	0.029148
1312.000000	0.028985
1311.000000	0.028835
1310.000000	0.028692
1309.000000	0.028555
1308.000000	0.028422
1307.000000	0.028285
1306.000000	0.028129
1305.000000	0.027952
1304.000000	0.027770
1303.000000	0.027597
1302.000000	0.027434
1301.000000	0.027277
1300.000000	0.027132
1299.000000	0.027007
1298.000000	0.026903
1297.000000	0.026816
1296.000000	0.026761
1295.000000	0.026758
1294.000000	0.026812
1293.000000	0.026909
1292.000000	0.027031
1291.000000	0.027176
1290.000000	0.027348
1289.000000	0.027552
1288.000000	0.027785
1287.000000	0.028035
1286.000000	0.028287
1285.000000	0.028527
1284.000000	0.028743
1283.000000	0.028921
1282.000000	0.029056
1281.000000	0.029153
1280.000000	0.029230
1279.000000	0.029294
1278.000000	0.029341
1277.000000	0.029362
1276.000000	0.029354
1275.000000	0.029311
1274.000000	0.029237
1273.000000	0.029157
1272.000000	0.029113
1271.000000	0.029134
1270.000000	0.029215
1269.000000	0.029329
1268.000000	0.029459
1267.000000	0.029603
1266.000000	0.029759
1265.000000	0.029923
1264.000000	0.030088
1263.000000	0.030255
1262.000000	0.030430
1261.000000	0.030632
1260.000000	0.030875
1259.000000	0.031163
1258.000000	0.031480
1257.000000	0.031799
1256.000000	0.032101
1255.000000	0.032387
1254.000000	0.032678
1253.000000	0.033006
1252.000000	0.033384
1251.000000	0.033798
1250.000000	0.034221
1249.000000	0.034641
1248.000000	0.035065
1247.000000	0.035499
1246.000000	0.035936
1245.000000	0.036360
1244.000000	0.036753
1243.000000	0.037109
1242.000000	0.037436
1241.000000	0.037742
1240.000000	0.038021
1239.000000	0.038256
1238.000000	0.038440
1237.000000	0.038571
1236.000000	0.038641
1235.000000	0.038633
1234.000000	0.038541
1233.000000	0.038375
1232.000000	0.038148
1231.000000	0.037863
1230.000000	0.037520
1229.000000	0.037121
1228.000000	0.036663
1227.000000	0.036139
1226.000000	0.035553
1225.000000	0.034925
1224.000000	0.034272
1223.000000	0.033607
1222.000000	0.032939
1221.000000	0.032287
1220.000000	0.031669
1219.000000	0.031094
1218.000000	0.030571
1217.000000	0.030118
1216.000000	0.029752
1215.000000	0.029477
1214.000000	0.029277
1213.000000	0.029137
1212.000000	0.029054
1211.000000	0.029041
1210.000000	0.029106
1209.000000	0.029235
1208.000000	0.029389
1207.000000	0.029526
1206.000000	0.029631
1205.000000	0.029717
1204.000000	0.029794
1203.000000	0.029845
1202.000000	0.029835
1201.000000	0.029748
1200.000000	0.029587
1199.000000	0.029363
1198.000000	0.029088
1197.000000	0.028778
1196.000000	0.028449
1195.000000	0.028111
1194.000000	0.027767
1193.000000	0.027423
1192.000000	0.027082
1191.000000	0.026743
1190.000000	0.026402
1189.000000	0.026071
1188.000000	0.025776
1187.000000	0.025532
1186.000000	0.025328
1185.000000	0.025146
1184.000000	0.024986
1183.000000	0.024863
1182.000000	0.024782
1181.000000	0.024738
1180.000000	0.024727
1179.000000	0.024750
1178.000000	0.024804
1177.000000	0.024879
1176.000000	0.024969
1175.000000	0.025079
1174.000000	0.025219
1173.000000	0.025393
1172.000000	0.025592
1171.000000	0.025799
1170.000000	0.026003
1169.000000	0.026212
1168.000000	0.026441
1167.000000	0.026687
1166.000000	0.026928
1165.000000	0.027141
1164.000000	0.027326
1163.000000	0.027484
1162.000000	0.027605
1161.000000	0.027673
1160.000000	0.027682
1159.000000	0.027645
1158.000000	0.027570
1157.000000	0.027447
1156.000000	0.027261
1155.000000	0.027010
1154.000000	0.026722
1153.000000	0.026425
1152.000000	0.026129
1151.000000	0.025826
1150.000000	0.025506
1149.000000	0.025171
1148.000000	0.024832
1147.000000	0.024503
1146.000000	0.024192
1145.000000	0.023892
1144.000000	0.023583
1143.000000	0.023240
1142.000000	0.022860
1141.000000	0.022463
1140.000000	0.022074
1139.000000	0.021700
1138.000000	0.021337
1137.000000	0.020988
1136.000000	0.020666
1135.000000	0.020377
1134.000000	0.020115
1133.000000	0.019881
1132.000000	0.019697
1131.000000	0.019575
1130.000000	0.019507
1129.000000	0.019468
1128.000000	0.019451
1127.000000	0.019467
1126.000000	0.019521
1125.000000	0.019608
1124.000000	0.019719
1123.000000	0.019851
1122.000000	0.019994
1121.000000	0.020132
1120.000000	0.020252
1119.000000	0.020347
1118.000000	0.020415
1117.000000	0.020466
1116.000000	0.020510
1115.000000	0.020556
1114.000000	0.020605
1113.000000	0.020658
1112.000000	0.020717
1111.000000	0.020782
1110.000000	0.020846
1109.000000	0.020903
1108.000000	0.020955
1107.000000	0.021009
1106.000000	0.021072
1105.000000	0.021159
1104.000000	0.021283
1103.000000	0.021437
1102.000000	0.021588
1101.000000	0.021709
1100.000000	0.021806
1099.000000	0.021904
1098.000000	0.022006
1097.000000	0.022090
1096.000000	0.022149
1095.000000	0.022212
1094.000000	0.022322
1093.000000	0.022503
1092.000000	0.022755
1091.000000	0.023056
1090.000000	0.023383
1089.000000	0.023720
1088.000000	0.024070
1087.000000	0.024438
1086.000000	0.024828
1085.000000	0.025220
1084.000000	0.025581
1083.000000	0.025870
1082.000000	0.026057
1081.000000	0.026130
1080.000000	0.026098
1079.000000	0.025972
1078.000000	0.025760
1077.000000	0.025470
1076.000000	0.025121
1075.000000	0.024739
1074.000000	0.024350
1073.000000	0.023977
1072.000000	0.023642
1071.000000	0.023361
1070.000000	0.023134
1069.000000	0.022959
1068.000000	0.022845
1067.000000	0.022800
1066.000000	0.022822
1065.000000	0.022881
1064.000000	0.022952
1063.000000	0.023026
1062.000000	0.023094
1061.000000	0.023140
1060.000000	0.023148
1059.000000	0.023123
1058.000000	0.023081
1057.000000	0.023033
1056.000000	0.022976
1055.000000	0.022913
1054.000000	0.022857
1053.000000	0.022818
1052.000000	0.022793
1051.000000	0.022780
1050.000000	0.022777
1049.000000	0.022788
1048.000000	0.022814
1047.000000	0.022853
1046.000000	0.022898
1045.000000	0.022930
1044.000000	0.022941
1043.000000	0.022946
1042.000000	0.022985
1041.000000	0.023088
1040.000000	0.023247
1039.000000	0.023439
1038.000000	0.023663
1037.000000	0.023933
1036.000000	0.024249
1035.000000	0.024581
1034.000000	0.024891
1033.000000	0.025166
1032.000000	0.025406
1031.000000	0.025597
1030.000000	0.025708
1029.000000	0.025718
1028.000000	0.025642
1027.000000	0.025532
1026.000000	0.025436
1025.000000	0.025369
1024.000000	0.025312
1023.000000	0.025246
1022.000000	0.025177
1021.000000	0.025122
1020.000000	0.025086
1019.000000	0.025054
1018.000000	0.024996
1017.000000	0.024885
1016.000000	0.024692
1015.000000	0.024404
1014.000000	0.024031
1013.000000	0.023608
1012.000000	0.023166
1011.000000	0.022716
1010.000000	0.022259
1009.000000	0.021799
1008.000000	0.021350
1007.000000	0.020922
1006.000000	0.020519
1005.000000	0.020144
1004.000000	0.019804
1003.000000	0.019506
1002.000000	0.019234
1001.000000	0.018953
1000.000000	0.018645
999.000000	0.018318
998.000000	0.017997
997.000000	0.017692
996.000000	0.017393
995.000000	0.017094
994.000000	0.016797
993.000000	0.016502
992.000000	0.016199
991.000000	0.015887
990.000000	0.015583
989.000000	0.015298
988.000000	0.015020
987.000000	0.014729
986.000000	0.014432
985.000000	0.014158
984.000000	0.013931
983.000000	0.013751
982.000000	0.013605
981.000000	0.013489
980.000000	0.013396
979.000000	0.013311
978.000000	0.013222
977.000000	0.013127
976.000000	0.013034
975.000000	0.012941
974.000000	0.012830
973.000000	0.012690
972.000000	0.012525
971.000000	0.012353
970.000000	0.012193
969.000000	0.012048
968.000000	0.011901
967.000000	0.011732
966.000000	0.011534
965.000000	0.011323
964.000000	0.011122
963.000000	0.010940
962.000000	0.010759
961.000000	0.010565
960.000000	0.010365
959.000000	0.010179
958.000000	0.010013
957.000000	0.009857
956.000000	0.009703
955.000000	0.009551
954.000000	0.009411
953.000000	0.009287
952.000000	0.009176
951.000000	0.009081
950.000000	0.009013
949.000000	0.008978
948.000000	0.008968
947.000000	0.008958
946.000000	0.008934
945.000000	0.008904
944.000000	0.008882
943.000000	0.008868
942.000000	0.008852
941.000000	0.008827
940.000000	0.008806
939.000000	0.008801
938.000000	0.008812
937.000000	0.008816
936.000000	0.008794
935.000000	0.008743
934.000000	0.008681
933.000000	0.008632
932.000000	0.008600
931.000000	0.008569
930.000000	0.008526
929.000000	0.008473
928.000000	0.008421
927.000000	0.008373
926.000000	0.008326
925.000000	0.008285
924.000000	0.008254
923.000000	0.008230
922.000000	0.008194
921.000000	0.008137
920.000000	0.008066
919.000000	0.007988
918.000000	0.007900
917.000000	0.007791
916.000000	0.007653
915.000000	0.007491
914.000000	0.007321
913.000000	0.007164
912.000000	0.007038
911.000000	0.006937
910.000000	0.006840
909.000000	0.006743
908.000000	0.006664
907.000000	0.006627
906.000000	0.006625
905.000000	0.006630
904.000000	0.006617
903.000000	0.006586
902.000000	0.006540
901.000000	0.006485
900.000000	0.006422
899.000000	0.006359
898.000000	0.006305
897.000000	0.006256
896.000000	0.006204
895.000000	0.006149
894.000000	0.006108
893.000000	0.006101
892.000000	0.006121
891.000000	0.006142
890.000000	0.006145
889.000000	0.006144
888.000000	0.006163
887.000000	0.006213
886.000000	0.006292
885.000000	0.006408
884.000000	0.006573
883.000000	0.006790
882.000000	0.007046
881.000000	0.007338
880.000000	0.007675
879.000000	0.008044
878.000000	0.008397
877.000000	0.008678
876.000000	0.008855
875.000000	0.008919
874.000000	0.008868
873.000000	0.008711
872.000000	0.008467
871.000000	0.008172
870.000000	0.007868
869.000000	0.007601
868.000000	0.007401
867.000000	0.007264
866.000000	0.007153
865.000000	0.007030
864.000000	0.006891
863.000000	0.006762
862.000000	0.006680
861.000000	0.006662
860.000000	0.006696
859.000000	0.006745
858.000000	0.006777
857.000000	0.006786
856.000000	0.006801
855.000000	0.006849
854.000000	0.006930
853.000000	0.007013
852.000000	0.007061
851.000000	0.007060
850.000000	0.007029
849.000000	0.006998
848.000000	0.006976
847.000000	0.006943
846.000000	0.006878
845.000000	0.006790
844.000000	0.006703
843.000000	0.006619
842.000000	0.006527
841.000000	0.006427
840.000000	0.006351
839.000000	0.006322
838.000000	0.006333
837.000000	0.006358
836.000000	0.006373
835.000000	0.006363
834.000000	0.006319
833.000000	0.006246
832.000000	0.006172
831.000000	0.006123
830.000000	0.006102
829.000000	0.006093
828.000000	0.006086
827.000000	0.006083
826.000000	0.006097
825.000000	0.006130
824.000000	0.006173
823.000000	0.006209
822.000000	0.006229
821.000000	0.006242
820.000000	0.006272
819.000000	0.006334
818.000000	0.006410
817.000000	0.006478
816.000000	0.006523
815.000000	0.006538
814.000000	0.006513
813.000000	0.006445
812.000000	0.006356
811.000000	0.006288
810.000000	0.006268
809.000000	0.006282
808.000000	0.006288
807.000000	0.006259
806.000000	0.006209
805.000000	0.006164
804.000000	0.006133
803.000000	0.006104
802.000000	0.006082
801.000000	0.006092
800.000000	0.006153
799.000000	0.006243
798.000000	0.006321
797.000000	0.006370
796.000000	0.006408
795.000000	0.006454
794.000000	0.006504
793.000000	0.006549
792.000000	0.006597
791.000000	0.006666
790.000000	0.006761
789.000000	0.006859
788.000000	0.006929
787.000000	0.006957
786.000000	0.006956
785.000000	0.006959
784.000000	0.006988
783.000000	0.007039
782.000000	0.007089
781.000000	0.007124
780.000000	0.007147
779.000000	0.007167
778.000000	0.007195
777.000000	0.007248
776.000000	0.007333
775.000000	0.007418
774.000000	0.007447
773.000000	0.007393
772.000000	0.007301
771.000000	0.007262
770.000000	0.007333
769.000000	0.007489
768.000000	0.007659
767.000000	0.007791
766.000000	0.007880
765.000000	0.007938
764.000000	0.007968
763.000000	0.007968
762.000000	0.007951
761.000000	0.007938
760.000000	0.007934
759.000000	0.007930
758.000000	0.007936
757.000000	0.007975
756.000000	0.008053
755.000000	0.008136
754.000000	0.008179
753.000000	0.008177
752.000000	0.008161
751.000000	0.008168
750.000000	0.008219
749.000000	0.008316
748.000000	0.008443
747.000000	0.008559
746.000000	0.008637
745.000000	0.008688
744.000000	0.008749
743.000000	0.008841
742.000000	0.008942
741.000000	0.009026
740.000000	0.009110
739.000000	0.009230
738.000000	0.009394
737.000000	0.009572
736.000000	0.009727
735.000000	0.009847
734.000000	0.009940
733.000000	0.010029
732.000000	0.010142
731.000000	0.010308
730.000000	0.010533
729.000000	0.010793
728.000000	0.011055
727.000000	0.011298
726.000000	0.011511
725.000000	0.011686
724.000000	0.011826
723.000000	0.011959
722.000000	0.012115
721.000000	0.012284
720.000000	0.012410
719.000000	0.012451
718.000000	0.012434
717.000000	0.012417
716.000000	0.012436
715.000000	0.012503
714.000000	0.012618
713.000000	0.012766
712.000000	0.012905
711.000000	0.012996
710.000000	0.013050
709.000000	0.013117
708.000000	0.013221
707.000000	0.013341
706.000000	0.013455
705.000000	0.013568
704.000000	0.013672
703.000000	0.013735
702.000000	0.013746
701.000000	0.013746
700.000000	0.013788
699.000000	0.013876
698.000000	0.013977
697.000000	0.014067
696.000000	0.014140
695.000000	0.014191
694.000000	0.014205
693.000000	0.014182
692.000000	0.014148
691.000000	0.014142
690.000000	0.014189
689.000000	0.014282
688.000000	0.014374
687.000000	0.014417
686.000000	0.014411
685.000000	0.014405
684.000000	0.014458
683.000000	0.014580
682.000000	0.014725
681.000000	0.014838
680.000000	0.014899
679.000000	0.014924
678.000000	0.014945
677.000000	0.015024
676.000000	0.015194
675.000000	0.015420
674.000000	0.015612
673.000000	0.015692
672.000000	0.015643
671.000000	0.015492
670.000000	0.015295
669.000000	0.015138
668.000000	0.015221
667.000000	0.015596
666.000000	0.015877
665.000000	0.015997
664.000000	0.016089
663.000000	0.016170
662.000000	0.016200
661.000000	0.016165
660.000000	0.016103
659.000000	0.016037
658.000000	0.015977
657.000000	0.015956
656.000000	0.015991
655.000000	0.016046
654.000000	0.016092
653.000000	0.016141
652.000000	0.016202
651.000000	0.016254
650.000000	0.016302
649.000000	0.016387
648.000000	0.016502
647.000000	0.016552
646.000000	0.016471
645.000000	0.016303
644.000000	0.016148
643.000000	0.016070
642.000000	0.016080
641.000000	0.016150
640.000000	0.016229
639.000000	0.016252
638.000000	0.016209
637.000000	0.016161
636.000000	0.016149
635.000000	0.016153
634.000000	0.016146
633.000000	0.016150
632.000000	0.016200
631.000000	0.016280
630.000000	0.016338
629.000000	0.016348
628.000000	0.016323
627.000000	0.016297
626.000000	0.016322
625.000000	0.016433
624.000000	0.016587
623.000000	0.016696
622.000000	0.016716
621.000000	0.016683
620.000000	0.016651
619.000000	0.016630
618.000000	0.016622
617.000000	0.016660
616.000000	0.016761
615.000000	0.016879
614.000000	0.016939
613.000000	0.016918
612.000000	0.016840
611.000000	0.016731
610.000000	0.016621
609.000000	0.016557
608.000000	0.016581
607.000000	0.016680
606.000000	0.016793
605.000000	0.016845
604.000000	0.016795
603.000000	0.016684
602.000000	0.016618
601.000000	0.016658
600.000000	0.016742
599.000000	0.016752
598.000000	0.016684
597.000000	0.016653
596.000000	0.016713
595.000000	0.016770
594.000000	0.016712
593.000000	0.016587
592.000000	0.016555
591.000000	0.016695
590.000000	0.016921
589.000000	0.017090
588.000000	0.017118
587.000000	0.017009
586.000000	0.016839
585.000000	0.016698
584.000000	0.016613
583.000000	0.016543
582.000000	0.016477
581.000000	0.016489
580.000000	0.016645
579.000000	0.016897
578.000000	0.017126
577.000000	0.017265
576.000000	0.017345
575.000000	0.017424
574.000000	0.017543
573.000000	0.017700
572.000000	0.017847
571.000000	0.017925
570.000000	0.017940
569.000000	0.017959
568.000000	0.018007
567.000000	0.018025
566.000000	0.017984
565.000000	0.017954
564.000000	0.018011
563.000000	0.018132
562.000000	0.018252
561.000000	0.018365
560.000000	0.018478
559.000000	0.018535
558.000000	0.018472
557.000000	0.018323
556.000000	0.018186
555.000000	0.018120
554.000000	0.018134
553.000000	0.018229
552.000000	0.018348
551.000000	0.018362
550.000000	0.018200
549.000000	0.017966
548.000000	0.017821
547.000000	0.017806
546.000000	0.017852
545.000000	0.017910
544.000000	0.017932
543.000000	0.017811
542.000000	0.017476
541.000000	0.017049
540.000000	0.016764
539.000000	0.016729
538.000000	0.016887
537.000000	0.017171
536.000000	0.017568
535.000000	0.018004
534.000000	0.018328
533.000000	0.018481
532.000000	0.018538
531.000000	0.018550
530.000000	0.018457
529.000000	0.018215
528.000000	0.017906
527.000000	0.017669
526.000000	0.017568
525.000000	0.017570
524.000000	0.017595
523.000000	0.017557
522.000000	0.017392
521.000000	0.017081
520.000000	0.016662
519.000000	0.016204
518.000000	0.015781
517.000000	0.015479
516.000000	0.015340
515.000000	0.015312
514.000000	0.015300
513.000000	0.015271
512.000000	0.015248
511.000000	0.015231
510.000000	0.015167
509.000000	0.015023
508.000000	0.014822
507.000000	0.014590
506.000000	0.014326
505.000000	0.014039
504.000000	0.013771
503.000000	0.013542
502.000000	0.013310
501.000000	0.013018
500.000000	0.012675
499.000000	0.012354
498.000000	0.012126
497.000000	0.011999
496.000000	0.011922
495.000000	0.011841
494.000000	0.011773
493.000000	0.011786
492.000000	0.011890
491.000000	0.011979
490.000000	0.011915
489.000000	0.011660
488.000000	0.011276
487.000000	0.010835
486.000000	0.010393
485.000000	0.010064
484.000000	0.009989
483.000000	0.010188
482.000000	0.010487
481.000000	0.010643
480.000000	0.010531
479.000000	0.010212
478.000000	0.009875
477.000000	0.009691
476.000000	0.009689
475.000000	0.009778
474.000000	0.009861
473.000000	0.009909
472.000000	0.009931
471.000000	0.009928
470.000000	0.009947
469.000000	0.010065
468.000000	0.010209
467.000000	0.010148
466.000000	0.009792
465.000000	0.009380
464.000000	0.009176
463.000000	0.009117
462.000000	0.008913
461.000000	0.008460
460.000000	0.007936
459.000000	0.007508
458.000000	0.007198
457.000000	0.007026
456.000000	0.007002
455.000000	0.007028
454.000000	0.006925
453.000000	0.006618
452.000000	0.006270
451.000000	0.006139
450.000000	0.006252
