PE IR       SUBTECH     SPECTRUM    ASCII       PEDS        4.00        
   -1
3C-N10-C036_1.ASC
22/02/16
14:59:09.00
22/02/16
15:05:49.00
uco
Sample 036 By uco Date Wednesday, February 16 2022
450.000000
#HDR
-1
-1
#GR
cm-1
A
1.0
0.0
4000.000000
-1.000000
3551
8
0.072235
0.003354
#DATA
4000.000000	0.006883
3999.000000	0.006795
3998.000000	0.006735
3997.000000	0.006738
3996.000000	0.006781
3995.000000	0.006818
3994.000000	0.006860
3993.000000	0.006930
3992.000000	0.007019
3991.000000	0.007082
3990.000000	0.007102
3989.000000	0.007107
3988.000000	0.007118
3987.000000	0.007113
3986.000000	0.007080
3985.000000	0.007040
3984.000000	0.007011
3983.000000	0.006982
3982.000000	0.006944
3981.000000	0.006908
3980.000000	0.006903
3979.000000	0.006946
3978.000000	0.007020
3977.000000	0.007104
3976.000000	0.007203
3975.000000	0.007317
3974.000000	0.007401
3973.000000	0.007435
3972.000000	0.007440
3971.000000	0.007446
3970.000000	0.007435
3969.000000	0.007381
3968.000000	0.007272
3967.000000	0.007118
3966.000000	0.006952
3965.000000	0.006841
3964.000000	0.006865
3963.000000	0.007026
3962.000000	0.007236
3961.000000	0.007409
3960.000000	0.007517
3959.000000	0.007562
3958.000000	0.007521
3957.000000	0.007442
3956.000000	0.007402
3955.000000	0.007394
3954.000000	0.007365
3953.000000	0.007279
3952.000000	0.007185
3951.000000	0.007169
3950.000000	0.007337
3949.000000	0.007648
3948.000000	0.007841
3947.000000	0.007824
3946.000000	0.007761
3945.000000	0.007837
3944.000000	0.008038
3943.000000	0.008170
3942.000000	0.008171
3941.000000	0.008160
3940.000000	0.008166
3939.000000	0.008077
3938.000000	0.007754
3937.000000	0.007305
3936.000000	0.007013
3935.000000	0.006968
3934.000000	0.007147
3933.000000	0.007481
3932.000000	0.007991
3931.000000	0.008538
3930.000000	0.008780
3929.000000	0.008592
3928.000000	0.008209
3927.000000	0.008051
3926.000000	0.008154
3925.000000	0.008180
3924.000000	0.008113
3923.000000	0.008221
3922.000000	0.008370
3921.000000	0.008190
3920.000000	0.007784
3919.000000	0.007796
3918.000000	0.008299
3917.000000	0.008684
3916.000000	0.008636
3915.000000	0.008440
3914.000000	0.008339
3913.000000	0.008210
3912.000000	0.007960
3911.000000	0.007838
3910.000000	0.007817
3909.000000	0.007744
3908.000000	0.007654
3907.000000	0.007676
3906.000000	0.007872
3905.000000	0.007912
3904.000000	0.007772
3903.000000	0.007958
3902.000000	0.008838
3901.000000	0.010019
3900.000000	0.010547
3899.000000	0.010125
3898.000000	0.009416
3897.000000	0.009003
3896.000000	0.008723
3895.000000	0.008400
3894.000000	0.008254
3893.000000	0.008755
3892.000000	0.009338
3891.000000	0.008844
3890.000000	0.007709
3889.000000	0.007339
3888.000000	0.008048
3887.000000	0.008723
3886.000000	0.008452
3885.000000	0.007571
3884.000000	0.007369
3883.000000	0.008348
3882.000000	0.009570
3881.000000	0.010112
3880.000000	0.009786
3879.000000	0.008989
3878.000000	0.008580
3877.000000	0.008803
3876.000000	0.009045
3875.000000	0.008754
3874.000000	0.008011
3873.000000	0.007790
3872.000000	0.008753
3871.000000	0.009820
3870.000000	0.009379
3869.000000	0.008035
3868.000000	0.007832
3867.000000	0.008991
3866.000000	0.009493
3865.000000	0.008757
3864.000000	0.008406
3863.000000	0.009048
3862.000000	0.009546
3861.000000	0.009480
3860.000000	0.009317
3859.000000	0.009483
3858.000000	0.009794
3857.000000	0.009789
3856.000000	0.009007
3855.000000	0.007266
3854.000000	0.005383
3853.000000	0.003803
3852.000000	0.003354
3851.000000	0.005039
3850.000000	0.007289
3849.000000	0.008523
3848.000000	0.008781
3847.000000	0.008782
3846.000000	0.008620
3845.000000	0.008472
3844.000000	0.008497
3843.000000	0.008454
3842.000000	0.008366
3841.000000	0.008810
3840.000000	0.009438
3839.000000	0.009563
3838.000000	0.009039
3837.000000	0.008276
3836.000000	0.007934
3835.000000	0.008188
3834.000000	0.008799
3833.000000	0.009282
3832.000000	0.009124
3831.000000	0.008439
3830.000000	0.007917
3829.000000	0.008113
3828.000000	0.008802
3827.000000	0.009161
3826.000000	0.008657
3825.000000	0.008103
3824.000000	0.008213
3823.000000	0.008687
3822.000000	0.009117
3821.000000	0.008800
3820.000000	0.007946
3819.000000	0.008063
3818.000000	0.009125
3817.000000	0.009360
3816.000000	0.007981
3815.000000	0.006391
3814.000000	0.006537
3813.000000	0.007952
3812.000000	0.008554
3811.000000	0.007894
3810.000000	0.007284
3809.000000	0.007613
3808.000000	0.008116
3807.000000	0.007476
3806.000000	0.006105
3805.000000	0.005902
3804.000000	0.007118
3803.000000	0.008421
3802.000000	0.008564
3801.000000	0.007328
3800.000000	0.006359
3799.000000	0.007058
3798.000000	0.008502
3797.000000	0.009238
3796.000000	0.009087
3795.000000	0.008662
3794.000000	0.008526
3793.000000	0.008426
3792.000000	0.008067
3791.000000	0.007728
3790.000000	0.007603
3789.000000	0.007458
3788.000000	0.007190
3787.000000	0.007117
3786.000000	0.007490
3785.000000	0.007950
3784.000000	0.008007
3783.000000	0.007839
3782.000000	0.007809
3781.000000	0.007981
3780.000000	0.008156
3779.000000	0.008183
3778.000000	0.008138
3777.000000	0.008281
3776.000000	0.008361
3775.000000	0.007905
3774.000000	0.007165
3773.000000	0.006945
3772.000000	0.007402
3771.000000	0.007854
3770.000000	0.007812
3769.000000	0.007606
3768.000000	0.007741
3767.000000	0.008222
3766.000000	0.008556
3765.000000	0.008292
3764.000000	0.007778
3763.000000	0.007668
3762.000000	0.007771
3761.000000	0.007606
3760.000000	0.007485
3759.000000	0.008043
3758.000000	0.008728
3757.000000	0.008807
3756.000000	0.008568
3755.000000	0.008247
3754.000000	0.007351
3753.000000	0.005777
3752.000000	0.005097
3751.000000	0.006287
3750.000000	0.007307
3749.000000	0.006873
3748.000000	0.006592
3747.000000	0.007781
3746.000000	0.009372
3745.000000	0.009064
3744.000000	0.006459
3743.000000	0.004628
3742.000000	0.005702
3741.000000	0.007661
3740.000000	0.008094
3739.000000	0.007613
3738.000000	0.007498
3737.000000	0.007823
3736.000000	0.008553
3735.000000	0.009800
3734.000000	0.011208
3733.000000	0.011627
3732.000000	0.010504
3731.000000	0.008780
3730.000000	0.007836
3729.000000	0.007947
3728.000000	0.008355
3727.000000	0.008363
3726.000000	0.008199
3725.000000	0.008436
3724.000000	0.008990
3723.000000	0.009247
3722.000000	0.009056
3721.000000	0.008790
3720.000000	0.008692
3719.000000	0.008770
3718.000000	0.008565
3717.000000	0.007876
3716.000000	0.007283
3715.000000	0.006926
3714.000000	0.006429
3713.000000	0.006089
3712.000000	0.006668
3711.000000	0.007990
3710.000000	0.009019
3709.000000	0.009452
3708.000000	0.009472
3707.000000	0.009078
3706.000000	0.008567
3705.000000	0.008250
3704.000000	0.008207
3703.000000	0.008395
3702.000000	0.008552
3701.000000	0.008437
3700.000000	0.008122
3699.000000	0.007968
3698.000000	0.007962
3697.000000	0.007729
3696.000000	0.007452
3695.000000	0.007511
3694.000000	0.007602
3693.000000	0.007320
3692.000000	0.006989
3691.000000	0.007269
3690.000000	0.007991
3689.000000	0.008140
3688.000000	0.007201
3687.000000	0.006374
3686.000000	0.006673
3685.000000	0.007523
3684.000000	0.007859
3683.000000	0.007632
3682.000000	0.007616
3681.000000	0.007814
3680.000000	0.007579
3679.000000	0.006954
3678.000000	0.006949
3677.000000	0.008040
3676.000000	0.009316
3675.000000	0.009234
3674.000000	0.008367
3673.000000	0.008377
3672.000000	0.008752
3671.000000	0.008615
3670.000000	0.008353
3669.000000	0.008318
3668.000000	0.008501
3667.000000	0.008714
3666.000000	0.008619
3665.000000	0.008243
3664.000000	0.007965
3663.000000	0.008040
3662.000000	0.008217
3661.000000	0.008059
3660.000000	0.007764
3659.000000	0.007764
3658.000000	0.008279
3657.000000	0.008713
3656.000000	0.008445
3655.000000	0.007937
3654.000000	0.007995
3653.000000	0.008152
3652.000000	0.007495
3651.000000	0.006959
3650.000000	0.008091
3649.000000	0.010279
3648.000000	0.011620
3647.000000	0.011686
3646.000000	0.011196
3645.000000	0.010630
3644.000000	0.010097
3643.000000	0.009665
3642.000000	0.009336
3641.000000	0.009137
3640.000000	0.009145
3639.000000	0.009154
3638.000000	0.008976
3637.000000	0.008799
3636.000000	0.009010
3635.000000	0.009465
3634.000000	0.009625
3633.000000	0.009483
3632.000000	0.009436
3631.000000	0.009535
3630.000000	0.009960
3629.000000	0.010384
3628.000000	0.009997
3627.000000	0.009777
3626.000000	0.010297
3625.000000	0.010710
3624.000000	0.010516
3623.000000	0.010172
3622.000000	0.010145
3621.000000	0.010376
3620.000000	0.010666
3619.000000	0.010845
3618.000000	0.010682
3617.000000	0.010506
3616.000000	0.010694
3615.000000	0.011126
3614.000000	0.011434
3613.000000	0.011471
3612.000000	0.011366
3611.000000	0.011214
3610.000000	0.011069
3609.000000	0.011140
3608.000000	0.011543
3607.000000	0.012053
3606.000000	0.012278
3605.000000	0.012036
3604.000000	0.011478
3603.000000	0.010980
3602.000000	0.010838
3601.000000	0.010988
3600.000000	0.011266
3599.000000	0.011526
3598.000000	0.011622
3597.000000	0.011590
3596.000000	0.011804
3595.000000	0.012232
3594.000000	0.012539
3593.000000	0.012539
3592.000000	0.012287
3591.000000	0.011878
3590.000000	0.011505
3589.000000	0.011614
3588.000000	0.012534
3587.000000	0.013548
3586.000000	0.013892
3585.000000	0.013683
3584.000000	0.013328
3583.000000	0.012930
3582.000000	0.012582
3581.000000	0.012382
3580.000000	0.012387
3579.000000	0.012495
3578.000000	0.012587
3577.000000	0.012669
3576.000000	0.012829
3575.000000	0.013053
3574.000000	0.013167
3573.000000	0.013092
3572.000000	0.012814
3571.000000	0.012386
3570.000000	0.011995
3569.000000	0.012106
3568.000000	0.013175
3567.000000	0.014844
3566.000000	0.016040
3565.000000	0.016312
3564.000000	0.015966
3563.000000	0.015392
3562.000000	0.014892
3561.000000	0.014658
3560.000000	0.014647
3559.000000	0.014668
3558.000000	0.014564
3557.000000	0.014329
3556.000000	0.014084
3555.000000	0.014024
3554.000000	0.014258
3553.000000	0.014701
3552.000000	0.015097
3551.000000	0.015212
3550.000000	0.015052
3549.000000	0.014811
3548.000000	0.014776
3547.000000	0.015171
3546.000000	0.015864
3545.000000	0.016455
3544.000000	0.016703
3543.000000	0.016631
3542.000000	0.016355
3541.000000	0.016014
3540.000000	0.015764
3539.000000	0.015715
3538.000000	0.015860
3537.000000	0.016117
3536.000000	0.016398
3535.000000	0.016568
3534.000000	0.016547
3533.000000	0.016375
3532.000000	0.016222
3531.000000	0.016235
3530.000000	0.016427
3529.000000	0.016705
3528.000000	0.016971
3527.000000	0.017179
3526.000000	0.017352
3525.000000	0.017572
3524.000000	0.017903
3523.000000	0.018249
3522.000000	0.018400
3521.000000	0.018288
3520.000000	0.018072
3519.000000	0.017909
3518.000000	0.017828
3517.000000	0.017802
3516.000000	0.017838
3515.000000	0.017879
3514.000000	0.017856
3513.000000	0.017820
3512.000000	0.017905
3511.000000	0.018158
3510.000000	0.018482
3509.000000	0.018709
3508.000000	0.018752
3507.000000	0.018643
3506.000000	0.018499
3505.000000	0.018503
3504.000000	0.018819
3503.000000	0.019351
3502.000000	0.019769
3501.000000	0.019867
3500.000000	0.019734
3499.000000	0.019568
3498.000000	0.019474
3497.000000	0.019479
3496.000000	0.019588
3495.000000	0.019738
3494.000000	0.019821
3493.000000	0.019801
3492.000000	0.019743
3491.000000	0.019713
3490.000000	0.019742
3489.000000	0.019862
3488.000000	0.020071
3487.000000	0.020289
3486.000000	0.020412
3485.000000	0.020438
3484.000000	0.020476
3483.000000	0.020592
3482.000000	0.020755
3481.000000	0.020904
3480.000000	0.021014
3479.000000	0.021069
3478.000000	0.021042
3477.000000	0.020975
3476.000000	0.020954
3475.000000	0.021006
3474.000000	0.021065
3473.000000	0.021089
3472.000000	0.021115
3471.000000	0.021165
3470.000000	0.021230
3469.000000	0.021334
3468.000000	0.021489
3467.000000	0.021631
3466.000000	0.021679
3465.000000	0.021653
3464.000000	0.021653
3463.000000	0.021734
3462.000000	0.021876
3461.000000	0.022042
3460.000000	0.022206
3459.000000	0.022314
3458.000000	0.022335
3457.000000	0.022312
3456.000000	0.022318
3455.000000	0.022368
3454.000000	0.022441
3453.000000	0.022492
3452.000000	0.022491
3451.000000	0.022454
3450.000000	0.022456
3449.000000	0.022590
3448.000000	0.022862
3447.000000	0.023168
3446.000000	0.023384
3445.000000	0.023483
3444.000000	0.023522
3443.000000	0.023549
3442.000000	0.023572
3441.000000	0.023595
3440.000000	0.023624
3439.000000	0.023658
3438.000000	0.023697
3437.000000	0.023744
3436.000000	0.023801
3435.000000	0.023868
3434.000000	0.023952
3433.000000	0.024049
3432.000000	0.024155
3431.000000	0.024277
3430.000000	0.024405
3429.000000	0.024512
3428.000000	0.024587
3427.000000	0.024650
3426.000000	0.024707
3425.000000	0.024742
3424.000000	0.024769
3423.000000	0.024834
3422.000000	0.024969
3421.000000	0.025154
3420.000000	0.025336
3419.000000	0.025464
3418.000000	0.025506
3417.000000	0.025462
3416.000000	0.025387
3415.000000	0.025357
3414.000000	0.025403
3413.000000	0.025499
3412.000000	0.025613
3411.000000	0.025729
3410.000000	0.025835
3409.000000	0.025921
3408.000000	0.026003
3407.000000	0.026095
3406.000000	0.026172
3405.000000	0.026215
3404.000000	0.026254
3403.000000	0.026330
3402.000000	0.026440
3401.000000	0.026565
3400.000000	0.026720
3399.000000	0.026898
3398.000000	0.027031
3397.000000	0.027064
3396.000000	0.027029
3395.000000	0.027011
3394.000000	0.027064
3393.000000	0.027183
3392.000000	0.027328
3391.000000	0.027448
3390.000000	0.027505
3389.000000	0.027514
3388.000000	0.027532
3387.000000	0.027590
3386.000000	0.027658
3385.000000	0.027705
3384.000000	0.027737
3383.000000	0.027766
3382.000000	0.027787
3381.000000	0.027813
3380.000000	0.027880
3379.000000	0.027996
3378.000000	0.028124
3377.000000	0.028234
3376.000000	0.028322
3375.000000	0.028379
3374.000000	0.028394
3373.000000	0.028400
3372.000000	0.028465
3371.000000	0.028608
3370.000000	0.028787
3369.000000	0.028963
3368.000000	0.029127
3367.000000	0.029260
3366.000000	0.029338
3365.000000	0.029378
3364.000000	0.029438
3363.000000	0.029553
3362.000000	0.029704
3361.000000	0.029857
3360.000000	0.029984
3359.000000	0.030070
3358.000000	0.030124
3357.000000	0.030185
3356.000000	0.030284
3355.000000	0.030399
3354.000000	0.030487
3353.000000	0.030556
3352.000000	0.030658
3351.000000	0.030811
3350.000000	0.030977
3349.000000	0.031129
3348.000000	0.031269
3347.000000	0.031393
3346.000000	0.031486
3345.000000	0.031555
3344.000000	0.031638
3343.000000	0.031742
3342.000000	0.031840
3341.000000	0.031921
3340.000000	0.032008
3339.000000	0.032124
3338.000000	0.032265
3337.000000	0.032427
3336.000000	0.032610
3335.000000	0.032788
3334.000000	0.032920
3333.000000	0.032990
3332.000000	0.033026
3331.000000	0.033062
3330.000000	0.033109
3329.000000	0.033168
3328.000000	0.033242
3327.000000	0.033333
3326.000000	0.033433
3325.000000	0.033544
3324.000000	0.033674
3323.000000	0.033802
3322.000000	0.033896
3321.000000	0.033951
3320.000000	0.033998
3319.000000	0.034061
3318.000000	0.034133
3317.000000	0.034201
3316.000000	0.034266
3315.000000	0.034328
3314.000000	0.034386
3313.000000	0.034436
3312.000000	0.034473
3311.000000	0.034498
3310.000000	0.034533
3309.000000	0.034610
3308.000000	0.034730
3307.000000	0.034843
3306.000000	0.034903
3305.000000	0.034926
3304.000000	0.034962
3303.000000	0.035030
3302.000000	0.035108
3301.000000	0.035177
3300.000000	0.035228
3299.000000	0.035255
3298.000000	0.035257
3297.000000	0.035256
3296.000000	0.035276
3295.000000	0.035311
3294.000000	0.035339
3293.000000	0.035360
3292.000000	0.035389
3291.000000	0.035409
3290.000000	0.035399
3289.000000	0.035366
3288.000000	0.035337
3287.000000	0.035326
3286.000000	0.035329
3285.000000	0.035355
3284.000000	0.035409
3283.000000	0.035463
3282.000000	0.035469
3281.000000	0.035434
3280.000000	0.035398
3279.000000	0.035364
3278.000000	0.035296
3277.000000	0.035188
3276.000000	0.035085
3275.000000	0.035024
3274.000000	0.034997
3273.000000	0.034984
3272.000000	0.034978
3271.000000	0.034977
3270.000000	0.034972
3269.000000	0.034960
3268.000000	0.034943
3267.000000	0.034910
3266.000000	0.034844
3265.000000	0.034756
3264.000000	0.034676
3263.000000	0.034608
3262.000000	0.034530
3261.000000	0.034439
3260.000000	0.034347
3259.000000	0.034243
3258.000000	0.034134
3257.000000	0.034070
3256.000000	0.034096
3255.000000	0.034170
3254.000000	0.034201
3253.000000	0.034139
3252.000000	0.034019
3251.000000	0.033878
3250.000000	0.033723
3249.000000	0.033563
3248.000000	0.033433
3247.000000	0.033366
3246.000000	0.033365
3245.000000	0.033403
3244.000000	0.033439
3243.000000	0.033419
3242.000000	0.033321
3241.000000	0.033190
3240.000000	0.033087
3239.000000	0.033016
3238.000000	0.032948
3237.000000	0.032873
3236.000000	0.032801
3235.000000	0.032738
3234.000000	0.032677
3233.000000	0.032623
3232.000000	0.032587
3231.000000	0.032556
3230.000000	0.032520
3229.000000	0.032493
3228.000000	0.032477
3227.000000	0.032441
3226.000000	0.032366
3225.000000	0.032282
3224.000000	0.032226
3223.000000	0.032175
3222.000000	0.032089
3221.000000	0.031990
3220.000000	0.031929
3219.000000	0.031900
3218.000000	0.031856
3217.000000	0.031799
3216.000000	0.031773
3215.000000	0.031784
3214.000000	0.031786
3213.000000	0.031741
3212.000000	0.031659
3211.000000	0.031578
3210.000000	0.031531
3209.000000	0.031530
3208.000000	0.031548
3207.000000	0.031535
3206.000000	0.031465
3205.000000	0.031360
3204.000000	0.031262
3203.000000	0.031180
3202.000000	0.031096
3201.000000	0.031006
3200.000000	0.030919
3199.000000	0.030845
3198.000000	0.030795
3197.000000	0.030763
3196.000000	0.030716
3195.000000	0.030620
3194.000000	0.030491
3193.000000	0.030380
3192.000000	0.030310
3191.000000	0.030238
3190.000000	0.030135
3189.000000	0.030021
3188.000000	0.029936
3187.000000	0.029888
3186.000000	0.029873
3185.000000	0.029889
3184.000000	0.029895
3183.000000	0.029821
3182.000000	0.029663
3181.000000	0.029493
3180.000000	0.029383
3179.000000	0.029330
3178.000000	0.029299
3177.000000	0.029265
3176.000000	0.029205
3175.000000	0.029090
3174.000000	0.028934
3173.000000	0.028795
3172.000000	0.028705
3171.000000	0.028627
3170.000000	0.028510
3169.000000	0.028369
3168.000000	0.028251
3167.000000	0.028176
3166.000000	0.028129
3165.000000	0.028093
3164.000000	0.028040
3163.000000	0.027949
3162.000000	0.027841
3161.000000	0.027758
3160.000000	0.027703
3159.000000	0.027641
3158.000000	0.027554
3157.000000	0.027448
3156.000000	0.027319
3155.000000	0.027161
3154.000000	0.027017
3153.000000	0.026953
3152.000000	0.026968
3151.000000	0.026991
3150.000000	0.026972
3149.000000	0.026924
3148.000000	0.026869
3147.000000	0.026790
3146.000000	0.026678
3145.000000	0.026560
3144.000000	0.026459
3143.000000	0.026361
3142.000000	0.026260
3141.000000	0.026189
3140.000000	0.026171
3139.000000	0.026172
3138.000000	0.026150
3137.000000	0.026103
3136.000000	0.026048
3135.000000	0.025988
3134.000000	0.025939
3133.000000	0.025927
3132.000000	0.025931
3131.000000	0.025890
3130.000000	0.025786
3129.000000	0.025671
3128.000000	0.025578
3127.000000	0.025484
3126.000000	0.025374
3125.000000	0.025273
3124.000000	0.025209
3123.000000	0.025184
3122.000000	0.025181
3121.000000	0.025188
3120.000000	0.025184
3119.000000	0.025155
3118.000000	0.025131
3117.000000	0.025159
3116.000000	0.025232
3115.000000	0.025284
3114.000000	0.025284
3113.000000	0.025253
3112.000000	0.025211
3111.000000	0.025155
3110.000000	0.025106
3109.000000	0.025098
3108.000000	0.025119
3107.000000	0.025121
3106.000000	0.025093
3105.000000	0.025064
3104.000000	0.025050
3103.000000	0.025057
3102.000000	0.025094
3101.000000	0.025158
3100.000000	0.025211
3099.000000	0.025209
3098.000000	0.025166
3097.000000	0.025152
3096.000000	0.025202
3095.000000	0.025276
3094.000000	0.025312
3093.000000	0.025298
3092.000000	0.025255
3091.000000	0.025207
3090.000000	0.025170
3089.000000	0.025152
3088.000000	0.025148
3087.000000	0.025150
3086.000000	0.025162
3085.000000	0.025194
3084.000000	0.025229
3083.000000	0.025242
3082.000000	0.025233
3081.000000	0.025230
3080.000000	0.025245
3079.000000	0.025264
3078.000000	0.025277
3077.000000	0.025284
3076.000000	0.025272
3075.000000	0.025221
3074.000000	0.025148
3073.000000	0.025088
3072.000000	0.025052
3071.000000	0.025022
3070.000000	0.024996
3069.000000	0.024990
3068.000000	0.025008
3067.000000	0.025037
3066.000000	0.025067
3065.000000	0.025103
3064.000000	0.025128
3063.000000	0.025110
3062.000000	0.025039
3061.000000	0.024938
3060.000000	0.024833
3059.000000	0.024738
3058.000000	0.024668
3057.000000	0.024638
3056.000000	0.024633
3055.000000	0.024609
3054.000000	0.024538
3053.000000	0.024435
3052.000000	0.024328
3051.000000	0.024230
3050.000000	0.024139
3049.000000	0.024057
3048.000000	0.023975
3047.000000	0.023877
3046.000000	0.023763
3045.000000	0.023656
3044.000000	0.023569
3043.000000	0.023490
3042.000000	0.023412
3041.000000	0.023340
3040.000000	0.023270
3039.000000	0.023168
3038.000000	0.023029
3037.000000	0.022894
3036.000000	0.022807
3035.000000	0.022758
3034.000000	0.022712
3033.000000	0.022670
3032.000000	0.022652
3031.000000	0.022636
3030.000000	0.022573
3029.000000	0.022442
3028.000000	0.022267
3027.000000	0.022095
3026.000000	0.021967
3025.000000	0.021897
3024.000000	0.021858
3023.000000	0.021809
3022.000000	0.021730
3021.000000	0.021643
3020.000000	0.021584
3019.000000	0.021576
3018.000000	0.021615
3017.000000	0.021678
3016.000000	0.021737
3015.000000	0.021778
3014.000000	0.021809
3013.000000	0.021845
3012.000000	0.021884
3011.000000	0.021903
3010.000000	0.021881
3009.000000	0.021811
3008.000000	0.021704
3007.000000	0.021587
3006.000000	0.021503
3005.000000	0.021477
3004.000000	0.021483
3003.000000	0.021474
3002.000000	0.021430
3001.000000	0.021373
3000.000000	0.021336
2999.000000	0.021335
2998.000000	0.021369
2997.000000	0.021430
2996.000000	0.021497
2995.000000	0.021538
2994.000000	0.021552
2993.000000	0.021563
2992.000000	0.021596
2991.000000	0.021653
2990.000000	0.021736
2989.000000	0.021841
2988.000000	0.021943
2987.000000	0.022005
2986.000000	0.022025
2985.000000	0.022049
2984.000000	0.022120
2983.000000	0.022228
2982.000000	0.022338
2981.000000	0.022425
2980.000000	0.022487
2979.000000	0.022533
2978.000000	0.022573
2977.000000	0.022615
2976.000000	0.022648
2975.000000	0.022655
2974.000000	0.022631
2973.000000	0.022597
2972.000000	0.022583
2971.000000	0.022617
2970.000000	0.022720
2969.000000	0.022892
2968.000000	0.023101
2967.000000	0.023309
2966.000000	0.023512
2965.000000	0.023731
2964.000000	0.023962
2963.000000	0.024170
2962.000000	0.024340
2961.000000	0.024490
2960.000000	0.024640
2959.000000	0.024789
2958.000000	0.024927
2957.000000	0.025053
2956.000000	0.025161
2955.000000	0.025245
2954.000000	0.025304
2953.000000	0.025337
2952.000000	0.025329
2951.000000	0.025275
2950.000000	0.025204
2949.000000	0.025155
2948.000000	0.025129
2947.000000	0.025104
2946.000000	0.025084
2945.000000	0.025108
2944.000000	0.025191
2943.000000	0.025303
2942.000000	0.025409
2941.000000	0.025510
2940.000000	0.025628
2939.000000	0.025786
2938.000000	0.025999
2937.000000	0.026266
2936.000000	0.026556
2935.000000	0.026825
2934.000000	0.027056
2933.000000	0.027251
2932.000000	0.027416
2931.000000	0.027570
2930.000000	0.027761
2929.000000	0.028038
2928.000000	0.028400
2927.000000	0.028802
2926.000000	0.029207
2925.000000	0.029604
2924.000000	0.029970
2923.000000	0.030275
2922.000000	0.030504
2921.000000	0.030653
2920.000000	0.030711
2919.000000	0.030656
2918.000000	0.030487
2917.000000	0.030218
2916.000000	0.029850
2915.000000	0.029392
2914.000000	0.028886
2913.000000	0.028387
2912.000000	0.027915
2911.000000	0.027463
2910.000000	0.027046
2909.000000	0.026693
2908.000000	0.026407
2907.000000	0.026158
2906.000000	0.025924
2905.000000	0.025712
2904.000000	0.025521
2903.000000	0.025341
2902.000000	0.025176
2901.000000	0.025032
2900.000000	0.024898
2899.000000	0.024760
2898.000000	0.024636
2897.000000	0.024553
2896.000000	0.024500
2895.000000	0.024432
2894.000000	0.024336
2893.000000	0.024235
2892.000000	0.024152
2891.000000	0.024077
2890.000000	0.023996
2889.000000	0.023921
2888.000000	0.023864
2887.000000	0.023825
2886.000000	0.023792
2885.000000	0.023754
2884.000000	0.023704
2883.000000	0.023649
2882.000000	0.023615
2881.000000	0.023609
2880.000000	0.023599
2879.000000	0.023549
2878.000000	0.023465
2877.000000	0.023384
2876.000000	0.023326
2875.000000	0.023285
2874.000000	0.023261
2873.000000	0.023249
2872.000000	0.023223
2871.000000	0.023151
2870.000000	0.023033
2869.000000	0.022900
2868.000000	0.022764
2867.000000	0.022626
2866.000000	0.022506
2865.000000	0.022452
2864.000000	0.022491
2863.000000	0.022621
2862.000000	0.022828
2861.000000	0.023081
2860.000000	0.023337
2859.000000	0.023557
2858.000000	0.023753
2857.000000	0.023959
2856.000000	0.024185
2855.000000	0.024411
2854.000000	0.024623
2853.000000	0.024815
2852.000000	0.024963
2851.000000	0.025033
2850.000000	0.025003
2849.000000	0.024865
2848.000000	0.024600
2847.000000	0.024212
2846.000000	0.023755
2845.000000	0.023305
2844.000000	0.022902
2843.000000	0.022540
2842.000000	0.022217
2841.000000	0.021941
2840.000000	0.021703
2839.000000	0.021484
2838.000000	0.021290
2837.000000	0.021138
2836.000000	0.021021
2835.000000	0.020910
2834.000000	0.020801
2833.000000	0.020717
2832.000000	0.020658
2831.000000	0.020594
2830.000000	0.020506
2829.000000	0.020409
2828.000000	0.020327
2827.000000	0.020266
2826.000000	0.020227
2825.000000	0.020202
2824.000000	0.020177
2823.000000	0.020143
2822.000000	0.020101
2821.000000	0.020050
2820.000000	0.019972
2819.000000	0.019864
2818.000000	0.019764
2817.000000	0.019708
2816.000000	0.019688
2815.000000	0.019661
2814.000000	0.019611
2813.000000	0.019557
2812.000000	0.019506
2811.000000	0.019457
2810.000000	0.019412
2809.000000	0.019384
2808.000000	0.019361
2807.000000	0.019323
2806.000000	0.019265
2805.000000	0.019197
2804.000000	0.019131
2803.000000	0.019078
2802.000000	0.019062
2801.000000	0.019087
2800.000000	0.019116
2799.000000	0.019108
2798.000000	0.019070
2797.000000	0.019040
2796.000000	0.019030
2795.000000	0.019018
2794.000000	0.018988
2793.000000	0.018946
2792.000000	0.018898
2791.000000	0.018851
2790.000000	0.018827
2789.000000	0.018839
2788.000000	0.018861
2787.000000	0.018853
2786.000000	0.018812
2785.000000	0.018768
2784.000000	0.018732
2783.000000	0.018692
2782.000000	0.018644
2781.000000	0.018597
2780.000000	0.018555
2779.000000	0.018512
2778.000000	0.018472
2777.000000	0.018442
2776.000000	0.018417
2775.000000	0.018389
2774.000000	0.018364
2773.000000	0.018350
2772.000000	0.018330
2771.000000	0.018283
2770.000000	0.018224
2769.000000	0.018183
2768.000000	0.018165
2767.000000	0.018156
2766.000000	0.018149
2765.000000	0.018150
2764.000000	0.018150
2763.000000	0.018135
2762.000000	0.018105
2761.000000	0.018075
2760.000000	0.018047
2759.000000	0.018014
2758.000000	0.017986
2757.000000	0.017971
2756.000000	0.017959
2755.000000	0.017931
2754.000000	0.017887
2753.000000	0.017845
2752.000000	0.017810
2751.000000	0.017773
2750.000000	0.017728
2749.000000	0.017677
2748.000000	0.017628
2747.000000	0.017602
2746.000000	0.017622
2745.000000	0.017678
2744.000000	0.017721
2743.000000	0.017715
2742.000000	0.017682
2741.000000	0.017658
2740.000000	0.017648
2739.000000	0.017634
2738.000000	0.017608
2737.000000	0.017573
2736.000000	0.017525
2735.000000	0.017474
2734.000000	0.017451
2733.000000	0.017469
2732.000000	0.017486
2731.000000	0.017460
2730.000000	0.017414
2729.000000	0.017397
2728.000000	0.017408
2727.000000	0.017409
2726.000000	0.017379
2725.000000	0.017332
2724.000000	0.017281
2723.000000	0.017231
2722.000000	0.017208
2721.000000	0.017234
2720.000000	0.017289
2719.000000	0.017319
2718.000000	0.017301
2717.000000	0.017254
2716.000000	0.017205
2715.000000	0.017165
2714.000000	0.017138
2713.000000	0.017127
2712.000000	0.017116
2711.000000	0.017096
2710.000000	0.017076
2709.000000	0.017069
2708.000000	0.017063
2707.000000	0.017042
2706.000000	0.017021
2705.000000	0.017016
2704.000000	0.017011
2703.000000	0.016988
2702.000000	0.016956
2701.000000	0.016937
2700.000000	0.016928
2699.000000	0.016906
2698.000000	0.016876
2697.000000	0.016857
2696.000000	0.016847
2695.000000	0.016833
2694.000000	0.016821
2693.000000	0.016827
2692.000000	0.016843
2691.000000	0.016846
2690.000000	0.016834
2689.000000	0.016822
2688.000000	0.016812
2687.000000	0.016794
2686.000000	0.016778
2685.000000	0.016782
2684.000000	0.016800
2683.000000	0.016808
2682.000000	0.016799
2681.000000	0.016780
2680.000000	0.016750
2679.000000	0.016708
2678.000000	0.016670
2677.000000	0.016657
2676.000000	0.016657
2675.000000	0.016645
2674.000000	0.016618
2673.000000	0.016585
2672.000000	0.016548
2671.000000	0.016507
2670.000000	0.016473
2669.000000	0.016453
2668.000000	0.016431
2667.000000	0.016389
2666.000000	0.016329
2665.000000	0.016251
2664.000000	0.016127
2663.000000	0.015934
2662.000000	0.015704
2661.000000	0.015495
2660.000000	0.015332
2659.000000	0.015202
2658.000000	0.015090
2657.000000	0.014993
2656.000000	0.014903
2655.000000	0.014803
2654.000000	0.014696
2653.000000	0.014590
2652.000000	0.014490
2651.000000	0.014401
2650.000000	0.014344
2649.000000	0.014319
2648.000000	0.014291
2647.000000	0.014226
2646.000000	0.014137
2645.000000	0.014051
2644.000000	0.013977
2643.000000	0.013921
2642.000000	0.013907
2641.000000	0.013942
2640.000000	0.013982
2639.000000	0.013978
2638.000000	0.013935
2637.000000	0.013889
2636.000000	0.013844
2635.000000	0.013791
2634.000000	0.013742
2633.000000	0.013721
2632.000000	0.013719
2631.000000	0.013701
2630.000000	0.013660
2629.000000	0.013610
2628.000000	0.013563
2627.000000	0.013532
2626.000000	0.013547
2625.000000	0.013599
2624.000000	0.013627
2623.000000	0.013586
2622.000000	0.013503
2621.000000	0.013440
2620.000000	0.013414
2619.000000	0.013407
2618.000000	0.013419
2617.000000	0.013450
2616.000000	0.013474
2615.000000	0.013475
2614.000000	0.013478
2613.000000	0.013493
2612.000000	0.013483
2611.000000	0.013434
2610.000000	0.013412
2609.000000	0.013481
2608.000000	0.013601
2607.000000	0.013675
2606.000000	0.013673
2605.000000	0.013640
2604.000000	0.013613
2603.000000	0.013598
2602.000000	0.013607
2601.000000	0.013643
2600.000000	0.013658
2599.000000	0.013604
2598.000000	0.013509
2597.000000	0.013451
2596.000000	0.013464
2595.000000	0.013518
2594.000000	0.013576
2593.000000	0.013620
2592.000000	0.013632
2591.000000	0.013618
2590.000000	0.013611
2589.000000	0.013615
2588.000000	0.013592
2587.000000	0.013527
2586.000000	0.013484
2585.000000	0.013517
2584.000000	0.013589
2583.000000	0.013635
2582.000000	0.013656
2581.000000	0.013683
2580.000000	0.013704
2579.000000	0.013701
2578.000000	0.013707
2577.000000	0.013759
2576.000000	0.013816
2575.000000	0.013815
2574.000000	0.013766
2573.000000	0.013717
2572.000000	0.013676
2571.000000	0.013618
2570.000000	0.013551
2569.000000	0.013504
2568.000000	0.013488
2567.000000	0.013520
2566.000000	0.013627
2565.000000	0.013786
2564.000000	0.013900
2563.000000	0.013908
2562.000000	0.013865
2561.000000	0.013841
2560.000000	0.013821
2559.000000	0.013766
2558.000000	0.013709
2557.000000	0.013698
2556.000000	0.013702
2555.000000	0.013676
2554.000000	0.013661
2553.000000	0.013715
2552.000000	0.013800
2551.000000	0.013834
2550.000000	0.013816
2549.000000	0.013814
2548.000000	0.013846
2547.000000	0.013869
2546.000000	0.013862
2545.000000	0.013831
2544.000000	0.013779
2543.000000	0.013730
2542.000000	0.013746
2541.000000	0.013845
2540.000000	0.013942
2539.000000	0.013948
2538.000000	0.013890
2537.000000	0.013848
2536.000000	0.013838
2535.000000	0.013818
2534.000000	0.013779
2533.000000	0.013729
2532.000000	0.013661
2531.000000	0.013589
2530.000000	0.013583
2529.000000	0.013669
2528.000000	0.013765
2527.000000	0.013787
2526.000000	0.013774
2525.000000	0.013809
2524.000000	0.013890
2523.000000	0.013959
2522.000000	0.013994
2521.000000	0.013997
2520.000000	0.013934
2519.000000	0.013797
2518.000000	0.013677
2517.000000	0.013669
2516.000000	0.013748
2515.000000	0.013820
2514.000000	0.013861
2513.000000	0.013907
2512.000000	0.013956
2511.000000	0.013975
2510.000000	0.013965
2509.000000	0.013952
2508.000000	0.013925
2507.000000	0.013876
2506.000000	0.013848
2505.000000	0.013879
2504.000000	0.013926
2503.000000	0.013923
2502.000000	0.013874
2501.000000	0.013817
2500.000000	0.013756
2499.000000	0.013694
2498.000000	0.013684
2497.000000	0.013763
2496.000000	0.013873
2495.000000	0.013925
2494.000000	0.013909
2493.000000	0.013861
2492.000000	0.013781
2491.000000	0.013660
2490.000000	0.013547
2489.000000	0.013499
2488.000000	0.013513
2487.000000	0.013560
2486.000000	0.013639
2485.000000	0.013734
2484.000000	0.013776
2483.000000	0.013736
2482.000000	0.013681
2481.000000	0.013685
2480.000000	0.013731
2479.000000	0.013766
2478.000000	0.013791
2477.000000	0.013815
2476.000000	0.013801
2475.000000	0.013726
2474.000000	0.013642
2473.000000	0.013596
2472.000000	0.013557
2471.000000	0.013498
2470.000000	0.013471
2469.000000	0.013523
2468.000000	0.013590
2467.000000	0.013584
2466.000000	0.013519
2465.000000	0.013467
2464.000000	0.013455
2463.000000	0.013467
2462.000000	0.013500
2461.000000	0.013534
2460.000000	0.013504
2459.000000	0.013390
2458.000000	0.013277
2457.000000	0.013233
2456.000000	0.013218
2455.000000	0.013172
2454.000000	0.013116
2453.000000	0.013090
2452.000000	0.013062
2451.000000	0.012993
2450.000000	0.012936
2449.000000	0.012943
2448.000000	0.012970
2447.000000	0.012962
2446.000000	0.012979
2445.000000	0.013097
2444.000000	0.013264
2443.000000	0.013368
2442.000000	0.013400
2441.000000	0.013442
2440.000000	0.013526
2439.000000	0.013606
2438.000000	0.013638
2437.000000	0.013610
2436.000000	0.013522
2435.000000	0.013430
2434.000000	0.013440
2433.000000	0.013583
2432.000000	0.013748
2431.000000	0.013826
2430.000000	0.013847
2429.000000	0.013890
2428.000000	0.013936
2427.000000	0.013922
2426.000000	0.013866
2425.000000	0.013828
2424.000000	0.013810
2423.000000	0.013785
2422.000000	0.013784
2421.000000	0.013840
2420.000000	0.013901
2419.000000	0.013898
2418.000000	0.013851
2417.000000	0.013827
2416.000000	0.013832
2415.000000	0.013830
2414.000000	0.013822
2413.000000	0.013819
2412.000000	0.013792
2411.000000	0.013728
2410.000000	0.013698
2409.000000	0.013769
2408.000000	0.013903
2407.000000	0.014032
2406.000000	0.014150
2405.000000	0.014264
2404.000000	0.014332
2403.000000	0.014336
2402.000000	0.014344
2401.000000	0.014404
2400.000000	0.014450
2399.000000	0.014415
2398.000000	0.014352
2397.000000	0.014336
2396.000000	0.014338
2395.000000	0.014291
2394.000000	0.014243
2393.000000	0.014278
2392.000000	0.014372
2391.000000	0.014424
2390.000000	0.014417
2389.000000	0.014416
2388.000000	0.014441
2387.000000	0.014450
2386.000000	0.014435
2385.000000	0.014432
2384.000000	0.014436
2383.000000	0.014433
2382.000000	0.014456
2381.000000	0.014543
2380.000000	0.014645
2379.000000	0.014650
2378.000000	0.014532
2377.000000	0.014340
2376.000000	0.014111
2375.000000	0.013882
2374.000000	0.013748
2373.000000	0.013778
2372.000000	0.013875
2371.000000	0.013887
2370.000000	0.013821
2369.000000	0.013800
2368.000000	0.013814
2367.000000	0.013755
2366.000000	0.013650
2365.000000	0.013595
2364.000000	0.013531
2363.000000	0.013292
2362.000000	0.012935
2361.000000	0.012728
2360.000000	0.012750
2359.000000	0.012846
2358.000000	0.012919
2357.000000	0.013080
2356.000000	0.013457
2355.000000	0.014058
2354.000000	0.014876
2353.000000	0.015637
2352.000000	0.015611
2351.000000	0.014050
2350.000000	0.011122
2349.000000	0.008140
2348.000000	0.006881
2347.000000	0.008488
2346.000000	0.012347
2345.000000	0.016170
2344.000000	0.017846
2343.000000	0.017237
2342.000000	0.015711
2341.000000	0.014380
2340.000000	0.013426
2339.000000	0.012655
2338.000000	0.012040
2337.000000	0.011591
2336.000000	0.011225
2335.000000	0.010930
2334.000000	0.010847
2333.000000	0.011087
2332.000000	0.011520
2331.000000	0.011880
2330.000000	0.011921
2329.000000	0.011532
2328.000000	0.010682
2327.000000	0.009525
2326.000000	0.008338
2325.000000	0.007483
2324.000000	0.007193
2323.000000	0.007460
2322.000000	0.008038
2321.000000	0.008574
2320.000000	0.008868
2319.000000	0.008933
2318.000000	0.008915
2317.000000	0.008949
2316.000000	0.009126
2315.000000	0.009512
2314.000000	0.010031
2313.000000	0.010475
2312.000000	0.010623
2311.000000	0.010501
2310.000000	0.010283
2309.000000	0.010107
2308.000000	0.009954
2307.000000	0.009826
2306.000000	0.009769
2305.000000	0.009798
2304.000000	0.009840
2303.000000	0.009869
2302.000000	0.009923
2301.000000	0.010006
2300.000000	0.010044
2299.000000	0.010025
2298.000000	0.010015
2297.000000	0.010060
2296.000000	0.010103
2295.000000	0.010110
2294.000000	0.010104
2293.000000	0.010080
2292.000000	0.009968
2291.000000	0.009770
2290.000000	0.009591
2289.000000	0.009494
2288.000000	0.009414
2287.000000	0.009292
2286.000000	0.009169
2285.000000	0.009105
2284.000000	0.009111
2283.000000	0.009212
2282.000000	0.009447
2281.000000	0.009747
2280.000000	0.009978
2279.000000	0.010130
2278.000000	0.010330
2277.000000	0.010592
2276.000000	0.010762
2275.000000	0.010767
2274.000000	0.010724
2273.000000	0.010743
2272.000000	0.010781
2271.000000	0.010806
2270.000000	0.010870
2269.000000	0.010955
2268.000000	0.010943
2267.000000	0.010841
2266.000000	0.010827
2265.000000	0.010974
2264.000000	0.011142
2263.000000	0.011234
2262.000000	0.011313
2261.000000	0.011394
2260.000000	0.011345
2259.000000	0.011140
2258.000000	0.010965
2257.000000	0.010957
2256.000000	0.011052
2255.000000	0.011203
2254.000000	0.011475
2253.000000	0.011803
2252.000000	0.011932
2251.000000	0.011763
2250.000000	0.011496
2249.000000	0.011296
2248.000000	0.011088
2247.000000	0.010823
2246.000000	0.010673
2245.000000	0.010755
2244.000000	0.010920
2243.000000	0.010992
2242.000000	0.010984
2241.000000	0.010951
2240.000000	0.010868
2239.000000	0.010804
2238.000000	0.010925
2237.000000	0.011180
2236.000000	0.011273
2235.000000	0.011100
2234.000000	0.010914
2233.000000	0.010918
2232.000000	0.011002
2231.000000	0.011049
2230.000000	0.011155
2229.000000	0.011346
2228.000000	0.011418
2227.000000	0.011285
2226.000000	0.011161
2225.000000	0.011191
2224.000000	0.011231
2223.000000	0.011191
2222.000000	0.011239
2221.000000	0.011448
2220.000000	0.011582
2219.000000	0.011476
2218.000000	0.011300
2217.000000	0.011232
2216.000000	0.011201
2215.000000	0.011150
2214.000000	0.011201
2213.000000	0.011332
2212.000000	0.011260
2211.000000	0.010894
2210.000000	0.010533
2209.000000	0.010408
2208.000000	0.010385
2207.000000	0.010346
2206.000000	0.010451
2205.000000	0.010776
2204.000000	0.011074
2203.000000	0.011176
2202.000000	0.011242
2201.000000	0.011373
2200.000000	0.011374
2199.000000	0.011134
2198.000000	0.010852
2197.000000	0.010668
2196.000000	0.010435
2195.000000	0.010124
2194.000000	0.009991
2193.000000	0.010118
2192.000000	0.010210
2191.000000	0.010116
2190.000000	0.010109
2189.000000	0.010354
2188.000000	0.010597
2187.000000	0.010618
2186.000000	0.010562
2185.000000	0.010551
2184.000000	0.010495
2183.000000	0.010500
2182.000000	0.010900
2181.000000	0.011549
2180.000000	0.011750
2179.000000	0.011247
2178.000000	0.010668
2177.000000	0.010667
2176.000000	0.011138
2175.000000	0.011633
2174.000000	0.011935
2173.000000	0.011905
2172.000000	0.011341
2171.000000	0.010372
2170.000000	0.009492
2169.000000	0.008909
2168.000000	0.008319
2167.000000	0.007599
2166.000000	0.007114
2165.000000	0.006968
2164.000000	0.006628
2163.000000	0.005813
2162.000000	0.005169
2161.000000	0.005636
2160.000000	0.007566
2159.000000	0.010724
2158.000000	0.014411
2157.000000	0.017378
2156.000000	0.018630
2155.000000	0.018435
2154.000000	0.017832
2153.000000	0.017292
2152.000000	0.016545
2151.000000	0.015565
2150.000000	0.014857
2149.000000	0.014651
2148.000000	0.014599
2147.000000	0.014533
2146.000000	0.014746
2145.000000	0.015288
2144.000000	0.015688
2143.000000	0.015648
2142.000000	0.015392
2141.000000	0.015146
2140.000000	0.014871
2139.000000	0.014649
2138.000000	0.014782
2137.000000	0.015301
2136.000000	0.015886
2135.000000	0.016389
2134.000000	0.016915
2133.000000	0.017330
2132.000000	0.017283
2131.000000	0.016794
2130.000000	0.016300
2129.000000	0.016019
2128.000000	0.015733
2127.000000	0.015295
2126.000000	0.014873
2125.000000	0.014581
2124.000000	0.014299
2123.000000	0.014010
2122.000000	0.013886
2121.000000	0.013906
2120.000000	0.013789
2119.000000	0.013449
2118.000000	0.013123
2117.000000	0.012922
2116.000000	0.012663
2115.000000	0.012290
2114.000000	0.012052
2113.000000	0.012062
2112.000000	0.012086
2111.000000	0.011973
2110.000000	0.011919
2109.000000	0.012059
2108.000000	0.012200
2107.000000	0.012182
2106.000000	0.012151
2105.000000	0.012253
2104.000000	0.012381
2103.000000	0.012430
2102.000000	0.012449
2101.000000	0.012401
2100.000000	0.012130
2099.000000	0.011735
2098.000000	0.011608
2097.000000	0.011906
2096.000000	0.012332
2095.000000	0.012632
2094.000000	0.012854
2093.000000	0.012988
2092.000000	0.012838
2091.000000	0.012436
2090.000000	0.012128
2089.000000	0.012074
2088.000000	0.012030
2087.000000	0.011810
2086.000000	0.011564
2085.000000	0.011386
2084.000000	0.011094
2083.000000	0.010630
2082.000000	0.010255
2081.000000	0.010131
2080.000000	0.010091
2079.000000	0.010022
2078.000000	0.010076
2077.000000	0.010275
2076.000000	0.010343
2075.000000	0.010199
2074.000000	0.010095
2073.000000	0.010142
2072.000000	0.010122
2071.000000	0.009969
2070.000000	0.009956
2069.000000	0.010148
2068.000000	0.010224
2067.000000	0.010079
2066.000000	0.010059
2065.000000	0.010320
2064.000000	0.010502
2063.000000	0.010352
2062.000000	0.010120
2061.000000	0.010045
2060.000000	0.009991
2059.000000	0.009844
2058.000000	0.009742
2057.000000	0.009668
2056.000000	0.009374
2055.000000	0.008884
2054.000000	0.008447
2053.000000	0.007888
2052.000000	0.006773
2051.000000	0.005397
2050.000000	0.004882
2049.000000	0.005772
2048.000000	0.007178
2047.000000	0.008044
2046.000000	0.008356
2045.000000	0.008458
2044.000000	0.008242
2043.000000	0.007750
2042.000000	0.007588
2041.000000	0.007975
2040.000000	0.008225
2039.000000	0.007921
2038.000000	0.007624
2037.000000	0.007779
2036.000000	0.007933
2035.000000	0.007776
2034.000000	0.007914
2033.000000	0.008708
2032.000000	0.009443
2031.000000	0.009575
2030.000000	0.009618
2029.000000	0.010038
2028.000000	0.010351
2027.000000	0.010153
2026.000000	0.009915
2025.000000	0.010059
2024.000000	0.010258
2023.000000	0.010295
2022.000000	0.010593
2021.000000	0.011228
2020.000000	0.011494
2019.000000	0.011092
2018.000000	0.010686
2017.000000	0.010702
2016.000000	0.010656
2015.000000	0.010308
2014.000000	0.010218
2013.000000	0.010588
2012.000000	0.010750
2011.000000	0.010409
2010.000000	0.010266
2009.000000	0.010808
2008.000000	0.011542
2007.000000	0.012061
2006.000000	0.012662
2005.000000	0.013374
2004.000000	0.013629
2003.000000	0.013306
2002.000000	0.013050
2001.000000	0.013025
2000.000000	0.012634
1999.000000	0.011747
1998.000000	0.011016
1997.000000	0.010811
1996.000000	0.010685
1995.000000	0.010321
1994.000000	0.010052
1993.000000	0.010083
1992.000000	0.010036
1991.000000	0.009798
1990.000000	0.009863
1989.000000	0.010301
1988.000000	0.010430
1987.000000	0.009967
1986.000000	0.009507
1985.000000	0.009381
1984.000000	0.009055
1983.000000	0.008115
1982.000000	0.007023
1981.000000	0.006240
1980.000000	0.005705
1979.000000	0.005613
1978.000000	0.006588
1977.000000	0.008477
1976.000000	0.010033
1975.000000	0.010631
1974.000000	0.010901
1973.000000	0.011333
1972.000000	0.011543
1971.000000	0.011331
1970.000000	0.011222
1969.000000	0.011449
1968.000000	0.011511
1967.000000	0.011211
1966.000000	0.011107
1965.000000	0.011466
1964.000000	0.011792
1963.000000	0.011859
1962.000000	0.012178
1961.000000	0.013040
1960.000000	0.013990
1959.000000	0.014588
1958.000000	0.014889
1957.000000	0.014878
1956.000000	0.014285
1955.000000	0.013288
1954.000000	0.012527
1953.000000	0.012306
1952.000000	0.012272
1951.000000	0.012201
1950.000000	0.012399
1949.000000	0.012869
1948.000000	0.013067
1947.000000	0.012794
1946.000000	0.012504
1945.000000	0.012498
1944.000000	0.012521
1943.000000	0.012421
1942.000000	0.012444
1941.000000	0.012615
1940.000000	0.012644
1939.000000	0.012485
1938.000000	0.012428
1937.000000	0.012571
1936.000000	0.012653
1935.000000	0.012602
1934.000000	0.012640
1933.000000	0.012837
1932.000000	0.012869
1931.000000	0.012636
1930.000000	0.012570
1929.000000	0.012713
1928.000000	0.012743
1927.000000	0.012529
1926.000000	0.012433
1925.000000	0.012632
1924.000000	0.012649
1923.000000	0.012277
1922.000000	0.011894
1921.000000	0.011722
1920.000000	0.011497
1919.000000	0.011097
1918.000000	0.010935
1917.000000	0.011120
1916.000000	0.011227
1915.000000	0.011161
1914.000000	0.011182
1913.000000	0.011341
1912.000000	0.011361
1911.000000	0.011241
1910.000000	0.011373
1909.000000	0.011665
1908.000000	0.011725
1907.000000	0.011486
1906.000000	0.011361
1905.000000	0.011483
1904.000000	0.011358
1903.000000	0.010999
1902.000000	0.010988
1901.000000	0.011312
1900.000000	0.011412
1899.000000	0.011100
1898.000000	0.010830
1897.000000	0.010859
1896.000000	0.010791
1895.000000	0.010488
1894.000000	0.010365
1893.000000	0.010532
1892.000000	0.010574
1891.000000	0.010371
1890.000000	0.010376
1889.000000	0.010688
1888.000000	0.010819
1887.000000	0.010723
1886.000000	0.010804
1885.000000	0.011058
1884.000000	0.011020
1883.000000	0.010703
1882.000000	0.010646
1881.000000	0.010875
1880.000000	0.010942
1879.000000	0.010762
1878.000000	0.010675
1877.000000	0.010828
1876.000000	0.010841
1875.000000	0.010548
1874.000000	0.010387
1873.000000	0.010574
1872.000000	0.010666
1871.000000	0.010367
1870.000000	0.010143
1869.000000	0.010422
1868.000000	0.010710
1867.000000	0.010695
1866.000000	0.010831
1865.000000	0.011165
1864.000000	0.011176
1863.000000	0.010781
1862.000000	0.010545
1861.000000	0.010668
1860.000000	0.010680
1859.000000	0.010406
1858.000000	0.010291
1857.000000	0.010468
1856.000000	0.010499
1855.000000	0.010246
1854.000000	0.010232
1853.000000	0.010437
1852.000000	0.010477
1851.000000	0.010353
1850.000000	0.010268
1849.000000	0.010293
1848.000000	0.010260
1847.000000	0.010208
1846.000000	0.010274
1845.000000	0.010354
1844.000000	0.010233
1843.000000	0.009972
1842.000000	0.010083
1841.000000	0.010527
1840.000000	0.010738
1839.000000	0.010485
1838.000000	0.010275
1837.000000	0.010399
1836.000000	0.010423
1835.000000	0.010181
1834.000000	0.010017
1833.000000	0.009989
1832.000000	0.009933
1831.000000	0.009769
1830.000000	0.009688
1829.000000	0.009762
1828.000000	0.009821
1827.000000	0.009852
1826.000000	0.009900
1825.000000	0.010075
1824.000000	0.010170
1823.000000	0.010031
1822.000000	0.009966
1821.000000	0.010168
1820.000000	0.010488
1819.000000	0.010661
1818.000000	0.010935
1817.000000	0.011489
1816.000000	0.011699
1815.000000	0.011283
1814.000000	0.010714
1813.000000	0.010564
1812.000000	0.010652
1811.000000	0.010415
1810.000000	0.010175
1809.000000	0.010308
1808.000000	0.010338
1807.000000	0.009947
1806.000000	0.009581
1805.000000	0.009601
1804.000000	0.009524
1803.000000	0.009150
1802.000000	0.008891
1801.000000	0.009150
1800.000000	0.009514
1799.000000	0.009460
1798.000000	0.009353
1797.000000	0.009498
1796.000000	0.009527
1795.000000	0.009228
1794.000000	0.008791
1793.000000	0.008699
1792.000000	0.008852
1791.000000	0.008731
1790.000000	0.008692
1789.000000	0.009004
1788.000000	0.009168
1787.000000	0.008863
1786.000000	0.008556
1785.000000	0.008607
1784.000000	0.008525
1783.000000	0.008385
1782.000000	0.008397
1781.000000	0.008598
1780.000000	0.008832
1779.000000	0.008783
1778.000000	0.008691
1777.000000	0.008663
1776.000000	0.008736
1775.000000	0.008835
1774.000000	0.008504
1773.000000	0.007858
1772.000000	0.007702
1771.000000	0.007737
1770.000000	0.007824
1769.000000	0.008140
1768.000000	0.008288
1767.000000	0.008003
1766.000000	0.007547
1765.000000	0.007467
1764.000000	0.007588
1763.000000	0.007452
1762.000000	0.006994
1761.000000	0.006699
1760.000000	0.006757
1759.000000	0.006982
1758.000000	0.007132
1757.000000	0.007013
1756.000000	0.006925
1755.000000	0.006941
1754.000000	0.006884
1753.000000	0.006550
1752.000000	0.006320
1751.000000	0.006439
1750.000000	0.006801
1749.000000	0.007331
1748.000000	0.007851
1747.000000	0.008216
1746.000000	0.008067
1745.000000	0.007731
1744.000000	0.007711
1743.000000	0.007746
1742.000000	0.007500
1741.000000	0.007256
1740.000000	0.007131
1739.000000	0.006904
1738.000000	0.006732
1737.000000	0.007026
1736.000000	0.007141
1735.000000	0.006523
1734.000000	0.006354
1733.000000	0.006350
1732.000000	0.006559
1731.000000	0.007240
1730.000000	0.007881
1729.000000	0.007970
1728.000000	0.007655
1727.000000	0.007417
1726.000000	0.007211
1725.000000	0.007215
1724.000000	0.007342
1723.000000	0.007176
1722.000000	0.007025
1721.000000	0.007308
1720.000000	0.007575
1719.000000	0.007077
1718.000000	0.006781
1717.000000	0.007574
1716.000000	0.008135
1715.000000	0.008145
1714.000000	0.008554
1713.000000	0.009446
1712.000000	0.009968
1711.000000	0.009934
1710.000000	0.010018
1709.000000	0.010443
1708.000000	0.010954
1707.000000	0.011351
1706.000000	0.012079
1705.000000	0.013220
1704.000000	0.013988
1703.000000	0.014427
1702.000000	0.014443
1701.000000	0.014450
1700.000000	0.015349
1699.000000	0.015913
1698.000000	0.017582
1697.000000	0.020262
1696.000000	0.021764
1695.000000	0.021426
1694.000000	0.021129
1693.000000	0.022281
1692.000000	0.023850
1691.000000	0.024808
1690.000000	0.025623
1689.000000	0.026716
1688.000000	0.028211
1687.000000	0.029488
1686.000000	0.029641
1685.000000	0.029462
1684.000000	0.030700
1683.000000	0.032014
1682.000000	0.033364
1681.000000	0.034953
1680.000000	0.036346
1679.000000	0.037466
1678.000000	0.038380
1677.000000	0.039062
1676.000000	0.039802
1675.000000	0.041173
1674.000000	0.042412
1673.000000	0.043589
1672.000000	0.045114
1671.000000	0.046845
1670.000000	0.048715
1669.000000	0.050283
1668.000000	0.051415
1667.000000	0.052577
1666.000000	0.053770
1665.000000	0.054835
1664.000000	0.055701
1663.000000	0.056984
1662.000000	0.058590
1661.000000	0.059716
1660.000000	0.060780
1659.000000	0.062029
1658.000000	0.063050
1657.000000	0.063885
1656.000000	0.065138
1655.000000	0.065956
1654.000000	0.065934
1653.000000	0.067147
1652.000000	0.066387
1651.000000	0.065589
1650.000000	0.066714
1649.000000	0.068534
1648.000000	0.069902
1647.000000	0.070936
1646.000000	0.071317
1645.000000	0.071025
1644.000000	0.070852
1643.000000	0.071157
1642.000000	0.071662
1641.000000	0.071767
1640.000000	0.071705
1639.000000	0.071752
1638.000000	0.071950
1637.000000	0.071981
1636.000000	0.072217
1635.000000	0.072235
1634.000000	0.071567
1633.000000	0.071298
1632.000000	0.071310
1631.000000	0.071102
1630.000000	0.070622
1629.000000	0.070015
1628.000000	0.069220
1627.000000	0.068378
1626.000000	0.067483
1625.000000	0.066348
1624.000000	0.065017
1623.000000	0.063850
1622.000000	0.062726
1621.000000	0.061466
1620.000000	0.060537
1619.000000	0.059794
1618.000000	0.058516
1617.000000	0.056377
1616.000000	0.053969
1615.000000	0.052243
1614.000000	0.051495
1613.000000	0.050880
1612.000000	0.049703
1611.000000	0.048494
1610.000000	0.047685
1609.000000	0.046840
1608.000000	0.045730
1607.000000	0.044860
1606.000000	0.044181
1605.000000	0.043176
1604.000000	0.042148
1603.000000	0.041521
1602.000000	0.041052
1601.000000	0.040345
1600.000000	0.039572
1599.000000	0.039107
1598.000000	0.038782
1597.000000	0.038311
1596.000000	0.037831
1595.000000	0.037659
1594.000000	0.037676
1593.000000	0.037495
1592.000000	0.037152
1591.000000	0.037031
1590.000000	0.037160
1589.000000	0.037176
1588.000000	0.037079
1587.000000	0.037197
1586.000000	0.037617
1585.000000	0.037756
1584.000000	0.037726
1583.000000	0.038178
1582.000000	0.038833
1581.000000	0.039059
1580.000000	0.039266
1579.000000	0.040086
1578.000000	0.040889
1577.000000	0.040988
1576.000000	0.040870
1575.000000	0.041031
1574.000000	0.041526
1573.000000	0.042259
1572.000000	0.042923
1571.000000	0.043408
1570.000000	0.044197
1569.000000	0.044828
1568.000000	0.045313
1567.000000	0.046272
1566.000000	0.047490
1565.000000	0.048266
1564.000000	0.049017
1563.000000	0.050198
1562.000000	0.051329
1561.000000	0.050233
1560.000000	0.048223
1559.000000	0.050820
1558.000000	0.053337
1557.000000	0.053337
1556.000000	0.054018
1555.000000	0.055460
1554.000000	0.056259
1553.000000	0.056284
1552.000000	0.056765
1551.000000	0.057727
1550.000000	0.058598
1549.000000	0.058948
1548.000000	0.058974
1547.000000	0.059148
1546.000000	0.059388
1545.000000	0.059532
1544.000000	0.059807
1543.000000	0.059982
1542.000000	0.059895
1541.000000	0.060137
1540.000000	0.060816
1539.000000	0.060464
1538.000000	0.059238
1537.000000	0.058776
1536.000000	0.058900
1535.000000	0.058887
1534.000000	0.058637
1533.000000	0.058492
1532.000000	0.058189
1531.000000	0.057678
1530.000000	0.057285
1529.000000	0.057078
1528.000000	0.056771
1527.000000	0.056284
1526.000000	0.055682
1525.000000	0.055126
1524.000000	0.054818
1523.000000	0.054485
1522.000000	0.054008
1521.000000	0.053289
1520.000000	0.052127
1519.000000	0.051387
1518.000000	0.051339
1517.000000	0.051566
1516.000000	0.051341
1515.000000	0.050564
1514.000000	0.049729
1513.000000	0.049094
1512.000000	0.048386
1511.000000	0.047372
1510.000000	0.046448
1509.000000	0.045869
1508.000000	0.045560
1507.000000	0.045318
1506.000000	0.044062
1505.000000	0.041826
1504.000000	0.040521
1503.000000	0.040079
1502.000000	0.039543
1501.000000	0.038610
1500.000000	0.037565
1499.000000	0.036494
1498.000000	0.035478
1497.000000	0.035151
1496.000000	0.035046
1495.000000	0.034501
1494.000000	0.034065
1493.000000	0.034148
1492.000000	0.034167
1491.000000	0.033717
1490.000000	0.033388
1489.000000	0.033569
1488.000000	0.033503
1487.000000	0.032761
1486.000000	0.032157
1485.000000	0.031755
1484.000000	0.031366
1483.000000	0.031083
1482.000000	0.031012
1481.000000	0.031158
1480.000000	0.031160
1479.000000	0.030945
1478.000000	0.030815
1477.000000	0.031124
1476.000000	0.031526
1475.000000	0.031796
1474.000000	0.032282
1473.000000	0.033334
1472.000000	0.034452
1471.000000	0.034896
1470.000000	0.035216
1469.000000	0.035905
1468.000000	0.036506
1467.000000	0.036706
1466.000000	0.036906
1465.000000	0.037466
1464.000000	0.038237
1463.000000	0.038664
1462.000000	0.038883
1461.000000	0.039227
1460.000000	0.039710
1459.000000	0.039970
1458.000000	0.040178
1457.000000	0.040990
1456.000000	0.041548
1455.000000	0.041862
1454.000000	0.042579
1453.000000	0.043453
1452.000000	0.044108
1451.000000	0.044341
1450.000000	0.044316
1449.000000	0.044502
1448.000000	0.044765
1447.000000	0.044835
1446.000000	0.044497
1445.000000	0.044019
1444.000000	0.043935
1443.000000	0.043867
1442.000000	0.043405
1441.000000	0.042840
1440.000000	0.042715
1439.000000	0.042549
1438.000000	0.041734
1437.000000	0.040948
1436.000000	0.040818
1435.000000	0.040754
1434.000000	0.040563
1433.000000	0.040453
1432.000000	0.040422
1431.000000	0.040266
1430.000000	0.039850
1429.000000	0.039516
1428.000000	0.039280
1427.000000	0.039103
1426.000000	0.038839
1425.000000	0.038558
1424.000000	0.038819
1423.000000	0.039260
1422.000000	0.039196
1421.000000	0.038574
1420.000000	0.038095
1419.000000	0.038130
1418.000000	0.038075
1417.000000	0.038152
1416.000000	0.038728
1415.000000	0.039167
1414.000000	0.038924
1413.000000	0.038462
1412.000000	0.038515
1411.000000	0.038814
1410.000000	0.038718
1409.000000	0.038487
1408.000000	0.038484
1407.000000	0.038674
1406.000000	0.038852
1405.000000	0.039032
1404.000000	0.039416
1403.000000	0.039673
1402.000000	0.039531
1401.000000	0.039191
1400.000000	0.039090
1399.000000	0.039219
1398.000000	0.039169
1397.000000	0.039040
1396.000000	0.039029
1395.000000	0.039012
1394.000000	0.038537
1393.000000	0.037765
1392.000000	0.037375
1391.000000	0.037302
1390.000000	0.037004
1389.000000	0.036401
1388.000000	0.035861
1387.000000	0.035546
1386.000000	0.035266
1385.000000	0.034988
1384.000000	0.034890
1383.000000	0.034775
1382.000000	0.034418
1381.000000	0.033925
1380.000000	0.033460
1379.000000	0.033039
1378.000000	0.032562
1377.000000	0.032052
1376.000000	0.031668
1375.000000	0.031560
1374.000000	0.031474
1373.000000	0.031107
1372.000000	0.030536
1371.000000	0.030076
1370.000000	0.029756
1369.000000	0.029354
1368.000000	0.028873
1367.000000	0.028359
1366.000000	0.027810
1365.000000	0.027312
1364.000000	0.027031
1363.000000	0.027015
1362.000000	0.027035
1361.000000	0.026896
1360.000000	0.026697
1359.000000	0.026575
1358.000000	0.026492
1357.000000	0.026397
1356.000000	0.026344
1355.000000	0.026384
1354.000000	0.026449
1353.000000	0.026556
1352.000000	0.026685
1351.000000	0.026897
1350.000000	0.027198
1349.000000	0.027481
1348.000000	0.027775
1347.000000	0.028119
1346.000000	0.028466
1345.000000	0.028742
1344.000000	0.028960
1343.000000	0.029181
1342.000000	0.029448
1341.000000	0.029809
1340.000000	0.030297
1339.000000	0.030794
1338.000000	0.031073
1337.000000	0.031104
1336.000000	0.031036
1335.000000	0.030942
1334.000000	0.030795
1333.000000	0.030608
1332.000000	0.030446
1331.000000	0.030314
1330.000000	0.030119
1329.000000	0.029836
1328.000000	0.029554
1327.000000	0.029357
1326.000000	0.029202
1325.000000	0.029021
1324.000000	0.028881
1323.000000	0.028814
1322.000000	0.028748
1321.000000	0.028658
1320.000000	0.028642
1319.000000	0.028715
1318.000000	0.028742
1317.000000	0.028652
1316.000000	0.028532
1315.000000	0.028441
1314.000000	0.028327
1313.000000	0.028169
1312.000000	0.028023
1311.000000	0.027897
1310.000000	0.027706
1309.000000	0.027456
1308.000000	0.027238
1307.000000	0.027097
1306.000000	0.026971
1305.000000	0.026822
1304.000000	0.026707
1303.000000	0.026621
1302.000000	0.026478
1301.000000	0.026270
1300.000000	0.026095
1299.000000	0.025982
1298.000000	0.025865
1297.000000	0.025745
1296.000000	0.025708
1295.000000	0.025762
1294.000000	0.025798
1293.000000	0.025787
1292.000000	0.025822
1291.000000	0.025957
1290.000000	0.026148
1289.000000	0.026371
1288.000000	0.026644
1287.000000	0.026911
1286.000000	0.027067
1285.000000	0.027133
1284.000000	0.027234
1283.000000	0.027390
1282.000000	0.027508
1281.000000	0.027556
1280.000000	0.027609
1279.000000	0.027684
1278.000000	0.027694
1277.000000	0.027611
1276.000000	0.027505
1275.000000	0.027417
1274.000000	0.027316
1273.000000	0.027222
1272.000000	0.027213
1271.000000	0.027272
1270.000000	0.027292
1269.000000	0.027246
1268.000000	0.027231
1267.000000	0.027300
1266.000000	0.027406
1265.000000	0.027538
1264.000000	0.027759
1263.000000	0.028069
1262.000000	0.028410
1261.000000	0.028779
1260.000000	0.029208
1259.000000	0.029630
1258.000000	0.029917
1257.000000	0.030080
1256.000000	0.030259
1255.000000	0.030496
1254.000000	0.030717
1253.000000	0.030902
1252.000000	0.031124
1251.000000	0.031400
1250.000000	0.031671
1249.000000	0.031936
1248.000000	0.032270
1247.000000	0.032666
1246.000000	0.033014
1245.000000	0.033280
1244.000000	0.033527
1243.000000	0.033767
1242.000000	0.033935
1241.000000	0.034027
1240.000000	0.034097
1239.000000	0.034123
1238.000000	0.034028
1237.000000	0.033832
1236.000000	0.033641
1235.000000	0.033467
1234.000000	0.033214
1233.000000	0.032854
1232.000000	0.032458
1231.000000	0.032055
1230.000000	0.031600
1229.000000	0.031105
1228.000000	0.030642
1227.000000	0.030211
1226.000000	0.029750
1225.000000	0.029255
1224.000000	0.028767
1223.000000	0.028240
1222.000000	0.027569
1221.000000	0.026754
1220.000000	0.025927
1219.000000	0.025201
1218.000000	0.024619
1217.000000	0.024231
1216.000000	0.024071
1215.000000	0.024053
1214.000000	0.024039
1213.000000	0.024010
1212.000000	0.024039
1211.000000	0.024116
1210.000000	0.024155
1209.000000	0.024153
1208.000000	0.024196
1207.000000	0.024296
1206.000000	0.024377
1205.000000	0.024421
1204.000000	0.024473
1203.000000	0.024522
1202.000000	0.024499
1201.000000	0.024410
1200.000000	0.024322
1199.000000	0.024224
1198.000000	0.024035
1197.000000	0.023747
1196.000000	0.023431
1195.000000	0.023107
1194.000000	0.022747
1193.000000	0.022391
1192.000000	0.022116
1191.000000	0.021900
1190.000000	0.021645
1189.000000	0.021337
1188.000000	0.021058
1187.000000	0.020818
1186.000000	0.020533
1185.000000	0.020165
1184.000000	0.019791
1183.000000	0.019513
1182.000000	0.019407
1181.000000	0.019515
1180.000000	0.019780
1179.000000	0.020012
1178.000000	0.020057
1177.000000	0.019965
1176.000000	0.019895
1175.000000	0.019903
1174.000000	0.019934
1173.000000	0.019983
1172.000000	0.020110
1171.000000	0.020296
1170.000000	0.020459
1169.000000	0.020601
1168.000000	0.020808
1167.000000	0.021099
1166.000000	0.021414
1165.000000	0.021730
1164.000000	0.022070
1163.000000	0.022393
1162.000000	0.022625
1161.000000	0.022784
1160.000000	0.022957
1159.000000	0.023144
1158.000000	0.023262
1157.000000	0.023287
1156.000000	0.023266
1155.000000	0.023210
1154.000000	0.023093
1153.000000	0.022950
1152.000000	0.022856
1151.000000	0.022800
1150.000000	0.022703
1149.000000	0.022545
1148.000000	0.022371
1147.000000	0.022172
1146.000000	0.021907
1145.000000	0.021606
1144.000000	0.021342
1143.000000	0.021107
1142.000000	0.020842
1141.000000	0.020556
1140.000000	0.020318
1139.000000	0.020123
1138.000000	0.019911
1137.000000	0.019690
1136.000000	0.019523
1135.000000	0.019405
1134.000000	0.019280
1133.000000	0.019157
1132.000000	0.019096
1131.000000	0.019088
1130.000000	0.019076
1129.000000	0.019075
1128.000000	0.019146
1127.000000	0.019272
1126.000000	0.019370
1125.000000	0.019427
1124.000000	0.019490
1123.000000	0.019558
1122.000000	0.019602
1121.000000	0.019656
1120.000000	0.019782
1119.000000	0.019940
1118.000000	0.020035
1117.000000	0.020066
1116.000000	0.020120
1115.000000	0.020227
1114.000000	0.020343
1113.000000	0.020454
1112.000000	0.020577
1111.000000	0.020696
1110.000000	0.020788
1109.000000	0.020913
1108.000000	0.021138
1107.000000	0.021405
1106.000000	0.021603
1105.000000	0.021727
1104.000000	0.021850
1103.000000	0.021980
1102.000000	0.022079
1101.000000	0.022171
1100.000000	0.022304
1099.000000	0.022435
1098.000000	0.022496
1097.000000	0.022532
1096.000000	0.022645
1095.000000	0.022844
1094.000000	0.023071
1093.000000	0.023330
1092.000000	0.023667
1091.000000	0.024059
1090.000000	0.024462
1089.000000	0.024922
1088.000000	0.025500
1087.000000	0.026131
1086.000000	0.026697
1085.000000	0.027191
1084.000000	0.027680
1083.000000	0.028146
1082.000000	0.028510
1081.000000	0.028767
1080.000000	0.028948
1079.000000	0.029013
1078.000000	0.028908
1077.000000	0.028689
1076.000000	0.028434
1075.000000	0.028102
1074.000000	0.027618
1073.000000	0.027052
1072.000000	0.026561
1071.000000	0.026199
1070.000000	0.025918
1069.000000	0.025713
1068.000000	0.025616
1067.000000	0.025594
1066.000000	0.025586
1065.000000	0.025624
1064.000000	0.025779
1063.000000	0.026014
1062.000000	0.026219
1061.000000	0.026359
1060.000000	0.026470
1059.000000	0.026532
1058.000000	0.026505
1057.000000	0.026427
1056.000000	0.026382
1055.000000	0.026393
1054.000000	0.026451
1053.000000	0.026603
1052.000000	0.026894
1051.000000	0.027273
1050.000000	0.027660
1049.000000	0.028059
1048.000000	0.028455
1047.000000	0.028712
1046.000000	0.028731
1045.000000	0.028623
1044.000000	0.028579
1043.000000	0.028641
1042.000000	0.028729
1041.000000	0.028821
1040.000000	0.028966
1039.000000	0.029160
1038.000000	0.029364
1037.000000	0.029616
1036.000000	0.029971
1035.000000	0.030380
1034.000000	0.030747
1033.000000	0.031074
1032.000000	0.031415
1031.000000	0.031734
1030.000000	0.031946
1029.000000	0.032064
1028.000000	0.032163
1027.000000	0.032251
1026.000000	0.032290
1025.000000	0.032306
1024.000000	0.032347
1023.000000	0.032382
1022.000000	0.032355
1021.000000	0.032293
1020.000000	0.032255
1019.000000	0.032213
1018.000000	0.032113
1017.000000	0.031982
1016.000000	0.031859
1015.000000	0.031680
1014.000000	0.031356
1013.000000	0.030924
1012.000000	0.030488
1011.000000	0.030069
1010.000000	0.029630
1009.000000	0.029197
1008.000000	0.028817
1007.000000	0.028451
1006.000000	0.028027
1005.000000	0.027577
1004.000000	0.027191
1003.000000	0.026883
1002.000000	0.026600
1001.000000	0.026322
1000.000000	0.026050
999.000000	0.025735
998.000000	0.025342
997.000000	0.024941
996.000000	0.024620
995.000000	0.024346
994.000000	0.024031
993.000000	0.023668
992.000000	0.023306
991.000000	0.022935
990.000000	0.022519
989.000000	0.022100
988.000000	0.021738
987.000000	0.021395
986.000000	0.020989
985.000000	0.020531
984.000000	0.020097
983.000000	0.019700
982.000000	0.019303
981.000000	0.018924
980.000000	0.018604
979.000000	0.018321
978.000000	0.018026
977.000000	0.017740
976.000000	0.017510
975.000000	0.017302
974.000000	0.017046
973.000000	0.016746
972.000000	0.016446
971.000000	0.016133
970.000000	0.015774
969.000000	0.015408
968.000000	0.015085
967.000000	0.014761
966.000000	0.014375
965.000000	0.013975
964.000000	0.013656
963.000000	0.013407
962.000000	0.013155
961.000000	0.012901
960.000000	0.012711
959.000000	0.012574
958.000000	0.012409
957.000000	0.012190
956.000000	0.011946
955.000000	0.011684
954.000000	0.011400
953.000000	0.011152
952.000000	0.011006
951.000000	0.010929
950.000000	0.010847
949.000000	0.010766
948.000000	0.010736
947.000000	0.010734
946.000000	0.010697
945.000000	0.010643
944.000000	0.010631
943.000000	0.010648
942.000000	0.010639
941.000000	0.010625
940.000000	0.010669
939.000000	0.010751
938.000000	0.010797
937.000000	0.010791
936.000000	0.010773
935.000000	0.010737
934.000000	0.010654
933.000000	0.010562
932.000000	0.010518
931.000000	0.010499
930.000000	0.010446
929.000000	0.010376
928.000000	0.010339
927.000000	0.010305
926.000000	0.010206
925.000000	0.010065
924.000000	0.009961
923.000000	0.009900
922.000000	0.009826
921.000000	0.009724
920.000000	0.009615
919.000000	0.009475
918.000000	0.009270
917.000000	0.009046
916.000000	0.008880
915.000000	0.008767
914.000000	0.008646
913.000000	0.008517
912.000000	0.008410
911.000000	0.008300
910.000000	0.008142
909.000000	0.007968
908.000000	0.007854
907.000000	0.007814
906.000000	0.007814
905.000000	0.007842
904.000000	0.007887
903.000000	0.007891
902.000000	0.007816
901.000000	0.007722
900.000000	0.007664
899.000000	0.007595
898.000000	0.007442
897.000000	0.007244
896.000000	0.007088
895.000000	0.006982
894.000000	0.006889
893.000000	0.006827
892.000000	0.006827
891.000000	0.006840
890.000000	0.006794
889.000000	0.006711
888.000000	0.006669
887.000000	0.006681
886.000000	0.006722
885.000000	0.006816
884.000000	0.007002
883.000000	0.007260
882.000000	0.007576
881.000000	0.008004
880.000000	0.008579
879.000000	0.009206
878.000000	0.009743
877.000000	0.010140
876.000000	0.010385
875.000000	0.010415
874.000000	0.010202
873.000000	0.009854
872.000000	0.009512
871.000000	0.009200
870.000000	0.008889
869.000000	0.008629
868.000000	0.008483
867.000000	0.008398
866.000000	0.008280
865.000000	0.008134
864.000000	0.008035
863.000000	0.007994
862.000000	0.007986
861.000000	0.008027
860.000000	0.008121
859.000000	0.008185
858.000000	0.008138
857.000000	0.008032
856.000000	0.007973
855.000000	0.007971
854.000000	0.007970
853.000000	0.007968
852.000000	0.007994
851.000000	0.008026
850.000000	0.008033
849.000000	0.008047
848.000000	0.008090
847.000000	0.008097
846.000000	0.008007
845.000000	0.007872
844.000000	0.007783
843.000000	0.007724
842.000000	0.007631
841.000000	0.007521
840.000000	0.007465
839.000000	0.007464
838.000000	0.007452
837.000000	0.007398
836.000000	0.007303
835.000000	0.007156
834.000000	0.006969
833.000000	0.006798
832.000000	0.006684
831.000000	0.006604
830.000000	0.006544
829.000000	0.006545
828.000000	0.006615
827.000000	0.006687
826.000000	0.006752
825.000000	0.006903
824.000000	0.007166
823.000000	0.007416
822.000000	0.007546
821.000000	0.007620
820.000000	0.007721
819.000000	0.007791
818.000000	0.007749
817.000000	0.007621
816.000000	0.007484
815.000000	0.007344
814.000000	0.007210
813.000000	0.007156
812.000000	0.007217
811.000000	0.007304
810.000000	0.007323
809.000000	0.007297
808.000000	0.007266
807.000000	0.007196
806.000000	0.007082
805.000000	0.007024
804.000000	0.007081
803.000000	0.007168
802.000000	0.007211
801.000000	0.007270
800.000000	0.007409
799.000000	0.007550
798.000000	0.007608
797.000000	0.007640
796.000000	0.007723
795.000000	0.007794
794.000000	0.007763
793.000000	0.007697
792.000000	0.007720
791.000000	0.007830
790.000000	0.007941
789.000000	0.008028
788.000000	0.008106
787.000000	0.008139
786.000000	0.008105
785.000000	0.008088
784.000000	0.008182
783.000000	0.008355
782.000000	0.008507
781.000000	0.008599
780.000000	0.008633
779.000000	0.008588
778.000000	0.008470
777.000000	0.008370
776.000000	0.008360
775.000000	0.008403
774.000000	0.008429
773.000000	0.008442
772.000000	0.008471
771.000000	0.008498
770.000000	0.008527
769.000000	0.008620
768.000000	0.008799
767.000000	0.008988
766.000000	0.009127
765.000000	0.009258
764.000000	0.009400
763.000000	0.009471
762.000000	0.009410
761.000000	0.009295
760.000000	0.009233
759.000000	0.009221
758.000000	0.009217
757.000000	0.009236
756.000000	0.009290
755.000000	0.009318
754.000000	0.009276
753.000000	0.009222
752.000000	0.009221
751.000000	0.009241
750.000000	0.009234
749.000000	0.009229
748.000000	0.009277
747.000000	0.009356
746.000000	0.009435
745.000000	0.009539
744.000000	0.009673
743.000000	0.009765
742.000000	0.009753
741.000000	0.009679
740.000000	0.009616
739.000000	0.009590
738.000000	0.009613
737.000000	0.009708
736.000000	0.009850
735.000000	0.009976
734.000000	0.010087
733.000000	0.010250
732.000000	0.010466
731.000000	0.010644
730.000000	0.010747
729.000000	0.010848
728.000000	0.011001
727.000000	0.011165
726.000000	0.011304
725.000000	0.011468
724.000000	0.011702
723.000000	0.011968
722.000000	0.012222
721.000000	0.012448
720.000000	0.012602
719.000000	0.012652
718.000000	0.012693
717.000000	0.012882
716.000000	0.013224
715.000000	0.013556
714.000000	0.013777
713.000000	0.013934
712.000000	0.014067
711.000000	0.014125
710.000000	0.014107
709.000000	0.014114
708.000000	0.014196
707.000000	0.014286
706.000000	0.014340
705.000000	0.014419
704.000000	0.014555
703.000000	0.014670
702.000000	0.014722
701.000000	0.014761
700.000000	0.014803
699.000000	0.014799
698.000000	0.014767
697.000000	0.014803
696.000000	0.014910
695.000000	0.014980
694.000000	0.014984
693.000000	0.014993
692.000000	0.014994
691.000000	0.014903
690.000000	0.014777
689.000000	0.014822
688.000000	0.015117
687.000000	0.015521
686.000000	0.015906
685.000000	0.016242
684.000000	0.016464
683.000000	0.016500
682.000000	0.016434
681.000000	0.016429
680.000000	0.016497
679.000000	0.016552
678.000000	0.016614
677.000000	0.016735
676.000000	0.016866
675.000000	0.016961
674.000000	0.017096
673.000000	0.017277
672.000000	0.017208
671.000000	0.016659
670.000000	0.016006
669.000000	0.016156
668.000000	0.016159
667.000000	0.015083
666.000000	0.014695
665.000000	0.015356
664.000000	0.016282
663.000000	0.017072
662.000000	0.017423
661.000000	0.017459
660.000000	0.017498
659.000000	0.017640
658.000000	0.017717
657.000000	0.017691
656.000000	0.017688
655.000000	0.017683
654.000000	0.017527
653.000000	0.017314
652.000000	0.017298
651.000000	0.017471
650.000000	0.017604
649.000000	0.017628
648.000000	0.017646
647.000000	0.017634
646.000000	0.017497
645.000000	0.017320
644.000000	0.017243
643.000000	0.017208
642.000000	0.017090
641.000000	0.016951
640.000000	0.016915
639.000000	0.016913
638.000000	0.016831
637.000000	0.016765
636.000000	0.016850
635.000000	0.016978
634.000000	0.016990
633.000000	0.016960
632.000000	0.016998
631.000000	0.016975
630.000000	0.016768
629.000000	0.016579
628.000000	0.016668
627.000000	0.016925
626.000000	0.017061
625.000000	0.017067
624.000000	0.017120
623.000000	0.017208
622.000000	0.017200
621.000000	0.017169
620.000000	0.017275
619.000000	0.017430
618.000000	0.017447
617.000000	0.017413
616.000000	0.017539
615.000000	0.017743
614.000000	0.017778
613.000000	0.017666
612.000000	0.017628
611.000000	0.017669
610.000000	0.017606
609.000000	0.017432
608.000000	0.017322
607.000000	0.017324
606.000000	0.017356
605.000000	0.017451
604.000000	0.017677
603.000000	0.017882
602.000000	0.017856
601.000000	0.017649
600.000000	0.017478
599.000000	0.017419
598.000000	0.017395
597.000000	0.017425
596.000000	0.017579
595.000000	0.017778
594.000000	0.017881
593.000000	0.017902
592.000000	0.017933
591.000000	0.017934
590.000000	0.017853
589.000000	0.017808
588.000000	0.017917
587.000000	0.018061
586.000000	0.018074
585.000000	0.018040
584.000000	0.018130
583.000000	0.018283
582.000000	0.018315
581.000000	0.018242
580.000000	0.018209
579.000000	0.018226
578.000000	0.018236
577.000000	0.018350
576.000000	0.018654
575.000000	0.018939
574.000000	0.018968
573.000000	0.018883
572.000000	0.018984
571.000000	0.019280
570.000000	0.019553
569.000000	0.019722
568.000000	0.019812
567.000000	0.019691
566.000000	0.019275
565.000000	0.018836
564.000000	0.018728
563.000000	0.018905
562.000000	0.019037
561.000000	0.019021
560.000000	0.018990
559.000000	0.018959
558.000000	0.018857
557.000000	0.018780
556.000000	0.018804
555.000000	0.018730
554.000000	0.018396
553.000000	0.018088
552.000000	0.018191
551.000000	0.018598
550.000000	0.018837
549.000000	0.018726
548.000000	0.018479
547.000000	0.018271
546.000000	0.018141
545.000000	0.018179
544.000000	0.018434
543.000000	0.018666
542.000000	0.018567
541.000000	0.018189
540.000000	0.017818
539.000000	0.017537
538.000000	0.017255
537.000000	0.017043
536.000000	0.017090
535.000000	0.017367
534.000000	0.017692
533.000000	0.018016
532.000000	0.018274
531.000000	0.018245
530.000000	0.017836
529.000000	0.017352
528.000000	0.017138
527.000000	0.017196
526.000000	0.017296
525.000000	0.017365
524.000000	0.017451
523.000000	0.017429
522.000000	0.017206
521.000000	0.016995
520.000000	0.016978
519.000000	0.016943
518.000000	0.016597
517.000000	0.016079
516.000000	0.015729
515.000000	0.015566
514.000000	0.015423
513.000000	0.015313
512.000000	0.015276
511.000000	0.015131
510.000000	0.014744
509.000000	0.014272
508.000000	0.013852
507.000000	0.013401
506.000000	0.012890
505.000000	0.012608
504.000000	0.012738
503.000000	0.013007
502.000000	0.013050
501.000000	0.012893
500.000000	0.012755
499.000000	0.012604
498.000000	0.012360
497.000000	0.012200
496.000000	0.012259
495.000000	0.012330
494.000000	0.012219
493.000000	0.012086
492.000000	0.012153
491.000000	0.012273
490.000000	0.012163
489.000000	0.011874
488.000000	0.011597
487.000000	0.011318
486.000000	0.010936
485.000000	0.010586
484.000000	0.010472
483.000000	0.010584
482.000000	0.010806
481.000000	0.011084
480.000000	0.011299
479.000000	0.011184
478.000000	0.010697
477.000000	0.010260
476.000000	0.010194
475.000000	0.010197
474.000000	0.009889
473.000000	0.009530
472.000000	0.009657
471.000000	0.010217
470.000000	0.010683
469.000000	0.010903
468.000000	0.011033
467.000000	0.010907
466.000000	0.010294
465.000000	0.009538
464.000000	0.009209
463.000000	0.009355
462.000000	0.009555
461.000000	0.009538
460.000000	0.009314
459.000000	0.008818
458.000000	0.008086
457.000000	0.007610
456.000000	0.007695
455.000000	0.007866
454.000000	0.007625
453.000000	0.007140
452.000000	0.006944
451.000000	0.006963
450.000000	0.006801
