PE IR       SUBTECH     SPECTRUM    ASCII       PEDS        4.00        
   -1
3C-N10-C010_1.ASC
22/02/16
14:28:37.00
22/02/16
15:05:48.00
uco
Sample 010 By uco Date Wednesday, February 16 2022
450.000000
#HDR
-1
-1
#GR
cm-1
A
1.0
0.0
4000.000000
-1.000000
3551
8
0.036639
-0.002534
#DATA
4000.000000	0.001605
3999.000000	0.001503
3998.000000	0.001433
3997.000000	0.001432
3996.000000	0.001476
3995.000000	0.001516
3994.000000	0.001556
3993.000000	0.001619
3992.000000	0.001695
3991.000000	0.001743
3990.000000	0.001753
3989.000000	0.001759
3988.000000	0.001778
3987.000000	0.001783
3986.000000	0.001760
3985.000000	0.001732
3984.000000	0.001719
3983.000000	0.001709
3982.000000	0.001681
3981.000000	0.001639
3980.000000	0.001613
3979.000000	0.001626
3978.000000	0.001673
3977.000000	0.001736
3976.000000	0.001822
3975.000000	0.001925
3974.000000	0.002006
3973.000000	0.002042
3972.000000	0.002056
3971.000000	0.002072
3970.000000	0.002070
3969.000000	0.002022
3968.000000	0.001917
3967.000000	0.001761
3966.000000	0.001583
3965.000000	0.001451
3964.000000	0.001452
3963.000000	0.001598
3962.000000	0.001806
3961.000000	0.001988
3960.000000	0.002105
3959.000000	0.002151
3958.000000	0.002107
3957.000000	0.002023
3956.000000	0.001980
3955.000000	0.001968
3954.000000	0.001934
3953.000000	0.001838
3952.000000	0.001731
3951.000000	0.001697
3950.000000	0.001841
3949.000000	0.002126
3948.000000	0.002294
3947.000000	0.002256
3946.000000	0.002180
3945.000000	0.002253
3944.000000	0.002466
3943.000000	0.002626
3942.000000	0.002666
3941.000000	0.002691
3940.000000	0.002720
3939.000000	0.002636
3938.000000	0.002305
3937.000000	0.001842
3936.000000	0.001531
3935.000000	0.001463
3934.000000	0.001626
3933.000000	0.001959
3932.000000	0.002485
3931.000000	0.003048
3930.000000	0.003283
3929.000000	0.003061
3928.000000	0.002629
3927.000000	0.002427
3926.000000	0.002502
3925.000000	0.002519
3924.000000	0.002459
3923.000000	0.002583
3922.000000	0.002745
3921.000000	0.002569
3920.000000	0.002160
3919.000000	0.002173
3918.000000	0.002684
3917.000000	0.003083
3916.000000	0.003051
3915.000000	0.002871
3914.000000	0.002778
3913.000000	0.002646
3912.000000	0.002385
3911.000000	0.002254
3910.000000	0.002229
3909.000000	0.002155
3908.000000	0.002063
3907.000000	0.002078
3906.000000	0.002254
3905.000000	0.002264
3904.000000	0.002095
3903.000000	0.002266
3902.000000	0.003156
3901.000000	0.004362
3900.000000	0.004915
3899.000000	0.004506
3898.000000	0.003796
3897.000000	0.003373
3896.000000	0.003077
3895.000000	0.002741
3894.000000	0.002592
3893.000000	0.003101
3892.000000	0.003690
3891.000000	0.003193
3890.000000	0.002057
3889.000000	0.001699
3888.000000	0.002422
3887.000000	0.003086
3886.000000	0.002772
3885.000000	0.001847
3884.000000	0.001634
3883.000000	0.002633
3882.000000	0.003883
3881.000000	0.004438
3880.000000	0.004101
3879.000000	0.003284
3878.000000	0.002862
3877.000000	0.003085
3876.000000	0.003324
3875.000000	0.003016
3874.000000	0.002252
3873.000000	0.002033
3872.000000	0.003020
3871.000000	0.004102
3870.000000	0.003652
3869.000000	0.002300
3868.000000	0.002115
3867.000000	0.003308
3866.000000	0.003823
3865.000000	0.003074
3864.000000	0.002707
3863.000000	0.003343
3862.000000	0.003835
3861.000000	0.003752
3860.000000	0.003560
3859.000000	0.003693
3858.000000	0.003978
3857.000000	0.003972
3856.000000	0.003223
3855.000000	0.001504
3854.000000	-0.000414
3853.000000	-0.002057
3852.000000	-0.002534
3851.000000	-0.000824
3850.000000	0.001477
3849.000000	0.002760
3848.000000	0.003053
3847.000000	0.003076
3846.000000	0.002918
3845.000000	0.002760
3844.000000	0.002766
3843.000000	0.002707
3842.000000	0.002618
3841.000000	0.003082
3840.000000	0.003741
3839.000000	0.003898
3838.000000	0.003401
3837.000000	0.002662
3836.000000	0.002343
3835.000000	0.002617
3834.000000	0.003242
3833.000000	0.003726
3832.000000	0.003556
3831.000000	0.002860
3830.000000	0.002338
3829.000000	0.002545
3828.000000	0.003239
3827.000000	0.003581
3826.000000	0.003056
3825.000000	0.002516
3824.000000	0.002693
3823.000000	0.003255
3822.000000	0.003729
3821.000000	0.003392
3820.000000	0.002495
3819.000000	0.002590
3818.000000	0.003649
3817.000000	0.003863
3816.000000	0.002433
3815.000000	0.000794
3814.000000	0.000920
3813.000000	0.002337
3812.000000	0.002944
3811.000000	0.002300
3810.000000	0.001728
3809.000000	0.002106
3808.000000	0.002630
3807.000000	0.001966
3806.000000	0.000563
3805.000000	0.000364
3804.000000	0.001624
3803.000000	0.002969
3802.000000	0.003113
3801.000000	0.001849
3800.000000	0.000865
3799.000000	0.001569
3798.000000	0.003013
3797.000000	0.003729
3796.000000	0.003547
3795.000000	0.003102
3794.000000	0.002964
3793.000000	0.002873
3792.000000	0.002531
3791.000000	0.002215
3790.000000	0.002116
3789.000000	0.001993
3788.000000	0.001734
3787.000000	0.001655
3786.000000	0.002008
3785.000000	0.002446
3784.000000	0.002500
3783.000000	0.002360
3782.000000	0.002381
3781.000000	0.002596
3780.000000	0.002785
3779.000000	0.002800
3778.000000	0.002742
3777.000000	0.002888
3776.000000	0.002981
3775.000000	0.002537
3774.000000	0.001814
3773.000000	0.001624
3772.000000	0.002110
3771.000000	0.002560
3770.000000	0.002481
3769.000000	0.002235
3768.000000	0.002358
3767.000000	0.002849
3766.000000	0.003187
3765.000000	0.002906
3764.000000	0.002376
3763.000000	0.002277
3762.000000	0.002419
3761.000000	0.002305
3760.000000	0.002231
3759.000000	0.002819
3758.000000	0.003508
3757.000000	0.003571
3756.000000	0.003315
3755.000000	0.002988
3754.000000	0.002099
3753.000000	0.000541
3752.000000	-0.000121
3751.000000	0.001067
3750.000000	0.002037
3749.000000	0.001525
3748.000000	0.001181
3747.000000	0.002347
3746.000000	0.003933
3745.000000	0.003595
3744.000000	0.000948
3743.000000	-0.000894
3742.000000	0.000190
3741.000000	0.002151
3740.000000	0.002556
3739.000000	0.002028
3738.000000	0.001850
3737.000000	0.002102
3736.000000	0.002774
3735.000000	0.004007
3734.000000	0.005426
3733.000000	0.005827
3732.000000	0.004629
3731.000000	0.002792
3730.000000	0.001735
3729.000000	0.001756
3728.000000	0.002097
3727.000000	0.002064
3726.000000	0.001908
3725.000000	0.002206
3724.000000	0.002851
3723.000000	0.003204
3722.000000	0.003096
3721.000000	0.002898
3720.000000	0.002856
3719.000000	0.002987
3718.000000	0.002842
3717.000000	0.002228
3716.000000	0.001720
3715.000000	0.001435
3714.000000	0.000991
3713.000000	0.000700
3712.000000	0.001338
3711.000000	0.002701
3710.000000	0.003692
3709.000000	0.003991
3708.000000	0.003822
3707.000000	0.003275
3706.000000	0.002699
3705.000000	0.002396
3704.000000	0.002396
3703.000000	0.002605
3702.000000	0.002739
3701.000000	0.002566
3700.000000	0.002205
3699.000000	0.002046
3698.000000	0.002078
3697.000000	0.001898
3696.000000	0.001676
3695.000000	0.001784
3694.000000	0.001920
3693.000000	0.001680
3692.000000	0.001388
3691.000000	0.001701
3690.000000	0.002443
3689.000000	0.002598
3688.000000	0.001665
3687.000000	0.000866
3686.000000	0.001209
3685.000000	0.002105
3684.000000	0.002474
3683.000000	0.002270
3682.000000	0.002264
3681.000000	0.002449
3680.000000	0.002179
3679.000000	0.001522
3678.000000	0.001518
3677.000000	0.002627
3676.000000	0.003901
3675.000000	0.003795
3674.000000	0.002916
3673.000000	0.002949
3672.000000	0.003362
3671.000000	0.003239
3670.000000	0.002958
3669.000000	0.002900
3668.000000	0.003070
3667.000000	0.003279
3666.000000	0.003178
3665.000000	0.002798
3664.000000	0.002517
3663.000000	0.002580
3662.000000	0.002727
3661.000000	0.002527
3660.000000	0.002194
3659.000000	0.002177
3658.000000	0.002689
3657.000000	0.003118
3656.000000	0.002842
3655.000000	0.002344
3654.000000	0.002442
3653.000000	0.002658
3652.000000	0.002043
3651.000000	0.001505
3650.000000	0.002601
3649.000000	0.004743
3648.000000	0.006032
3647.000000	0.006039
3646.000000	0.005495
3645.000000	0.004891
3644.000000	0.004336
3643.000000	0.003883
3642.000000	0.003518
3641.000000	0.003264
3640.000000	0.003205
3639.000000	0.003149
3638.000000	0.002919
3637.000000	0.002704
3636.000000	0.002870
3635.000000	0.003252
3634.000000	0.003320
3633.000000	0.003098
3632.000000	0.003004
3631.000000	0.003071
3630.000000	0.003445
3629.000000	0.003801
3628.000000	0.003361
3627.000000	0.003111
3626.000000	0.003610
3625.000000	0.003993
3624.000000	0.003766
3623.000000	0.003394
3622.000000	0.003349
3621.000000	0.003571
3620.000000	0.003858
3619.000000	0.004035
3618.000000	0.003873
3617.000000	0.003706
3616.000000	0.003917
3615.000000	0.004376
3614.000000	0.004702
3613.000000	0.004736
3612.000000	0.004617
3611.000000	0.004459
3610.000000	0.004318
3609.000000	0.004379
3608.000000	0.004733
3607.000000	0.005149
3606.000000	0.005256
3605.000000	0.004916
3604.000000	0.004300
3603.000000	0.003769
3602.000000	0.003595
3601.000000	0.003705
3600.000000	0.003939
3599.000000	0.004159
3598.000000	0.004218
3597.000000	0.004148
3596.000000	0.004319
3595.000000	0.004696
3594.000000	0.004958
3593.000000	0.004933
3592.000000	0.004679
3591.000000	0.004276
3590.000000	0.003896
3589.000000	0.003981
3588.000000	0.004874
3587.000000	0.005875
3586.000000	0.006214
3585.000000	0.006002
3584.000000	0.005633
3583.000000	0.005219
3582.000000	0.004854
3581.000000	0.004644
3580.000000	0.004636
3579.000000	0.004718
3578.000000	0.004766
3577.000000	0.004792
3576.000000	0.004897
3575.000000	0.005079
3574.000000	0.005159
3573.000000	0.005049
3572.000000	0.004720
3571.000000	0.004226
3570.000000	0.003760
3569.000000	0.003804
3568.000000	0.004832
3567.000000	0.006487
3566.000000	0.007673
3565.000000	0.007914
3564.000000	0.007506
3563.000000	0.006849
3562.000000	0.006264
3561.000000	0.005967
3560.000000	0.005923
3559.000000	0.005928
3558.000000	0.005807
3557.000000	0.005541
3556.000000	0.005254
3555.000000	0.005148
3554.000000	0.005341
3553.000000	0.005745
3552.000000	0.006096
3551.000000	0.006149
3550.000000	0.005904
3549.000000	0.005560
3548.000000	0.005422
3547.000000	0.005734
3546.000000	0.006385
3545.000000	0.006968
3544.000000	0.007217
3543.000000	0.007130
3542.000000	0.006815
3541.000000	0.006418
3540.000000	0.006103
3539.000000	0.005986
3538.000000	0.006075
3537.000000	0.006296
3536.000000	0.006562
3535.000000	0.006718
3534.000000	0.006666
3533.000000	0.006441
3532.000000	0.006216
3531.000000	0.006149
3530.000000	0.006260
3529.000000	0.006462
3528.000000	0.006660
3527.000000	0.006809
3526.000000	0.006933
3525.000000	0.007117
3524.000000	0.007422
3523.000000	0.007746
3522.000000	0.007871
3521.000000	0.007726
3520.000000	0.007469
3519.000000	0.007257
3518.000000	0.007127
3517.000000	0.007063
3516.000000	0.007073
3515.000000	0.007086
3514.000000	0.007025
3513.000000	0.006941
3512.000000	0.006980
3511.000000	0.007197
3510.000000	0.007490
3509.000000	0.007683
3508.000000	0.007680
3507.000000	0.007512
3506.000000	0.007301
3505.000000	0.007242
3504.000000	0.007503
3503.000000	0.007990
3502.000000	0.008375
3501.000000	0.008448
3500.000000	0.008288
3499.000000	0.008084
3498.000000	0.007939
3497.000000	0.007891
3496.000000	0.007950
3495.000000	0.008057
3494.000000	0.008100
3493.000000	0.008043
3492.000000	0.007950
3491.000000	0.007879
3490.000000	0.007859
3489.000000	0.007929
3488.000000	0.008095
3487.000000	0.008273
3486.000000	0.008350
3485.000000	0.008322
3484.000000	0.008303
3483.000000	0.008368
3482.000000	0.008491
3481.000000	0.008609
3480.000000	0.008689
3479.000000	0.008706
3478.000000	0.008636
3477.000000	0.008524
3476.000000	0.008462
3475.000000	0.008477
3474.000000	0.008503
3473.000000	0.008497
3472.000000	0.008489
3471.000000	0.008498
3470.000000	0.008518
3469.000000	0.008581
3468.000000	0.008703
3467.000000	0.008815
3466.000000	0.008830
3465.000000	0.008761
3464.000000	0.008706
3463.000000	0.008721
3462.000000	0.008798
3461.000000	0.008917
3460.000000	0.009056
3459.000000	0.009159
3458.000000	0.009177
3457.000000	0.009141
3456.000000	0.009115
3455.000000	0.009111
3454.000000	0.009121
3453.000000	0.009117
3452.000000	0.009076
3451.000000	0.009000
3450.000000	0.008950
3449.000000	0.009018
3448.000000	0.009224
3447.000000	0.009480
3446.000000	0.009667
3445.000000	0.009751
3444.000000	0.009772
3443.000000	0.009764
3442.000000	0.009732
3441.000000	0.009688
3440.000000	0.009651
3439.000000	0.009631
3438.000000	0.009628
3437.000000	0.009642
3436.000000	0.009667
3435.000000	0.009697
3434.000000	0.009745
3433.000000	0.009806
3432.000000	0.009874
3431.000000	0.009955
3430.000000	0.010037
3429.000000	0.010097
3428.000000	0.010127
3427.000000	0.010146
3426.000000	0.010162
3425.000000	0.010163
3424.000000	0.010153
3423.000000	0.010164
3422.000000	0.010226
3421.000000	0.010332
3420.000000	0.010451
3419.000000	0.010542
3418.000000	0.010567
3417.000000	0.010519
3416.000000	0.010441
3415.000000	0.010399
3414.000000	0.010410
3413.000000	0.010448
3412.000000	0.010487
3411.000000	0.010532
3410.000000	0.010583
3409.000000	0.010635
3408.000000	0.010686
3407.000000	0.010735
3406.000000	0.010757
3405.000000	0.010746
3404.000000	0.010743
3403.000000	0.010781
3402.000000	0.010842
3401.000000	0.010907
3400.000000	0.011001
3399.000000	0.011130
3398.000000	0.011231
3397.000000	0.011243
3396.000000	0.011188
3395.000000	0.011137
3394.000000	0.011138
3393.000000	0.011195
3392.000000	0.011287
3391.000000	0.011371
3390.000000	0.011408
3389.000000	0.011400
3388.000000	0.011394
3387.000000	0.011418
3386.000000	0.011448
3385.000000	0.011459
3384.000000	0.011459
3383.000000	0.011451
3382.000000	0.011428
3381.000000	0.011408
3380.000000	0.011439
3379.000000	0.011531
3378.000000	0.011641
3377.000000	0.011730
3376.000000	0.011785
3375.000000	0.011794
3374.000000	0.011749
3373.000000	0.011693
3372.000000	0.011700
3371.000000	0.011786
3370.000000	0.011907
3369.000000	0.012028
3368.000000	0.012141
3367.000000	0.012229
3366.000000	0.012265
3365.000000	0.012264
3364.000000	0.012275
3363.000000	0.012329
3362.000000	0.012414
3361.000000	0.012501
3360.000000	0.012567
3359.000000	0.012593
3358.000000	0.012584
3357.000000	0.012589
3356.000000	0.012644
3355.000000	0.012723
3354.000000	0.012773
3353.000000	0.012796
3352.000000	0.012845
3351.000000	0.012937
3350.000000	0.013036
3349.000000	0.013116
3348.000000	0.013180
3347.000000	0.013230
3346.000000	0.013257
3345.000000	0.013275
3344.000000	0.013317
3343.000000	0.013379
3342.000000	0.013422
3341.000000	0.013438
3340.000000	0.013465
3339.000000	0.013535
3338.000000	0.013643
3337.000000	0.013774
3336.000000	0.013913
3335.000000	0.014031
3334.000000	0.014092
3333.000000	0.014093
3332.000000	0.014066
3331.000000	0.014048
3330.000000	0.014051
3329.000000	0.014074
3328.000000	0.014119
3327.000000	0.014175
3326.000000	0.014228
3325.000000	0.014281
3324.000000	0.014351
3323.000000	0.014426
3322.000000	0.014475
3321.000000	0.014493
3320.000000	0.014506
3319.000000	0.014529
3318.000000	0.014555
3317.000000	0.014572
3316.000000	0.014586
3315.000000	0.014607
3314.000000	0.014636
3313.000000	0.014670
3312.000000	0.014694
3311.000000	0.014694
3310.000000	0.014685
3309.000000	0.014704
3308.000000	0.014763
3307.000000	0.014829
3306.000000	0.014862
3305.000000	0.014875
3304.000000	0.014904
3303.000000	0.014952
3302.000000	0.015001
3301.000000	0.015050
3300.000000	0.015105
3299.000000	0.015149
3298.000000	0.015161
3297.000000	0.015146
3296.000000	0.015131
3295.000000	0.015125
3294.000000	0.015121
3293.000000	0.015125
3292.000000	0.015146
3291.000000	0.015161
3290.000000	0.015145
3289.000000	0.015108
3288.000000	0.015077
3287.000000	0.015060
3286.000000	0.015049
3285.000000	0.015057
3284.000000	0.015098
3283.000000	0.015142
3282.000000	0.015142
3281.000000	0.015101
3280.000000	0.015059
3279.000000	0.015027
3278.000000	0.014982
3277.000000	0.014926
3276.000000	0.014896
3275.000000	0.014912
3274.000000	0.014951
3273.000000	0.014988
3272.000000	0.015019
3271.000000	0.015039
3270.000000	0.015044
3269.000000	0.015042
3268.000000	0.015041
3267.000000	0.015031
3266.000000	0.014991
3265.000000	0.014927
3264.000000	0.014873
3263.000000	0.014836
3262.000000	0.014797
3261.000000	0.014757
3260.000000	0.014724
3259.000000	0.014675
3258.000000	0.014605
3257.000000	0.014565
3256.000000	0.014611
3255.000000	0.014720
3254.000000	0.014808
3253.000000	0.014821
3252.000000	0.014777
3251.000000	0.014703
3250.000000	0.014599
3249.000000	0.014482
3248.000000	0.014391
3247.000000	0.014358
3246.000000	0.014382
3245.000000	0.014446
3244.000000	0.014514
3243.000000	0.014537
3242.000000	0.014489
3241.000000	0.014407
3240.000000	0.014342
3239.000000	0.014302
3238.000000	0.014261
3237.000000	0.014220
3236.000000	0.014195
3235.000000	0.014185
3234.000000	0.014181
3233.000000	0.014184
3232.000000	0.014197
3231.000000	0.014201
3230.000000	0.014184
3229.000000	0.014166
3228.000000	0.014157
3227.000000	0.014125
3226.000000	0.014057
3225.000000	0.013994
3224.000000	0.013978
3223.000000	0.013983
3222.000000	0.013959
3221.000000	0.013918
3220.000000	0.013908
3219.000000	0.013919
3218.000000	0.013902
3217.000000	0.013862
3216.000000	0.013848
3215.000000	0.013872
3214.000000	0.013898
3213.000000	0.013894
3212.000000	0.013867
3211.000000	0.013842
3210.000000	0.013843
3209.000000	0.013879
3208.000000	0.013929
3207.000000	0.013940
3206.000000	0.013885
3205.000000	0.013796
3204.000000	0.013729
3203.000000	0.013696
3202.000000	0.013670
3201.000000	0.013631
3200.000000	0.013588
3199.000000	0.013554
3198.000000	0.013544
3197.000000	0.013551
3196.000000	0.013538
3195.000000	0.013473
3194.000000	0.013379
3193.000000	0.013314
3192.000000	0.013294
3191.000000	0.013271
3190.000000	0.013213
3189.000000	0.013147
3188.000000	0.013109
3187.000000	0.013104
3186.000000	0.013127
3185.000000	0.013176
3184.000000	0.013212
3183.000000	0.013171
3182.000000	0.013050
3181.000000	0.012928
3180.000000	0.012876
3179.000000	0.012887
3178.000000	0.012912
3177.000000	0.012924
3176.000000	0.012900
3175.000000	0.012822
3174.000000	0.012715
3173.000000	0.012645
3172.000000	0.012638
3171.000000	0.012641
3170.000000	0.012597
3169.000000	0.012514
3168.000000	0.012434
3167.000000	0.012372
3166.000000	0.012324
3165.000000	0.012294
3164.000000	0.012268
3163.000000	0.012226
3162.000000	0.012178
3161.000000	0.012157
3160.000000	0.012162
3159.000000	0.012162
3158.000000	0.012144
3157.000000	0.012119
3156.000000	0.012075
3155.000000	0.011989
3154.000000	0.011893
3153.000000	0.011852
3152.000000	0.011883
3151.000000	0.011927
3150.000000	0.011939
3149.000000	0.011928
3148.000000	0.011911
3147.000000	0.011868
3146.000000	0.011792
3145.000000	0.011716
3144.000000	0.011664
3143.000000	0.011617
3142.000000	0.011562
3141.000000	0.011527
3140.000000	0.011533
3139.000000	0.011550
3138.000000	0.011545
3137.000000	0.011528
3136.000000	0.011512
3135.000000	0.011490
3134.000000	0.011469
3133.000000	0.011480
3132.000000	0.011514
3131.000000	0.011509
3130.000000	0.011441
3129.000000	0.011357
3128.000000	0.011301
3127.000000	0.011256
3126.000000	0.011205
3125.000000	0.011164
3124.000000	0.011155
3123.000000	0.011172
3122.000000	0.011198
3121.000000	0.011222
3120.000000	0.011229
3119.000000	0.011210
3118.000000	0.011195
3117.000000	0.011231
3116.000000	0.011303
3115.000000	0.011346
3114.000000	0.011330
3113.000000	0.011285
3112.000000	0.011239
3111.000000	0.011193
3110.000000	0.011167
3109.000000	0.011188
3108.000000	0.011240
3107.000000	0.011276
3106.000000	0.011284
3105.000000	0.011286
3104.000000	0.011294
3103.000000	0.011309
3102.000000	0.011343
3101.000000	0.011400
3100.000000	0.011445
3099.000000	0.011431
3098.000000	0.011373
3097.000000	0.011344
3096.000000	0.011388
3095.000000	0.011470
3094.000000	0.011524
3093.000000	0.011528
3092.000000	0.011494
3091.000000	0.011444
3090.000000	0.011393
3089.000000	0.011356
3088.000000	0.011331
3087.000000	0.011315
3086.000000	0.011318
3085.000000	0.011348
3084.000000	0.011386
3083.000000	0.011405
3082.000000	0.011404
3081.000000	0.011409
3080.000000	0.011431
3079.000000	0.011458
3078.000000	0.011485
3077.000000	0.011515
3076.000000	0.011523
3075.000000	0.011488
3074.000000	0.011430
3073.000000	0.011393
3072.000000	0.011384
3071.000000	0.011378
3070.000000	0.011365
3069.000000	0.011360
3068.000000	0.011370
3067.000000	0.011387
3066.000000	0.011410
3065.000000	0.011445
3064.000000	0.011477
3063.000000	0.011475
3062.000000	0.011431
3061.000000	0.011369
3060.000000	0.011313
3059.000000	0.011270
3058.000000	0.011246
3057.000000	0.011252
3056.000000	0.011280
3055.000000	0.011296
3054.000000	0.011281
3053.000000	0.011242
3052.000000	0.011190
3051.000000	0.011133
3050.000000	0.011077
3049.000000	0.011030
3048.000000	0.010989
3047.000000	0.010932
3046.000000	0.010855
3045.000000	0.010785
3044.000000	0.010738
3043.000000	0.010701
3042.000000	0.010656
3041.000000	0.010607
3040.000000	0.010550
3039.000000	0.010466
3038.000000	0.010362
3037.000000	0.010281
3036.000000	0.010255
3035.000000	0.010260
3034.000000	0.010258
3033.000000	0.010258
3032.000000	0.010284
3031.000000	0.010315
3030.000000	0.010298
3029.000000	0.010204
3028.000000	0.010054
3027.000000	0.009896
3026.000000	0.009783
3025.000000	0.009735
3024.000000	0.009727
3023.000000	0.009716
3022.000000	0.009683
3021.000000	0.009647
3020.000000	0.009632
3019.000000	0.009653
3018.000000	0.009709
3017.000000	0.009790
3016.000000	0.009870
3015.000000	0.009927
3014.000000	0.009965
3013.000000	0.010005
3012.000000	0.010053
3011.000000	0.010089
3010.000000	0.010085
3009.000000	0.010034
3008.000000	0.009944
3007.000000	0.009839
3006.000000	0.009756
3005.000000	0.009724
3004.000000	0.009723
3003.000000	0.009712
3002.000000	0.009676
3001.000000	0.009635
3000.000000	0.009616
2999.000000	0.009626
2998.000000	0.009658
2997.000000	0.009707
2996.000000	0.009751
2995.000000	0.009766
2994.000000	0.009757
2993.000000	0.009748
2992.000000	0.009759
2991.000000	0.009786
2990.000000	0.009827
2989.000000	0.009886
2988.000000	0.009947
2987.000000	0.009975
2986.000000	0.009964
2985.000000	0.009958
2984.000000	0.009992
2983.000000	0.010055
2982.000000	0.010111
2981.000000	0.010145
2980.000000	0.010164
2979.000000	0.010174
2978.000000	0.010177
2977.000000	0.010171
2976.000000	0.010145
2975.000000	0.010094
2974.000000	0.010021
2973.000000	0.009940
2972.000000	0.009866
2971.000000	0.009813
2970.000000	0.009807
2969.000000	0.009860
2968.000000	0.009955
2967.000000	0.010064
2966.000000	0.010182
2965.000000	0.010326
2964.000000	0.010482
2963.000000	0.010610
2962.000000	0.010698
2961.000000	0.010771
2960.000000	0.010859
2959.000000	0.010956
2958.000000	0.011047
2957.000000	0.011122
2956.000000	0.011182
2955.000000	0.011229
2954.000000	0.011272
2953.000000	0.011306
2952.000000	0.011305
2951.000000	0.011254
2950.000000	0.011180
2949.000000	0.011118
2948.000000	0.011066
2947.000000	0.010996
2946.000000	0.010917
2945.000000	0.010874
2944.000000	0.010886
2943.000000	0.010919
2942.000000	0.010938
2941.000000	0.010940
2940.000000	0.010938
2939.000000	0.010947
2938.000000	0.010987
2937.000000	0.011079
2936.000000	0.011209
2935.000000	0.011341
2934.000000	0.011445
2933.000000	0.011508
2932.000000	0.011531
2931.000000	0.011534
2930.000000	0.011578
2929.000000	0.011718
2928.000000	0.011944
2927.000000	0.012203
2926.000000	0.012458
2925.000000	0.012704
2924.000000	0.012935
2923.000000	0.013127
2922.000000	0.013275
2921.000000	0.013389
2920.000000	0.013466
2919.000000	0.013491
2918.000000	0.013461
2917.000000	0.013384
2916.000000	0.013254
2915.000000	0.013068
2914.000000	0.012857
2913.000000	0.012657
2912.000000	0.012466
2911.000000	0.012265
2910.000000	0.012061
2909.000000	0.011895
2908.000000	0.011782
2907.000000	0.011691
2906.000000	0.011596
2905.000000	0.011499
2904.000000	0.011407
2903.000000	0.011329
2902.000000	0.011275
2901.000000	0.011245
2900.000000	0.011211
2899.000000	0.011144
2898.000000	0.011065
2897.000000	0.011018
2896.000000	0.011012
2895.000000	0.011009
2894.000000	0.010988
2893.000000	0.010961
2892.000000	0.010940
2891.000000	0.010913
2890.000000	0.010874
2889.000000	0.010843
2888.000000	0.010830
2887.000000	0.010828
2886.000000	0.010819
2885.000000	0.010793
2884.000000	0.010743
2883.000000	0.010677
2882.000000	0.010623
2881.000000	0.010601
2880.000000	0.010592
2879.000000	0.010558
2878.000000	0.010493
2877.000000	0.010423
2876.000000	0.010371
2875.000000	0.010343
2874.000000	0.010340
2873.000000	0.010352
2872.000000	0.010342
2871.000000	0.010276
2870.000000	0.010162
2869.000000	0.010037
2868.000000	0.009920
2867.000000	0.009814
2866.000000	0.009740
2865.000000	0.009730
2864.000000	0.009790
2863.000000	0.009901
2862.000000	0.010041
2861.000000	0.010193
2860.000000	0.010326
2859.000000	0.010423
2858.000000	0.010508
2857.000000	0.010621
2856.000000	0.010761
2855.000000	0.010894
2854.000000	0.011000
2853.000000	0.011084
2852.000000	0.011146
2851.000000	0.011184
2850.000000	0.011201
2849.000000	0.011202
2848.000000	0.011160
2847.000000	0.011053
2846.000000	0.010900
2845.000000	0.010750
2844.000000	0.010624
2843.000000	0.010511
2842.000000	0.010399
2841.000000	0.010288
2840.000000	0.010175
2839.000000	0.010057
2838.000000	0.009955
2837.000000	0.009890
2836.000000	0.009850
2835.000000	0.009805
2834.000000	0.009749
2833.000000	0.009704
2832.000000	0.009675
2831.000000	0.009640
2830.000000	0.009593
2829.000000	0.009548
2828.000000	0.009522
2827.000000	0.009514
2826.000000	0.009518
2825.000000	0.009528
2824.000000	0.009535
2823.000000	0.009529
2822.000000	0.009513
2821.000000	0.009483
2820.000000	0.009425
2819.000000	0.009348
2818.000000	0.009290
2817.000000	0.009277
2816.000000	0.009287
2815.000000	0.009274
2814.000000	0.009238
2813.000000	0.009202
2812.000000	0.009176
2811.000000	0.009151
2810.000000	0.009130
2809.000000	0.009124
2808.000000	0.009123
2807.000000	0.009106
2806.000000	0.009072
2805.000000	0.009036
2804.000000	0.009001
2803.000000	0.008969
2802.000000	0.008956
2801.000000	0.008973
2800.000000	0.008997
2799.000000	0.009004
2798.000000	0.009007
2797.000000	0.009039
2796.000000	0.009091
2795.000000	0.009123
2794.000000	0.009119
2793.000000	0.009096
2792.000000	0.009066
2791.000000	0.009036
2790.000000	0.009019
2789.000000	0.009028
2788.000000	0.009046
2787.000000	0.009044
2786.000000	0.009020
2785.000000	0.009000
2784.000000	0.008989
2783.000000	0.008971
2782.000000	0.008939
2781.000000	0.008905
2780.000000	0.008872
2779.000000	0.008837
2778.000000	0.008804
2777.000000	0.008787
2776.000000	0.008781
2775.000000	0.008777
2774.000000	0.008777
2773.000000	0.008783
2772.000000	0.008779
2771.000000	0.008753
2770.000000	0.008717
2769.000000	0.008700
2768.000000	0.008701
2767.000000	0.008704
2766.000000	0.008705
2765.000000	0.008710
2764.000000	0.008712
2763.000000	0.008703
2762.000000	0.008692
2761.000000	0.008687
2760.000000	0.008676
2759.000000	0.008649
2758.000000	0.008617
2757.000000	0.008601
2756.000000	0.008596
2755.000000	0.008585
2754.000000	0.008565
2753.000000	0.008549
2752.000000	0.008533
2751.000000	0.008506
2750.000000	0.008470
2749.000000	0.008435
2748.000000	0.008410
2747.000000	0.008405
2746.000000	0.008438
2745.000000	0.008501
2744.000000	0.008548
2743.000000	0.008550
2742.000000	0.008525
2741.000000	0.008506
2740.000000	0.008495
2739.000000	0.008473
2738.000000	0.008443
2737.000000	0.008419
2736.000000	0.008397
2735.000000	0.008376
2734.000000	0.008373
2733.000000	0.008393
2732.000000	0.008406
2731.000000	0.008387
2730.000000	0.008361
2729.000000	0.008365
2728.000000	0.008391
2727.000000	0.008399
2726.000000	0.008377
2725.000000	0.008342
2724.000000	0.008302
2723.000000	0.008264
2722.000000	0.008253
2721.000000	0.008293
2720.000000	0.008358
2719.000000	0.008397
2718.000000	0.008391
2717.000000	0.008363
2716.000000	0.008335
2715.000000	0.008317
2714.000000	0.008313
2713.000000	0.008323
2712.000000	0.008330
2711.000000	0.008323
2710.000000	0.008315
2709.000000	0.008318
2708.000000	0.008320
2707.000000	0.008303
2706.000000	0.008277
2705.000000	0.008262
2704.000000	0.008244
2703.000000	0.008207
2702.000000	0.008169
2701.000000	0.008161
2700.000000	0.008181
2699.000000	0.008195
2698.000000	0.008191
2697.000000	0.008173
2696.000000	0.008151
2695.000000	0.008129
2694.000000	0.008130
2693.000000	0.008161
2692.000000	0.008195
2691.000000	0.008200
2690.000000	0.008180
2689.000000	0.008164
2688.000000	0.008161
2687.000000	0.008161
2686.000000	0.008170
2685.000000	0.008195
2684.000000	0.008222
2683.000000	0.008233
2682.000000	0.008231
2681.000000	0.008227
2680.000000	0.008215
2679.000000	0.008183
2678.000000	0.008147
2677.000000	0.008127
2676.000000	0.008120
2675.000000	0.008110
2674.000000	0.008093
2673.000000	0.008075
2672.000000	0.008047
2671.000000	0.008011
2670.000000	0.007984
2669.000000	0.007977
2668.000000	0.007969
2667.000000	0.007933
2666.000000	0.007872
2665.000000	0.007787
2664.000000	0.007653
2663.000000	0.007451
2662.000000	0.007217
2661.000000	0.007013
2660.000000	0.006862
2659.000000	0.006742
2658.000000	0.006639
2657.000000	0.006554
2656.000000	0.006484
2655.000000	0.006413
2654.000000	0.006336
2653.000000	0.006255
2652.000000	0.006168
2651.000000	0.006084
2650.000000	0.006031
2649.000000	0.006016
2648.000000	0.006007
2647.000000	0.005975
2646.000000	0.005930
2645.000000	0.005896
2644.000000	0.005869
2643.000000	0.005841
2642.000000	0.005830
2641.000000	0.005848
2640.000000	0.005865
2639.000000	0.005848
2638.000000	0.005808
2637.000000	0.005771
2636.000000	0.005732
2635.000000	0.005679
2634.000000	0.005636
2633.000000	0.005634
2632.000000	0.005657
2631.000000	0.005665
2630.000000	0.005651
2629.000000	0.005626
2628.000000	0.005593
2627.000000	0.005557
2626.000000	0.005548
2625.000000	0.005580
2624.000000	0.005613
2623.000000	0.005604
2622.000000	0.005570
2621.000000	0.005548
2620.000000	0.005543
2619.000000	0.005539
2618.000000	0.005548
2617.000000	0.005575
2616.000000	0.005601
2615.000000	0.005615
2614.000000	0.005647
2613.000000	0.005701
2612.000000	0.005725
2611.000000	0.005689
2610.000000	0.005657
2609.000000	0.005706
2608.000000	0.005811
2607.000000	0.005893
2606.000000	0.005922
2605.000000	0.005926
2604.000000	0.005918
2603.000000	0.005901
2602.000000	0.005902
2601.000000	0.005937
2600.000000	0.005957
2599.000000	0.005910
2598.000000	0.005824
2597.000000	0.005773
2596.000000	0.005777
2595.000000	0.005801
2594.000000	0.005827
2593.000000	0.005855
2592.000000	0.005880
2591.000000	0.005898
2590.000000	0.005934
2589.000000	0.005979
2588.000000	0.005978
2587.000000	0.005915
2586.000000	0.005863
2585.000000	0.005894
2584.000000	0.005972
2583.000000	0.006017
2582.000000	0.006020
2581.000000	0.006024
2580.000000	0.006041
2579.000000	0.006055
2578.000000	0.006085
2577.000000	0.006156
2576.000000	0.006232
2575.000000	0.006260
2574.000000	0.006243
2573.000000	0.006215
2572.000000	0.006184
2571.000000	0.006139
2570.000000	0.006093
2569.000000	0.006057
2568.000000	0.006020
2567.000000	0.006005
2566.000000	0.006078
2565.000000	0.006237
2564.000000	0.006380
2563.000000	0.006422
2562.000000	0.006404
2561.000000	0.006394
2560.000000	0.006382
2559.000000	0.006330
2558.000000	0.006276
2557.000000	0.006271
2556.000000	0.006290
2555.000000	0.006292
2554.000000	0.006318
2553.000000	0.006416
2552.000000	0.006529
2551.000000	0.006560
2550.000000	0.006509
2549.000000	0.006451
2548.000000	0.006423
2547.000000	0.006404
2546.000000	0.006393
2545.000000	0.006397
2544.000000	0.006396
2543.000000	0.006382
2542.000000	0.006398
2541.000000	0.006475
2540.000000	0.006553
2539.000000	0.006565
2538.000000	0.006536
2537.000000	0.006530
2536.000000	0.006543
2535.000000	0.006530
2534.000000	0.006487
2533.000000	0.006433
2532.000000	0.006365
2531.000000	0.006300
2530.000000	0.006299
2529.000000	0.006383
2528.000000	0.006470
2527.000000	0.006485
2526.000000	0.006478
2525.000000	0.006531
2524.000000	0.006632
2523.000000	0.006708
2522.000000	0.006736
2521.000000	0.006731
2520.000000	0.006671
2519.000000	0.006550
2518.000000	0.006447
2517.000000	0.006446
2516.000000	0.006525
2515.000000	0.006604
2514.000000	0.006667
2513.000000	0.006745
2512.000000	0.006829
2511.000000	0.006871
2510.000000	0.006862
2509.000000	0.006824
2508.000000	0.006761
2507.000000	0.006684
2506.000000	0.006648
2505.000000	0.006683
2504.000000	0.006735
2503.000000	0.006738
2502.000000	0.006704
2501.000000	0.006670
2500.000000	0.006629
2499.000000	0.006578
2498.000000	0.006572
2497.000000	0.006657
2496.000000	0.006783
2495.000000	0.006860
2494.000000	0.006869
2493.000000	0.006830
2492.000000	0.006741
2491.000000	0.006610
2490.000000	0.006503
2489.000000	0.006476
2488.000000	0.006504
2487.000000	0.006539
2486.000000	0.006587
2485.000000	0.006656
2484.000000	0.006701
2483.000000	0.006691
2482.000000	0.006670
2481.000000	0.006688
2480.000000	0.006724
2479.000000	0.006746
2478.000000	0.006778
2477.000000	0.006838
2476.000000	0.006872
2475.000000	0.006832
2474.000000	0.006751
2473.000000	0.006677
2472.000000	0.006600
2471.000000	0.006509
2470.000000	0.006464
2469.000000	0.006504
2468.000000	0.006563
2467.000000	0.006556
2466.000000	0.006494
2465.000000	0.006447
2464.000000	0.006441
2463.000000	0.006470
2462.000000	0.006529
2461.000000	0.006586
2460.000000	0.006568
2459.000000	0.006466
2458.000000	0.006366
2457.000000	0.006333
2456.000000	0.006321
2455.000000	0.006269
2454.000000	0.006208
2453.000000	0.006179
2452.000000	0.006147
2451.000000	0.006089
2450.000000	0.006061
2449.000000	0.006107
2448.000000	0.006160
2447.000000	0.006151
2446.000000	0.006138
2445.000000	0.006212
2444.000000	0.006343
2443.000000	0.006437
2442.000000	0.006482
2441.000000	0.006534
2440.000000	0.006604
2439.000000	0.006650
2438.000000	0.006653
2437.000000	0.006619
2436.000000	0.006551
2435.000000	0.006493
2434.000000	0.006526
2433.000000	0.006664
2432.000000	0.006805
2431.000000	0.006874
2430.000000	0.006925
2429.000000	0.007019
2428.000000	0.007102
2427.000000	0.007097
2426.000000	0.007040
2425.000000	0.007017
2424.000000	0.007037
2423.000000	0.007057
2422.000000	0.007089
2421.000000	0.007151
2420.000000	0.007190
2419.000000	0.007151
2418.000000	0.007080
2417.000000	0.007057
2416.000000	0.007081
2415.000000	0.007102
2414.000000	0.007110
2413.000000	0.007105
2412.000000	0.007059
2411.000000	0.006971
2410.000000	0.006926
2409.000000	0.007000
2408.000000	0.007156
2407.000000	0.007320
2406.000000	0.007473
2405.000000	0.007610
2404.000000	0.007680
2403.000000	0.007663
2402.000000	0.007633
2401.000000	0.007655
2400.000000	0.007690
2399.000000	0.007681
2398.000000	0.007659
2397.000000	0.007665
2396.000000	0.007650
2395.000000	0.007567
2394.000000	0.007492
2393.000000	0.007521
2392.000000	0.007614
2391.000000	0.007650
2390.000000	0.007610
2389.000000	0.007568
2388.000000	0.007553
2387.000000	0.007516
2386.000000	0.007421
2385.000000	0.007266
2384.000000	0.007023
2383.000000	0.006680
2382.000000	0.006281
2381.000000	0.005882
2380.000000	0.005464
2379.000000	0.004963
2378.000000	0.004412
2377.000000	0.003918
2376.000000	0.003566
2375.000000	0.003399
2374.000000	0.003474
2373.000000	0.003802
2372.000000	0.004230
2371.000000	0.004570
2370.000000	0.004783
2369.000000	0.004955
2368.000000	0.005066
2367.000000	0.004993
2366.000000	0.004723
2365.000000	0.004387
2364.000000	0.004050
2363.000000	0.003596
2362.000000	0.003039
2361.000000	0.002740
2360.000000	0.002825
2359.000000	0.003047
2358.000000	0.003340
2357.000000	0.003799
2356.000000	0.004632
2355.000000	0.005864
2354.000000	0.007270
2353.000000	0.008597
2352.000000	0.008953
2351.000000	0.007363
2350.000000	0.003899
2349.000000	0.000364
2348.000000	-0.000864
2347.000000	0.000820
2346.000000	0.003997
2345.000000	0.006051
2344.000000	0.005525
2343.000000	0.003623
2342.000000	0.002329
2341.000000	0.002518
2340.000000	0.003102
2339.000000	0.003363
2338.000000	0.003450
2337.000000	0.003525
2336.000000	0.003595
2335.000000	0.003526
2334.000000	0.003568
2333.000000	0.003858
2332.000000	0.004407
2331.000000	0.004850
2330.000000	0.004995
2329.000000	0.004625
2328.000000	0.004021
2327.000000	0.003062
2326.000000	0.002189
2325.000000	0.001542
2324.000000	0.001386
2323.000000	0.001698
2322.000000	0.002207
2321.000000	0.002810
2320.000000	0.003279
2319.000000	0.003637
2318.000000	0.003896
2317.000000	0.004088
2316.000000	0.004382
2315.000000	0.004735
2314.000000	0.005163
2313.000000	0.005272
2312.000000	0.005041
2311.000000	0.004477
2310.000000	0.004010
2309.000000	0.003646
2308.000000	0.003434
2307.000000	0.003208
2306.000000	0.003099
2305.000000	0.003047
2304.000000	0.003065
2303.000000	0.003065
2302.000000	0.003126
2301.000000	0.003174
2300.000000	0.003183
2299.000000	0.003092
2298.000000	0.003055
2297.000000	0.003062
2296.000000	0.003117
2295.000000	0.003136
2294.000000	0.003199
2293.000000	0.003229
2292.000000	0.003159
2291.000000	0.002970
2290.000000	0.002819
2289.000000	0.002788
2288.000000	0.002801
2287.000000	0.002771
2286.000000	0.002712
2285.000000	0.002681
2284.000000	0.002688
2283.000000	0.002774
2282.000000	0.002975
2281.000000	0.003229
2280.000000	0.003390
2279.000000	0.003466
2278.000000	0.003591
2277.000000	0.003793
2276.000000	0.003929
2275.000000	0.003948
2274.000000	0.003969
2273.000000	0.004050
2272.000000	0.004117
2271.000000	0.004139
2270.000000	0.004212
2269.000000	0.004330
2268.000000	0.004362
2267.000000	0.004293
2266.000000	0.004289
2265.000000	0.004420
2264.000000	0.004560
2263.000000	0.004630
2262.000000	0.004711
2261.000000	0.004800
2260.000000	0.004756
2259.000000	0.004567
2258.000000	0.004418
2257.000000	0.004430
2256.000000	0.004519
2255.000000	0.004660
2254.000000	0.004939
2253.000000	0.005282
2252.000000	0.005426
2251.000000	0.005285
2250.000000	0.005075
2249.000000	0.004932
2248.000000	0.004750
2247.000000	0.004485
2246.000000	0.004339
2245.000000	0.004438
2244.000000	0.004618
2243.000000	0.004693
2242.000000	0.004682
2241.000000	0.004629
2240.000000	0.004504
2239.000000	0.004394
2238.000000	0.004493
2237.000000	0.004762
2236.000000	0.004899
2235.000000	0.004794
2234.000000	0.004689
2233.000000	0.004767
2232.000000	0.004914
2231.000000	0.005031
2230.000000	0.005204
2229.000000	0.005422
2228.000000	0.005475
2227.000000	0.005333
2226.000000	0.005248
2225.000000	0.005321
2224.000000	0.005337
2223.000000	0.005198
2222.000000	0.005130
2221.000000	0.005268
2220.000000	0.005402
2219.000000	0.005369
2218.000000	0.005303
2217.000000	0.005323
2216.000000	0.005314
2215.000000	0.005230
2214.000000	0.005229
2213.000000	0.005317
2212.000000	0.005246
2211.000000	0.004946
2210.000000	0.004666
2209.000000	0.004535
2208.000000	0.004385
2207.000000	0.004181
2206.000000	0.004184
2205.000000	0.004489
2204.000000	0.004835
2203.000000	0.005065
2202.000000	0.005313
2201.000000	0.005558
2200.000000	0.005497
2199.000000	0.005087
2198.000000	0.004710
2197.000000	0.004596
2196.000000	0.004524
2195.000000	0.004331
2194.000000	0.004204
2193.000000	0.004224
2192.000000	0.004158
2191.000000	0.003939
2190.000000	0.003870
2189.000000	0.004084
2188.000000	0.004292
2187.000000	0.004313
2186.000000	0.004338
2185.000000	0.004456
2184.000000	0.004505
2183.000000	0.004573
2182.000000	0.004998
2181.000000	0.005599
2180.000000	0.005672
2179.000000	0.005038
2178.000000	0.004413
2177.000000	0.004432
2176.000000	0.004929
2175.000000	0.005467
2174.000000	0.005884
2173.000000	0.006010
2172.000000	0.005547
2171.000000	0.004591
2170.000000	0.003680
2169.000000	0.003041
2168.000000	0.002369
2167.000000	0.001596
2166.000000	0.001175
2165.000000	0.001213
2164.000000	0.001076
2163.000000	0.000392
2162.000000	-0.000209
2161.000000	0.000242
2160.000000	0.002150
2159.000000	0.005342
2158.000000	0.009114
2157.000000	0.012124
2156.000000	0.013339
2155.000000	0.013111
2154.000000	0.012548
2153.000000	0.012053
2152.000000	0.011263
2151.000000	0.010183
2150.000000	0.009432
2149.000000	0.009262
2148.000000	0.009245
2147.000000	0.009162
2146.000000	0.009344
2145.000000	0.009880
2144.000000	0.010275
2143.000000	0.010183
2142.000000	0.009816
2141.000000	0.009415
2140.000000	0.008963
2139.000000	0.008573
2138.000000	0.008590
2137.000000	0.009068
2136.000000	0.009672
2135.000000	0.010218
2134.000000	0.010779
2133.000000	0.011212
2132.000000	0.011183
2131.000000	0.010729
2130.000000	0.010269
2129.000000	0.009989
2128.000000	0.009672
2127.000000	0.009212
2126.000000	0.008800
2125.000000	0.008521
2124.000000	0.008222
2123.000000	0.007885
2122.000000	0.007707
2121.000000	0.007687
2120.000000	0.007563
2119.000000	0.007261
2118.000000	0.007004
2117.000000	0.006854
2116.000000	0.006595
2115.000000	0.006196
2114.000000	0.005950
2113.000000	0.005984
2112.000000	0.006049
2111.000000	0.005984
2110.000000	0.005966
2109.000000	0.006100
2108.000000	0.006179
2107.000000	0.006075
2106.000000	0.005988
2105.000000	0.006083
2104.000000	0.006234
2103.000000	0.006313
2102.000000	0.006363
2101.000000	0.006337
2100.000000	0.006080
2099.000000	0.005702
2098.000000	0.005602
2097.000000	0.005927
2096.000000	0.006375
2095.000000	0.006706
2094.000000	0.006974
2093.000000	0.007150
2092.000000	0.007012
2091.000000	0.006588
2090.000000	0.006243
2089.000000	0.006160
2088.000000	0.006116
2087.000000	0.005944
2086.000000	0.005774
2085.000000	0.005664
2084.000000	0.005428
2083.000000	0.005023
2082.000000	0.004698
2081.000000	0.004562
2080.000000	0.004423
2079.000000	0.004216
2078.000000	0.004156
2077.000000	0.004295
2076.000000	0.004362
2075.000000	0.004270
2074.000000	0.004240
2073.000000	0.004329
2072.000000	0.004318
2071.000000	0.004202
2070.000000	0.004295
2069.000000	0.004627
2068.000000	0.004810
2067.000000	0.004713
2066.000000	0.004671
2065.000000	0.004842
2064.000000	0.004919
2063.000000	0.004748
2062.000000	0.004600
2061.000000	0.004611
2060.000000	0.004543
2059.000000	0.004307
2058.000000	0.004142
2057.000000	0.004080
2056.000000	0.003845
2055.000000	0.003424
2054.000000	0.003045
2053.000000	0.002510
2052.000000	0.001374
2051.000000	-0.000034
2050.000000	-0.000570
2049.000000	0.000271
2048.000000	0.001565
2047.000000	0.002314
2046.000000	0.002607
2045.000000	0.002812
2044.000000	0.002777
2043.000000	0.002498
2042.000000	0.002543
2041.000000	0.003061
2040.000000	0.003320
2039.000000	0.002947
2038.000000	0.002595
2037.000000	0.002778
2036.000000	0.003078
2035.000000	0.003175
2034.000000	0.003564
2033.000000	0.004433
2032.000000	0.005013
2031.000000	0.004902
2030.000000	0.004770
2029.000000	0.005112
2028.000000	0.005406
2027.000000	0.005253
2026.000000	0.005105
2025.000000	0.005270
2024.000000	0.005339
2023.000000	0.005157
2022.000000	0.005277
2021.000000	0.005844
2020.000000	0.006168
2019.000000	0.005964
2018.000000	0.005849
2017.000000	0.006084
2016.000000	0.006040
2015.000000	0.005502
2014.000000	0.005173
2013.000000	0.005368
2012.000000	0.005460
2011.000000	0.005149
2010.000000	0.005092
2009.000000	0.005734
2008.000000	0.006606
2007.000000	0.007331
2006.000000	0.008124
2005.000000	0.008846
2004.000000	0.008889
2003.000000	0.008290
2002.000000	0.007869
2001.000000	0.007817
2000.000000	0.007472
1999.000000	0.006658
1998.000000	0.006009
1997.000000	0.005865
1996.000000	0.005771
1995.000000	0.005436
1994.000000	0.005187
1993.000000	0.005171
1992.000000	0.004998
1991.000000	0.004629
1990.000000	0.004612
1989.000000	0.004998
1988.000000	0.005095
1987.000000	0.004669
1986.000000	0.004331
1985.000000	0.004325
1984.000000	0.004020
1983.000000	0.003016
1982.000000	0.001853
1981.000000	0.001052
1980.000000	0.000604
1979.000000	0.000731
1978.000000	0.001993
1977.000000	0.004078
1976.000000	0.005670
1975.000000	0.006234
1974.000000	0.006476
1973.000000	0.006865
1972.000000	0.007010
1971.000000	0.006778
1970.000000	0.006703
1969.000000	0.006923
1968.000000	0.006903
1967.000000	0.006550
1966.000000	0.006484
1965.000000	0.006858
1964.000000	0.007044
1963.000000	0.006840
1962.000000	0.006888
1961.000000	0.007567
1960.000000	0.008429
1959.000000	0.009032
1958.000000	0.009425
1957.000000	0.009560
1956.000000	0.009133
1955.000000	0.008285
1954.000000	0.007604
1953.000000	0.007349
1952.000000	0.007191
1951.000000	0.006990
1950.000000	0.007104
1949.000000	0.007516
1948.000000	0.007675
1947.000000	0.007414
1946.000000	0.007193
1945.000000	0.007262
1944.000000	0.007316
1943.000000	0.007200
1942.000000	0.007169
1941.000000	0.007243
1940.000000	0.007170
1939.000000	0.006966
1938.000000	0.006937
1937.000000	0.007131
1936.000000	0.007259
1935.000000	0.007263
1934.000000	0.007368
1933.000000	0.007612
1932.000000	0.007663
1931.000000	0.007465
1930.000000	0.007458
1929.000000	0.007615
1928.000000	0.007568
1927.000000	0.007230
1926.000000	0.007055
1925.000000	0.007252
1924.000000	0.007316
1923.000000	0.007006
1922.000000	0.006685
1921.000000	0.006571
1920.000000	0.006408
1919.000000	0.006073
1918.000000	0.005948
1917.000000	0.006113
1916.000000	0.006164
1915.000000	0.006064
1914.000000	0.006079
1913.000000	0.006219
1912.000000	0.006189
1911.000000	0.006022
1910.000000	0.006141
1909.000000	0.006447
1908.000000	0.006536
1907.000000	0.006333
1906.000000	0.006230
1905.000000	0.006329
1904.000000	0.006148
1903.000000	0.005759
1902.000000	0.005762
1901.000000	0.006111
1900.000000	0.006233
1899.000000	0.005973
1898.000000	0.005795
1897.000000	0.005915
1896.000000	0.005890
1895.000000	0.005594
1894.000000	0.005466
1893.000000	0.005632
1892.000000	0.005688
1891.000000	0.005528
1890.000000	0.005574
1889.000000	0.005866
1888.000000	0.005918
1887.000000	0.005760
1886.000000	0.005842
1885.000000	0.006128
1884.000000	0.006100
1883.000000	0.005767
1882.000000	0.005687
1881.000000	0.005883
1880.000000	0.005922
1879.000000	0.005744
1878.000000	0.005693
1877.000000	0.005875
1876.000000	0.005884
1875.000000	0.005563
1874.000000	0.005369
1873.000000	0.005519
1872.000000	0.005585
1871.000000	0.005297
1870.000000	0.005106
1869.000000	0.005391
1868.000000	0.005645
1867.000000	0.005604
1866.000000	0.005751
1865.000000	0.006099
1864.000000	0.006103
1863.000000	0.005708
1862.000000	0.005511
1861.000000	0.005691
1860.000000	0.005745
1859.000000	0.005499
1858.000000	0.005401
1857.000000	0.005569
1856.000000	0.005563
1855.000000	0.005279
1854.000000	0.005271
1853.000000	0.005505
1852.000000	0.005577
1851.000000	0.005486
1850.000000	0.005415
1849.000000	0.005412
1848.000000	0.005333
1847.000000	0.005285
1846.000000	0.005424
1845.000000	0.005565
1844.000000	0.005423
1843.000000	0.005100
1842.000000	0.005192
1841.000000	0.005665
1840.000000	0.005916
1839.000000	0.005694
1838.000000	0.005499
1837.000000	0.005610
1836.000000	0.005582
1835.000000	0.005282
1834.000000	0.005093
1833.000000	0.005079
1832.000000	0.005066
1831.000000	0.004952
1830.000000	0.004904
1829.000000	0.004979
1828.000000	0.005027
1827.000000	0.005082
1826.000000	0.005181
1825.000000	0.005375
1824.000000	0.005432
1823.000000	0.005229
1822.000000	0.005118
1821.000000	0.005293
1820.000000	0.005600
1819.000000	0.005781
1818.000000	0.006077
1817.000000	0.006637
1816.000000	0.006826
1815.000000	0.006394
1814.000000	0.005838
1813.000000	0.005723
1812.000000	0.005848
1811.000000	0.005638
1810.000000	0.005415
1809.000000	0.005546
1808.000000	0.005563
1807.000000	0.005169
1806.000000	0.004821
1805.000000	0.004869
1804.000000	0.004815
1803.000000	0.004461
1802.000000	0.004205
1801.000000	0.004432
1800.000000	0.004742
1799.000000	0.004649
1798.000000	0.004528
1797.000000	0.004661
1796.000000	0.004682
1795.000000	0.004423
1794.000000	0.004082
1793.000000	0.004086
1792.000000	0.004281
1791.000000	0.004160
1790.000000	0.004116
1789.000000	0.004429
1788.000000	0.004605
1787.000000	0.004333
1786.000000	0.004064
1785.000000	0.004113
1784.000000	0.003982
1783.000000	0.003808
1782.000000	0.003824
1781.000000	0.004030
1780.000000	0.004240
1779.000000	0.004164
1778.000000	0.004066
1777.000000	0.004024
1776.000000	0.004058
1775.000000	0.004131
1774.000000	0.003809
1773.000000	0.003172
1772.000000	0.003000
1771.000000	0.003040
1770.000000	0.003187
1769.000000	0.003588
1768.000000	0.003773
1767.000000	0.003465
1766.000000	0.002971
1765.000000	0.002889
1764.000000	0.003057
1763.000000	0.002992
1762.000000	0.002566
1761.000000	0.002219
1760.000000	0.002169
1759.000000	0.002312
1758.000000	0.002427
1757.000000	0.002259
1756.000000	0.002082
1755.000000	0.002022
1754.000000	0.001947
1753.000000	0.001616
1752.000000	0.001355
1751.000000	0.001398
1750.000000	0.001678
1749.000000	0.002122
1748.000000	0.002540
1747.000000	0.002822
1746.000000	0.002634
1745.000000	0.002283
1744.000000	0.002244
1743.000000	0.002272
1742.000000	0.002059
1741.000000	0.001876
1740.000000	0.001778
1739.000000	0.001532
1738.000000	0.001341
1737.000000	0.001664
1736.000000	0.001861
1735.000000	0.001313
1734.000000	0.001143
1733.000000	0.001079
1732.000000	0.001243
1731.000000	0.001946
1730.000000	0.002654
1729.000000	0.002799
1728.000000	0.002516
1727.000000	0.002321
1726.000000	0.002172
1725.000000	0.002219
1724.000000	0.002344
1723.000000	0.002139
1722.000000	0.001935
1721.000000	0.002162
1720.000000	0.002375
1719.000000	0.001830
1718.000000	0.001504
1717.000000	0.002264
1716.000000	0.002777
1715.000000	0.002744
1714.000000	0.003089
1713.000000	0.003845
1712.000000	0.004161
1711.000000	0.003906
1710.000000	0.003780
1709.000000	0.003990
1708.000000	0.004283
1707.000000	0.004466
1706.000000	0.004947
1705.000000	0.005766
1704.000000	0.006197
1703.000000	0.006410
1702.000000	0.006281
1701.000000	0.005929
1700.000000	0.006123
1699.000000	0.005991
1698.000000	0.007224
1697.000000	0.009595
1696.000000	0.010685
1695.000000	0.009834
1694.000000	0.009078
1693.000000	0.009848
1692.000000	0.011036
1691.000000	0.011561
1690.000000	0.011885
1689.000000	0.012428
1688.000000	0.013367
1687.000000	0.014171
1686.000000	0.013939
1685.000000	0.013291
1684.000000	0.013877
1683.000000	0.014543
1682.000000	0.015374
1681.000000	0.016486
1680.000000	0.017352
1679.000000	0.017930
1678.000000	0.018349
1677.000000	0.018537
1676.000000	0.018655
1675.000000	0.019269
1674.000000	0.019760
1673.000000	0.020288
1672.000000	0.021235
1671.000000	0.022400
1670.000000	0.023675
1669.000000	0.024577
1668.000000	0.024998
1667.000000	0.025491
1666.000000	0.026097
1665.000000	0.026620
1664.000000	0.026913
1663.000000	0.027580
1662.000000	0.028570
1661.000000	0.029092
1660.000000	0.029571
1659.000000	0.030271
1658.000000	0.030772
1657.000000	0.031098
1656.000000	0.031889
1655.000000	0.032351
1654.000000	0.032062
1653.000000	0.032949
1652.000000	0.031712
1651.000000	0.030480
1650.000000	0.031326
1649.000000	0.032943
1648.000000	0.034134
1647.000000	0.035055
1646.000000	0.035384
1645.000000	0.035023
1644.000000	0.034746
1643.000000	0.034973
1642.000000	0.035447
1641.000000	0.035529
1640.000000	0.035422
1639.000000	0.035430
1638.000000	0.035674
1637.000000	0.035871
1636.000000	0.036370
1635.000000	0.036639
1634.000000	0.036144
1633.000000	0.036017
1632.000000	0.036202
1631.000000	0.036244
1630.000000	0.036119
1629.000000	0.035955
1628.000000	0.035636
1627.000000	0.035271
1626.000000	0.034876
1625.000000	0.034324
1624.000000	0.033699
1623.000000	0.033311
1622.000000	0.032888
1621.000000	0.032164
1620.000000	0.031672
1619.000000	0.031418
1618.000000	0.030819
1617.000000	0.029555
1616.000000	0.028018
1615.000000	0.026974
1614.000000	0.026756
1613.000000	0.026630
1612.000000	0.025954
1611.000000	0.025263
1610.000000	0.024976
1609.000000	0.024642
1608.000000	0.024013
1607.000000	0.023581
1606.000000	0.023289
1605.000000	0.022634
1604.000000	0.021939
1603.000000	0.021624
1602.000000	0.021432
1601.000000	0.020967
1600.000000	0.020414
1599.000000	0.020148
1598.000000	0.019996
1597.000000	0.019672
1596.000000	0.019317
1595.000000	0.019245
1594.000000	0.019335
1593.000000	0.019209
1592.000000	0.018911
1591.000000	0.018809
1590.000000	0.018913
1589.000000	0.018868
1588.000000	0.018698
1587.000000	0.018731
1586.000000	0.019035
1585.000000	0.019022
1584.000000	0.018822
1583.000000	0.019096
1582.000000	0.019543
1581.000000	0.019517
1580.000000	0.019462
1579.000000	0.020053
1578.000000	0.020676
1577.000000	0.020611
1576.000000	0.020285
1575.000000	0.020179
1574.000000	0.020398
1573.000000	0.020893
1572.000000	0.021366
1571.000000	0.021664
1570.000000	0.022219
1569.000000	0.022555
1568.000000	0.022725
1567.000000	0.023381
1566.000000	0.024284
1565.000000	0.024683
1564.000000	0.024997
1563.000000	0.025745
1562.000000	0.026510
1561.000000	0.025124
1560.000000	0.022781
1559.000000	0.025004
1558.000000	0.027160
1557.000000	0.026827
1556.000000	0.027242
1555.000000	0.028448
1554.000000	0.028975
1553.000000	0.028693
1552.000000	0.028902
1551.000000	0.029649
1550.000000	0.030326
1549.000000	0.030455
1548.000000	0.030239
1547.000000	0.030195
1546.000000	0.030248
1545.000000	0.030208
1544.000000	0.030295
1543.000000	0.030305
1542.000000	0.030127
1541.000000	0.030417
1540.000000	0.031292
1539.000000	0.031121
1538.000000	0.029955
1537.000000	0.029517
1536.000000	0.029729
1535.000000	0.029922
1534.000000	0.029967
1533.000000	0.030081
1532.000000	0.029915
1531.000000	0.029474
1530.000000	0.029182
1529.000000	0.029135
1528.000000	0.029043
1527.000000	0.028811
1526.000000	0.028457
1525.000000	0.028079
1524.000000	0.027909
1523.000000	0.027790
1522.000000	0.027670
1521.000000	0.027332
1520.000000	0.026427
1519.000000	0.025880
1518.000000	0.026086
1517.000000	0.026630
1516.000000	0.026702
1515.000000	0.026168
1514.000000	0.025580
1513.000000	0.025235
1512.000000	0.024830
1511.000000	0.024102
1510.000000	0.023459
1509.000000	0.023212
1508.000000	0.023389
1507.000000	0.023877
1506.000000	0.023330
1505.000000	0.021492
1504.000000	0.020402
1503.000000	0.020185
1502.000000	0.019944
1501.000000	0.019353
1500.000000	0.018650
1499.000000	0.017920
1498.000000	0.017276
1497.000000	0.017341
1496.000000	0.017576
1495.000000	0.017302
1494.000000	0.017112
1493.000000	0.017448
1492.000000	0.017721
1491.000000	0.017521
1490.000000	0.017438
1489.000000	0.017834
1488.000000	0.017926
1487.000000	0.017309
1486.000000	0.016803
1485.000000	0.016437
1484.000000	0.016024
1483.000000	0.015702
1482.000000	0.015594
1481.000000	0.015671
1480.000000	0.015554
1479.000000	0.015206
1478.000000	0.014940
1477.000000	0.015075
1476.000000	0.015237
1475.000000	0.015249
1474.000000	0.015480
1473.000000	0.016229
1472.000000	0.016972
1471.000000	0.017030
1470.000000	0.017001
1469.000000	0.017365
1468.000000	0.017660
1467.000000	0.017601
1466.000000	0.017599
1465.000000	0.017962
1464.000000	0.018501
1463.000000	0.018676
1462.000000	0.018659
1461.000000	0.018774
1460.000000	0.019031
1459.000000	0.019101
1458.000000	0.019169
1457.000000	0.019810
1456.000000	0.020097
1455.000000	0.020146
1454.000000	0.020686
1453.000000	0.021438
1452.000000	0.021988
1451.000000	0.022144
1450.000000	0.022090
1449.000000	0.022278
1448.000000	0.022548
1447.000000	0.022634
1446.000000	0.022329
1445.000000	0.021890
1444.000000	0.021857
1443.000000	0.021856
1442.000000	0.021466
1441.000000	0.020954
1440.000000	0.020874
1439.000000	0.020804
1438.000000	0.020175
1437.000000	0.019616
1436.000000	0.019661
1435.000000	0.019699
1434.000000	0.019599
1433.000000	0.019607
1432.000000	0.019713
1431.000000	0.019704
1430.000000	0.019434
1429.000000	0.019225
1428.000000	0.019064
1427.000000	0.018929
1426.000000	0.018698
1425.000000	0.018424
1424.000000	0.018647
1423.000000	0.019032
1422.000000	0.018950
1421.000000	0.018376
1420.000000	0.017985
1419.000000	0.018094
1418.000000	0.018061
1417.000000	0.018112
1416.000000	0.018650
1415.000000	0.019082
1414.000000	0.018868
1413.000000	0.018438
1412.000000	0.018497
1411.000000	0.018784
1410.000000	0.018673
1409.000000	0.018429
1408.000000	0.018404
1407.000000	0.018581
1406.000000	0.018771
1405.000000	0.018972
1404.000000	0.019356
1403.000000	0.019601
1402.000000	0.019482
1401.000000	0.019220
1400.000000	0.019228
1399.000000	0.019461
1398.000000	0.019495
1397.000000	0.019445
1396.000000	0.019541
1395.000000	0.019681
1394.000000	0.019393
1393.000000	0.018784
1392.000000	0.018519
1391.000000	0.018557
1390.000000	0.018388
1389.000000	0.017942
1388.000000	0.017573
1387.000000	0.017423
1386.000000	0.017289
1385.000000	0.017143
1384.000000	0.017179
1383.000000	0.017212
1382.000000	0.017017
1381.000000	0.016686
1380.000000	0.016377
1379.000000	0.016107
1378.000000	0.015779
1377.000000	0.015419
1376.000000	0.015197
1375.000000	0.015279
1374.000000	0.015406
1373.000000	0.015227
1372.000000	0.014797
1371.000000	0.014456
1370.000000	0.014269
1369.000000	0.014018
1368.000000	0.013695
1367.000000	0.013340
1366.000000	0.012949
1365.000000	0.012606
1364.000000	0.012473
1363.000000	0.012598
1362.000000	0.012745
1361.000000	0.012692
1360.000000	0.012534
1359.000000	0.012435
1358.000000	0.012381
1357.000000	0.012315
1356.000000	0.012279
1355.000000	0.012328
1354.000000	0.012402
1353.000000	0.012503
1352.000000	0.012591
1351.000000	0.012732
1350.000000	0.012947
1349.000000	0.013133
1348.000000	0.013318
1347.000000	0.013550
1346.000000	0.013790
1345.000000	0.013958
1344.000000	0.014060
1343.000000	0.014173
1342.000000	0.014357
1341.000000	0.014661
1340.000000	0.015107
1339.000000	0.015575
1338.000000	0.015838
1337.000000	0.015854
1336.000000	0.015767
1335.000000	0.015668
1334.000000	0.015546
1333.000000	0.015411
1332.000000	0.015313
1331.000000	0.015260
1330.000000	0.015161
1329.000000	0.014978
1328.000000	0.014784
1327.000000	0.014665
1326.000000	0.014582
1325.000000	0.014463
1324.000000	0.014363
1323.000000	0.014322
1322.000000	0.014274
1321.000000	0.014201
1320.000000	0.014208
1319.000000	0.014326
1318.000000	0.014418
1317.000000	0.014388
1316.000000	0.014304
1315.000000	0.014245
1314.000000	0.014179
1313.000000	0.014084
1312.000000	0.014006
1311.000000	0.013955
1310.000000	0.013851
1309.000000	0.013685
1308.000000	0.013535
1307.000000	0.013449
1306.000000	0.013375
1305.000000	0.013275
1304.000000	0.013206
1303.000000	0.013174
1302.000000	0.013097
1301.000000	0.012945
1300.000000	0.012799
1299.000000	0.012704
1298.000000	0.012615
1297.000000	0.012528
1296.000000	0.012511
1295.000000	0.012572
1294.000000	0.012609
1293.000000	0.012586
1292.000000	0.012590
1291.000000	0.012679
1290.000000	0.012816
1289.000000	0.012970
1288.000000	0.013153
1287.000000	0.013329
1286.000000	0.013412
1285.000000	0.013419
1284.000000	0.013469
1283.000000	0.013589
1282.000000	0.013688
1281.000000	0.013717
1280.000000	0.013740
1279.000000	0.013789
1278.000000	0.013800
1277.000000	0.013734
1276.000000	0.013643
1275.000000	0.013564
1274.000000	0.013473
1273.000000	0.013385
1272.000000	0.013373
1271.000000	0.013427
1270.000000	0.013432
1269.000000	0.013338
1268.000000	0.013242
1267.000000	0.013232
1266.000000	0.013281
1265.000000	0.013356
1264.000000	0.013497
1263.000000	0.013719
1262.000000	0.013980
1261.000000	0.014263
1260.000000	0.014589
1259.000000	0.014912
1258.000000	0.015127
1257.000000	0.015233
1256.000000	0.015335
1255.000000	0.015471
1254.000000	0.015571
1253.000000	0.015620
1252.000000	0.015699
1251.000000	0.015842
1250.000000	0.015991
1249.000000	0.016130
1248.000000	0.016327
1247.000000	0.016598
1246.000000	0.016838
1245.000000	0.016986
1244.000000	0.017092
1243.000000	0.017201
1242.000000	0.017281
1241.000000	0.017318
1240.000000	0.017345
1239.000000	0.017350
1238.000000	0.017264
1237.000000	0.017092
1236.000000	0.016928
1235.000000	0.016806
1234.000000	0.016649
1233.000000	0.016406
1232.000000	0.016132
1231.000000	0.015874
1230.000000	0.015615
1229.000000	0.015345
1228.000000	0.015097
1227.000000	0.014873
1226.000000	0.014628
1225.000000	0.014363
1224.000000	0.014112
1223.000000	0.013838
1222.000000	0.013446
1221.000000	0.012918
1220.000000	0.012359
1219.000000	0.011878
1218.000000	0.011516
1217.000000	0.011308
1216.000000	0.011281
1215.000000	0.011373
1214.000000	0.011460
1213.000000	0.011505
1212.000000	0.011557
1211.000000	0.011622
1210.000000	0.011644
1209.000000	0.011626
1208.000000	0.011646
1207.000000	0.011724
1206.000000	0.011797
1205.000000	0.011844
1204.000000	0.011909
1203.000000	0.011995
1202.000000	0.012047
1201.000000	0.012049
1200.000000	0.012048
1199.000000	0.012046
1198.000000	0.011980
1197.000000	0.011841
1196.000000	0.011688
1195.000000	0.011545
1194.000000	0.011372
1193.000000	0.011172
1192.000000	0.011008
1191.000000	0.010892
1190.000000	0.010763
1189.000000	0.010599
1188.000000	0.010449
1187.000000	0.010326
1186.000000	0.010160
1185.000000	0.009903
1184.000000	0.009606
1183.000000	0.009371
1182.000000	0.009289
1181.000000	0.009411
1180.000000	0.009685
1179.000000	0.009933
1178.000000	0.009993
1177.000000	0.009888
1176.000000	0.009768
1175.000000	0.009706
1174.000000	0.009666
1173.000000	0.009624
1172.000000	0.009620
1171.000000	0.009658
1170.000000	0.009684
1169.000000	0.009697
1168.000000	0.009759
1167.000000	0.009891
1166.000000	0.010042
1165.000000	0.010177
1164.000000	0.010316
1163.000000	0.010448
1162.000000	0.010527
1161.000000	0.010553
1160.000000	0.010579
1159.000000	0.010615
1158.000000	0.010608
1157.000000	0.010538
1156.000000	0.010441
1155.000000	0.010335
1154.000000	0.010205
1153.000000	0.010080
1152.000000	0.010017
1151.000000	0.010011
1150.000000	0.009990
1149.000000	0.009926
1148.000000	0.009852
1147.000000	0.009771
1146.000000	0.009640
1145.000000	0.009464
1144.000000	0.009307
1143.000000	0.009191
1142.000000	0.009081
1141.000000	0.008968
1140.000000	0.008881
1139.000000	0.008809
1138.000000	0.008698
1137.000000	0.008548
1136.000000	0.008421
1135.000000	0.008344
1134.000000	0.008276
1133.000000	0.008201
1132.000000	0.008154
1131.000000	0.008139
1130.000000	0.008122
1129.000000	0.008104
1128.000000	0.008129
1127.000000	0.008198
1126.000000	0.008251
1125.000000	0.008258
1124.000000	0.008244
1123.000000	0.008226
1122.000000	0.008196
1121.000000	0.008184
1120.000000	0.008235
1119.000000	0.008323
1118.000000	0.008368
1117.000000	0.008357
1116.000000	0.008350
1115.000000	0.008381
1114.000000	0.008421
1113.000000	0.008454
1112.000000	0.008500
1111.000000	0.008556
1110.000000	0.008602
1109.000000	0.008666
1108.000000	0.008797
1107.000000	0.008960
1106.000000	0.009069
1105.000000	0.009109
1104.000000	0.009147
1103.000000	0.009217
1102.000000	0.009289
1101.000000	0.009354
1100.000000	0.009440
1099.000000	0.009532
1098.000000	0.009588
1097.000000	0.009628
1096.000000	0.009717
1095.000000	0.009860
1094.000000	0.010002
1093.000000	0.010129
1092.000000	0.010287
1091.000000	0.010478
1090.000000	0.010669
1089.000000	0.010876
1088.000000	0.011155
1087.000000	0.011494
1086.000000	0.011812
1085.000000	0.012066
1084.000000	0.012281
1083.000000	0.012473
1082.000000	0.012631
1081.000000	0.012766
1080.000000	0.012893
1079.000000	0.012970
1078.000000	0.012936
1077.000000	0.012812
1076.000000	0.012660
1075.000000	0.012470
1074.000000	0.012190
1073.000000	0.011858
1072.000000	0.011594
1071.000000	0.011455
1070.000000	0.011395
1069.000000	0.011365
1068.000000	0.011366
1067.000000	0.011388
1066.000000	0.011398
1065.000000	0.011418
1064.000000	0.011497
1063.000000	0.011616
1062.000000	0.011693
1061.000000	0.011694
1060.000000	0.011653
1059.000000	0.011581
1058.000000	0.011450
1057.000000	0.011273
1056.000000	0.011122
1055.000000	0.011041
1054.000000	0.011025
1053.000000	0.011078
1052.000000	0.011231
1051.000000	0.011477
1050.000000	0.011758
1049.000000	0.012036
1048.000000	0.012278
1047.000000	0.012400
1046.000000	0.012343
1045.000000	0.012169
1044.000000	0.012016
1043.000000	0.011950
1042.000000	0.011930
1041.000000	0.011921
1040.000000	0.011947
1039.000000	0.012022
1038.000000	0.012120
1037.000000	0.012236
1036.000000	0.012383
1035.000000	0.012544
1034.000000	0.012679
1033.000000	0.012798
1032.000000	0.012943
1031.000000	0.013093
1030.000000	0.013176
1029.000000	0.013177
1028.000000	0.013148
1027.000000	0.013123
1026.000000	0.013069
1025.000000	0.012967
1024.000000	0.012845
1023.000000	0.012730
1022.000000	0.012619
1021.000000	0.012520
1020.000000	0.012452
1019.000000	0.012403
1018.000000	0.012350
1017.000000	0.012296
1016.000000	0.012258
1015.000000	0.012199
1014.000000	0.012063
1013.000000	0.011859
1012.000000	0.011649
1011.000000	0.011459
1010.000000	0.011266
1009.000000	0.011072
1008.000000	0.010906
1007.000000	0.010764
1006.000000	0.010603
1005.000000	0.010407
1004.000000	0.010207
1003.000000	0.010024
1002.000000	0.009853
1001.000000	0.009690
1000.000000	0.009539
999.000000	0.009379
998.000000	0.009185
997.000000	0.008986
996.000000	0.008827
995.000000	0.008692
994.000000	0.008526
993.000000	0.008324
992.000000	0.008138
991.000000	0.007996
990.000000	0.007871
989.000000	0.007746
988.000000	0.007632
987.000000	0.007518
986.000000	0.007377
985.000000	0.007209
984.000000	0.007050
983.000000	0.006912
982.000000	0.006783
981.000000	0.006669
980.000000	0.006594
979.000000	0.006549
978.000000	0.006497
977.000000	0.006435
976.000000	0.006386
975.000000	0.006342
974.000000	0.006271
973.000000	0.006181
972.000000	0.006110
971.000000	0.006057
970.000000	0.005978
969.000000	0.005855
968.000000	0.005700
967.000000	0.005508
966.000000	0.005277
965.000000	0.005055
964.000000	0.004912
963.000000	0.004836
962.000000	0.004755
961.000000	0.004648
960.000000	0.004572
959.000000	0.004556
958.000000	0.004546
957.000000	0.004474
956.000000	0.004333
955.000000	0.004154
954.000000	0.003971
953.000000	0.003829
952.000000	0.003757
951.000000	0.003732
950.000000	0.003699
949.000000	0.003655
948.000000	0.003642
947.000000	0.003666
946.000000	0.003683
945.000000	0.003671
944.000000	0.003660
943.000000	0.003667
942.000000	0.003672
941.000000	0.003662
940.000000	0.003664
939.000000	0.003689
938.000000	0.003715
937.000000	0.003718
936.000000	0.003696
935.000000	0.003646
934.000000	0.003572
933.000000	0.003507
932.000000	0.003485
931.000000	0.003475
930.000000	0.003419
929.000000	0.003326
928.000000	0.003265
927.000000	0.003260
926.000000	0.003256
925.000000	0.003205
924.000000	0.003119
923.000000	0.003037
922.000000	0.002975
921.000000	0.002934
920.000000	0.002903
919.000000	0.002844
918.000000	0.002727
917.000000	0.002583
916.000000	0.002486
915.000000	0.002455
914.000000	0.002435
913.000000	0.002380
912.000000	0.002306
911.000000	0.002243
910.000000	0.002192
909.000000	0.002141
908.000000	0.002098
907.000000	0.002075
906.000000	0.002077
905.000000	0.002106
904.000000	0.002160
903.000000	0.002214
902.000000	0.002243
901.000000	0.002253
900.000000	0.002245
899.000000	0.002186
898.000000	0.002041
897.000000	0.001847
896.000000	0.001689
895.000000	0.001607
894.000000	0.001577
893.000000	0.001568
892.000000	0.001572
891.000000	0.001573
890.000000	0.001541
889.000000	0.001477
888.000000	0.001427
887.000000	0.001428
886.000000	0.001471
885.000000	0.001535
884.000000	0.001618
883.000000	0.001730
882.000000	0.001886
881.000000	0.002104
880.000000	0.002390
879.000000	0.002724
878.000000	0.003071
877.000000	0.003386
876.000000	0.003601
875.000000	0.003631
874.000000	0.003477
873.000000	0.003250
872.000000	0.003077
871.000000	0.002976
870.000000	0.002884
869.000000	0.002785
868.000000	0.002713
867.000000	0.002673
866.000000	0.002621
865.000000	0.002539
864.000000	0.002458
863.000000	0.002401
862.000000	0.002366
861.000000	0.002348
860.000000	0.002360
859.000000	0.002392
858.000000	0.002407
857.000000	0.002391
856.000000	0.002361
855.000000	0.002334
854.000000	0.002309
853.000000	0.002299
852.000000	0.002317
851.000000	0.002347
850.000000	0.002356
849.000000	0.002351
848.000000	0.002364
847.000000	0.002384
846.000000	0.002366
845.000000	0.002297
844.000000	0.002225
843.000000	0.002186
842.000000	0.002160
841.000000	0.002120
840.000000	0.002083
839.000000	0.002081
838.000000	0.002098
837.000000	0.002090
836.000000	0.002022
835.000000	0.001888
834.000000	0.001707
833.000000	0.001513
832.000000	0.001358
831.000000	0.001282
830.000000	0.001290
829.000000	0.001345
828.000000	0.001399
827.000000	0.001433
826.000000	0.001489
825.000000	0.001625
824.000000	0.001844
823.000000	0.002076
822.000000	0.002245
821.000000	0.002345
820.000000	0.002404
819.000000	0.002427
818.000000	0.002398
817.000000	0.002321
816.000000	0.002219
815.000000	0.002107
814.000000	0.002003
813.000000	0.001936
812.000000	0.001924
811.000000	0.001944
810.000000	0.001954
809.000000	0.001926
808.000000	0.001846
807.000000	0.001717
806.000000	0.001580
805.000000	0.001508
804.000000	0.001536
803.000000	0.001625
802.000000	0.001719
801.000000	0.001797
800.000000	0.001853
799.000000	0.001856
798.000000	0.001802
797.000000	0.001754
796.000000	0.001767
795.000000	0.001809
794.000000	0.001810
793.000000	0.001774
792.000000	0.001774
791.000000	0.001838
790.000000	0.001914
789.000000	0.001951
788.000000	0.001953
787.000000	0.001933
786.000000	0.001877
785.000000	0.001787
784.000000	0.001720
783.000000	0.001741
782.000000	0.001843
781.000000	0.001943
780.000000	0.001959
779.000000	0.001881
778.000000	0.001762
777.000000	0.001665
776.000000	0.001611
775.000000	0.001580
774.000000	0.001559
773.000000	0.001550
772.000000	0.001557
771.000000	0.001570
770.000000	0.001592
769.000000	0.001645
768.000000	0.001739
767.000000	0.001850
766.000000	0.001938
765.000000	0.001988
764.000000	0.002010
763.000000	0.001997
762.000000	0.001928
761.000000	0.001809
760.000000	0.001691
759.000000	0.001634
758.000000	0.001652
757.000000	0.001704
756.000000	0.001740
755.000000	0.001747
754.000000	0.001745
753.000000	0.001751
752.000000	0.001761
751.000000	0.001765
750.000000	0.001761
749.000000	0.001755
748.000000	0.001759
747.000000	0.001792
746.000000	0.001872
745.000000	0.001989
744.000000	0.002110
743.000000	0.002199
742.000000	0.002224
741.000000	0.002156
740.000000	0.002003
739.000000	0.001847
738.000000	0.001798
737.000000	0.001879
736.000000	0.002002
735.000000	0.002077
734.000000	0.002111
733.000000	0.002166
732.000000	0.002261
731.000000	0.002371
730.000000	0.002469
729.000000	0.002542
728.000000	0.002591
727.000000	0.002642
726.000000	0.002735
725.000000	0.002877
724.000000	0.003032
723.000000	0.003164
722.000000	0.003265
721.000000	0.003327
720.000000	0.003328
719.000000	0.003295
718.000000	0.003327
717.000000	0.003482
716.000000	0.003703
715.000000	0.003885
714.000000	0.003991
713.000000	0.004045
712.000000	0.004064
711.000000	0.004054
710.000000	0.004046
709.000000	0.004071
708.000000	0.004108
707.000000	0.004122
706.000000	0.004105
705.000000	0.004089
704.000000	0.004096
703.000000	0.004131
702.000000	0.004206
701.000000	0.004302
700.000000	0.004344
699.000000	0.004301
698.000000	0.004228
697.000000	0.004186
696.000000	0.004142
695.000000	0.004038
694.000000	0.003911
693.000000	0.003823
692.000000	0.003737
691.000000	0.003610
690.000000	0.003510
689.000000	0.003558
688.000000	0.003754
687.000000	0.003978
686.000000	0.004164
685.000000	0.004299
684.000000	0.004346
683.000000	0.004312
682.000000	0.004294
681.000000	0.004338
680.000000	0.004370
679.000000	0.004341
678.000000	0.004345
677.000000	0.004400
676.000000	0.004400
675.000000	0.004397
674.000000	0.004523
673.000000	0.004646
672.000000	0.004316
671.000000	0.003489
670.000000	0.003067
669.000000	0.004501
668.000000	0.007300
667.000000	0.009821
666.000000	0.010914
665.000000	0.009477
664.000000	0.007031
663.000000	0.005490
662.000000	0.004984
661.000000	0.004914
660.000000	0.004933
659.000000	0.005042
658.000000	0.005165
657.000000	0.005179
656.000000	0.005118
655.000000	0.005085
654.000000	0.005008
653.000000	0.004863
652.000000	0.004794
651.000000	0.004867
650.000000	0.004986
649.000000	0.005090
648.000000	0.005247
647.000000	0.005442
646.000000	0.005535
645.000000	0.005498
644.000000	0.005456
643.000000	0.005467
642.000000	0.005456
641.000000	0.005388
640.000000	0.005356
639.000000	0.005402
638.000000	0.005426
637.000000	0.005373
636.000000	0.005341
635.000000	0.005411
634.000000	0.005526
633.000000	0.005592
632.000000	0.005563
631.000000	0.005434
630.000000	0.005256
629.000000	0.005181
628.000000	0.005324
627.000000	0.005579
626.000000	0.005725
625.000000	0.005721
624.000000	0.005699
623.000000	0.005728
622.000000	0.005746
621.000000	0.005734
620.000000	0.005749
619.000000	0.005766
618.000000	0.005712
617.000000	0.005656
616.000000	0.005756
615.000000	0.005969
614.000000	0.006058
613.000000	0.005937
612.000000	0.005785
611.000000	0.005752
610.000000	0.005781
609.000000	0.005767
608.000000	0.005727
607.000000	0.005716
606.000000	0.005719
605.000000	0.005749
604.000000	0.005846
603.000000	0.005959
602.000000	0.005956
601.000000	0.005828
600.000000	0.005747
599.000000	0.005846
598.000000	0.006036
597.000000	0.006171
596.000000	0.006254
595.000000	0.006365
594.000000	0.006504
593.000000	0.006599
592.000000	0.006602
591.000000	0.006501
590.000000	0.006324
589.000000	0.006162
588.000000	0.006129
587.000000	0.006212
586.000000	0.006282
585.000000	0.006295
584.000000	0.006337
583.000000	0.006422
582.000000	0.006397
581.000000	0.006172
580.000000	0.005889
579.000000	0.005761
578.000000	0.005839
577.000000	0.006076
576.000000	0.006422
575.000000	0.006755
574.000000	0.006893
573.000000	0.006832
572.000000	0.006789
571.000000	0.006937
570.000000	0.007212
569.000000	0.007452
568.000000	0.007592
567.000000	0.007581
566.000000	0.007356
565.000000	0.007000
564.000000	0.006770
563.000000	0.006808
562.000000	0.006948
561.000000	0.006987
560.000000	0.006944
559.000000	0.006932
558.000000	0.006950
557.000000	0.006945
556.000000	0.006916
555.000000	0.006847
554.000000	0.006698
553.000000	0.006557
552.000000	0.006625
551.000000	0.006926
550.000000	0.007194
549.000000	0.007196
548.000000	0.007015
547.000000	0.006868
546.000000	0.006857
545.000000	0.006960
544.000000	0.007143
543.000000	0.007281
542.000000	0.007151
541.000000	0.006721
540.000000	0.006266
539.000000	0.006053
538.000000	0.006035
537.000000	0.006034
536.000000	0.006067
535.000000	0.006265
534.000000	0.006616
533.000000	0.006990
532.000000	0.007242
531.000000	0.007269
530.000000	0.007012
529.000000	0.006571
528.000000	0.006216
527.000000	0.006211
526.000000	0.006521
525.000000	0.006852
524.000000	0.007005
523.000000	0.006957
522.000000	0.006790
521.000000	0.006627
520.000000	0.006548
519.000000	0.006490
518.000000	0.006315
517.000000	0.006039
516.000000	0.005866
515.000000	0.005908
514.000000	0.006052
513.000000	0.006109
512.000000	0.005996
511.000000	0.005722
510.000000	0.005369
509.000000	0.005043
508.000000	0.004796
507.000000	0.004627
506.000000	0.004502
505.000000	0.004476
504.000000	0.004620
503.000000	0.004852
502.000000	0.004923
501.000000	0.004704
500.000000	0.004390
499.000000	0.004237
498.000000	0.004291
497.000000	0.004427
496.000000	0.004534
495.000000	0.004596
494.000000	0.004637
493.000000	0.004649
492.000000	0.004639
491.000000	0.004627
490.000000	0.004584
489.000000	0.004479
488.000000	0.004295
487.000000	0.004049
486.000000	0.003739
485.000000	0.003404
484.000000	0.003180
483.000000	0.003194
482.000000	0.003373
481.000000	0.003468
480.000000	0.003352
479.000000	0.003144
478.000000	0.003029
477.000000	0.003113
476.000000	0.003318
475.000000	0.003395
474.000000	0.003158
473.000000	0.002734
472.000000	0.002480
471.000000	0.002598
470.000000	0.002926
469.000000	0.003308
468.000000	0.003728
467.000000	0.004001
466.000000	0.003861
465.000000	0.003455
464.000000	0.003263
463.000000	0.003480
462.000000	0.003720
461.000000	0.003545
460.000000	0.003025
459.000000	0.002503
458.000000	0.002119
457.000000	0.001807
456.000000	0.001512
455.000000	0.001189
454.000000	0.000879
453.000000	0.000761
452.000000	0.001150
451.000000	0.001763
450.000000	0.002017
