PE IR       SUBTECH     SPECTRUM    ASCII       PEDS        4.00        
   -1
3C-N10-C033_1.ASC
22/02/16
14:55:44.00
22/02/16
15:05:49.00
uco
Sample 033 By uco Date Wednesday, February 16 2022
450.000000
#HDR
-1
-1
#GR
cm-1
A
1.0
0.0
4000.000000
-1.000000
3551
8
0.064582
0.002640
#DATA
4000.000000	0.006292
3999.000000	0.006211
3998.000000	0.006147
3997.000000	0.006143
3996.000000	0.006183
3995.000000	0.006220
3994.000000	0.006255
3993.000000	0.006310
3992.000000	0.006379
3991.000000	0.006428
3990.000000	0.006442
3989.000000	0.006445
3988.000000	0.006454
3987.000000	0.006448
3986.000000	0.006415
3985.000000	0.006377
3984.000000	0.006349
3983.000000	0.006324
3982.000000	0.006289
3981.000000	0.006253
3980.000000	0.006241
3979.000000	0.006277
3978.000000	0.006354
3977.000000	0.006455
3976.000000	0.006581
3975.000000	0.006716
3974.000000	0.006808
3973.000000	0.006833
3972.000000	0.006825
3971.000000	0.006825
3970.000000	0.006825
3969.000000	0.006795
3968.000000	0.006709
3967.000000	0.006563
3966.000000	0.006384
3965.000000	0.006244
3964.000000	0.006237
3963.000000	0.006375
3962.000000	0.006575
3961.000000	0.006749
3960.000000	0.006867
3959.000000	0.006931
3958.000000	0.006918
3957.000000	0.006862
3956.000000	0.006836
3955.000000	0.006836
3954.000000	0.006815
3953.000000	0.006738
3952.000000	0.006646
3951.000000	0.006615
3950.000000	0.006749
3949.000000	0.007022
3948.000000	0.007189
3947.000000	0.007156
3946.000000	0.007079
3945.000000	0.007149
3944.000000	0.007372
3943.000000	0.007551
3942.000000	0.007594
3941.000000	0.007592
3940.000000	0.007584
3939.000000	0.007487
3938.000000	0.007179
3937.000000	0.006747
3936.000000	0.006450
3935.000000	0.006381
3934.000000	0.006546
3933.000000	0.006891
3932.000000	0.007426
3931.000000	0.007990
3930.000000	0.008228
3929.000000	0.008007
3928.000000	0.007562
3927.000000	0.007338
3926.000000	0.007421
3925.000000	0.007483
3924.000000	0.007468
3923.000000	0.007606
3922.000000	0.007764
3921.000000	0.007587
3920.000000	0.007169
3919.000000	0.007148
3918.000000	0.007623
3917.000000	0.008014
3916.000000	0.007992
3915.000000	0.007810
3914.000000	0.007708
3913.000000	0.007577
3912.000000	0.007342
3911.000000	0.007250
3910.000000	0.007273
3909.000000	0.007241
3908.000000	0.007169
3907.000000	0.007172
3906.000000	0.007328
3905.000000	0.007334
3904.000000	0.007154
3903.000000	0.007270
3902.000000	0.008070
3901.000000	0.009218
3900.000000	0.009789
3899.000000	0.009445
3898.000000	0.008793
3897.000000	0.008410
3896.000000	0.008154
3895.000000	0.007841
3894.000000	0.007680
3893.000000	0.008157
3892.000000	0.008759
3891.000000	0.008316
3890.000000	0.007198
3889.000000	0.006769
3888.000000	0.007397
3887.000000	0.008078
3886.000000	0.007910
3885.000000	0.007101
3884.000000	0.006860
3883.000000	0.007741
3882.000000	0.008910
3881.000000	0.009486
3880.000000	0.009220
3879.000000	0.008435
3878.000000	0.007979
3877.000000	0.008150
3876.000000	0.008405
3875.000000	0.008212
3874.000000	0.007554
3873.000000	0.007301
3872.000000	0.008159
3871.000000	0.009206
3870.000000	0.008863
3869.000000	0.007585
3868.000000	0.007326
3867.000000	0.008399
3866.000000	0.008906
3865.000000	0.008242
3864.000000	0.007918
3863.000000	0.008526
3862.000000	0.008997
3861.000000	0.008947
3860.000000	0.008844
3859.000000	0.009093
3858.000000	0.009478
3857.000000	0.009483
3856.000000	0.008648
3855.000000	0.006868
3854.000000	0.004956
3853.000000	0.003254
3852.000000	0.002640
3851.000000	0.004256
3850.000000	0.006561
3849.000000	0.007915
3848.000000	0.008270
3847.000000	0.008309
3846.000000	0.008145
3845.000000	0.007986
3844.000000	0.008028
3843.000000	0.008027
3842.000000	0.007967
3841.000000	0.008412
3840.000000	0.009048
3839.000000	0.009187
3838.000000	0.008658
3837.000000	0.007857
3836.000000	0.007468
3835.000000	0.007683
3834.000000	0.008271
3833.000000	0.008762
3832.000000	0.008631
3831.000000	0.007954
3830.000000	0.007399
3829.000000	0.007540
3828.000000	0.008211
3827.000000	0.008631
3826.000000	0.008221
3825.000000	0.007698
3824.000000	0.007762
3823.000000	0.008210
3822.000000	0.008724
3821.000000	0.008519
3820.000000	0.007655
3819.000000	0.007632
3818.000000	0.008545
3817.000000	0.008757
3816.000000	0.007437
3815.000000	0.005832
3814.000000	0.005882
3813.000000	0.007252
3812.000000	0.007914
3811.000000	0.007354
3810.000000	0.006792
3809.000000	0.007121
3808.000000	0.007667
3807.000000	0.007124
3806.000000	0.005803
3805.000000	0.005546
3804.000000	0.006661
3803.000000	0.007944
3802.000000	0.008182
3801.000000	0.006990
3800.000000	0.005913
3799.000000	0.006445
3798.000000	0.007785
3797.000000	0.008519
3796.000000	0.008398
3795.000000	0.007965
3794.000000	0.007791
3793.000000	0.007679
3792.000000	0.007344
3791.000000	0.007044
3790.000000	0.006958
3789.000000	0.006849
3788.000000	0.006605
3787.000000	0.006537
3786.000000	0.006907
3785.000000	0.007377
3784.000000	0.007448
3783.000000	0.007270
3782.000000	0.007210
3781.000000	0.007357
3780.000000	0.007525
3779.000000	0.007533
3778.000000	0.007442
3777.000000	0.007541
3776.000000	0.007632
3775.000000	0.007247
3774.000000	0.006586
3773.000000	0.006396
3772.000000	0.006853
3771.000000	0.007316
3770.000000	0.007280
3769.000000	0.007015
3768.000000	0.007035
3767.000000	0.007415
3766.000000	0.007727
3765.000000	0.007505
3764.000000	0.007028
3763.000000	0.006930
3762.000000	0.007072
3761.000000	0.007000
3760.000000	0.006963
3759.000000	0.007538
3758.000000	0.008215
3757.000000	0.008297
3756.000000	0.008057
3755.000000	0.007714
3754.000000	0.006805
3753.000000	0.005249
3752.000000	0.004563
3751.000000	0.005701
3750.000000	0.006701
3749.000000	0.006300
3748.000000	0.005992
3747.000000	0.007027
3746.000000	0.008485
3745.000000	0.008218
3744.000000	0.005682
3743.000000	0.003813
3742.000000	0.004848
3741.000000	0.006866
3740.000000	0.007415
3739.000000	0.006995
3738.000000	0.006866
3737.000000	0.007165
3736.000000	0.007869
3735.000000	0.009031
3734.000000	0.010303
3733.000000	0.010633
3732.000000	0.009491
3731.000000	0.007752
3730.000000	0.006740
3729.000000	0.006761
3728.000000	0.007135
3727.000000	0.007187
3726.000000	0.007077
3725.000000	0.007320
3724.000000	0.007861
3723.000000	0.008125
3722.000000	0.007947
3721.000000	0.007677
3720.000000	0.007558
3719.000000	0.007628
3718.000000	0.007464
3717.000000	0.006854
3716.000000	0.006343
3715.000000	0.006066
3714.000000	0.005679
3713.000000	0.005480
3712.000000	0.006160
3711.000000	0.007469
3710.000000	0.008379
3709.000000	0.008654
3708.000000	0.008547
3707.000000	0.008091
3706.000000	0.007568
3705.000000	0.007254
3704.000000	0.007214
3703.000000	0.007407
3702.000000	0.007571
3701.000000	0.007456
3700.000000	0.007131
3699.000000	0.006965
3698.000000	0.006981
3697.000000	0.006811
3696.000000	0.006596
3695.000000	0.006681
3694.000000	0.006790
3693.000000	0.006541
3692.000000	0.006233
3691.000000	0.006485
3690.000000	0.007141
3689.000000	0.007234
3688.000000	0.006273
3687.000000	0.005440
3686.000000	0.005743
3685.000000	0.006631
3684.000000	0.007038
3683.000000	0.006877
3682.000000	0.006902
3681.000000	0.007155
3680.000000	0.007001
3679.000000	0.006409
3678.000000	0.006342
3677.000000	0.007380
3676.000000	0.008690
3675.000000	0.008629
3674.000000	0.007684
3673.000000	0.007564
3672.000000	0.007863
3671.000000	0.007775
3670.000000	0.007594
3669.000000	0.007554
3668.000000	0.007683
3667.000000	0.007873
3666.000000	0.007800
3665.000000	0.007467
3664.000000	0.007218
3663.000000	0.007298
3662.000000	0.007477
3661.000000	0.007329
3660.000000	0.007025
3659.000000	0.006982
3658.000000	0.007446
3657.000000	0.007884
3656.000000	0.007673
3655.000000	0.007217
3654.000000	0.007279
3653.000000	0.007413
3652.000000	0.006752
3651.000000	0.006229
3650.000000	0.007312
3649.000000	0.009372
3648.000000	0.010600
3647.000000	0.010635
3646.000000	0.010174
3645.000000	0.009652
3644.000000	0.009159
3643.000000	0.008753
3642.000000	0.008428
3641.000000	0.008206
3640.000000	0.008191
3639.000000	0.008210
3638.000000	0.008060
3637.000000	0.007888
3636.000000	0.008075
3635.000000	0.008519
3634.000000	0.008697
3633.000000	0.008552
3632.000000	0.008440
3631.000000	0.008456
3630.000000	0.008872
3629.000000	0.009320
3628.000000	0.008882
3627.000000	0.008558
3626.000000	0.009016
3625.000000	0.009433
3624.000000	0.009270
3623.000000	0.008921
3622.000000	0.008844
3621.000000	0.009031
3620.000000	0.009317
3619.000000	0.009509
3618.000000	0.009356
3617.000000	0.009182
3616.000000	0.009379
3615.000000	0.009843
3614.000000	0.010206
3613.000000	0.010289
3612.000000	0.010202
3611.000000	0.010057
3610.000000	0.009936
3609.000000	0.010041
3608.000000	0.010446
3607.000000	0.010905
3606.000000	0.011057
3605.000000	0.010766
3604.000000	0.010197
3603.000000	0.009707
3602.000000	0.009574
3601.000000	0.009726
3600.000000	0.009981
3599.000000	0.010189
3598.000000	0.010218
3597.000000	0.010122
3596.000000	0.010288
3595.000000	0.010698
3594.000000	0.011022
3593.000000	0.011068
3592.000000	0.010862
3591.000000	0.010462
3590.000000	0.010061
3589.000000	0.010139
3588.000000	0.011050
3587.000000	0.012070
3586.000000	0.012413
3585.000000	0.012203
3584.000000	0.011853
3583.000000	0.011476
3582.000000	0.011165
3581.000000	0.011013
3580.000000	0.011056
3579.000000	0.011173
3578.000000	0.011243
3577.000000	0.011285
3576.000000	0.011408
3575.000000	0.011607
3574.000000	0.011707
3573.000000	0.011624
3572.000000	0.011332
3571.000000	0.010867
3570.000000	0.010422
3569.000000	0.010487
3568.000000	0.011548
3567.000000	0.013231
3566.000000	0.014434
3565.000000	0.014701
3564.000000	0.014342
3563.000000	0.013754
3562.000000	0.013240
3561.000000	0.013001
3560.000000	0.012999
3559.000000	0.013042
3558.000000	0.012967
3557.000000	0.012756
3556.000000	0.012521
3555.000000	0.012449
3554.000000	0.012658
3553.000000	0.013077
3552.000000	0.013457
3551.000000	0.013554
3550.000000	0.013366
3549.000000	0.013091
3548.000000	0.013023
3547.000000	0.013392
3546.000000	0.014072
3545.000000	0.014662
3544.000000	0.014917
3543.000000	0.014853
3542.000000	0.014580
3541.000000	0.014235
3540.000000	0.013967
3539.000000	0.013889
3538.000000	0.014015
3537.000000	0.014279
3536.000000	0.014583
3535.000000	0.014763
3534.000000	0.014722
3533.000000	0.014513
3532.000000	0.014328
3531.000000	0.014322
3530.000000	0.014505
3529.000000	0.014778
3528.000000	0.015036
3527.000000	0.015221
3526.000000	0.015361
3525.000000	0.015557
3524.000000	0.015887
3523.000000	0.016249
3522.000000	0.016415
3521.000000	0.016308
3520.000000	0.016095
3519.000000	0.015937
3518.000000	0.015863
3517.000000	0.015841
3516.000000	0.015869
3515.000000	0.015891
3514.000000	0.015842
3513.000000	0.015780
3512.000000	0.015844
3511.000000	0.016084
3510.000000	0.016398
3509.000000	0.016616
3508.000000	0.016645
3507.000000	0.016515
3506.000000	0.016346
3505.000000	0.016327
3504.000000	0.016625
3503.000000	0.017140
3502.000000	0.017543
3501.000000	0.017633
3500.000000	0.017498
3499.000000	0.017332
3498.000000	0.017237
3497.000000	0.017243
3496.000000	0.017353
3495.000000	0.017502
3494.000000	0.017582
3493.000000	0.017558
3492.000000	0.017499
3491.000000	0.017466
3490.000000	0.017490
3489.000000	0.017607
3488.000000	0.017818
3487.000000	0.018036
3486.000000	0.018152
3485.000000	0.018166
3484.000000	0.018189
3483.000000	0.018291
3482.000000	0.018436
3481.000000	0.018563
3480.000000	0.018646
3479.000000	0.018669
3478.000000	0.018620
3477.000000	0.018551
3476.000000	0.018550
3475.000000	0.018629
3474.000000	0.018705
3473.000000	0.018727
3472.000000	0.018733
3471.000000	0.018752
3470.000000	0.018787
3469.000000	0.018871
3468.000000	0.019020
3467.000000	0.019166
3466.000000	0.019223
3465.000000	0.019204
3464.000000	0.019203
3463.000000	0.019270
3462.000000	0.019389
3461.000000	0.019535
3460.000000	0.019684
3459.000000	0.019781
3458.000000	0.019792
3457.000000	0.019765
3456.000000	0.019775
3455.000000	0.019831
3454.000000	0.019912
3453.000000	0.019976
3452.000000	0.019989
3451.000000	0.019955
3450.000000	0.019935
3449.000000	0.020026
3448.000000	0.020258
3447.000000	0.020543
3446.000000	0.020758
3445.000000	0.020870
3444.000000	0.020922
3443.000000	0.020950
3442.000000	0.020957
3441.000000	0.020952
3440.000000	0.020956
3439.000000	0.020979
3438.000000	0.021016
3437.000000	0.021063
3436.000000	0.021114
3435.000000	0.021164
3434.000000	0.021233
3433.000000	0.021327
3432.000000	0.021440
3431.000000	0.021564
3430.000000	0.021675
3429.000000	0.021749
3428.000000	0.021789
3427.000000	0.021827
3426.000000	0.021874
3425.000000	0.021914
3424.000000	0.021954
3423.000000	0.022027
3422.000000	0.022157
3421.000000	0.022323
3420.000000	0.022481
3419.000000	0.022589
3418.000000	0.022617
3417.000000	0.022573
3416.000000	0.022508
3415.000000	0.022489
3414.000000	0.022529
3413.000000	0.022597
3412.000000	0.022666
3411.000000	0.022741
3410.000000	0.022826
3409.000000	0.022914
3408.000000	0.023006
3407.000000	0.023100
3406.000000	0.023171
3405.000000	0.023209
3404.000000	0.023250
3403.000000	0.023326
3402.000000	0.023423
3401.000000	0.023524
3400.000000	0.023652
3399.000000	0.023814
3398.000000	0.023954
3397.000000	0.024015
3396.000000	0.024017
3395.000000	0.024028
3394.000000	0.024091
3393.000000	0.024202
3392.000000	0.024327
3391.000000	0.024420
3390.000000	0.024448
3389.000000	0.024429
3388.000000	0.024423
3387.000000	0.024462
3386.000000	0.024520
3385.000000	0.024569
3384.000000	0.024609
3383.000000	0.024641
3382.000000	0.024654
3381.000000	0.024665
3380.000000	0.024716
3379.000000	0.024817
3378.000000	0.024928
3377.000000	0.025024
3376.000000	0.025103
3375.000000	0.025157
3374.000000	0.025171
3373.000000	0.025179
3372.000000	0.025242
3371.000000	0.025374
3370.000000	0.025530
3369.000000	0.025678
3368.000000	0.025820
3367.000000	0.025941
3366.000000	0.026015
3365.000000	0.026046
3364.000000	0.026084
3363.000000	0.026166
3362.000000	0.026290
3361.000000	0.026434
3360.000000	0.026571
3359.000000	0.026666
3358.000000	0.026715
3357.000000	0.026757
3356.000000	0.026833
3355.000000	0.026923
3354.000000	0.026983
3353.000000	0.027025
3352.000000	0.027104
3351.000000	0.027241
3350.000000	0.027402
3349.000000	0.027550
3348.000000	0.027679
3347.000000	0.027785
3346.000000	0.027863
3345.000000	0.027927
3344.000000	0.028010
3343.000000	0.028102
3342.000000	0.028172
3341.000000	0.028220
3340.000000	0.028287
3339.000000	0.028396
3338.000000	0.028538
3337.000000	0.028696
3336.000000	0.028861
3335.000000	0.029002
3334.000000	0.029083
3333.000000	0.029105
3332.000000	0.029103
3331.000000	0.029114
3330.000000	0.029149
3329.000000	0.029211
3328.000000	0.029302
3327.000000	0.029416
3326.000000	0.029530
3325.000000	0.029635
3324.000000	0.029734
3323.000000	0.029816
3322.000000	0.029866
3321.000000	0.029895
3320.000000	0.029935
3319.000000	0.030000
3318.000000	0.030076
3317.000000	0.030152
3316.000000	0.030224
3315.000000	0.030290
3314.000000	0.030341
3313.000000	0.030376
3312.000000	0.030392
3311.000000	0.030393
3310.000000	0.030403
3309.000000	0.030454
3308.000000	0.030549
3307.000000	0.030642
3306.000000	0.030690
3305.000000	0.030709
3304.000000	0.030741
3303.000000	0.030792
3302.000000	0.030845
3301.000000	0.030897
3300.000000	0.030956
3299.000000	0.031013
3298.000000	0.031048
3297.000000	0.031067
3296.000000	0.031091
3295.000000	0.031120
3294.000000	0.031140
3293.000000	0.031159
3292.000000	0.031191
3291.000000	0.031221
3290.000000	0.031225
3289.000000	0.031205
3288.000000	0.031181
3287.000000	0.031160
3286.000000	0.031143
3285.000000	0.031150
3284.000000	0.031193
3283.000000	0.031245
3282.000000	0.031258
3281.000000	0.031237
3280.000000	0.031216
3279.000000	0.031192
3278.000000	0.031132
3277.000000	0.031040
3276.000000	0.030960
3275.000000	0.030916
3274.000000	0.030893
3273.000000	0.030874
3272.000000	0.030869
3271.000000	0.030881
3270.000000	0.030895
3269.000000	0.030898
3268.000000	0.030889
3267.000000	0.030857
3266.000000	0.030792
3265.000000	0.030715
3264.000000	0.030659
3263.000000	0.030622
3262.000000	0.030569
3261.000000	0.030495
3260.000000	0.030410
3259.000000	0.030305
3258.000000	0.030185
3257.000000	0.030103
3256.000000	0.030111
3255.000000	0.030178
3254.000000	0.030217
3253.000000	0.030175
3252.000000	0.030082
3251.000000	0.029972
3250.000000	0.029853
3249.000000	0.029732
3248.000000	0.029632
3247.000000	0.029574
3246.000000	0.029557
3245.000000	0.029571
3244.000000	0.029592
3243.000000	0.029576
3242.000000	0.029504
3241.000000	0.029409
3240.000000	0.029337
3239.000000	0.029284
3238.000000	0.029222
3237.000000	0.029148
3236.000000	0.029082
3235.000000	0.029023
3234.000000	0.028962
3233.000000	0.028911
3232.000000	0.028883
3231.000000	0.028865
3230.000000	0.028840
3229.000000	0.028820
3228.000000	0.028811
3227.000000	0.028783
3226.000000	0.028714
3225.000000	0.028630
3224.000000	0.028569
3223.000000	0.028514
3222.000000	0.028430
3221.000000	0.028342
3220.000000	0.028300
3219.000000	0.028288
3218.000000	0.028252
3217.000000	0.028190
3216.000000	0.028147
3215.000000	0.028141
3214.000000	0.028140
3213.000000	0.028114
3212.000000	0.028066
3211.000000	0.028017
3210.000000	0.027989
3209.000000	0.027998
3208.000000	0.028025
3207.000000	0.028022
3206.000000	0.027958
3205.000000	0.027858
3204.000000	0.027771
3203.000000	0.027711
3202.000000	0.027659
3201.000000	0.027602
3200.000000	0.027545
3199.000000	0.027496
3198.000000	0.027466
3197.000000	0.027445
3196.000000	0.027397
3195.000000	0.027289
3194.000000	0.027148
3193.000000	0.027039
3192.000000	0.026986
3191.000000	0.026943
3190.000000	0.026865
3189.000000	0.026768
3188.000000	0.026691
3187.000000	0.026647
3186.000000	0.026632
3185.000000	0.026642
3184.000000	0.026629
3183.000000	0.026531
3182.000000	0.026355
3181.000000	0.026192
3180.000000	0.026115
3179.000000	0.026109
3178.000000	0.026114
3177.000000	0.026091
3176.000000	0.026017
3175.000000	0.025881
3174.000000	0.025717
3173.000000	0.025591
3172.000000	0.025527
3171.000000	0.025475
3170.000000	0.025383
3169.000000	0.025260
3168.000000	0.025145
3167.000000	0.025051
3166.000000	0.024974
3165.000000	0.024919
3164.000000	0.024873
3163.000000	0.024813
3162.000000	0.024746
3161.000000	0.024699
3160.000000	0.024673
3159.000000	0.024638
3158.000000	0.024584
3157.000000	0.024524
3156.000000	0.024446
3155.000000	0.024326
3154.000000	0.024196
3153.000000	0.024126
3152.000000	0.024130
3151.000000	0.024141
3150.000000	0.024108
3149.000000	0.024047
3148.000000	0.023977
3147.000000	0.023883
3146.000000	0.023758
3145.000000	0.023637
3144.000000	0.023546
3143.000000	0.023471
3142.000000	0.023399
3141.000000	0.023353
3140.000000	0.023355
3139.000000	0.023372
3138.000000	0.023356
3137.000000	0.023304
3136.000000	0.023232
3135.000000	0.023150
3134.000000	0.023081
3133.000000	0.023060
3132.000000	0.023073
3131.000000	0.023059
3130.000000	0.022994
3129.000000	0.022917
3128.000000	0.022855
3127.000000	0.022782
3126.000000	0.022686
3125.000000	0.022594
3124.000000	0.022529
3123.000000	0.022489
3122.000000	0.022468
3121.000000	0.022466
3120.000000	0.022472
3119.000000	0.022467
3118.000000	0.022463
3117.000000	0.022500
3116.000000	0.022564
3115.000000	0.022599
3114.000000	0.022579
3113.000000	0.022537
3112.000000	0.022497
3111.000000	0.022455
3110.000000	0.022423
3109.000000	0.022429
3108.000000	0.022457
3107.000000	0.022463
3106.000000	0.022440
3105.000000	0.022414
3104.000000	0.022402
3103.000000	0.022411
3102.000000	0.022453
3101.000000	0.022521
3100.000000	0.022570
3099.000000	0.022554
3098.000000	0.022494
3097.000000	0.022469
3096.000000	0.022518
3095.000000	0.022593
3094.000000	0.022629
3093.000000	0.022608
3092.000000	0.022553
3091.000000	0.022493
3090.000000	0.022448
3089.000000	0.022424
3088.000000	0.022411
3087.000000	0.022400
3086.000000	0.022401
3085.000000	0.022430
3084.000000	0.022471
3083.000000	0.022497
3082.000000	0.022503
3081.000000	0.022512
3080.000000	0.022532
3079.000000	0.022544
3078.000000	0.022546
3077.000000	0.022547
3076.000000	0.022541
3075.000000	0.022509
3074.000000	0.022464
3073.000000	0.022433
3072.000000	0.022413
3071.000000	0.022375
3070.000000	0.022322
3069.000000	0.022284
3068.000000	0.022279
3067.000000	0.022292
3066.000000	0.022315
3065.000000	0.022350
3064.000000	0.022383
3063.000000	0.022387
3062.000000	0.022346
3061.000000	0.022280
3060.000000	0.022205
3059.000000	0.022128
3058.000000	0.022061
3057.000000	0.022021
3056.000000	0.022004
3055.000000	0.021974
3054.000000	0.021905
3053.000000	0.021809
3052.000000	0.021705
3051.000000	0.021605
3050.000000	0.021518
3049.000000	0.021453
3048.000000	0.021402
3047.000000	0.021337
3046.000000	0.021253
3045.000000	0.021172
3044.000000	0.021111
3043.000000	0.021057
3042.000000	0.020995
3041.000000	0.020926
3040.000000	0.020843
3039.000000	0.020720
3038.000000	0.020567
3037.000000	0.020436
3036.000000	0.020372
3035.000000	0.020357
3034.000000	0.020342
3033.000000	0.020323
3032.000000	0.020315
3031.000000	0.020305
3030.000000	0.020251
3029.000000	0.020131
3028.000000	0.019963
3027.000000	0.019787
3026.000000	0.019650
3025.000000	0.019574
3024.000000	0.019532
3023.000000	0.019480
3022.000000	0.019404
3021.000000	0.019332
3020.000000	0.019298
3019.000000	0.019313
3018.000000	0.019369
3017.000000	0.019447
3016.000000	0.019524
3015.000000	0.019579
3014.000000	0.019617
3013.000000	0.019656
3012.000000	0.019699
3011.000000	0.019721
3010.000000	0.019696
3009.000000	0.019621
3008.000000	0.019512
3007.000000	0.019396
3006.000000	0.019310
3005.000000	0.019275
3004.000000	0.019267
3003.000000	0.019245
3002.000000	0.019194
3001.000000	0.019139
3000.000000	0.019107
2999.000000	0.019109
2998.000000	0.019142
2997.000000	0.019204
2996.000000	0.019278
2995.000000	0.019335
2994.000000	0.019362
2993.000000	0.019375
2992.000000	0.019392
2991.000000	0.019422
2990.000000	0.019474
2989.000000	0.019553
2988.000000	0.019639
2987.000000	0.019693
2986.000000	0.019709
2985.000000	0.019730
2984.000000	0.019799
2983.000000	0.019908
2982.000000	0.020017
2981.000000	0.020100
2980.000000	0.020157
2979.000000	0.020198
2978.000000	0.020235
2977.000000	0.020271
2976.000000	0.020294
2975.000000	0.020289
2974.000000	0.020258
2973.000000	0.020224
2972.000000	0.020209
2971.000000	0.020232
2970.000000	0.020308
2969.000000	0.020444
2968.000000	0.020618
2967.000000	0.020806
2966.000000	0.021007
2965.000000	0.021234
2964.000000	0.021467
2963.000000	0.021667
2962.000000	0.021825
2961.000000	0.021968
2960.000000	0.022119
2959.000000	0.022271
2958.000000	0.022411
2957.000000	0.022534
2956.000000	0.022635
2955.000000	0.022708
2954.000000	0.022755
2953.000000	0.022779
2952.000000	0.022767
2951.000000	0.022712
2950.000000	0.022643
2949.000000	0.022600
2948.000000	0.022583
2947.000000	0.022568
2946.000000	0.022557
2945.000000	0.022588
2944.000000	0.022673
2943.000000	0.022781
2942.000000	0.022877
2941.000000	0.022962
2940.000000	0.023051
2939.000000	0.023166
2938.000000	0.023329
2937.000000	0.023554
2936.000000	0.023817
2935.000000	0.024077
2934.000000	0.024307
2933.000000	0.024506
2932.000000	0.024675
2931.000000	0.024836
2930.000000	0.025041
2929.000000	0.025340
2928.000000	0.025719
2927.000000	0.026119
2926.000000	0.026502
2925.000000	0.026870
2924.000000	0.027214
2923.000000	0.027503
2922.000000	0.027717
2921.000000	0.027854
2920.000000	0.027912
2919.000000	0.027884
2918.000000	0.027766
2917.000000	0.027559
2916.000000	0.027249
2915.000000	0.026836
2914.000000	0.026366
2913.000000	0.025895
2912.000000	0.025450
2911.000000	0.025025
2910.000000	0.024638
2909.000000	0.024317
2908.000000	0.024062
2907.000000	0.023839
2906.000000	0.023626
2905.000000	0.023432
2904.000000	0.023259
2903.000000	0.023096
2902.000000	0.022946
2901.000000	0.022814
2900.000000	0.022685
2899.000000	0.022543
2898.000000	0.022404
2897.000000	0.022304
2896.000000	0.022237
2895.000000	0.022167
2894.000000	0.022079
2893.000000	0.021998
2892.000000	0.021936
2891.000000	0.021880
2890.000000	0.021816
2889.000000	0.021754
2888.000000	0.021708
2887.000000	0.021675
2886.000000	0.021642
2885.000000	0.021598
2884.000000	0.021534
2883.000000	0.021459
2882.000000	0.021405
2881.000000	0.021385
2880.000000	0.021370
2879.000000	0.021322
2878.000000	0.021248
2877.000000	0.021186
2876.000000	0.021158
2875.000000	0.021155
2874.000000	0.021161
2873.000000	0.021155
2872.000000	0.021106
2871.000000	0.020995
2870.000000	0.020847
2869.000000	0.020706
2868.000000	0.020589
2867.000000	0.020486
2866.000000	0.020411
2865.000000	0.020397
2864.000000	0.020466
2863.000000	0.020605
2862.000000	0.020798
2861.000000	0.021022
2860.000000	0.021240
2859.000000	0.021430
2858.000000	0.021614
2857.000000	0.021825
2856.000000	0.022059
2855.000000	0.022283
2854.000000	0.022482
2853.000000	0.022660
2852.000000	0.022802
2851.000000	0.022876
2850.000000	0.022864
2849.000000	0.022757
2848.000000	0.022533
2847.000000	0.022186
2846.000000	0.021767
2845.000000	0.021358
2844.000000	0.021003
2843.000000	0.020689
2842.000000	0.020401
2841.000000	0.020139
2840.000000	0.019902
2839.000000	0.019687
2838.000000	0.019501
2837.000000	0.019357
2836.000000	0.019238
2835.000000	0.019119
2834.000000	0.019006
2833.000000	0.018924
2832.000000	0.018871
2831.000000	0.018810
2830.000000	0.018726
2829.000000	0.018638
2828.000000	0.018569
2827.000000	0.018523
2826.000000	0.018493
2825.000000	0.018472
2824.000000	0.018447
2823.000000	0.018408
2822.000000	0.018359
2821.000000	0.018299
2820.000000	0.018216
2819.000000	0.018110
2818.000000	0.018018
2817.000000	0.017975
2816.000000	0.017967
2815.000000	0.017954
2814.000000	0.017919
2813.000000	0.017880
2812.000000	0.017845
2811.000000	0.017805
2810.000000	0.017764
2809.000000	0.017734
2808.000000	0.017708
2807.000000	0.017669
2806.000000	0.017612
2805.000000	0.017548
2804.000000	0.017480
2803.000000	0.017411
2802.000000	0.017365
2801.000000	0.017362
2800.000000	0.017383
2799.000000	0.017396
2798.000000	0.017402
2797.000000	0.017416
2796.000000	0.017430
2795.000000	0.017414
2794.000000	0.017366
2793.000000	0.017310
2792.000000	0.017264
2791.000000	0.017229
2790.000000	0.017215
2789.000000	0.017229
2788.000000	0.017250
2787.000000	0.017248
2786.000000	0.017221
2785.000000	0.017192
2784.000000	0.017168
2783.000000	0.017135
2782.000000	0.017088
2781.000000	0.017041
2780.000000	0.017000
2779.000000	0.016959
2778.000000	0.016916
2777.000000	0.016876
2776.000000	0.016842
2775.000000	0.016815
2774.000000	0.016804
2773.000000	0.016805
2772.000000	0.016790
2771.000000	0.016740
2770.000000	0.016671
2769.000000	0.016621
2768.000000	0.016599
2767.000000	0.016592
2766.000000	0.016590
2765.000000	0.016591
2764.000000	0.016582
2763.000000	0.016555
2762.000000	0.016521
2761.000000	0.016499
2760.000000	0.016487
2759.000000	0.016467
2758.000000	0.016444
2757.000000	0.016431
2756.000000	0.016421
2755.000000	0.016401
2754.000000	0.016368
2753.000000	0.016335
2752.000000	0.016302
2751.000000	0.016266
2750.000000	0.016230
2749.000000	0.016200
2748.000000	0.016173
2747.000000	0.016158
2746.000000	0.016177
2745.000000	0.016228
2744.000000	0.016269
2743.000000	0.016266
2742.000000	0.016238
2741.000000	0.016218
2740.000000	0.016208
2739.000000	0.016190
2738.000000	0.016159
2737.000000	0.016121
2736.000000	0.016074
2735.000000	0.016028
2734.000000	0.016014
2733.000000	0.016040
2732.000000	0.016060
2731.000000	0.016032
2730.000000	0.015979
2729.000000	0.015949
2728.000000	0.015949
2727.000000	0.015946
2726.000000	0.015926
2725.000000	0.015896
2724.000000	0.015858
2723.000000	0.015813
2722.000000	0.015788
2721.000000	0.015817
2720.000000	0.015882
2719.000000	0.015928
2718.000000	0.015926
2717.000000	0.015893
2716.000000	0.015850
2715.000000	0.015813
2714.000000	0.015792
2713.000000	0.015786
2712.000000	0.015780
2711.000000	0.015758
2710.000000	0.015733
2709.000000	0.015719
2708.000000	0.015704
2707.000000	0.015677
2706.000000	0.015653
2705.000000	0.015652
2704.000000	0.015655
2703.000000	0.015636
2702.000000	0.015602
2701.000000	0.015583
2700.000000	0.015578
2699.000000	0.015568
2698.000000	0.015545
2697.000000	0.015515
2696.000000	0.015476
2695.000000	0.015435
2694.000000	0.015421
2693.000000	0.015457
2692.000000	0.015515
2691.000000	0.015546
2690.000000	0.015539
2689.000000	0.015518
2688.000000	0.015499
2687.000000	0.015482
2686.000000	0.015470
2685.000000	0.015472
2684.000000	0.015480
2683.000000	0.015481
2682.000000	0.015481
2681.000000	0.015485
2680.000000	0.015480
2679.000000	0.015453
2678.000000	0.015417
2677.000000	0.015395
2676.000000	0.015382
2675.000000	0.015363
2674.000000	0.015337
2673.000000	0.015311
2672.000000	0.015280
2671.000000	0.015237
2670.000000	0.015200
2669.000000	0.015179
2668.000000	0.015159
2667.000000	0.015115
2666.000000	0.015048
2665.000000	0.014959
2664.000000	0.014827
2663.000000	0.014638
2662.000000	0.014421
2661.000000	0.014226
2660.000000	0.014065
2659.000000	0.013920
2658.000000	0.013783
2657.000000	0.013664
2656.000000	0.013561
2655.000000	0.013461
2654.000000	0.013365
2653.000000	0.013275
2652.000000	0.013188
2651.000000	0.013106
2650.000000	0.013050
2649.000000	0.013024
2648.000000	0.012997
2647.000000	0.012941
2646.000000	0.012879
2645.000000	0.012839
2644.000000	0.012815
2643.000000	0.012790
2642.000000	0.012776
2641.000000	0.012784
2640.000000	0.012784
2639.000000	0.012740
2638.000000	0.012666
2637.000000	0.012598
2636.000000	0.012542
2635.000000	0.012484
2634.000000	0.012435
2633.000000	0.012421
2632.000000	0.012427
2631.000000	0.012422
2630.000000	0.012399
2629.000000	0.012372
2628.000000	0.012343
2627.000000	0.012321
2626.000000	0.012333
2625.000000	0.012381
2624.000000	0.012417
2623.000000	0.012395
2622.000000	0.012334
2621.000000	0.012282
2620.000000	0.012253
2619.000000	0.012235
2618.000000	0.012236
2617.000000	0.012256
2616.000000	0.012270
2615.000000	0.012265
2614.000000	0.012275
2613.000000	0.012306
2612.000000	0.012306
2611.000000	0.012250
2610.000000	0.012207
2609.000000	0.012252
2608.000000	0.012355
2607.000000	0.012432
2606.000000	0.012459
2605.000000	0.012470
2604.000000	0.012475
2603.000000	0.012465
2602.000000	0.012462
2601.000000	0.012491
2600.000000	0.012517
2599.000000	0.012485
2598.000000	0.012406
2597.000000	0.012344
2596.000000	0.012329
2595.000000	0.012342
2594.000000	0.012363
2593.000000	0.012387
2592.000000	0.012404
2591.000000	0.012418
2590.000000	0.012447
2589.000000	0.012479
2588.000000	0.012459
2587.000000	0.012385
2586.000000	0.012342
2585.000000	0.012386
2584.000000	0.012465
2583.000000	0.012497
2582.000000	0.012492
2581.000000	0.012503
2580.000000	0.012538
2579.000000	0.012570
2578.000000	0.012612
2577.000000	0.012677
2576.000000	0.012729
2575.000000	0.012720
2574.000000	0.012671
2573.000000	0.012623
2572.000000	0.012576
2571.000000	0.012513
2570.000000	0.012455
2569.000000	0.012422
2568.000000	0.012397
2567.000000	0.012388
2566.000000	0.012454
2565.000000	0.012604
2564.000000	0.012742
2563.000000	0.012782
2562.000000	0.012760
2561.000000	0.012748
2560.000000	0.012745
2559.000000	0.012721
2558.000000	0.012703
2557.000000	0.012719
2556.000000	0.012720
2555.000000	0.012661
2554.000000	0.012612
2553.000000	0.012659
2552.000000	0.012767
2551.000000	0.012828
2550.000000	0.012817
2549.000000	0.012794
2548.000000	0.012786
2547.000000	0.012771
2546.000000	0.012738
2545.000000	0.012693
2544.000000	0.012634
2543.000000	0.012582
2542.000000	0.012602
2541.000000	0.012720
2540.000000	0.012852
2539.000000	0.012900
2538.000000	0.012874
2537.000000	0.012844
2536.000000	0.012824
2535.000000	0.012784
2534.000000	0.012725
2533.000000	0.012664
2532.000000	0.012591
2531.000000	0.012519
2530.000000	0.012514
2529.000000	0.012603
2528.000000	0.012709
2527.000000	0.012746
2526.000000	0.012741
2525.000000	0.012765
2524.000000	0.012820
2523.000000	0.012865
2522.000000	0.012898
2521.000000	0.012924
2520.000000	0.012894
2519.000000	0.012778
2518.000000	0.012650
2517.000000	0.012602
2516.000000	0.012629
2515.000000	0.012668
2514.000000	0.012710
2513.000000	0.012789
2512.000000	0.012891
2511.000000	0.012962
2510.000000	0.012987
2509.000000	0.012974
2508.000000	0.012916
2507.000000	0.012825
2506.000000	0.012765
2505.000000	0.012777
2504.000000	0.012809
2503.000000	0.012806
2502.000000	0.012786
2501.000000	0.012780
2500.000000	0.012757
2499.000000	0.012695
2498.000000	0.012654
2497.000000	0.012701
2496.000000	0.012798
2495.000000	0.012859
2494.000000	0.012854
2493.000000	0.012802
2492.000000	0.012701
2491.000000	0.012566
2490.000000	0.012467
2489.000000	0.012456
2488.000000	0.012500
2487.000000	0.012545
2486.000000	0.012588
2485.000000	0.012640
2484.000000	0.012670
2483.000000	0.012659
2482.000000	0.012656
2481.000000	0.012698
2480.000000	0.012744
2479.000000	0.012754
2478.000000	0.012754
2477.000000	0.012767
2476.000000	0.012751
2475.000000	0.012675
2474.000000	0.012594
2473.000000	0.012555
2472.000000	0.012526
2471.000000	0.012465
2470.000000	0.012420
2469.000000	0.012440
2468.000000	0.012479
2467.000000	0.012464
2466.000000	0.012407
2465.000000	0.012368
2464.000000	0.012362
2463.000000	0.012381
2462.000000	0.012438
2461.000000	0.012512
2460.000000	0.012522
2459.000000	0.012434
2458.000000	0.012320
2457.000000	0.012251
2456.000000	0.012201
2455.000000	0.012132
2454.000000	0.012082
2453.000000	0.012081
2452.000000	0.012075
2451.000000	0.012022
2450.000000	0.011981
2449.000000	0.012010
2448.000000	0.012051
2447.000000	0.012038
2446.000000	0.012021
2445.000000	0.012088
2444.000000	0.012203
2443.000000	0.012268
2442.000000	0.012280
2441.000000	0.012310
2440.000000	0.012384
2439.000000	0.012463
2438.000000	0.012517
2437.000000	0.012532
2436.000000	0.012491
2435.000000	0.012432
2434.000000	0.012453
2433.000000	0.012583
2432.000000	0.012722
2431.000000	0.012781
2430.000000	0.012807
2429.000000	0.012872
2428.000000	0.012932
2427.000000	0.012908
2426.000000	0.012825
2425.000000	0.012765
2424.000000	0.012747
2423.000000	0.012746
2422.000000	0.012780
2421.000000	0.012864
2420.000000	0.012935
2419.000000	0.012928
2418.000000	0.012876
2417.000000	0.012858
2416.000000	0.012881
2415.000000	0.012902
2414.000000	0.012911
2413.000000	0.012904
2412.000000	0.012846
2411.000000	0.012742
2410.000000	0.012684
2409.000000	0.012748
2408.000000	0.012889
2407.000000	0.013030
2406.000000	0.013165
2405.000000	0.013298
2404.000000	0.013379
2403.000000	0.013378
2402.000000	0.013362
2401.000000	0.013393
2400.000000	0.013428
2399.000000	0.013414
2398.000000	0.013388
2397.000000	0.013398
2396.000000	0.013399
2395.000000	0.013344
2394.000000	0.013300
2393.000000	0.013357
2392.000000	0.013471
2391.000000	0.013523
2390.000000	0.013498
2389.000000	0.013472
2388.000000	0.013483
2387.000000	0.013507
2386.000000	0.013541
2385.000000	0.013602
2384.000000	0.013659
2383.000000	0.013684
2382.000000	0.013709
2381.000000	0.013781
2380.000000	0.013860
2379.000000	0.013848
2378.000000	0.013730
2377.000000	0.013545
2376.000000	0.013312
2375.000000	0.013064
2374.000000	0.012916
2373.000000	0.012955
2372.000000	0.013080
2371.000000	0.013133
2370.000000	0.013111
2369.000000	0.013136
2368.000000	0.013201
2367.000000	0.013188
2366.000000	0.013099
2365.000000	0.013015
2364.000000	0.012878
2363.000000	0.012519
2362.000000	0.012010
2361.000000	0.011689
2360.000000	0.011638
2359.000000	0.011654
2358.000000	0.011640
2357.000000	0.011701
2356.000000	0.011998
2355.000000	0.012522
2354.000000	0.013179
2353.000000	0.013722
2352.000000	0.013408
2351.000000	0.011566
2350.000000	0.008537
2349.000000	0.005928
2348.000000	0.005526
2347.000000	0.007885
2346.000000	0.011779
2345.000000	0.014694
2344.000000	0.014986
2343.000000	0.013378
2342.000000	0.011725
2341.000000	0.011004
2340.000000	0.010741
2339.000000	0.010492
2338.000000	0.010259
2337.000000	0.010123
2336.000000	0.010034
2335.000000	0.009954
2334.000000	0.010068
2333.000000	0.010480
2332.000000	0.011081
2331.000000	0.011527
2330.000000	0.011583
2329.000000	0.011139
2328.000000	0.010337
2327.000000	0.009257
2326.000000	0.008262
2325.000000	0.007566
2324.000000	0.007391
2323.000000	0.007658
2322.000000	0.008131
2321.000000	0.008565
2320.000000	0.008784
2319.000000	0.008849
2318.000000	0.008870
2317.000000	0.008963
2316.000000	0.009225
2315.000000	0.009654
2314.000000	0.010180
2313.000000	0.010512
2312.000000	0.010523
2311.000000	0.010245
2310.000000	0.009965
2309.000000	0.009744
2308.000000	0.009586
2307.000000	0.009419
2306.000000	0.009340
2305.000000	0.009323
2304.000000	0.009336
2303.000000	0.009332
2302.000000	0.009387
2301.000000	0.009470
2300.000000	0.009517
2299.000000	0.009476
2298.000000	0.009441
2297.000000	0.009421
2296.000000	0.009390
2295.000000	0.009316
2294.000000	0.009280
2293.000000	0.009250
2292.000000	0.009134
2291.000000	0.008907
2290.000000	0.008705
2289.000000	0.008609
2288.000000	0.008550
2287.000000	0.008438
2286.000000	0.008295
2285.000000	0.008186
2284.000000	0.008137
2283.000000	0.008199
2282.000000	0.008414
2281.000000	0.008707
2280.000000	0.008924
2279.000000	0.009053
2278.000000	0.009220
2277.000000	0.009439
2276.000000	0.009565
2275.000000	0.009558
2274.000000	0.009562
2273.000000	0.009651
2272.000000	0.009723
2271.000000	0.009723
2270.000000	0.009757
2269.000000	0.009870
2268.000000	0.009955
2267.000000	0.009974
2266.000000	0.010037
2265.000000	0.010182
2264.000000	0.010279
2263.000000	0.010280
2262.000000	0.010296
2261.000000	0.010341
2260.000000	0.010266
2259.000000	0.010048
2258.000000	0.009890
2257.000000	0.009923
2256.000000	0.010046
2255.000000	0.010182
2254.000000	0.010398
2253.000000	0.010652
2252.000000	0.010721
2251.000000	0.010541
2250.000000	0.010332
2249.000000	0.010235
2248.000000	0.010129
2247.000000	0.009930
2246.000000	0.009803
2245.000000	0.009874
2244.000000	0.010012
2243.000000	0.010063
2242.000000	0.010046
2241.000000	0.009988
2240.000000	0.009844
2239.000000	0.009700
2238.000000	0.009777
2237.000000	0.010057
2236.000000	0.010242
2235.000000	0.010198
2234.000000	0.010144
2233.000000	0.010247
2232.000000	0.010372
2231.000000	0.010410
2230.000000	0.010474
2229.000000	0.010608
2228.000000	0.010639
2227.000000	0.010520
2226.000000	0.010457
2225.000000	0.010540
2224.000000	0.010579
2223.000000	0.010502
2222.000000	0.010515
2221.000000	0.010697
2220.000000	0.010805
2219.000000	0.010692
2218.000000	0.010532
2217.000000	0.010452
2216.000000	0.010335
2215.000000	0.010171
2214.000000	0.010173
2213.000000	0.010341
2212.000000	0.010337
2211.000000	0.010019
2210.000000	0.009683
2209.000000	0.009555
2208.000000	0.009481
2207.000000	0.009355
2206.000000	0.009387
2205.000000	0.009679
2204.000000	0.009975
2203.000000	0.010103
2202.000000	0.010230
2201.000000	0.010432
2200.000000	0.010460
2199.000000	0.010199
2198.000000	0.009903
2197.000000	0.009754
2196.000000	0.009588
2195.000000	0.009327
2194.000000	0.009186
2193.000000	0.009229
2192.000000	0.009182
2191.000000	0.008961
2190.000000	0.008882
2189.000000	0.009082
2188.000000	0.009252
2187.000000	0.009174
2186.000000	0.009053
2185.000000	0.009052
2184.000000	0.009077
2183.000000	0.009232
2182.000000	0.009834
2181.000000	0.010679
2180.000000	0.011017
2179.000000	0.010610
2178.000000	0.010114
2177.000000	0.010120
2176.000000	0.010442
2175.000000	0.010688
2174.000000	0.010834
2173.000000	0.010868
2172.000000	0.010533
2171.000000	0.009811
2170.000000	0.009090
2169.000000	0.008526
2168.000000	0.007809
2167.000000	0.006867
2166.000000	0.006155
2165.000000	0.005854
2164.000000	0.005443
2163.000000	0.004617
2162.000000	0.004003
2161.000000	0.004547
2160.000000	0.006621
2159.000000	0.009991
2158.000000	0.013873
2157.000000	0.016889
2156.000000	0.018034
2155.000000	0.017709
2154.000000	0.017084
2153.000000	0.016632
2152.000000	0.016020
2151.000000	0.015178
2150.000000	0.014584
2149.000000	0.014410
2148.000000	0.014277
2147.000000	0.014080
2146.000000	0.014202
2145.000000	0.014688
2144.000000	0.015008
2143.000000	0.014869
2142.000000	0.014551
2141.000000	0.014275
2140.000000	0.013925
2139.000000	0.013557
2138.000000	0.013553
2137.000000	0.014032
2136.000000	0.014676
2135.000000	0.015283
2134.000000	0.015915
2133.000000	0.016411
2132.000000	0.016390
2131.000000	0.015869
2130.000000	0.015323
2129.000000	0.015019
2128.000000	0.014758
2127.000000	0.014376
2126.000000	0.014008
2125.000000	0.013725
2124.000000	0.013388
2123.000000	0.013000
2122.000000	0.012792
2121.000000	0.012798
2120.000000	0.012749
2119.000000	0.012522
2118.000000	0.012288
2117.000000	0.012111
2116.000000	0.011807
2115.000000	0.011381
2114.000000	0.011148
2113.000000	0.011236
2112.000000	0.011369
2111.000000	0.011332
2110.000000	0.011274
2109.000000	0.011322
2108.000000	0.011320
2107.000000	0.011169
2106.000000	0.011063
2105.000000	0.011143
2104.000000	0.011272
2103.000000	0.011326
2102.000000	0.011370
2101.000000	0.011368
2100.000000	0.011140
2099.000000	0.010761
2098.000000	0.010623
2097.000000	0.010904
2096.000000	0.011340
2095.000000	0.011695
2094.000000	0.011998
2093.000000	0.012195
2092.000000	0.012057
2091.000000	0.011618
2090.000000	0.011254
2089.000000	0.011155
2088.000000	0.011098
2087.000000	0.010911
2086.000000	0.010738
2085.000000	0.010646
2084.000000	0.010432
2083.000000	0.010018
2082.000000	0.009636
2081.000000	0.009420
2080.000000	0.009228
2079.000000	0.009036
2078.000000	0.009071
2077.000000	0.009350
2076.000000	0.009539
2075.000000	0.009511
2074.000000	0.009505
2073.000000	0.009611
2072.000000	0.009600
2071.000000	0.009432
2070.000000	0.009417
2069.000000	0.009628
2068.000000	0.009709
2067.000000	0.009519
2066.000000	0.009399
2065.000000	0.009540
2064.000000	0.009641
2063.000000	0.009483
2062.000000	0.009281
2061.000000	0.009195
2060.000000	0.009071
2059.000000	0.008867
2058.000000	0.008796
2057.000000	0.008834
2056.000000	0.008672
2055.000000	0.008308
2054.000000	0.007993
2053.000000	0.007528
2052.000000	0.006425
2051.000000	0.004973
2050.000000	0.004335
2049.000000	0.005103
2048.000000	0.006409
2047.000000	0.007205
2046.000000	0.007484
2045.000000	0.007586
2044.000000	0.007418
2043.000000	0.007035
2042.000000	0.007014
2041.000000	0.007493
2040.000000	0.007745
2039.000000	0.007397
2038.000000	0.007056
2037.000000	0.007146
2036.000000	0.007215
2035.000000	0.007046
2034.000000	0.007314
2033.000000	0.008285
2032.000000	0.009089
2031.000000	0.009178
2030.000000	0.009177
2029.000000	0.009599
2028.000000	0.009904
2027.000000	0.009682
2026.000000	0.009475
2025.000000	0.009725
2024.000000	0.010013
2023.000000	0.010011
2022.000000	0.010128
2021.000000	0.010537
2020.000000	0.010672
2019.000000	0.010304
2018.000000	0.010025
2017.000000	0.010092
2016.000000	0.009926
2015.000000	0.009361
2014.000000	0.009085
2013.000000	0.009346
2012.000000	0.009461
2011.000000	0.009145
2010.000000	0.009124
2009.000000	0.009876
2008.000000	0.010870
2007.000000	0.011668
2006.000000	0.012487
2005.000000	0.013244
2004.000000	0.013366
2003.000000	0.012880
2002.000000	0.012587
2001.000000	0.012635
2000.000000	0.012320
1999.000000	0.011450
1998.000000	0.010703
1997.000000	0.010474
1996.000000	0.010316
1995.000000	0.009927
1994.000000	0.009672
1993.000000	0.009757
1992.000000	0.009758
1991.000000	0.009517
1990.000000	0.009502
1989.000000	0.009808
1988.000000	0.009834
1987.000000	0.009386
1986.000000	0.009055
1985.000000	0.009048
1984.000000	0.008717
1983.000000	0.007653
1982.000000	0.006409
1981.000000	0.005511
1980.000000	0.004956
1979.000000	0.004986
1978.000000	0.006187
1977.000000	0.008243
1976.000000	0.009780
1975.000000	0.010240
1974.000000	0.010396
1973.000000	0.010794
1972.000000	0.011024
1971.000000	0.010889
1970.000000	0.010913
1969.000000	0.011268
1968.000000	0.011378
1967.000000	0.011049
1966.000000	0.010899
1965.000000	0.011220
1964.000000	0.011502
1963.000000	0.011514
1962.000000	0.011763
1961.000000	0.012531
1960.000000	0.013387
1959.000000	0.013961
1958.000000	0.014343
1957.000000	0.014459
1956.000000	0.013964
1955.000000	0.013008
1954.000000	0.012221
1953.000000	0.011875
1952.000000	0.011604
1951.000000	0.011271
1950.000000	0.011302
1949.000000	0.011730
1948.000000	0.011971
1947.000000	0.011799
1946.000000	0.011650
1945.000000	0.011754
1944.000000	0.011767
1943.000000	0.011544
1942.000000	0.011455
1941.000000	0.011614
1940.000000	0.011724
1939.000000	0.011693
1938.000000	0.011781
1937.000000	0.012057
1936.000000	0.012229
1935.000000	0.012205
1934.000000	0.012206
1933.000000	0.012323
1932.000000	0.012248
1931.000000	0.011921
1930.000000	0.011807
1929.000000	0.011928
1928.000000	0.011945
1927.000000	0.011708
1926.000000	0.011601
1925.000000	0.011784
1924.000000	0.011775
1923.000000	0.011428
1922.000000	0.011183
1921.000000	0.011216
1920.000000	0.011141
1919.000000	0.010746
1918.000000	0.010489
1917.000000	0.010590
1916.000000	0.010668
1915.000000	0.010613
1914.000000	0.010656
1913.000000	0.010829
1912.000000	0.010839
1911.000000	0.010683
1910.000000	0.010764
1909.000000	0.011009
1908.000000	0.011053
1907.000000	0.010814
1906.000000	0.010701
1905.000000	0.010822
1904.000000	0.010671
1903.000000	0.010293
1902.000000	0.010288
1901.000000	0.010629
1900.000000	0.010750
1899.000000	0.010470
1898.000000	0.010259
1897.000000	0.010350
1896.000000	0.010305
1895.000000	0.009998
1894.000000	0.009891
1893.000000	0.010121
1892.000000	0.010247
1891.000000	0.010097
1890.000000	0.010095
1889.000000	0.010353
1888.000000	0.010409
1887.000000	0.010251
1886.000000	0.010297
1885.000000	0.010539
1884.000000	0.010498
1883.000000	0.010188
1882.000000	0.010145
1881.000000	0.010369
1880.000000	0.010413
1879.000000	0.010197
1878.000000	0.010078
1877.000000	0.010207
1876.000000	0.010189
1875.000000	0.009847
1874.000000	0.009643
1873.000000	0.009834
1872.000000	0.009996
1871.000000	0.009800
1870.000000	0.009638
1869.000000	0.009915
1868.000000	0.010176
1867.000000	0.010147
1866.000000	0.010284
1865.000000	0.010615
1864.000000	0.010613
1863.000000	0.010215
1862.000000	0.009996
1861.000000	0.010135
1860.000000	0.010147
1859.000000	0.009871
1858.000000	0.009766
1857.000000	0.009962
1856.000000	0.010012
1855.000000	0.009772
1854.000000	0.009763
1853.000000	0.009945
1852.000000	0.009967
1851.000000	0.009830
1850.000000	0.009706
1849.000000	0.009667
1848.000000	0.009609
1847.000000	0.009627
1846.000000	0.009798
1845.000000	0.009893
1844.000000	0.009706
1843.000000	0.009424
1842.000000	0.009590
1841.000000	0.010093
1840.000000	0.010309
1839.000000	0.010012
1838.000000	0.009770
1837.000000	0.009875
1836.000000	0.009853
1835.000000	0.009552
1834.000000	0.009378
1833.000000	0.009419
1832.000000	0.009469
1831.000000	0.009332
1830.000000	0.009204
1829.000000	0.009274
1828.000000	0.009406
1827.000000	0.009515
1826.000000	0.009549
1825.000000	0.009636
1824.000000	0.009671
1823.000000	0.009527
1822.000000	0.009465
1821.000000	0.009641
1820.000000	0.009927
1819.000000	0.010076
1818.000000	0.010345
1817.000000	0.010902
1816.000000	0.011121
1815.000000	0.010742
1814.000000	0.010211
1813.000000	0.010084
1812.000000	0.010158
1811.000000	0.009890
1810.000000	0.009647
1809.000000	0.009799
1808.000000	0.009839
1807.000000	0.009452
1806.000000	0.009098
1805.000000	0.009142
1804.000000	0.009082
1803.000000	0.008731
1802.000000	0.008470
1801.000000	0.008719
1800.000000	0.009065
1799.000000	0.008986
1798.000000	0.008845
1797.000000	0.008960
1796.000000	0.008998
1795.000000	0.008786
1794.000000	0.008444
1793.000000	0.008377
1792.000000	0.008502
1791.000000	0.008379
1790.000000	0.008361
1789.000000	0.008687
1788.000000	0.008851
1787.000000	0.008537
1786.000000	0.008204
1785.000000	0.008204
1784.000000	0.008082
1783.000000	0.007983
1782.000000	0.008037
1781.000000	0.008234
1780.000000	0.008428
1779.000000	0.008356
1778.000000	0.008248
1777.000000	0.008153
1776.000000	0.008142
1775.000000	0.008218
1774.000000	0.007894
1773.000000	0.007217
1772.000000	0.007079
1771.000000	0.007237
1770.000000	0.007465
1769.000000	0.007828
1768.000000	0.007893
1767.000000	0.007514
1766.000000	0.007045
1765.000000	0.007031
1764.000000	0.007215
1763.000000	0.007076
1762.000000	0.006559
1761.000000	0.006251
1760.000000	0.006344
1759.000000	0.006633
1758.000000	0.006783
1757.000000	0.006552
1756.000000	0.006349
1755.000000	0.006326
1754.000000	0.006286
1753.000000	0.005951
1752.000000	0.005693
1751.000000	0.005822
1750.000000	0.006292
1749.000000	0.006906
1748.000000	0.007414
1747.000000	0.007744
1746.000000	0.007586
1745.000000	0.007267
1744.000000	0.007250
1743.000000	0.007309
1742.000000	0.007148
1741.000000	0.006978
1740.000000	0.006783
1739.000000	0.006418
1738.000000	0.006179
1737.000000	0.006511
1736.000000	0.006636
1735.000000	0.005798
1734.000000	0.005413
1733.000000	0.005543
1732.000000	0.006050
1731.000000	0.006928
1730.000000	0.007580
1729.000000	0.007592
1728.000000	0.007242
1727.000000	0.007033
1726.000000	0.006843
1725.000000	0.006839
1724.000000	0.006906
1723.000000	0.006670
1722.000000	0.006502
1721.000000	0.006822
1720.000000	0.007073
1719.000000	0.006352
1718.000000	0.005779
1717.000000	0.006576
1716.000000	0.007397
1715.000000	0.007652
1714.000000	0.008153
1713.000000	0.009005
1712.000000	0.009428
1711.000000	0.009290
1710.000000	0.009280
1709.000000	0.009663
1708.000000	0.010228
1707.000000	0.010648
1706.000000	0.011247
1705.000000	0.012178
1704.000000	0.012837
1703.000000	0.013396
1702.000000	0.013587
1701.000000	0.013361
1700.000000	0.013738
1699.000000	0.013991
1698.000000	0.015566
1697.000000	0.018129
1696.000000	0.019394
1695.000000	0.019001
1694.000000	0.018902
1693.000000	0.020258
1692.000000	0.021854
1691.000000	0.022669
1690.000000	0.023258
1689.000000	0.024054
1688.000000	0.025243
1687.000000	0.026321
1686.000000	0.026437
1685.000000	0.026180
1684.000000	0.027396
1683.000000	0.028898
1682.000000	0.030366
1681.000000	0.031859
1680.000000	0.033000
1679.000000	0.033931
1678.000000	0.034825
1677.000000	0.035537
1676.000000	0.036129
1675.000000	0.037215
1674.000000	0.038223
1673.000000	0.039308
1672.000000	0.040776
1671.000000	0.042385
1670.000000	0.044073
1669.000000	0.045450
1668.000000	0.046381
1667.000000	0.047341
1666.000000	0.048386
1665.000000	0.049367
1664.000000	0.050091
1663.000000	0.051166
1662.000000	0.052573
1661.000000	0.053537
1660.000000	0.054455
1659.000000	0.055536
1658.000000	0.056358
1657.000000	0.056976
1656.000000	0.058094
1655.000000	0.058763
1654.000000	0.058326
1653.000000	0.059199
1652.000000	0.058546
1651.000000	0.058072
1650.000000	0.059563
1649.000000	0.061520
1648.000000	0.062730
1647.000000	0.063518
1646.000000	0.063811
1645.000000	0.063540
1644.000000	0.063383
1643.000000	0.063689
1642.000000	0.064137
1641.000000	0.064142
1640.000000	0.064007
1639.000000	0.064038
1638.000000	0.064292
1637.000000	0.064332
1636.000000	0.064545
1635.000000	0.064582
1634.000000	0.063971
1633.000000	0.063720
1632.000000	0.063709
1631.000000	0.063502
1630.000000	0.063091
1629.000000	0.062564
1628.000000	0.061812
1627.000000	0.061041
1626.000000	0.060301
1625.000000	0.059375
1624.000000	0.058201
1623.000000	0.057138
1622.000000	0.056105
1621.000000	0.054904
1620.000000	0.053981
1619.000000	0.053205
1618.000000	0.051902
1617.000000	0.049859
1616.000000	0.047779
1615.000000	0.046492
1614.000000	0.046102
1613.000000	0.045685
1612.000000	0.044589
1611.000000	0.043470
1610.000000	0.042808
1609.000000	0.042127
1608.000000	0.041150
1607.000000	0.040397
1606.000000	0.039811
1605.000000	0.038876
1604.000000	0.037918
1603.000000	0.037367
1602.000000	0.036979
1601.000000	0.036343
1600.000000	0.035626
1599.000000	0.035210
1598.000000	0.034938
1597.000000	0.034526
1596.000000	0.034098
1595.000000	0.033970
1594.000000	0.034028
1593.000000	0.033884
1592.000000	0.033569
1591.000000	0.033468
1590.000000	0.033609
1589.000000	0.033628
1588.000000	0.033517
1587.000000	0.033601
1586.000000	0.033976
1585.000000	0.034048
1584.000000	0.033967
1583.000000	0.034376
1582.000000	0.034958
1581.000000	0.035060
1580.000000	0.035116
1579.000000	0.035763
1578.000000	0.036365
1577.000000	0.036259
1576.000000	0.036058
1575.000000	0.036344
1574.000000	0.037026
1573.000000	0.037895
1572.000000	0.038625
1571.000000	0.039087
1570.000000	0.039775
1569.000000	0.040283
1568.000000	0.040682
1567.000000	0.041564
1566.000000	0.042659
1565.000000	0.043178
1564.000000	0.043589
1563.000000	0.044441
1562.000000	0.045425
1561.000000	0.044420
1560.000000	0.042335
1559.000000	0.044782
1558.000000	0.047451
1557.000000	0.047555
1556.000000	0.048201
1555.000000	0.049510
1554.000000	0.050148
1553.000000	0.050139
1552.000000	0.050699
1551.000000	0.051686
1550.000000	0.052472
1549.000000	0.052676
1548.000000	0.052588
1547.000000	0.052699
1546.000000	0.052872
1545.000000	0.052913
1544.000000	0.053125
1543.000000	0.053291
1542.000000	0.053217
1541.000000	0.053427
1540.000000	0.054110
1539.000000	0.053854
1538.000000	0.052775
1537.000000	0.052521
1536.000000	0.052882
1535.000000	0.053050
1534.000000	0.052834
1533.000000	0.052662
1532.000000	0.052329
1531.000000	0.051773
1530.000000	0.051371
1529.000000	0.051186
1528.000000	0.050902
1527.000000	0.050444
1526.000000	0.049872
1525.000000	0.049351
1524.000000	0.049092
1523.000000	0.048797
1522.000000	0.048340
1521.000000	0.047733
1520.000000	0.046848
1519.000000	0.046439
1518.000000	0.046610
1517.000000	0.046872
1516.000000	0.046613
1515.000000	0.045848
1514.000000	0.045054
1513.000000	0.044451
1512.000000	0.043732
1511.000000	0.042713
1510.000000	0.041812
1509.000000	0.041276
1508.000000	0.040949
1507.000000	0.040807
1506.000000	0.039845
1505.000000	0.037839
1504.000000	0.036679
1503.000000	0.036352
1502.000000	0.035895
1501.000000	0.035040
1500.000000	0.034082
1499.000000	0.033063
1498.000000	0.032044
1497.000000	0.031703
1496.000000	0.031617
1495.000000	0.031178
1494.000000	0.030933
1493.000000	0.031250
1492.000000	0.031462
1491.000000	0.031101
1490.000000	0.030803
1489.000000	0.031034
1488.000000	0.030989
1487.000000	0.030221
1486.000000	0.029592
1485.000000	0.029151
1484.000000	0.028735
1483.000000	0.028419
1482.000000	0.028298
1481.000000	0.028393
1480.000000	0.028386
1479.000000	0.028218
1478.000000	0.028134
1477.000000	0.028422
1476.000000	0.028722
1475.000000	0.028915
1474.000000	0.029361
1473.000000	0.030371
1472.000000	0.031447
1471.000000	0.031851
1470.000000	0.032107
1469.000000	0.032716
1468.000000	0.033245
1467.000000	0.033417
1466.000000	0.033597
1465.000000	0.034074
1464.000000	0.034723
1463.000000	0.035030
1462.000000	0.035180
1461.000000	0.035465
1460.000000	0.035865
1459.000000	0.035999
1458.000000	0.036057
1457.000000	0.036784
1456.000000	0.037377
1455.000000	0.037801
1454.000000	0.038596
1453.000000	0.039441
1452.000000	0.040000
1451.000000	0.040192
1450.000000	0.040214
1449.000000	0.040464
1448.000000	0.040725
1447.000000	0.040775
1446.000000	0.040424
1445.000000	0.039956
1444.000000	0.039904
1443.000000	0.039855
1442.000000	0.039388
1441.000000	0.038802
1440.000000	0.038694
1439.000000	0.038621
1438.000000	0.037954
1437.000000	0.037272
1436.000000	0.037196
1435.000000	0.037180
1434.000000	0.037045
1433.000000	0.036982
1432.000000	0.036979
1431.000000	0.036843
1430.000000	0.036449
1429.000000	0.036132
1428.000000	0.035892
1427.000000	0.035742
1426.000000	0.035512
1425.000000	0.035209
1424.000000	0.035392
1423.000000	0.035754
1422.000000	0.035665
1421.000000	0.035074
1420.000000	0.034620
1419.000000	0.034664
1418.000000	0.034668
1417.000000	0.034808
1416.000000	0.035381
1415.000000	0.035780
1414.000000	0.035515
1413.000000	0.035066
1412.000000	0.035137
1411.000000	0.035429
1410.000000	0.035304
1409.000000	0.035045
1408.000000	0.035016
1407.000000	0.035205
1406.000000	0.035398
1405.000000	0.035565
1404.000000	0.035896
1403.000000	0.036099
1402.000000	0.035967
1401.000000	0.035689
1400.000000	0.035635
1399.000000	0.035772
1398.000000	0.035732
1397.000000	0.035626
1396.000000	0.035632
1395.000000	0.035630
1394.000000	0.035175
1393.000000	0.034412
1392.000000	0.034007
1391.000000	0.033910
1390.000000	0.033610
1389.000000	0.033032
1388.000000	0.032516
1387.000000	0.032223
1386.000000	0.031980
1385.000000	0.031740
1384.000000	0.031665
1383.000000	0.031556
1382.000000	0.031220
1381.000000	0.030770
1380.000000	0.030351
1379.000000	0.029966
1378.000000	0.029527
1377.000000	0.029064
1376.000000	0.028719
1375.000000	0.028639
1374.000000	0.028590
1373.000000	0.028269
1372.000000	0.027734
1371.000000	0.027306
1370.000000	0.027013
1369.000000	0.026626
1368.000000	0.026159
1367.000000	0.025683
1366.000000	0.025202
1365.000000	0.024780
1364.000000	0.024548
1363.000000	0.024554
1362.000000	0.024596
1361.000000	0.024471
1360.000000	0.024259
1359.000000	0.024114
1358.000000	0.024021
1357.000000	0.023927
1356.000000	0.023878
1355.000000	0.023920
1354.000000	0.023988
1353.000000	0.024089
1352.000000	0.024187
1351.000000	0.024362
1350.000000	0.024636
1349.000000	0.024901
1348.000000	0.025178
1347.000000	0.025500
1346.000000	0.025823
1345.000000	0.026061
1344.000000	0.026228
1343.000000	0.026401
1342.000000	0.026630
1341.000000	0.026954
1340.000000	0.027409
1339.000000	0.027908
1338.000000	0.028229
1337.000000	0.028300
1336.000000	0.028240
1335.000000	0.028129
1334.000000	0.027967
1333.000000	0.027782
1332.000000	0.027634
1331.000000	0.027530
1330.000000	0.027370
1329.000000	0.027116
1328.000000	0.026848
1327.000000	0.026668
1326.000000	0.026535
1325.000000	0.026369
1324.000000	0.026223
1323.000000	0.026141
1322.000000	0.026062
1321.000000	0.025966
1320.000000	0.025951
1319.000000	0.026047
1318.000000	0.026115
1317.000000	0.026054
1316.000000	0.025934
1315.000000	0.025835
1314.000000	0.025732
1313.000000	0.025602
1312.000000	0.025485
1311.000000	0.025383
1310.000000	0.025216
1309.000000	0.024984
1308.000000	0.024778
1307.000000	0.024654
1306.000000	0.024556
1305.000000	0.024431
1304.000000	0.024332
1303.000000	0.024268
1302.000000	0.024157
1301.000000	0.023965
1300.000000	0.023773
1299.000000	0.023631
1298.000000	0.023504
1297.000000	0.023390
1296.000000	0.023356
1295.000000	0.023405
1294.000000	0.023437
1293.000000	0.023418
1292.000000	0.023437
1291.000000	0.023554
1290.000000	0.023729
1289.000000	0.023927
1288.000000	0.024159
1287.000000	0.024385
1286.000000	0.024518
1285.000000	0.024571
1284.000000	0.024663
1283.000000	0.024819
1282.000000	0.024950
1281.000000	0.025007
1280.000000	0.025048
1279.000000	0.025100
1278.000000	0.025097
1277.000000	0.025014
1276.000000	0.024919
1275.000000	0.024851
1274.000000	0.024770
1273.000000	0.024673
1272.000000	0.024636
1271.000000	0.024672
1270.000000	0.024692
1269.000000	0.024654
1268.000000	0.024633
1267.000000	0.024685
1266.000000	0.024774
1265.000000	0.024884
1264.000000	0.025079
1263.000000	0.025377
1262.000000	0.025724
1261.000000	0.026090
1260.000000	0.026495
1259.000000	0.026888
1258.000000	0.027155
1257.000000	0.027292
1256.000000	0.027426
1255.000000	0.027615
1254.000000	0.027799
1253.000000	0.027953
1252.000000	0.028141
1251.000000	0.028391
1250.000000	0.028642
1249.000000	0.028868
1248.000000	0.029138
1247.000000	0.029480
1246.000000	0.029814
1245.000000	0.030083
1244.000000	0.030316
1243.000000	0.030528
1242.000000	0.030671
1241.000000	0.030738
1240.000000	0.030778
1239.000000	0.030784
1238.000000	0.030698
1237.000000	0.030525
1236.000000	0.030347
1235.000000	0.030178
1234.000000	0.029941
1233.000000	0.029605
1232.000000	0.029236
1231.000000	0.028873
1230.000000	0.028485
1229.000000	0.028065
1228.000000	0.027662
1227.000000	0.027283
1226.000000	0.026878
1225.000000	0.026445
1224.000000	0.026017
1223.000000	0.025553
1222.000000	0.024951
1221.000000	0.024200
1220.000000	0.023417
1219.000000	0.022726
1218.000000	0.022181
1217.000000	0.021830
1216.000000	0.021700
1215.000000	0.021717
1214.000000	0.021741
1213.000000	0.021731
1212.000000	0.021750
1211.000000	0.021809
1210.000000	0.021841
1209.000000	0.021837
1208.000000	0.021872
1207.000000	0.021965
1206.000000	0.022047
1205.000000	0.022085
1204.000000	0.022125
1203.000000	0.022181
1202.000000	0.022203
1201.000000	0.022168
1200.000000	0.022114
1199.000000	0.022033
1198.000000	0.021863
1197.000000	0.021600
1196.000000	0.021320
1195.000000	0.021051
1194.000000	0.020757
1193.000000	0.020438
1192.000000	0.020163
1191.000000	0.019944
1190.000000	0.019714
1189.000000	0.019446
1188.000000	0.019193
1187.000000	0.018978
1186.000000	0.018732
1185.000000	0.018406
1184.000000	0.018053
1183.000000	0.017783
1182.000000	0.017690
1181.000000	0.017814
1180.000000	0.018091
1179.000000	0.018342
1178.000000	0.018420
1177.000000	0.018354
1176.000000	0.018283
1175.000000	0.018274
1174.000000	0.018285
1173.000000	0.018300
1172.000000	0.018367
1171.000000	0.018493
1170.000000	0.018624
1169.000000	0.018753
1168.000000	0.018942
1167.000000	0.019210
1166.000000	0.019506
1165.000000	0.019802
1164.000000	0.020119
1163.000000	0.020435
1162.000000	0.020685
1161.000000	0.020865
1160.000000	0.021035
1159.000000	0.021208
1158.000000	0.021318
1157.000000	0.021329
1156.000000	0.021284
1155.000000	0.021213
1154.000000	0.021108
1153.000000	0.020990
1152.000000	0.020912
1151.000000	0.020869
1150.000000	0.020798
1149.000000	0.020681
1148.000000	0.020553
1147.000000	0.020408
1146.000000	0.020194
1145.000000	0.019915
1144.000000	0.019648
1143.000000	0.019430
1142.000000	0.019226
1141.000000	0.019015
1140.000000	0.018816
1139.000000	0.018622
1138.000000	0.018399
1137.000000	0.018164
1136.000000	0.017986
1135.000000	0.017878
1134.000000	0.017784
1133.000000	0.017687
1132.000000	0.017627
1131.000000	0.017620
1130.000000	0.017627
1129.000000	0.017643
1128.000000	0.017705
1127.000000	0.017806
1126.000000	0.017886
1125.000000	0.017920
1124.000000	0.017946
1123.000000	0.017988
1122.000000	0.018035
1121.000000	0.018105
1120.000000	0.018232
1119.000000	0.018388
1118.000000	0.018491
1117.000000	0.018530
1116.000000	0.018575
1115.000000	0.018667
1114.000000	0.018770
1113.000000	0.018854
1112.000000	0.018932
1111.000000	0.019018
1110.000000	0.019108
1109.000000	0.019237
1108.000000	0.019446
1107.000000	0.019689
1106.000000	0.019869
1105.000000	0.019969
1104.000000	0.020054
1103.000000	0.020156
1102.000000	0.020249
1101.000000	0.020332
1100.000000	0.020441
1099.000000	0.020564
1098.000000	0.020660
1097.000000	0.020741
1096.000000	0.020870
1095.000000	0.021053
1094.000000	0.021242
1093.000000	0.021436
1092.000000	0.021694
1091.000000	0.022032
1090.000000	0.022418
1089.000000	0.022856
1088.000000	0.023377
1087.000000	0.023950
1086.000000	0.024482
1085.000000	0.024939
1084.000000	0.025357
1083.000000	0.025757
1082.000000	0.026108
1081.000000	0.026387
1080.000000	0.026588
1079.000000	0.026672
1078.000000	0.026599
1077.000000	0.026399
1076.000000	0.026138
1075.000000	0.025812
1074.000000	0.025385
1073.000000	0.024894
1072.000000	0.024448
1071.000000	0.024104
1070.000000	0.023845
1069.000000	0.023667
1068.000000	0.023595
1067.000000	0.023607
1066.000000	0.023641
1065.000000	0.023687
1064.000000	0.023790
1063.000000	0.023954
1062.000000	0.024119
1061.000000	0.024244
1060.000000	0.024331
1059.000000	0.024369
1058.000000	0.024331
1057.000000	0.024241
1056.000000	0.024164
1055.000000	0.024142
1054.000000	0.024193
1053.000000	0.024355
1052.000000	0.024658
1051.000000	0.025063
1050.000000	0.025493
1049.000000	0.025917
1048.000000	0.026307
1047.000000	0.026567
1046.000000	0.026630
1045.000000	0.026565
1044.000000	0.026520
1043.000000	0.026554
1042.000000	0.026614
1041.000000	0.026668
1040.000000	0.026752
1039.000000	0.026893
1038.000000	0.027077
1037.000000	0.027317
1036.000000	0.027631
1035.000000	0.027988
1034.000000	0.028322
1033.000000	0.028624
1032.000000	0.028929
1031.000000	0.029215
1030.000000	0.029423
1029.000000	0.029549
1028.000000	0.029651
1027.000000	0.029756
1026.000000	0.029833
1025.000000	0.029876
1024.000000	0.029911
1023.000000	0.029938
1022.000000	0.029930
1021.000000	0.029896
1020.000000	0.029877
1019.000000	0.029871
1018.000000	0.029831
1017.000000	0.029739
1016.000000	0.029603
1015.000000	0.029401
1014.000000	0.029105
1013.000000	0.028744
1012.000000	0.028387
1011.000000	0.028048
1010.000000	0.027686
1009.000000	0.027295
1008.000000	0.026910
1007.000000	0.026543
1006.000000	0.026167
1005.000000	0.025783
1004.000000	0.025425
1003.000000	0.025104
1002.000000	0.024797
1001.000000	0.024501
1000.000000	0.024225
999.000000	0.023951
998.000000	0.023647
997.000000	0.023331
996.000000	0.023041
995.000000	0.022763
994.000000	0.022441
993.000000	0.022072
992.000000	0.021706
991.000000	0.021365
990.000000	0.021025
989.000000	0.020674
988.000000	0.020331
987.000000	0.019993
986.000000	0.019631
985.000000	0.019243
984.000000	0.018858
983.000000	0.018490
982.000000	0.018134
981.000000	0.017809
980.000000	0.017539
979.000000	0.017298
978.000000	0.017035
977.000000	0.016740
976.000000	0.016452
975.000000	0.016185
974.000000	0.015924
973.000000	0.015665
972.000000	0.015415
971.000000	0.015155
970.000000	0.014862
969.000000	0.014555
968.000000	0.014262
967.000000	0.013959
966.000000	0.013599
965.000000	0.013208
964.000000	0.012863
963.000000	0.012586
962.000000	0.012331
961.000000	0.012085
960.000000	0.011889
959.000000	0.011748
958.000000	0.011602
957.000000	0.011397
956.000000	0.011141
955.000000	0.010866
954.000000	0.010607
953.000000	0.010404
952.000000	0.010282
951.000000	0.010202
950.000000	0.010105
949.000000	0.010003
948.000000	0.009955
947.000000	0.009969
946.000000	0.009989
945.000000	0.009985
944.000000	0.009976
943.000000	0.009969
942.000000	0.009947
941.000000	0.009926
940.000000	0.009947
939.000000	0.010011
938.000000	0.010065
937.000000	0.010080
936.000000	0.010070
935.000000	0.010041
934.000000	0.009982
933.000000	0.009913
932.000000	0.009874
931.000000	0.009840
930.000000	0.009752
929.000000	0.009613
928.000000	0.009500
927.000000	0.009445
926.000000	0.009394
925.000000	0.009305
924.000000	0.009209
923.000000	0.009140
922.000000	0.009085
921.000000	0.009018
920.000000	0.008938
919.000000	0.008835
918.000000	0.008681
917.000000	0.008474
916.000000	0.008265
915.000000	0.008093
914.000000	0.007949
913.000000	0.007818
912.000000	0.007716
911.000000	0.007640
910.000000	0.007557
909.000000	0.007446
908.000000	0.007332
907.000000	0.007254
906.000000	0.007222
905.000000	0.007229
904.000000	0.007254
903.000000	0.007258
902.000000	0.007213
901.000000	0.007139
900.000000	0.007076
899.000000	0.007011
898.000000	0.006892
897.000000	0.006713
896.000000	0.006529
895.000000	0.006393
894.000000	0.006306
893.000000	0.006252
892.000000	0.006225
891.000000	0.006205
890.000000	0.006161
889.000000	0.006101
888.000000	0.006074
887.000000	0.006118
886.000000	0.006219
885.000000	0.006349
884.000000	0.006504
883.000000	0.006700
882.000000	0.006961
881.000000	0.007324
880.000000	0.007800
879.000000	0.008352
878.000000	0.008891
877.000000	0.009331
876.000000	0.009596
875.000000	0.009624
874.000000	0.009417
873.000000	0.009073
872.000000	0.008722
871.000000	0.008427
870.000000	0.008185
869.000000	0.008001
868.000000	0.007887
867.000000	0.007817
866.000000	0.007727
865.000000	0.007595
864.000000	0.007458
863.000000	0.007352
862.000000	0.007286
861.000000	0.007267
860.000000	0.007308
859.000000	0.007385
858.000000	0.007439
857.000000	0.007438
856.000000	0.007400
855.000000	0.007355
854.000000	0.007320
853.000000	0.007302
852.000000	0.007310
851.000000	0.007332
850.000000	0.007347
849.000000	0.007357
848.000000	0.007375
847.000000	0.007388
846.000000	0.007368
845.000000	0.007313
844.000000	0.007249
843.000000	0.007186
842.000000	0.007106
841.000000	0.007020
840.000000	0.006966
839.000000	0.006953
838.000000	0.006936
837.000000	0.006865
836.000000	0.006730
835.000000	0.006550
834.000000	0.006349
833.000000	0.006157
832.000000	0.006025
831.000000	0.005984
830.000000	0.006016
829.000000	0.006060
828.000000	0.006065
827.000000	0.006045
826.000000	0.006081
825.000000	0.006241
824.000000	0.006494
823.000000	0.006733
822.000000	0.006879
821.000000	0.006955
820.000000	0.007011
819.000000	0.007042
818.000000	0.007016
817.000000	0.006932
816.000000	0.006816
815.000000	0.006685
814.000000	0.006558
813.000000	0.006475
812.000000	0.006473
811.000000	0.006534
810.000000	0.006594
809.000000	0.006606
808.000000	0.006553
807.000000	0.006450
806.000000	0.006335
805.000000	0.006265
804.000000	0.006269
803.000000	0.006326
802.000000	0.006408
801.000000	0.006502
800.000000	0.006583
799.000000	0.006602
798.000000	0.006558
797.000000	0.006520
796.000000	0.006545
795.000000	0.006598
794.000000	0.006615
793.000000	0.006615
792.000000	0.006674
791.000000	0.006800
790.000000	0.006917
789.000000	0.006969
788.000000	0.006976
787.000000	0.006974
786.000000	0.006966
785.000000	0.006952
784.000000	0.006972
783.000000	0.007070
782.000000	0.007227
781.000000	0.007369
780.000000	0.007426
779.000000	0.007393
778.000000	0.007319
777.000000	0.007262
776.000000	0.007249
775.000000	0.007273
774.000000	0.007312
773.000000	0.007347
772.000000	0.007363
771.000000	0.007370
770.000000	0.007401
769.000000	0.007480
768.000000	0.007584
767.000000	0.007667
766.000000	0.007718
765.000000	0.007762
764.000000	0.007800
763.000000	0.007796
762.000000	0.007736
761.000000	0.007660
760.000000	0.007615
759.000000	0.007612
758.000000	0.007637
757.000000	0.007686
756.000000	0.007751
755.000000	0.007799
754.000000	0.007804
753.000000	0.007778
752.000000	0.007757
751.000000	0.007753
750.000000	0.007748
749.000000	0.007735
748.000000	0.007732
747.000000	0.007759
746.000000	0.007818
745.000000	0.007904
744.000000	0.008002
743.000000	0.008084
742.000000	0.008108
741.000000	0.008049
740.000000	0.007941
739.000000	0.007870
738.000000	0.007901
737.000000	0.008011
736.000000	0.008128
735.000000	0.008224
734.000000	0.008333
733.000000	0.008488
732.000000	0.008667
731.000000	0.008826
730.000000	0.008944
729.000000	0.009014
728.000000	0.009056
727.000000	0.009129
726.000000	0.009287
725.000000	0.009525
724.000000	0.009791
723.000000	0.010051
722.000000	0.010317
721.000000	0.010564
720.000000	0.010719
719.000000	0.010781
718.000000	0.010866
717.000000	0.011080
716.000000	0.011380
715.000000	0.011645
714.000000	0.011808
713.000000	0.011885
712.000000	0.011898
711.000000	0.011862
710.000000	0.011830
709.000000	0.011859
708.000000	0.011946
707.000000	0.012055
706.000000	0.012172
705.000000	0.012316
704.000000	0.012475
703.000000	0.012602
702.000000	0.012678
701.000000	0.012709
700.000000	0.012691
699.000000	0.012640
698.000000	0.012598
697.000000	0.012580
696.000000	0.012533
695.000000	0.012420
694.000000	0.012308
693.000000	0.012261
692.000000	0.012231
691.000000	0.012165
690.000000	0.012134
689.000000	0.012271
688.000000	0.012593
687.000000	0.012977
686.000000	0.013304
685.000000	0.013489
684.000000	0.013479
683.000000	0.013338
682.000000	0.013243
681.000000	0.013286
680.000000	0.013388
679.000000	0.013466
678.000000	0.013559
677.000000	0.013649
676.000000	0.013671
675.000000	0.013692
674.000000	0.013851
673.000000	0.014090
672.000000	0.014088
671.000000	0.013726
670.000000	0.013448
669.000000	0.013897
668.000000	0.013875
667.000000	0.013077
666.000000	0.013273
665.000000	0.013799
664.000000	0.014011
663.000000	0.014259
662.000000	0.014480
661.000000	0.014523
660.000000	0.014459
659.000000	0.014440
658.000000	0.014436
657.000000	0.014387
656.000000	0.014352
655.000000	0.014356
654.000000	0.014268
653.000000	0.014085
652.000000	0.014009
651.000000	0.014138
650.000000	0.014343
649.000000	0.014503
648.000000	0.014641
647.000000	0.014747
646.000000	0.014739
645.000000	0.014634
644.000000	0.014540
643.000000	0.014482
642.000000	0.014393
641.000000	0.014260
640.000000	0.014162
639.000000	0.014117
638.000000	0.014062
637.000000	0.013999
636.000000	0.014010
635.000000	0.014098
634.000000	0.014186
633.000000	0.014242
632.000000	0.014258
631.000000	0.014176
630.000000	0.013995
629.000000	0.013892
628.000000	0.014032
627.000000	0.014313
626.000000	0.014489
625.000000	0.014523
624.000000	0.014561
623.000000	0.014640
622.000000	0.014651
621.000000	0.014585
620.000000	0.014573
619.000000	0.014655
618.000000	0.014751
617.000000	0.014853
616.000000	0.015030
615.000000	0.015203
614.000000	0.015182
613.000000	0.014968
612.000000	0.014780
611.000000	0.014728
610.000000	0.014699
609.000000	0.014586
608.000000	0.014466
607.000000	0.014448
606.000000	0.014533
605.000000	0.014706
604.000000	0.014952
603.000000	0.015156
602.000000	0.015153
601.000000	0.014943
600.000000	0.014731
599.000000	0.014701
598.000000	0.014828
597.000000	0.015008
596.000000	0.015195
595.000000	0.015360
594.000000	0.015444
593.000000	0.015435
592.000000	0.015395
591.000000	0.015349
590.000000	0.015276
589.000000	0.015210
588.000000	0.015242
587.000000	0.015350
586.000000	0.015411
585.000000	0.015418
584.000000	0.015519
583.000000	0.015748
582.000000	0.015897
581.000000	0.015788
580.000000	0.015523
579.000000	0.015351
578.000000	0.015402
577.000000	0.015672
576.000000	0.016065
575.000000	0.016377
574.000000	0.016416
573.000000	0.016259
572.000000	0.016205
571.000000	0.016417
570.000000	0.016759
569.000000	0.017016
568.000000	0.017124
567.000000	0.017059
566.000000	0.016773
565.000000	0.016355
564.000000	0.016058
563.000000	0.016020
562.000000	0.016088
561.000000	0.016082
560.000000	0.016016
559.000000	0.015963
558.000000	0.015910
557.000000	0.015851
556.000000	0.015817
555.000000	0.015747
554.000000	0.015529
553.000000	0.015257
552.000000	0.015204
551.000000	0.015438
550.000000	0.015662
549.000000	0.015613
548.000000	0.015395
547.000000	0.015267
546.000000	0.015309
545.000000	0.015444
544.000000	0.015616
543.000000	0.015730
542.000000	0.015619
541.000000	0.015273
540.000000	0.014939
539.000000	0.014820
538.000000	0.014834
537.000000	0.014832
536.000000	0.014887
535.000000	0.015144
534.000000	0.015547
533.000000	0.015918
532.000000	0.016108
531.000000	0.016052
530.000000	0.015744
529.000000	0.015323
528.000000	0.015055
527.000000	0.015134
526.000000	0.015423
525.000000	0.015591
524.000000	0.015505
523.000000	0.015247
522.000000	0.014932
521.000000	0.014653
520.000000	0.014453
519.000000	0.014282
518.000000	0.014039
517.000000	0.013734
516.000000	0.013507
515.000000	0.013422
514.000000	0.013399
513.000000	0.013333
512.000000	0.013177
511.000000	0.012906
510.000000	0.012532
509.000000	0.012138
508.000000	0.011802
507.000000	0.011555
506.000000	0.011359
505.000000	0.011243
504.000000	0.011267
503.000000	0.011392
502.000000	0.011447
501.000000	0.011323
500.000000	0.011127
499.000000	0.011003
498.000000	0.010974
497.000000	0.010984
496.000000	0.010972
495.000000	0.010870
494.000000	0.010641
493.000000	0.010334
492.000000	0.010097
491.000000	0.010022
490.000000	0.010000
489.000000	0.009888
488.000000	0.009651
487.000000	0.009364
486.000000	0.009062
485.000000	0.008774
484.000000	0.008635
483.000000	0.008789
482.000000	0.009149
481.000000	0.009404
480.000000	0.009368
479.000000	0.009143
478.000000	0.008914
477.000000	0.008786
476.000000	0.008733
475.000000	0.008632
474.000000	0.008448
473.000000	0.008356
472.000000	0.008584
471.000000	0.009097
470.000000	0.009545
469.000000	0.009739
468.000000	0.009787
467.000000	0.009720
466.000000	0.009431
465.000000	0.009025
464.000000	0.008805
463.000000	0.008858
462.000000	0.008854
461.000000	0.008449
460.000000	0.007722
459.000000	0.006973
458.000000	0.006365
457.000000	0.005943
456.000000	0.005723
455.000000	0.005628
454.000000	0.005624
453.000000	0.005771
452.000000	0.006253
451.000000	0.006715
450.000000	0.006667
