PE IR       SUBTECH     SPECTRUM    ASCII       PEDS        4.00        
   -1
3C-N10-C032_1.ASC
22/02/16
14:54:38.00
22/02/16
15:05:49.00
uco
Sample 032 By uco Date Wednesday, February 16 2022
450.000000
#HDR
-1
-1
#GR
cm-1
A
1.0
0.0
4000.000000
-1.000000
3551
8
0.066715
0.002844
#DATA
4000.000000	0.006321
3999.000000	0.006254
3998.000000	0.006209
3997.000000	0.006212
3996.000000	0.006236
3995.000000	0.006241
3994.000000	0.006243
3993.000000	0.006279
3992.000000	0.006346
3991.000000	0.006403
3990.000000	0.006428
3989.000000	0.006438
3988.000000	0.006445
3987.000000	0.006427
3986.000000	0.006378
3985.000000	0.006334
3984.000000	0.006315
3983.000000	0.006309
3982.000000	0.006298
3981.000000	0.006285
3980.000000	0.006297
3979.000000	0.006353
3978.000000	0.006440
3977.000000	0.006533
3976.000000	0.006634
3975.000000	0.006740
3974.000000	0.006812
3973.000000	0.006829
3972.000000	0.006816
3971.000000	0.006809
3970.000000	0.006799
3969.000000	0.006761
3968.000000	0.006677
3967.000000	0.006541
3966.000000	0.006376
3965.000000	0.006251
3964.000000	0.006258
3963.000000	0.006409
3962.000000	0.006618
3961.000000	0.006790
3960.000000	0.006894
3959.000000	0.006936
3958.000000	0.006902
3957.000000	0.006836
3956.000000	0.006808
3955.000000	0.006804
3954.000000	0.006774
3953.000000	0.006679
3952.000000	0.006571
3951.000000	0.006537
3950.000000	0.006689
3949.000000	0.006999
3948.000000	0.007206
3947.000000	0.007204
3946.000000	0.007140
3945.000000	0.007206
3944.000000	0.007417
3943.000000	0.007584
3942.000000	0.007625
3941.000000	0.007628
3940.000000	0.007625
3939.000000	0.007526
3938.000000	0.007209
3937.000000	0.006767
3936.000000	0.006462
3935.000000	0.006390
3934.000000	0.006552
3933.000000	0.006893
3932.000000	0.007424
3931.000000	0.007987
3930.000000	0.008226
3929.000000	0.008012
3928.000000	0.007582
3927.000000	0.007375
3926.000000	0.007466
3925.000000	0.007523
3924.000000	0.007491
3923.000000	0.007609
3922.000000	0.007747
3921.000000	0.007553
3920.000000	0.007126
3919.000000	0.007107
3918.000000	0.007585
3917.000000	0.007975
3916.000000	0.007954
3915.000000	0.007783
3914.000000	0.007697
3913.000000	0.007581
3912.000000	0.007349
3911.000000	0.007246
3910.000000	0.007248
3909.000000	0.007192
3908.000000	0.007107
3907.000000	0.007119
3906.000000	0.007304
3905.000000	0.007350
3904.000000	0.007209
3903.000000	0.007353
3902.000000	0.008161
3901.000000	0.009290
3900.000000	0.009822
3899.000000	0.009435
3898.000000	0.008750
3897.000000	0.008343
3896.000000	0.008067
3895.000000	0.007746
3894.000000	0.007594
3893.000000	0.008095
3892.000000	0.008722
3891.000000	0.008305
3890.000000	0.007218
3889.000000	0.006821
3888.000000	0.007466
3887.000000	0.008125
3886.000000	0.007904
3885.000000	0.007045
3884.000000	0.006782
3883.000000	0.007663
3882.000000	0.008839
3881.000000	0.009419
3880.000000	0.009156
3879.000000	0.008377
3878.000000	0.007925
3877.000000	0.008090
3876.000000	0.008332
3875.000000	0.008130
3874.000000	0.007491
3873.000000	0.007292
3872.000000	0.008209
3871.000000	0.009273
3870.000000	0.008903
3869.000000	0.007589
3868.000000	0.007316
3867.000000	0.008385
3866.000000	0.008877
3865.000000	0.008189
3864.000000	0.007849
3863.000000	0.008447
3862.000000	0.008904
3861.000000	0.008833
3860.000000	0.008711
3859.000000	0.008961
3858.000000	0.009386
3857.000000	0.009473
3856.000000	0.008733
3855.000000	0.007029
3854.000000	0.005165
3853.000000	0.003484
3852.000000	0.002844
3851.000000	0.004384
3850.000000	0.006594
3849.000000	0.007866
3848.000000	0.008170
3847.000000	0.008184
3846.000000	0.008011
3845.000000	0.007845
3844.000000	0.007880
3843.000000	0.007880
3842.000000	0.007848
3841.000000	0.008346
3840.000000	0.009036
3839.000000	0.009203
3838.000000	0.008667
3837.000000	0.007835
3836.000000	0.007406
3835.000000	0.007588
3834.000000	0.008160
3833.000000	0.008648
3832.000000	0.008522
3831.000000	0.007857
3830.000000	0.007315
3829.000000	0.007461
3828.000000	0.008124
3827.000000	0.008526
3826.000000	0.008100
3825.000000	0.007579
3824.000000	0.007657
3823.000000	0.008115
3822.000000	0.008622
3821.000000	0.008413
3820.000000	0.007572
3819.000000	0.007601
3818.000000	0.008566
3817.000000	0.008796
3816.000000	0.007467
3815.000000	0.005854
3814.000000	0.005902
3813.000000	0.007256
3812.000000	0.007884
3811.000000	0.007283
3810.000000	0.006687
3809.000000	0.006989
3808.000000	0.007506
3807.000000	0.006941
3806.000000	0.005625
3805.000000	0.005407
3804.000000	0.006583
3803.000000	0.007916
3802.000000	0.008177
3801.000000	0.006994
3800.000000	0.005918
3799.000000	0.006437
3798.000000	0.007744
3797.000000	0.008438
3796.000000	0.008290
3795.000000	0.007853
3794.000000	0.007692
3793.000000	0.007591
3792.000000	0.007265
3791.000000	0.006970
3790.000000	0.006882
3789.000000	0.006763
3788.000000	0.006502
3787.000000	0.006418
3786.000000	0.006778
3785.000000	0.007238
3784.000000	0.007302
3783.000000	0.007120
3782.000000	0.007057
3781.000000	0.007203
3780.000000	0.007374
3779.000000	0.007402
3778.000000	0.007345
3777.000000	0.007477
3776.000000	0.007582
3775.000000	0.007192
3774.000000	0.006509
3773.000000	0.006295
3772.000000	0.006725
3771.000000	0.007164
3770.000000	0.007119
3769.000000	0.006872
3768.000000	0.006929
3767.000000	0.007349
3766.000000	0.007687
3765.000000	0.007472
3764.000000	0.006986
3763.000000	0.006869
3762.000000	0.006983
3761.000000	0.006886
3760.000000	0.006839
3759.000000	0.007420
3758.000000	0.008103
3757.000000	0.008191
3756.000000	0.007971
3755.000000	0.007667
3754.000000	0.006802
3753.000000	0.005284
3752.000000	0.004643
3751.000000	0.005836
3750.000000	0.006867
3749.000000	0.006445
3748.000000	0.006095
3747.000000	0.007104
3746.000000	0.008540
3745.000000	0.008229
3744.000000	0.005648
3743.000000	0.003746
3742.000000	0.004748
3741.000000	0.006738
3740.000000	0.007274
3739.000000	0.006851
3738.000000	0.006711
3737.000000	0.006983
3736.000000	0.007660
3735.000000	0.008824
3734.000000	0.010126
3733.000000	0.010482
3732.000000	0.009340
3731.000000	0.007578
3730.000000	0.006538
3729.000000	0.006526
3728.000000	0.006851
3727.000000	0.006838
3726.000000	0.006662
3725.000000	0.006862
3724.000000	0.007394
3723.000000	0.007679
3722.000000	0.007541
3721.000000	0.007312
3720.000000	0.007227
3719.000000	0.007325
3718.000000	0.007192
3717.000000	0.006619
3716.000000	0.006154
3715.000000	0.005929
3714.000000	0.005600
3713.000000	0.005458
3712.000000	0.006179
3711.000000	0.007484
3710.000000	0.008333
3709.000000	0.008508
3708.000000	0.008308
3707.000000	0.007795
3706.000000	0.007244
3705.000000	0.006914
3704.000000	0.006856
3703.000000	0.007039
3702.000000	0.007202
3701.000000	0.007103
3700.000000	0.006801
3699.000000	0.006657
3698.000000	0.006678
3697.000000	0.006495
3696.000000	0.006260
3695.000000	0.006334
3694.000000	0.006443
3693.000000	0.006208
3692.000000	0.005943
3691.000000	0.006267
3690.000000	0.007000
3689.000000	0.007140
3688.000000	0.006187
3687.000000	0.005334
3686.000000	0.005605
3685.000000	0.006462
3684.000000	0.006840
3683.000000	0.006657
3682.000000	0.006658
3681.000000	0.006886
3680.000000	0.006711
3679.000000	0.006134
3678.000000	0.006119
3677.000000	0.007216
3676.000000	0.008564
3675.000000	0.008532
3674.000000	0.007623
3673.000000	0.007542
3672.000000	0.007865
3671.000000	0.007766
3670.000000	0.007553
3669.000000	0.007481
3668.000000	0.007588
3667.000000	0.007767
3666.000000	0.007695
3665.000000	0.007370
3664.000000	0.007132
3663.000000	0.007222
3662.000000	0.007409
3661.000000	0.007260
3660.000000	0.006953
3659.000000	0.006912
3658.000000	0.007382
3657.000000	0.007818
3656.000000	0.007589
3655.000000	0.007100
3654.000000	0.007127
3653.000000	0.007236
3652.000000	0.006575
3651.000000	0.006092
3650.000000	0.007248
3649.000000	0.009375
3648.000000	0.010628
3647.000000	0.010649
3646.000000	0.010164
3645.000000	0.009625
3644.000000	0.009126
3643.000000	0.008724
3642.000000	0.008403
3641.000000	0.008176
3640.000000	0.008141
3639.000000	0.008135
3638.000000	0.007972
3637.000000	0.007806
3636.000000	0.008008
3635.000000	0.008458
3634.000000	0.008630
3633.000000	0.008476
3632.000000	0.008353
3631.000000	0.008347
3630.000000	0.008719
3629.000000	0.009122
3628.000000	0.008662
3627.000000	0.008331
3626.000000	0.008777
3625.000000	0.009177
3624.000000	0.009002
3623.000000	0.008656
3622.000000	0.008599
3621.000000	0.008817
3620.000000	0.009138
3619.000000	0.009364
3618.000000	0.009233
3617.000000	0.009067
3616.000000	0.009266
3615.000000	0.009737
3614.000000	0.010118
3613.000000	0.010234
3612.000000	0.010194
3611.000000	0.010107
3610.000000	0.010033
3609.000000	0.010150
3608.000000	0.010526
3607.000000	0.010928
3606.000000	0.011020
3605.000000	0.010686
3604.000000	0.010093
3603.000000	0.009599
3602.000000	0.009476
3601.000000	0.009650
3600.000000	0.009931
3599.000000	0.010169
3598.000000	0.010228
3597.000000	0.010155
3596.000000	0.010331
3595.000000	0.010733
3594.000000	0.011031
3593.000000	0.011031
3592.000000	0.010772
3591.000000	0.010331
3590.000000	0.009921
3589.000000	0.010028
3588.000000	0.010995
3587.000000	0.012072
3586.000000	0.012456
3585.000000	0.012262
3584.000000	0.011915
3583.000000	0.011540
3582.000000	0.011232
3581.000000	0.011088
3580.000000	0.011140
3579.000000	0.011269
3578.000000	0.011350
3577.000000	0.011401
3576.000000	0.011530
3575.000000	0.011736
3574.000000	0.011844
3573.000000	0.011764
3572.000000	0.011470
3571.000000	0.011005
3570.000000	0.010565
3569.000000	0.010641
3568.000000	0.011709
3567.000000	0.013394
3566.000000	0.014602
3565.000000	0.014877
3564.000000	0.014532
3563.000000	0.013959
3562.000000	0.013458
3561.000000	0.013225
3560.000000	0.013219
3559.000000	0.013245
3558.000000	0.013146
3557.000000	0.012912
3556.000000	0.012665
3555.000000	0.012605
3554.000000	0.012846
3553.000000	0.013298
3552.000000	0.013690
3551.000000	0.013774
3550.000000	0.013561
3549.000000	0.013265
3548.000000	0.013192
3547.000000	0.013572
3546.000000	0.014269
3545.000000	0.014873
3544.000000	0.015135
3543.000000	0.015074
3542.000000	0.014803
3541.000000	0.014462
3540.000000	0.014201
3539.000000	0.014128
3538.000000	0.014246
3537.000000	0.014482
3536.000000	0.014746
3535.000000	0.014894
3534.000000	0.014841
3533.000000	0.014638
3532.000000	0.014467
3531.000000	0.014480
3530.000000	0.014680
3529.000000	0.014969
3528.000000	0.015243
3527.000000	0.015450
3526.000000	0.015610
3525.000000	0.015811
3524.000000	0.016131
3523.000000	0.016482
3522.000000	0.016645
3521.000000	0.016539
3520.000000	0.016316
3519.000000	0.016135
3518.000000	0.016039
3517.000000	0.016012
3516.000000	0.016060
3515.000000	0.016112
3514.000000	0.016086
3513.000000	0.016029
3512.000000	0.016090
3511.000000	0.016336
3510.000000	0.016676
3509.000000	0.016930
3508.000000	0.016988
3507.000000	0.016870
3506.000000	0.016695
3505.000000	0.016658
3504.000000	0.016933
3503.000000	0.017433
3502.000000	0.017836
3501.000000	0.017940
3500.000000	0.017824
3499.000000	0.017674
3498.000000	0.017587
3497.000000	0.017596
3496.000000	0.017705
3495.000000	0.017850
3494.000000	0.017921
3493.000000	0.017889
3492.000000	0.017826
3491.000000	0.017800
3490.000000	0.017837
3489.000000	0.017965
3488.000000	0.018181
3487.000000	0.018401
3486.000000	0.018513
3485.000000	0.018515
3484.000000	0.018522
3483.000000	0.018613
3482.000000	0.018760
3481.000000	0.018897
3480.000000	0.018999
3479.000000	0.019045
3478.000000	0.019015
3477.000000	0.018952
3476.000000	0.018943
3475.000000	0.019008
3474.000000	0.019076
3473.000000	0.019099
3472.000000	0.019112
3471.000000	0.019144
3470.000000	0.019190
3469.000000	0.019274
3468.000000	0.019407
3467.000000	0.019523
3466.000000	0.019545
3465.000000	0.019500
3464.000000	0.019495
3463.000000	0.019578
3462.000000	0.019723
3461.000000	0.019887
3460.000000	0.020041
3459.000000	0.020138
3458.000000	0.020148
3457.000000	0.020117
3456.000000	0.020121
3455.000000	0.020172
3454.000000	0.020252
3453.000000	0.020315
3452.000000	0.020325
3451.000000	0.020289
3450.000000	0.020274
3449.000000	0.020380
3448.000000	0.020634
3447.000000	0.020941
3446.000000	0.021168
3445.000000	0.021274
3444.000000	0.021309
3443.000000	0.021327
3442.000000	0.021342
3441.000000	0.021357
3440.000000	0.021377
3439.000000	0.021405
3438.000000	0.021441
3437.000000	0.021486
3436.000000	0.021545
3435.000000	0.021620
3434.000000	0.021725
3433.000000	0.021848
3432.000000	0.021964
3431.000000	0.022064
3430.000000	0.022138
3429.000000	0.022182
3428.000000	0.022214
3427.000000	0.022268
3426.000000	0.022339
3425.000000	0.022397
3424.000000	0.022437
3423.000000	0.022497
3422.000000	0.022611
3421.000000	0.022766
3420.000000	0.022921
3419.000000	0.023035
3418.000000	0.023078
3417.000000	0.023043
3416.000000	0.022975
3415.000000	0.022944
3414.000000	0.022977
3413.000000	0.023051
3412.000000	0.023137
3411.000000	0.023232
3410.000000	0.023326
3409.000000	0.023408
3408.000000	0.023481
3407.000000	0.023553
3406.000000	0.023608
3405.000000	0.023642
3404.000000	0.023695
3403.000000	0.023798
3402.000000	0.023927
3401.000000	0.024050
3400.000000	0.024180
3399.000000	0.024322
3398.000000	0.024425
3397.000000	0.024451
3396.000000	0.024430
3395.000000	0.024435
3394.000000	0.024505
3393.000000	0.024626
3392.000000	0.024761
3391.000000	0.024863
3390.000000	0.024899
3389.000000	0.024887
3388.000000	0.024884
3387.000000	0.024918
3386.000000	0.024968
3385.000000	0.025010
3384.000000	0.025056
3383.000000	0.025105
3382.000000	0.025140
3381.000000	0.025168
3380.000000	0.025232
3379.000000	0.025344
3378.000000	0.025464
3377.000000	0.025559
3376.000000	0.025630
3375.000000	0.025677
3374.000000	0.025695
3373.000000	0.025715
3372.000000	0.025795
3371.000000	0.025943
3370.000000	0.026112
3369.000000	0.026270
3368.000000	0.026418
3367.000000	0.026547
3366.000000	0.026631
3365.000000	0.026674
3364.000000	0.026720
3363.000000	0.026802
3362.000000	0.026916
3361.000000	0.027044
3360.000000	0.027163
3359.000000	0.027246
3358.000000	0.027290
3357.000000	0.027334
3356.000000	0.027419
3355.000000	0.027522
3354.000000	0.027598
3353.000000	0.027653
3352.000000	0.027744
3351.000000	0.027895
3350.000000	0.028069
3349.000000	0.028232
3348.000000	0.028378
3347.000000	0.028500
3346.000000	0.028583
3345.000000	0.028641
3344.000000	0.028715
3343.000000	0.028812
3342.000000	0.028899
3341.000000	0.028963
3340.000000	0.029033
3339.000000	0.029136
3338.000000	0.029269
3337.000000	0.029423
3336.000000	0.029594
3335.000000	0.029756
3334.000000	0.029869
3333.000000	0.029924
3332.000000	0.029949
3331.000000	0.029979
3330.000000	0.030024
3329.000000	0.030085
3328.000000	0.030162
3327.000000	0.030253
3326.000000	0.030347
3325.000000	0.030453
3324.000000	0.030582
3323.000000	0.030713
3322.000000	0.030801
3321.000000	0.030837
3320.000000	0.030858
3319.000000	0.030903
3318.000000	0.030974
3317.000000	0.031055
3316.000000	0.031133
3315.000000	0.031202
3314.000000	0.031257
3313.000000	0.031297
3312.000000	0.031320
3311.000000	0.031328
3310.000000	0.031337
3309.000000	0.031378
3308.000000	0.031461
3307.000000	0.031552
3306.000000	0.031615
3305.000000	0.031658
3304.000000	0.031716
3303.000000	0.031791
3302.000000	0.031862
3301.000000	0.031920
3300.000000	0.031974
3299.000000	0.032016
3298.000000	0.032034
3297.000000	0.032037
3296.000000	0.032046
3295.000000	0.032061
3294.000000	0.032068
3293.000000	0.032077
3292.000000	0.032110
3291.000000	0.032150
3290.000000	0.032161
3289.000000	0.032130
3288.000000	0.032076
3287.000000	0.032026
3286.000000	0.032004
3285.000000	0.032034
3284.000000	0.032116
3283.000000	0.032196
3282.000000	0.032209
3281.000000	0.032164
3280.000000	0.032117
3279.000000	0.032082
3278.000000	0.032025
3277.000000	0.031935
3276.000000	0.031849
3275.000000	0.031799
3274.000000	0.031780
3273.000000	0.031781
3272.000000	0.031804
3271.000000	0.031841
3270.000000	0.031868
3269.000000	0.031869
3268.000000	0.031846
3267.000000	0.031796
3266.000000	0.031709
3265.000000	0.031605
3264.000000	0.031522
3263.000000	0.031470
3262.000000	0.031418
3261.000000	0.031357
3260.000000	0.031287
3259.000000	0.031196
3258.000000	0.031089
3257.000000	0.031018
3256.000000	0.031035
3255.000000	0.031112
3254.000000	0.031155
3253.000000	0.031106
3252.000000	0.030992
3251.000000	0.030862
3250.000000	0.030730
3249.000000	0.030600
3248.000000	0.030491
3247.000000	0.030421
3246.000000	0.030397
3245.000000	0.030413
3244.000000	0.030441
3243.000000	0.030429
3242.000000	0.030345
3241.000000	0.030223
3240.000000	0.030119
3239.000000	0.030045
3238.000000	0.029975
3237.000000	0.029902
3236.000000	0.029838
3235.000000	0.029787
3234.000000	0.029744
3233.000000	0.029719
3232.000000	0.029713
3231.000000	0.029702
3230.000000	0.029666
3229.000000	0.029624
3228.000000	0.029592
3227.000000	0.029549
3226.000000	0.029481
3225.000000	0.029416
3224.000000	0.029384
3223.000000	0.029357
3222.000000	0.029286
3221.000000	0.029193
3220.000000	0.029131
3219.000000	0.029097
3218.000000	0.029045
3217.000000	0.028975
3216.000000	0.028936
3215.000000	0.028942
3214.000000	0.028954
3213.000000	0.028931
3212.000000	0.028874
3211.000000	0.028809
3210.000000	0.028765
3209.000000	0.028762
3208.000000	0.028789
3207.000000	0.028797
3206.000000	0.028745
3205.000000	0.028645
3204.000000	0.028541
3203.000000	0.028455
3202.000000	0.028377
3201.000000	0.028301
3200.000000	0.028233
3199.000000	0.028183
3198.000000	0.028159
3197.000000	0.028151
3196.000000	0.028123
3195.000000	0.028040
3194.000000	0.027914
3193.000000	0.027799
3192.000000	0.027722
3191.000000	0.027654
3190.000000	0.027565
3189.000000	0.027471
3188.000000	0.027401
3187.000000	0.027360
3186.000000	0.027344
3185.000000	0.027352
3184.000000	0.027343
3183.000000	0.027257
3182.000000	0.027101
3181.000000	0.026959
3180.000000	0.026892
3179.000000	0.026880
3178.000000	0.026865
3177.000000	0.026820
3176.000000	0.026736
3175.000000	0.026608
3174.000000	0.026462
3173.000000	0.026352
3172.000000	0.026296
3171.000000	0.026243
3170.000000	0.026145
3169.000000	0.026017
3168.000000	0.025903
3167.000000	0.025815
3166.000000	0.025741
3165.000000	0.025678
3164.000000	0.025614
3163.000000	0.025533
3162.000000	0.025447
3161.000000	0.025382
3160.000000	0.025343
3159.000000	0.025302
3158.000000	0.025249
3157.000000	0.025187
3156.000000	0.025101
3155.000000	0.024971
3154.000000	0.024831
3153.000000	0.024747
3152.000000	0.024730
3151.000000	0.024724
3150.000000	0.024689
3149.000000	0.024643
3148.000000	0.024603
3147.000000	0.024541
3146.000000	0.024442
3145.000000	0.024329
3144.000000	0.024233
3143.000000	0.024149
3142.000000	0.024072
3141.000000	0.024029
3140.000000	0.024029
3139.000000	0.024036
3138.000000	0.024006
3137.000000	0.023945
3136.000000	0.023875
3135.000000	0.023804
3134.000000	0.023748
3133.000000	0.023733
3132.000000	0.023736
3131.000000	0.023693
3130.000000	0.023582
3129.000000	0.023459
3128.000000	0.023372
3127.000000	0.023308
3126.000000	0.023245
3125.000000	0.023191
3124.000000	0.023153
3123.000000	0.023125
3122.000000	0.023106
3121.000000	0.023098
3120.000000	0.023094
3119.000000	0.023078
3118.000000	0.023071
3117.000000	0.023113
3116.000000	0.023191
3115.000000	0.023236
3114.000000	0.023215
3113.000000	0.023161
3112.000000	0.023110
3111.000000	0.023071
3110.000000	0.023055
3109.000000	0.023077
3108.000000	0.023114
3107.000000	0.023123
3106.000000	0.023101
3105.000000	0.023081
3104.000000	0.023073
3103.000000	0.023076
3102.000000	0.023097
3101.000000	0.023136
3100.000000	0.023164
3099.000000	0.023145
3098.000000	0.023093
3097.000000	0.023075
3096.000000	0.023124
3095.000000	0.023201
3094.000000	0.023247
3093.000000	0.023244
3092.000000	0.023210
3091.000000	0.023165
3090.000000	0.023127
3089.000000	0.023108
3088.000000	0.023103
3087.000000	0.023099
3086.000000	0.023102
3085.000000	0.023127
3084.000000	0.023167
3083.000000	0.023196
3082.000000	0.023205
3081.000000	0.023210
3080.000000	0.023221
3079.000000	0.023227
3078.000000	0.023225
3077.000000	0.023226
3076.000000	0.023221
3075.000000	0.023195
3074.000000	0.023156
3073.000000	0.023129
3072.000000	0.023114
3071.000000	0.023091
3070.000000	0.023060
3069.000000	0.023044
3068.000000	0.023052
3067.000000	0.023069
3066.000000	0.023084
3065.000000	0.023101
3064.000000	0.023114
3063.000000	0.023099
3062.000000	0.023043
3061.000000	0.022960
3060.000000	0.022868
3059.000000	0.022774
3058.000000	0.022691
3057.000000	0.022640
3056.000000	0.022625
3055.000000	0.022617
3054.000000	0.022583
3053.000000	0.022517
3052.000000	0.022430
3051.000000	0.022337
3050.000000	0.022247
3049.000000	0.022170
3048.000000	0.022104
3047.000000	0.022029
3046.000000	0.021938
3045.000000	0.021842
3044.000000	0.021753
3043.000000	0.021666
3042.000000	0.021581
3041.000000	0.021511
3040.000000	0.021448
3039.000000	0.021358
3038.000000	0.021228
3037.000000	0.021097
3036.000000	0.021013
3035.000000	0.020974
3034.000000	0.020947
3033.000000	0.020926
3032.000000	0.020915
3031.000000	0.020897
3030.000000	0.020831
3029.000000	0.020701
3028.000000	0.020529
3027.000000	0.020362
3026.000000	0.020239
3025.000000	0.020171
3024.000000	0.020124
3023.000000	0.020058
3022.000000	0.019970
3021.000000	0.019893
3020.000000	0.019859
3019.000000	0.019880
3018.000000	0.019939
3017.000000	0.020013
3016.000000	0.020075
3015.000000	0.020114
3014.000000	0.020142
3013.000000	0.020181
3012.000000	0.020229
3011.000000	0.020259
3010.000000	0.020246
3009.000000	0.020179
3008.000000	0.020070
3007.000000	0.019945
3006.000000	0.019849
3005.000000	0.019808
3004.000000	0.019801
3003.000000	0.019785
3002.000000	0.019740
3001.000000	0.019689
3000.000000	0.019661
2999.000000	0.019669
2998.000000	0.019710
2997.000000	0.019774
2996.000000	0.019841
2995.000000	0.019887
2994.000000	0.019913
2993.000000	0.019941
2992.000000	0.019986
2991.000000	0.020043
2990.000000	0.020108
2989.000000	0.020182
2988.000000	0.020249
2987.000000	0.020280
2986.000000	0.020275
2985.000000	0.020283
2984.000000	0.020343
2983.000000	0.020447
2982.000000	0.020556
2981.000000	0.020647
2980.000000	0.020720
2979.000000	0.020784
2978.000000	0.020845
2977.000000	0.020901
2976.000000	0.020937
2975.000000	0.020935
2974.000000	0.020900
2973.000000	0.020858
2972.000000	0.020836
2971.000000	0.020855
2970.000000	0.020933
2969.000000	0.021074
2968.000000	0.021258
2967.000000	0.021456
2966.000000	0.021664
2965.000000	0.021891
2964.000000	0.022125
2963.000000	0.022330
2962.000000	0.022491
2961.000000	0.022629
2960.000000	0.022769
2959.000000	0.022910
2958.000000	0.023044
2957.000000	0.023164
2956.000000	0.023264
2955.000000	0.023341
2954.000000	0.023394
2953.000000	0.023418
2952.000000	0.023396
2951.000000	0.023328
2950.000000	0.023252
2949.000000	0.023213
2948.000000	0.023206
2947.000000	0.023200
2946.000000	0.023193
2945.000000	0.023223
2944.000000	0.023305
2943.000000	0.023416
2942.000000	0.023525
2941.000000	0.023627
2940.000000	0.023735
2939.000000	0.023863
2938.000000	0.024032
2937.000000	0.024256
2936.000000	0.024517
2935.000000	0.024778
2934.000000	0.025012
2933.000000	0.025208
2932.000000	0.025362
2931.000000	0.025498
2930.000000	0.025680
2929.000000	0.025965
2928.000000	0.026345
2927.000000	0.026762
2926.000000	0.027171
2925.000000	0.027562
2924.000000	0.027919
2923.000000	0.028214
2922.000000	0.028432
2921.000000	0.028576
2920.000000	0.028637
2919.000000	0.028599
2918.000000	0.028457
2917.000000	0.028216
2916.000000	0.027878
2915.000000	0.027457
2914.000000	0.026998
2913.000000	0.026546
2912.000000	0.026105
2911.000000	0.025664
2910.000000	0.025241
2909.000000	0.024880
2908.000000	0.024594
2907.000000	0.024356
2906.000000	0.024143
2905.000000	0.023952
2904.000000	0.023776
2903.000000	0.023608
2902.000000	0.023458
2901.000000	0.023338
2900.000000	0.023232
2899.000000	0.023110
2898.000000	0.022981
2897.000000	0.022876
2896.000000	0.022802
2895.000000	0.022732
2894.000000	0.022653
2893.000000	0.022580
2892.000000	0.022517
2891.000000	0.022448
2890.000000	0.022366
2889.000000	0.022289
2888.000000	0.022236
2887.000000	0.022205
2886.000000	0.022183
2885.000000	0.022156
2884.000000	0.022109
2883.000000	0.022040
2882.000000	0.021976
2881.000000	0.021939
2880.000000	0.021913
2879.000000	0.021868
2878.000000	0.021803
2877.000000	0.021747
2876.000000	0.021716
2875.000000	0.021703
2874.000000	0.021697
2873.000000	0.021687
2872.000000	0.021644
2871.000000	0.021544
2870.000000	0.021404
2869.000000	0.021263
2868.000000	0.021139
2867.000000	0.021025
2866.000000	0.020938
2865.000000	0.020915
2864.000000	0.020972
2863.000000	0.021098
2862.000000	0.021278
2861.000000	0.021496
2860.000000	0.021724
2859.000000	0.021934
2858.000000	0.022138
2857.000000	0.022361
2856.000000	0.022602
2855.000000	0.022839
2854.000000	0.023059
2853.000000	0.023261
2852.000000	0.023421
2851.000000	0.023498
2850.000000	0.023475
2849.000000	0.023346
2848.000000	0.023102
2847.000000	0.022740
2846.000000	0.022306
2845.000000	0.021874
2844.000000	0.021488
2843.000000	0.021152
2842.000000	0.020858
2841.000000	0.020605
2840.000000	0.020380
2839.000000	0.020169
2838.000000	0.019983
2837.000000	0.019840
2836.000000	0.019721
2835.000000	0.019595
2834.000000	0.019461
2833.000000	0.019355
2832.000000	0.019286
2831.000000	0.019227
2830.000000	0.019152
2829.000000	0.019073
2828.000000	0.019006
2827.000000	0.018958
2826.000000	0.018923
2825.000000	0.018891
2824.000000	0.018850
2823.000000	0.018797
2822.000000	0.018741
2821.000000	0.018685
2820.000000	0.018613
2819.000000	0.018521
2818.000000	0.018442
2817.000000	0.018408
2816.000000	0.018401
2815.000000	0.018377
2814.000000	0.018325
2813.000000	0.018266
2812.000000	0.018213
2811.000000	0.018163
2810.000000	0.018119
2809.000000	0.018092
2808.000000	0.018072
2807.000000	0.018039
2806.000000	0.017987
2805.000000	0.017930
2804.000000	0.017874
2803.000000	0.017822
2802.000000	0.017794
2801.000000	0.017802
2800.000000	0.017823
2799.000000	0.017826
2798.000000	0.017815
2797.000000	0.017817
2796.000000	0.017834
2795.000000	0.017839
2794.000000	0.017821
2793.000000	0.017788
2792.000000	0.017746
2791.000000	0.017698
2790.000000	0.017658
2789.000000	0.017644
2788.000000	0.017643
2787.000000	0.017627
2786.000000	0.017593
2785.000000	0.017560
2784.000000	0.017532
2783.000000	0.017497
2782.000000	0.017453
2781.000000	0.017413
2780.000000	0.017379
2779.000000	0.017339
2778.000000	0.017289
2777.000000	0.017238
2776.000000	0.017193
2775.000000	0.017161
2774.000000	0.017155
2773.000000	0.017178
2772.000000	0.017197
2771.000000	0.017183
2770.000000	0.017144
2769.000000	0.017107
2768.000000	0.017078
2767.000000	0.017042
2766.000000	0.017003
2765.000000	0.016980
2764.000000	0.016978
2763.000000	0.016987
2762.000000	0.016993
2761.000000	0.016987
2760.000000	0.016952
2759.000000	0.016890
2758.000000	0.016830
2757.000000	0.016800
2756.000000	0.016792
2755.000000	0.016779
2754.000000	0.016757
2753.000000	0.016734
2752.000000	0.016706
2751.000000	0.016664
2750.000000	0.016614
2749.000000	0.016572
2748.000000	0.016542
2747.000000	0.016531
2746.000000	0.016551
2745.000000	0.016598
2744.000000	0.016634
2743.000000	0.016631
2742.000000	0.016606
2741.000000	0.016588
2740.000000	0.016579
2739.000000	0.016558
2738.000000	0.016521
2737.000000	0.016476
2736.000000	0.016424
2735.000000	0.016377
2734.000000	0.016366
2733.000000	0.016391
2732.000000	0.016412
2731.000000	0.016390
2730.000000	0.016353
2729.000000	0.016341
2728.000000	0.016348
2727.000000	0.016335
2726.000000	0.016292
2725.000000	0.016245
2724.000000	0.016203
2723.000000	0.016161
2722.000000	0.016140
2721.000000	0.016167
2720.000000	0.016229
2719.000000	0.016272
2718.000000	0.016266
2717.000000	0.016226
2716.000000	0.016178
2715.000000	0.016140
2714.000000	0.016122
2713.000000	0.016124
2712.000000	0.016125
2711.000000	0.016108
2710.000000	0.016083
2709.000000	0.016071
2708.000000	0.016067
2707.000000	0.016058
2706.000000	0.016044
2705.000000	0.016031
2704.000000	0.016008
2703.000000	0.015966
2702.000000	0.015927
2701.000000	0.015920
2700.000000	0.015937
2699.000000	0.015946
2698.000000	0.015935
2697.000000	0.015913
2696.000000	0.015881
2695.000000	0.015841
2694.000000	0.015818
2693.000000	0.015828
2692.000000	0.015853
2691.000000	0.015860
2690.000000	0.015846
2689.000000	0.015833
2688.000000	0.015828
2687.000000	0.015823
2686.000000	0.015824
2685.000000	0.015844
2684.000000	0.015868
2683.000000	0.015870
2682.000000	0.015853
2681.000000	0.015833
2680.000000	0.015806
2679.000000	0.015763
2678.000000	0.015715
2677.000000	0.015684
2676.000000	0.015673
2675.000000	0.015663
2674.000000	0.015650
2673.000000	0.015634
2672.000000	0.015605
2671.000000	0.015558
2670.000000	0.015515
2669.000000	0.015496
2668.000000	0.015485
2667.000000	0.015455
2666.000000	0.015398
2665.000000	0.015312
2664.000000	0.015173
2663.000000	0.014969
2662.000000	0.014738
2661.000000	0.014541
2660.000000	0.014392
2659.000000	0.014265
2658.000000	0.014137
2657.000000	0.014017
2656.000000	0.013909
2655.000000	0.013807
2654.000000	0.013712
2653.000000	0.013625
2652.000000	0.013539
2651.000000	0.013458
2650.000000	0.013400
2649.000000	0.013376
2648.000000	0.013356
2647.000000	0.013309
2646.000000	0.013243
2645.000000	0.013183
2644.000000	0.013135
2643.000000	0.013097
2642.000000	0.013083
2641.000000	0.013099
2640.000000	0.013110
2639.000000	0.013084
2638.000000	0.013034
2637.000000	0.012992
2636.000000	0.012956
2635.000000	0.012906
2634.000000	0.012849
2633.000000	0.012813
2632.000000	0.012794
2631.000000	0.012763
2630.000000	0.012716
2629.000000	0.012669
2628.000000	0.012628
2627.000000	0.012602
2626.000000	0.012612
2625.000000	0.012654
2624.000000	0.012678
2623.000000	0.012645
2622.000000	0.012575
2621.000000	0.012516
2620.000000	0.012480
2619.000000	0.012457
2618.000000	0.012461
2617.000000	0.012498
2616.000000	0.012543
2615.000000	0.012574
2614.000000	0.012609
2613.000000	0.012655
2612.000000	0.012662
2611.000000	0.012611
2610.000000	0.012571
2609.000000	0.012619
2608.000000	0.012729
2607.000000	0.012808
2606.000000	0.012820
2605.000000	0.012799
2604.000000	0.012774
2603.000000	0.012754
2602.000000	0.012757
2601.000000	0.012787
2600.000000	0.012793
2599.000000	0.012726
2598.000000	0.012617
2597.000000	0.012546
2596.000000	0.012539
2595.000000	0.012560
2594.000000	0.012582
2593.000000	0.012601
2592.000000	0.012620
2591.000000	0.012648
2590.000000	0.012708
2589.000000	0.012779
2588.000000	0.012791
2587.000000	0.012721
2586.000000	0.012646
2585.000000	0.012646
2584.000000	0.012701
2583.000000	0.012740
2582.000000	0.012753
2581.000000	0.012774
2580.000000	0.012804
2579.000000	0.012825
2578.000000	0.012859
2577.000000	0.012920
2576.000000	0.012963
2575.000000	0.012935
2574.000000	0.012862
2573.000000	0.012808
2572.000000	0.012783
2571.000000	0.012750
2570.000000	0.012699
2569.000000	0.012647
2568.000000	0.012610
2567.000000	0.012617
2566.000000	0.012718
2565.000000	0.012895
2564.000000	0.013044
2563.000000	0.013084
2562.000000	0.013054
2561.000000	0.013028
2560.000000	0.013005
2559.000000	0.012961
2558.000000	0.012926
2557.000000	0.012931
2556.000000	0.012930
2555.000000	0.012887
2554.000000	0.012863
2553.000000	0.012934
2552.000000	0.013052
2551.000000	0.013106
2550.000000	0.013076
2549.000000	0.013035
2548.000000	0.013022
2547.000000	0.013022
2546.000000	0.013020
2545.000000	0.013012
2544.000000	0.012976
2543.000000	0.012916
2542.000000	0.012902
2541.000000	0.012980
2540.000000	0.013088
2539.000000	0.013132
2538.000000	0.013105
2537.000000	0.013071
2536.000000	0.013048
2535.000000	0.013013
2534.000000	0.012960
2533.000000	0.012897
2532.000000	0.012814
2531.000000	0.012723
2530.000000	0.012696
2529.000000	0.012764
2528.000000	0.012855
2527.000000	0.012892
2526.000000	0.012909
2525.000000	0.012981
2524.000000	0.013090
2523.000000	0.013162
2522.000000	0.013172
2521.000000	0.013142
2520.000000	0.013063
2519.000000	0.012935
2518.000000	0.012828
2517.000000	0.012822
2516.000000	0.012892
2515.000000	0.012954
2514.000000	0.012994
2513.000000	0.013050
2512.000000	0.013126
2511.000000	0.013182
2510.000000	0.013199
2509.000000	0.013178
2508.000000	0.013107
2507.000000	0.013002
2506.000000	0.012933
2505.000000	0.012950
2504.000000	0.013003
2503.000000	0.013013
2502.000000	0.012975
2501.000000	0.012925
2500.000000	0.012875
2499.000000	0.012835
2498.000000	0.012855
2497.000000	0.012958
2496.000000	0.013077
2495.000000	0.013126
2494.000000	0.013102
2493.000000	0.013038
2492.000000	0.012933
2491.000000	0.012787
2490.000000	0.012666
2489.000000	0.012639
2488.000000	0.012694
2487.000000	0.012779
2486.000000	0.012873
2485.000000	0.012961
2484.000000	0.012989
2483.000000	0.012936
2482.000000	0.012870
2481.000000	0.012866
2480.000000	0.012911
2479.000000	0.012956
2478.000000	0.012997
2477.000000	0.013033
2476.000000	0.013026
2475.000000	0.012961
2474.000000	0.012895
2473.000000	0.012869
2472.000000	0.012841
2471.000000	0.012774
2470.000000	0.012723
2469.000000	0.012743
2468.000000	0.012784
2467.000000	0.012767
2466.000000	0.012707
2465.000000	0.012675
2464.000000	0.012693
2463.000000	0.012741
2462.000000	0.012808
2461.000000	0.012868
2460.000000	0.012854
2459.000000	0.012748
2458.000000	0.012634
2457.000000	0.012579
2456.000000	0.012548
2455.000000	0.012484
2454.000000	0.012419
2453.000000	0.012393
2452.000000	0.012364
2451.000000	0.012290
2450.000000	0.012220
2449.000000	0.012216
2448.000000	0.012238
2447.000000	0.012233
2446.000000	0.012247
2445.000000	0.012355
2444.000000	0.012518
2443.000000	0.012636
2442.000000	0.012692
2441.000000	0.012744
2440.000000	0.012802
2439.000000	0.012829
2438.000000	0.012813
2437.000000	0.012767
2436.000000	0.012699
2435.000000	0.012645
2434.000000	0.012681
2433.000000	0.012817
2432.000000	0.012947
2431.000000	0.012989
2430.000000	0.012999
2429.000000	0.013058
2428.000000	0.013123
2427.000000	0.013113
2426.000000	0.013047
2425.000000	0.013005
2424.000000	0.013005
2423.000000	0.013019
2422.000000	0.013056
2421.000000	0.013131
2420.000000	0.013187
2419.000000	0.013168
2418.000000	0.013114
2417.000000	0.013107
2416.000000	0.013148
2415.000000	0.013182
2414.000000	0.013192
2413.000000	0.013181
2412.000000	0.013126
2411.000000	0.013035
2410.000000	0.012997
2409.000000	0.013081
2408.000000	0.013241
2407.000000	0.013393
2406.000000	0.013519
2405.000000	0.013626
2404.000000	0.013678
2403.000000	0.013657
2402.000000	0.013631
2401.000000	0.013660
2400.000000	0.013693
2399.000000	0.013670
2398.000000	0.013628
2397.000000	0.013620
2396.000000	0.013605
2395.000000	0.013530
2394.000000	0.013463
2393.000000	0.013504
2392.000000	0.013621
2391.000000	0.013696
2390.000000	0.013693
2389.000000	0.013675
2388.000000	0.013680
2387.000000	0.013696
2386.000000	0.013738
2385.000000	0.013841
2384.000000	0.013975
2383.000000	0.014087
2382.000000	0.014175
2381.000000	0.014267
2380.000000	0.014321
2379.000000	0.014251
2378.000000	0.014056
2377.000000	0.013796
2376.000000	0.013509
2375.000000	0.013230
2374.000000	0.013064
2373.000000	0.013096
2372.000000	0.013237
2371.000000	0.013334
2370.000000	0.013386
2369.000000	0.013535
2368.000000	0.013786
2367.000000	0.013988
2366.000000	0.014101
2365.000000	0.014225
2364.000000	0.014322
2363.000000	0.014161
2362.000000	0.013790
2361.000000	0.013581
2360.000000	0.013565
2359.000000	0.013540
2358.000000	0.013435
2357.000000	0.013372
2356.000000	0.013578
2355.000000	0.013926
2354.000000	0.014280
2353.000000	0.014434
2352.000000	0.013686
2351.000000	0.011567
2350.000000	0.008716
2349.000000	0.007046
2348.000000	0.007853
2347.000000	0.010694
2346.000000	0.013760
2345.000000	0.014760
2344.000000	0.013215
2343.000000	0.010844
2342.000000	0.009675
2341.000000	0.009991
2340.000000	0.010578
2339.000000	0.010994
2338.000000	0.011260
2337.000000	0.011534
2336.000000	0.011742
2335.000000	0.011889
2334.000000	0.012195
2333.000000	0.012748
2332.000000	0.013385
2331.000000	0.013736
2330.000000	0.013612
2329.000000	0.013084
2328.000000	0.012362
2327.000000	0.011434
2326.000000	0.010667
2325.000000	0.010044
2324.000000	0.009840
2323.000000	0.009841
2322.000000	0.010014
2321.000000	0.010229
2320.000000	0.010352
2319.000000	0.010430
2318.000000	0.010456
2317.000000	0.010589
2316.000000	0.010871
2315.000000	0.011291
2314.000000	0.011714
2313.000000	0.011868
2312.000000	0.011708
2311.000000	0.011311
2310.000000	0.011004
2309.000000	0.010777
2308.000000	0.010631
2307.000000	0.010427
2306.000000	0.010314
2305.000000	0.010263
2304.000000	0.010301
2303.000000	0.010322
2302.000000	0.010373
2301.000000	0.010386
2300.000000	0.010327
2299.000000	0.010173
2298.000000	0.010060
2297.000000	0.009998
2296.000000	0.009968
2295.000000	0.009900
2294.000000	0.009864
2293.000000	0.009801
2292.000000	0.009661
2291.000000	0.009408
2290.000000	0.009183
2289.000000	0.009051
2288.000000	0.008963
2287.000000	0.008839
2286.000000	0.008706
2285.000000	0.008620
2284.000000	0.008608
2283.000000	0.008707
2282.000000	0.008939
2281.000000	0.009208
2280.000000	0.009364
2279.000000	0.009421
2278.000000	0.009528
2277.000000	0.009714
2276.000000	0.009819
2275.000000	0.009784
2274.000000	0.009737
2273.000000	0.009782
2272.000000	0.009862
2271.000000	0.009924
2270.000000	0.010020
2269.000000	0.010129
2268.000000	0.010135
2267.000000	0.010047
2266.000000	0.010041
2265.000000	0.010191
2264.000000	0.010356
2263.000000	0.010426
2262.000000	0.010462
2261.000000	0.010472
2260.000000	0.010345
2259.000000	0.010090
2258.000000	0.009921
2257.000000	0.009973
2256.000000	0.010143
2255.000000	0.010344
2254.000000	0.010615
2253.000000	0.010912
2252.000000	0.011018
2251.000000	0.010868
2250.000000	0.010658
2249.000000	0.010531
2248.000000	0.010394
2247.000000	0.010184
2246.000000	0.010058
2245.000000	0.010125
2244.000000	0.010256
2243.000000	0.010301
2242.000000	0.010283
2241.000000	0.010239
2240.000000	0.010138
2239.000000	0.010060
2238.000000	0.010178
2237.000000	0.010432
2236.000000	0.010524
2235.000000	0.010371
2234.000000	0.010240
2233.000000	0.010317
2232.000000	0.010456
2231.000000	0.010526
2230.000000	0.010625
2229.000000	0.010796
2228.000000	0.010864
2227.000000	0.010776
2226.000000	0.010742
2225.000000	0.010848
2224.000000	0.010893
2223.000000	0.010789
2222.000000	0.010759
2221.000000	0.010917
2220.000000	0.011027
2219.000000	0.010909
2218.000000	0.010727
2217.000000	0.010652
2216.000000	0.010587
2215.000000	0.010453
2214.000000	0.010382
2213.000000	0.010404
2212.000000	0.010312
2211.000000	0.010049
2210.000000	0.009862
2209.000000	0.009867
2208.000000	0.009852
2207.000000	0.009713
2206.000000	0.009688
2205.000000	0.009910
2204.000000	0.010161
2203.000000	0.010300
2202.000000	0.010498
2201.000000	0.010801
2200.000000	0.010908
2199.000000	0.010655
2198.000000	0.010292
2197.000000	0.010044
2196.000000	0.009794
2195.000000	0.009473
2194.000000	0.009291
2193.000000	0.009325
2192.000000	0.009320
2191.000000	0.009178
2190.000000	0.009192
2189.000000	0.009502
2188.000000	0.009805
2187.000000	0.009854
2186.000000	0.009788
2185.000000	0.009723
2184.000000	0.009565
2183.000000	0.009457
2182.000000	0.009805
2181.000000	0.010509
2180.000000	0.010857
2179.000000	0.010536
2178.000000	0.010111
2177.000000	0.010174
2176.000000	0.010589
2175.000000	0.010948
2174.000000	0.011125
2173.000000	0.011039
2172.000000	0.010475
2171.000000	0.009537
2170.000000	0.008729
2169.000000	0.008259
2168.000000	0.007769
2167.000000	0.007084
2166.000000	0.006587
2165.000000	0.006448
2164.000000	0.006138
2163.000000	0.005296
2162.000000	0.004524
2161.000000	0.004845
2160.000000	0.006750
2159.000000	0.010038
2158.000000	0.013892
2157.000000	0.016924
2156.000000	0.018118
2155.000000	0.017826
2154.000000	0.017182
2153.000000	0.016697
2152.000000	0.016074
2151.000000	0.015215
2150.000000	0.014556
2149.000000	0.014302
2148.000000	0.014135
2147.000000	0.013943
2146.000000	0.014061
2145.000000	0.014551
2144.000000	0.014939
2143.000000	0.014926
2142.000000	0.014719
2141.000000	0.014511
2140.000000	0.014226
2139.000000	0.013941
2138.000000	0.013985
2137.000000	0.014430
2136.000000	0.014993
2135.000000	0.015543
2134.000000	0.016164
2133.000000	0.016659
2132.000000	0.016613
2131.000000	0.016048
2130.000000	0.015462
2129.000000	0.015148
2128.000000	0.014915
2127.000000	0.014589
2126.000000	0.014283
2125.000000	0.014042
2124.000000	0.013709
2123.000000	0.013289
2122.000000	0.013033
2121.000000	0.013000
2120.000000	0.012924
2119.000000	0.012670
2118.000000	0.012414
2117.000000	0.012232
2116.000000	0.011938
2115.000000	0.011499
2114.000000	0.011200
2113.000000	0.011193
2112.000000	0.011254
2111.000000	0.011205
2110.000000	0.011190
2109.000000	0.011316
2108.000000	0.011404
2107.000000	0.011343
2106.000000	0.011327
2105.000000	0.011501
2104.000000	0.011702
2103.000000	0.011753
2102.000000	0.011696
2101.000000	0.011550
2100.000000	0.011237
2099.000000	0.010887
2098.000000	0.010867
2097.000000	0.011283
2096.000000	0.011806
2095.000000	0.012171
2094.000000	0.012423
2093.000000	0.012550
2092.000000	0.012343
2091.000000	0.011824
2090.000000	0.011368
2089.000000	0.011193
2088.000000	0.011112
2087.000000	0.010945
2086.000000	0.010792
2085.000000	0.010687
2084.000000	0.010428
2083.000000	0.009969
2082.000000	0.009588
2081.000000	0.009442
2080.000000	0.009370
2079.000000	0.009275
2078.000000	0.009326
2077.000000	0.009550
2076.000000	0.009671
2075.000000	0.009603
2074.000000	0.009576
2073.000000	0.009659
2072.000000	0.009615
2071.000000	0.009428
2070.000000	0.009444
2069.000000	0.009751
2068.000000	0.009955
2067.000000	0.009854
2066.000000	0.009752
2065.000000	0.009862
2064.000000	0.009919
2063.000000	0.009734
2062.000000	0.009544
2061.000000	0.009519
2060.000000	0.009455
2059.000000	0.009232
2058.000000	0.009036
2057.000000	0.008898
2056.000000	0.008574
2055.000000	0.008074
2054.000000	0.007653
2053.000000	0.007156
2052.000000	0.006145
2051.000000	0.004881
2050.000000	0.004445
2049.000000	0.005356
2048.000000	0.006711
2047.000000	0.007479
2046.000000	0.007718
2045.000000	0.007839
2044.000000	0.007746
2043.000000	0.007425
2042.000000	0.007407
2041.000000	0.007851
2040.000000	0.008038
2039.000000	0.007572
2038.000000	0.007103
2037.000000	0.007186
2036.000000	0.007401
2035.000000	0.007375
2034.000000	0.007638
2033.000000	0.008522
2032.000000	0.009309
2031.000000	0.009450
2030.000000	0.009470
2029.000000	0.009892
2028.000000	0.010279
2027.000000	0.010205
2026.000000	0.010044
2025.000000	0.010122
2024.000000	0.010082
2023.000000	0.009766
2022.000000	0.009726
2021.000000	0.010179
2020.000000	0.010475
2019.000000	0.010254
2018.000000	0.010066
2017.000000	0.010234
2016.000000	0.010215
2015.000000	0.009765
2014.000000	0.009515
2013.000000	0.009784
2012.000000	0.009975
2011.000000	0.009754
2010.000000	0.009735
2009.000000	0.010383
2008.000000	0.011251
2007.000000	0.011945
2006.000000	0.012673
2005.000000	0.013358
2004.000000	0.013430
2003.000000	0.012880
2002.000000	0.012487
2001.000000	0.012451
2000.000000	0.012118
1999.000000	0.011282
1998.000000	0.010597
1997.000000	0.010489
1996.000000	0.010533
1995.000000	0.010349
1994.000000	0.010174
1993.000000	0.010162
1992.000000	0.009952
1991.000000	0.009486
1990.000000	0.009329
1989.000000	0.009645
1988.000000	0.009801
1987.000000	0.009453
1986.000000	0.009069
1985.000000	0.008901
1984.000000	0.008436
1983.000000	0.007341
1982.000000	0.006151
1981.000000	0.005370
1980.000000	0.004963
1979.000000	0.005091
1978.000000	0.006293
1977.000000	0.008336
1976.000000	0.009951
1975.000000	0.010535
1974.000000	0.010744
1973.000000	0.011100
1972.000000	0.011243
1971.000000	0.010976
1970.000000	0.010820
1969.000000	0.011041
1968.000000	0.011190
1967.000000	0.011048
1966.000000	0.011061
1965.000000	0.011386
1964.000000	0.011533
1963.000000	0.011369
1962.000000	0.011512
1961.000000	0.012322
1960.000000	0.013339
1959.000000	0.014057
1958.000000	0.014457
1957.000000	0.014507
1956.000000	0.013961
1955.000000	0.013002
1954.000000	0.012225
1953.000000	0.011906
1952.000000	0.011716
1951.000000	0.011495
1950.000000	0.011599
1949.000000	0.012034
1948.000000	0.012247
1947.000000	0.012042
1946.000000	0.011870
1945.000000	0.012004
1944.000000	0.012128
1943.000000	0.012036
1942.000000	0.011970
1941.000000	0.011996
1940.000000	0.011892
1939.000000	0.011658
1938.000000	0.011603
1937.000000	0.011814
1936.000000	0.012000
1935.000000	0.012035
1934.000000	0.012092
1933.000000	0.012242
1932.000000	0.012203
1931.000000	0.011938
1930.000000	0.011898
1929.000000	0.012077
1928.000000	0.012111
1927.000000	0.011854
1926.000000	0.011710
1925.000000	0.011874
1924.000000	0.011861
1923.000000	0.011484
1922.000000	0.011177
1921.000000	0.011176
1920.000000	0.011154
1919.000000	0.010873
1918.000000	0.010703
1917.000000	0.010819
1916.000000	0.010877
1915.000000	0.010805
1914.000000	0.010823
1913.000000	0.010945
1912.000000	0.010894
1911.000000	0.010703
1910.000000	0.010805
1909.000000	0.011125
1908.000000	0.011257
1907.000000	0.011073
1906.000000	0.010961
1905.000000	0.011057
1904.000000	0.010885
1903.000000	0.010481
1902.000000	0.010441
1901.000000	0.010757
1900.000000	0.010886
1899.000000	0.010622
1898.000000	0.010390
1897.000000	0.010427
1896.000000	0.010331
1895.000000	0.009988
1894.000000	0.009841
1893.000000	0.010018
1892.000000	0.010094
1891.000000	0.009908
1890.000000	0.009887
1889.000000	0.010151
1888.000000	0.010254
1887.000000	0.010177
1886.000000	0.010318
1885.000000	0.010644
1884.000000	0.010662
1883.000000	0.010370
1882.000000	0.010308
1881.000000	0.010508
1880.000000	0.010548
1879.000000	0.010346
1878.000000	0.010236
1877.000000	0.010365
1876.000000	0.010347
1875.000000	0.010003
1874.000000	0.009780
1873.000000	0.009931
1872.000000	0.010050
1871.000000	0.009823
1870.000000	0.009648
1869.000000	0.009922
1868.000000	0.010187
1867.000000	0.010175
1866.000000	0.010344
1865.000000	0.010713
1864.000000	0.010741
1863.000000	0.010342
1862.000000	0.010093
1861.000000	0.010206
1860.000000	0.010226
1859.000000	0.009980
1858.000000	0.009896
1857.000000	0.010096
1856.000000	0.010148
1855.000000	0.009919
1854.000000	0.009926
1853.000000	0.010119
1852.000000	0.010137
1851.000000	0.009993
1850.000000	0.009872
1849.000000	0.009840
1848.000000	0.009762
1847.000000	0.009714
1846.000000	0.009794
1845.000000	0.009826
1844.000000	0.009625
1843.000000	0.009359
1842.000000	0.009561
1841.000000	0.010123
1840.000000	0.010407
1839.000000	0.010154
1838.000000	0.009907
1837.000000	0.009984
1836.000000	0.009946
1835.000000	0.009636
1834.000000	0.009442
1833.000000	0.009457
1832.000000	0.009506
1831.000000	0.009410
1830.000000	0.009318
1829.000000	0.009366
1828.000000	0.009435
1827.000000	0.009496
1826.000000	0.009539
1825.000000	0.009683
1824.000000	0.009773
1823.000000	0.009645
1822.000000	0.009564
1821.000000	0.009716
1820.000000	0.009992
1819.000000	0.010147
1818.000000	0.010420
1817.000000	0.010975
1816.000000	0.011183
1815.000000	0.010777
1814.000000	0.010218
1813.000000	0.010086
1812.000000	0.010191
1811.000000	0.009961
1810.000000	0.009724
1809.000000	0.009856
1808.000000	0.009881
1807.000000	0.009483
1806.000000	0.009102
1805.000000	0.009096
1804.000000	0.008988
1803.000000	0.008613
1802.000000	0.008372
1801.000000	0.008668
1800.000000	0.009064
1799.000000	0.009014
1798.000000	0.008874
1797.000000	0.008973
1796.000000	0.008989
1795.000000	0.008747
1794.000000	0.008381
1793.000000	0.008312
1792.000000	0.008465
1791.000000	0.008383
1790.000000	0.008406
1789.000000	0.008756
1788.000000	0.008913
1787.000000	0.008560
1786.000000	0.008181
1785.000000	0.008164
1784.000000	0.008059
1783.000000	0.007982
1782.000000	0.008051
1781.000000	0.008246
1780.000000	0.008431
1779.000000	0.008353
1778.000000	0.008251
1777.000000	0.008179
1776.000000	0.008198
1775.000000	0.008302
1774.000000	0.008015
1773.000000	0.007371
1772.000000	0.007199
1771.000000	0.007252
1770.000000	0.007381
1769.000000	0.007724
1768.000000	0.007855
1767.000000	0.007554
1766.000000	0.007119
1765.000000	0.007102
1764.000000	0.007283
1763.000000	0.007165
1762.000000	0.006667
1761.000000	0.006335
1760.000000	0.006368
1759.000000	0.006586
1758.000000	0.006697
1757.000000	0.006477
1756.000000	0.006308
1755.000000	0.006316
1754.000000	0.006302
1753.000000	0.005997
1752.000000	0.005764
1751.000000	0.005884
1750.000000	0.006302
1749.000000	0.006881
1748.000000	0.007398
1747.000000	0.007743
1746.000000	0.007573
1745.000000	0.007225
1744.000000	0.007199
1743.000000	0.007279
1742.000000	0.007152
1741.000000	0.007026
1740.000000	0.006872
1739.000000	0.006501
1738.000000	0.006200
1737.000000	0.006464
1736.000000	0.006589
1735.000000	0.005861
1734.000000	0.005571
1733.000000	0.005654
1732.000000	0.006053
1731.000000	0.006873
1730.000000	0.007546
1729.000000	0.007614
1728.000000	0.007304
1727.000000	0.007111
1726.000000	0.006938
1725.000000	0.006960
1724.000000	0.007058
1723.000000	0.006815
1722.000000	0.006583
1721.000000	0.006816
1720.000000	0.007026
1719.000000	0.006357
1718.000000	0.005857
1717.000000	0.006653
1716.000000	0.007417
1715.000000	0.007627
1714.000000	0.008127
1713.000000	0.009018
1712.000000	0.009505
1711.000000	0.009428
1710.000000	0.009452
1709.000000	0.009822
1708.000000	0.010337
1707.000000	0.010722
1706.000000	0.011321
1705.000000	0.012255
1704.000000	0.012890
1703.000000	0.013403
1702.000000	0.013589
1701.000000	0.013486
1700.000000	0.014013
1699.000000	0.014321
1698.000000	0.015926
1697.000000	0.018594
1696.000000	0.020013
1695.000000	0.019667
1694.000000	0.019477
1693.000000	0.020720
1692.000000	0.022261
1691.000000	0.023069
1690.000000	0.023669
1689.000000	0.024492
1688.000000	0.025730
1687.000000	0.026860
1686.000000	0.027006
1685.000000	0.026776
1684.000000	0.027948
1683.000000	0.029332
1682.000000	0.030740
1681.000000	0.032269
1680.000000	0.033501
1679.000000	0.034500
1678.000000	0.035421
1677.000000	0.036158
1676.000000	0.036811
1675.000000	0.037951
1674.000000	0.038974
1673.000000	0.040064
1672.000000	0.041575
1671.000000	0.043260
1670.000000	0.045011
1669.000000	0.046425
1668.000000	0.047400
1667.000000	0.048427
1666.000000	0.049543
1665.000000	0.050597
1664.000000	0.051410
1663.000000	0.052560
1662.000000	0.054001
1661.000000	0.054988
1660.000000	0.055944
1659.000000	0.057065
1658.000000	0.057901
1657.000000	0.058521
1656.000000	0.059666
1655.000000	0.060457
1654.000000	0.060246
1653.000000	0.061230
1652.000000	0.060489
1651.000000	0.059851
1650.000000	0.061201
1649.000000	0.063132
1648.000000	0.064422
1647.000000	0.065285
1646.000000	0.065582
1645.000000	0.065302
1644.000000	0.065162
1643.000000	0.065504
1642.000000	0.066002
1641.000000	0.066052
1640.000000	0.065944
1639.000000	0.065995
1638.000000	0.066279
1637.000000	0.066383
1636.000000	0.066658
1635.000000	0.066715
1634.000000	0.066107
1633.000000	0.065887
1632.000000	0.065939
1631.000000	0.065793
1630.000000	0.065411
1629.000000	0.064892
1628.000000	0.064141
1627.000000	0.063357
1626.000000	0.062590
1625.000000	0.061641
1624.000000	0.060464
1623.000000	0.059395
1622.000000	0.058339
1621.000000	0.057128
1620.000000	0.056243
1619.000000	0.055556
1618.000000	0.054351
1617.000000	0.052320
1616.000000	0.050106
1615.000000	0.048613
1614.000000	0.048055
1613.000000	0.047553
1612.000000	0.046424
1611.000000	0.045269
1610.000000	0.044553
1609.000000	0.043817
1608.000000	0.042798
1607.000000	0.042017
1606.000000	0.041418
1605.000000	0.040478
1604.000000	0.039501
1603.000000	0.038907
1602.000000	0.038466
1601.000000	0.037793
1600.000000	0.037061
1599.000000	0.036636
1598.000000	0.036347
1597.000000	0.035917
1596.000000	0.035476
1595.000000	0.035332
1594.000000	0.035365
1593.000000	0.035196
1592.000000	0.034866
1591.000000	0.034751
1590.000000	0.034878
1589.000000	0.034891
1588.000000	0.034787
1587.000000	0.034879
1586.000000	0.035252
1585.000000	0.035327
1584.000000	0.035250
1583.000000	0.035668
1582.000000	0.036264
1581.000000	0.036391
1580.000000	0.036493
1579.000000	0.037224
1578.000000	0.037944
1577.000000	0.037947
1576.000000	0.037766
1575.000000	0.037968
1574.000000	0.038552
1573.000000	0.039374
1572.000000	0.040114
1571.000000	0.040610
1570.000000	0.041321
1569.000000	0.041835
1568.000000	0.042250
1567.000000	0.043173
1566.000000	0.044333
1565.000000	0.044935
1564.000000	0.045426
1563.000000	0.046337
1562.000000	0.047336
1561.000000	0.046313
1560.000000	0.044304
1559.000000	0.046822
1558.000000	0.049433
1557.000000	0.049499
1556.000000	0.050157
1555.000000	0.051495
1554.000000	0.052138
1553.000000	0.052084
1552.000000	0.052590
1551.000000	0.053568
1550.000000	0.054401
1549.000000	0.054690
1548.000000	0.054683
1547.000000	0.054834
1546.000000	0.054998
1545.000000	0.055003
1544.000000	0.055179
1543.000000	0.055346
1542.000000	0.055331
1541.000000	0.055655
1540.000000	0.056413
1539.000000	0.056127
1538.000000	0.054953
1537.000000	0.054593
1536.000000	0.054877
1535.000000	0.055001
1534.000000	0.054754
1533.000000	0.054550
1532.000000	0.054221
1531.000000	0.053704
1530.000000	0.053316
1529.000000	0.053110
1528.000000	0.052797
1527.000000	0.052314
1526.000000	0.051713
1525.000000	0.051157
1524.000000	0.050868
1523.000000	0.050551
1522.000000	0.050055
1521.000000	0.049367
1520.000000	0.048376
1519.000000	0.047878
1518.000000	0.048005
1517.000000	0.048277
1516.000000	0.048050
1515.000000	0.047304
1514.000000	0.046500
1513.000000	0.045858
1512.000000	0.045082
1511.000000	0.043988
1510.000000	0.043019
1509.000000	0.042468
1508.000000	0.042240
1507.000000	0.042222
1506.000000	0.041313
1505.000000	0.039321
1504.000000	0.038144
1503.000000	0.037775
1502.000000	0.037270
1501.000000	0.036357
1500.000000	0.035346
1499.000000	0.034308
1498.000000	0.033307
1497.000000	0.033000
1496.000000	0.032935
1495.000000	0.032468
1494.000000	0.032137
1493.000000	0.032328
1492.000000	0.032399
1491.000000	0.031907
1490.000000	0.031514
1489.000000	0.031723
1488.000000	0.031744
1487.000000	0.031076
1486.000000	0.030516
1485.000000	0.030113
1484.000000	0.029711
1483.000000	0.029398
1482.000000	0.029270
1481.000000	0.029353
1480.000000	0.029325
1479.000000	0.029113
1478.000000	0.028963
1477.000000	0.029193
1476.000000	0.029479
1475.000000	0.029693
1474.000000	0.030182
1473.000000	0.031246
1472.000000	0.032379
1471.000000	0.032836
1470.000000	0.033136
1469.000000	0.033773
1468.000000	0.034311
1467.000000	0.034479
1466.000000	0.034666
1465.000000	0.035181
1464.000000	0.035886
1463.000000	0.036228
1462.000000	0.036365
1461.000000	0.036608
1460.000000	0.036972
1459.000000	0.037100
1458.000000	0.037181
1457.000000	0.037933
1456.000000	0.038539
1455.000000	0.038964
1454.000000	0.039771
1453.000000	0.040660
1452.000000	0.041274
1451.000000	0.041483
1450.000000	0.041474
1449.000000	0.041687
1448.000000	0.041949
1447.000000	0.042027
1446.000000	0.041710
1445.000000	0.041262
1444.000000	0.041221
1443.000000	0.041185
1442.000000	0.040728
1441.000000	0.040133
1440.000000	0.039977
1439.000000	0.039807
1438.000000	0.039022
1437.000000	0.038268
1436.000000	0.038190
1435.000000	0.038198
1434.000000	0.038075
1433.000000	0.038014
1432.000000	0.038012
1431.000000	0.037874
1430.000000	0.037467
1429.000000	0.037134
1428.000000	0.036884
1427.000000	0.036712
1426.000000	0.036456
1425.000000	0.036146
1424.000000	0.036339
1423.000000	0.036699
1422.000000	0.036570
1421.000000	0.035902
1420.000000	0.035382
1419.000000	0.035405
1418.000000	0.035424
1417.000000	0.035614
1416.000000	0.036267
1415.000000	0.036739
1414.000000	0.036511
1413.000000	0.036061
1412.000000	0.036117
1411.000000	0.036397
1410.000000	0.036271
1409.000000	0.036025
1408.000000	0.036015
1407.000000	0.036212
1406.000000	0.036405
1405.000000	0.036593
1404.000000	0.036969
1403.000000	0.037206
1402.000000	0.037062
1401.000000	0.036738
1400.000000	0.036638
1399.000000	0.036742
1398.000000	0.036673
1397.000000	0.036555
1396.000000	0.036581
1395.000000	0.036624
1394.000000	0.036221
1393.000000	0.035515
1392.000000	0.035168
1391.000000	0.035109
1390.000000	0.034808
1389.000000	0.034201
1388.000000	0.033660
1387.000000	0.033364
1386.000000	0.033141
1385.000000	0.032938
1384.000000	0.032897
1383.000000	0.032796
1382.000000	0.032433
1381.000000	0.031949
1380.000000	0.031518
1379.000000	0.031144
1378.000000	0.030720
1377.000000	0.030258
1376.000000	0.029891
1375.000000	0.029763
1374.000000	0.029655
1373.000000	0.029306
1372.000000	0.028787
1371.000000	0.028384
1370.000000	0.028100
1369.000000	0.027713
1368.000000	0.027239
1367.000000	0.026728
1366.000000	0.026171
1365.000000	0.025654
1364.000000	0.025349
1363.000000	0.025319
1362.000000	0.025359
1361.000000	0.025271
1360.000000	0.025128
1359.000000	0.025043
1358.000000	0.024968
1357.000000	0.024855
1356.000000	0.024777
1355.000000	0.024803
1354.000000	0.024871
1353.000000	0.024996
1352.000000	0.025138
1351.000000	0.025349
1350.000000	0.025633
1349.000000	0.025897
1348.000000	0.026178
1347.000000	0.026506
1346.000000	0.026825
1345.000000	0.027064
1344.000000	0.027249
1343.000000	0.027435
1342.000000	0.027651
1341.000000	0.027943
1340.000000	0.028379
1339.000000	0.028878
1338.000000	0.029206
1337.000000	0.029297
1336.000000	0.029275
1335.000000	0.029210
1334.000000	0.029083
1333.000000	0.028913
1332.000000	0.028771
1331.000000	0.028668
1330.000000	0.028507
1329.000000	0.028256
1328.000000	0.027994
1327.000000	0.027805
1326.000000	0.027646
1325.000000	0.027451
1324.000000	0.027293
1323.000000	0.027206
1322.000000	0.027112
1321.000000	0.026991
1320.000000	0.026956
1319.000000	0.027038
1318.000000	0.027093
1317.000000	0.027026
1316.000000	0.026911
1315.000000	0.026819
1314.000000	0.026719
1313.000000	0.026591
1312.000000	0.026477
1311.000000	0.026370
1310.000000	0.026186
1309.000000	0.025942
1308.000000	0.025734
1307.000000	0.025600
1306.000000	0.025478
1305.000000	0.025329
1304.000000	0.025223
1303.000000	0.025158
1302.000000	0.025044
1301.000000	0.024858
1300.000000	0.024689
1299.000000	0.024567
1298.000000	0.024439
1297.000000	0.024311
1296.000000	0.024269
1295.000000	0.024316
1294.000000	0.024347
1293.000000	0.024337
1292.000000	0.024377
1291.000000	0.024506
1290.000000	0.024675
1289.000000	0.024867
1288.000000	0.025116
1287.000000	0.025373
1286.000000	0.025530
1285.000000	0.025603
1284.000000	0.025710
1283.000000	0.025866
1282.000000	0.025975
1281.000000	0.026008
1280.000000	0.026050
1279.000000	0.026123
1278.000000	0.026142
1277.000000	0.026074
1276.000000	0.025983
1275.000000	0.025903
1274.000000	0.025803
1273.000000	0.025702
1272.000000	0.025679
1271.000000	0.025721
1270.000000	0.025723
1269.000000	0.025665
1268.000000	0.025649
1267.000000	0.025727
1266.000000	0.025842
1265.000000	0.025978
1264.000000	0.026194
1263.000000	0.026493
1262.000000	0.026814
1261.000000	0.027151
1260.000000	0.027548
1259.000000	0.027950
1258.000000	0.028236
1257.000000	0.028404
1256.000000	0.028572
1255.000000	0.028775
1254.000000	0.028947
1253.000000	0.029092
1252.000000	0.029295
1251.000000	0.029571
1250.000000	0.029842
1249.000000	0.030098
1248.000000	0.030416
1247.000000	0.030799
1246.000000	0.031138
1245.000000	0.031387
1244.000000	0.031606
1243.000000	0.031814
1242.000000	0.031961
1241.000000	0.032050
1240.000000	0.032132
1239.000000	0.032177
1238.000000	0.032104
1237.000000	0.031934
1236.000000	0.031770
1235.000000	0.031620
1234.000000	0.031386
1233.000000	0.031040
1232.000000	0.030658
1231.000000	0.030273
1230.000000	0.029844
1229.000000	0.029376
1228.000000	0.028937
1227.000000	0.028532
1226.000000	0.028106
1225.000000	0.027658
1224.000000	0.027224
1223.000000	0.026753
1222.000000	0.026132
1221.000000	0.025359
1220.000000	0.024560
1219.000000	0.023848
1218.000000	0.023277
1217.000000	0.022908
1216.000000	0.022773
1215.000000	0.022780
1214.000000	0.022785
1213.000000	0.022770
1212.000000	0.022805
1211.000000	0.022876
1210.000000	0.022893
1209.000000	0.022871
1208.000000	0.022911
1207.000000	0.023023
1206.000000	0.023120
1205.000000	0.023174
1204.000000	0.023234
1203.000000	0.023294
1202.000000	0.023284
1201.000000	0.023209
1200.000000	0.023133
1199.000000	0.023045
1198.000000	0.022867
1197.000000	0.022600
1196.000000	0.022319
1195.000000	0.022034
1194.000000	0.021701
1193.000000	0.021352
1192.000000	0.021074
1191.000000	0.020859
1190.000000	0.020606
1189.000000	0.020302
1188.000000	0.020033
1187.000000	0.019821
1186.000000	0.019577
1185.000000	0.019250
1184.000000	0.018906
1183.000000	0.018649
1182.000000	0.018552
1181.000000	0.018657
1180.000000	0.018909
1179.000000	0.019127
1178.000000	0.019158
1177.000000	0.019050
1176.000000	0.018963
1175.000000	0.018960
1174.000000	0.018987
1173.000000	0.019030
1172.000000	0.019128
1171.000000	0.019266
1170.000000	0.019385
1169.000000	0.019505
1168.000000	0.019705
1167.000000	0.019984
1166.000000	0.020263
1165.000000	0.020530
1164.000000	0.020827
1163.000000	0.021131
1162.000000	0.021364
1161.000000	0.021527
1160.000000	0.021683
1159.000000	0.021828
1158.000000	0.021892
1157.000000	0.021871
1156.000000	0.021828
1155.000000	0.021771
1154.000000	0.021665
1153.000000	0.021539
1152.000000	0.021464
1151.000000	0.021427
1150.000000	0.021347
1149.000000	0.021204
1148.000000	0.021038
1147.000000	0.020836
1146.000000	0.020558
1145.000000	0.020249
1144.000000	0.019995
1143.000000	0.019792
1142.000000	0.019570
1141.000000	0.019336
1140.000000	0.019149
1139.000000	0.018992
1138.000000	0.018786
1137.000000	0.018541
1136.000000	0.018344
1135.000000	0.018225
1134.000000	0.018135
1133.000000	0.018063
1132.000000	0.018040
1131.000000	0.018045
1130.000000	0.018023
1129.000000	0.017998
1128.000000	0.018039
1127.000000	0.018133
1126.000000	0.018203
1125.000000	0.018238
1124.000000	0.018287
1123.000000	0.018347
1122.000000	0.018380
1121.000000	0.018417
1120.000000	0.018524
1119.000000	0.018671
1118.000000	0.018760
1117.000000	0.018780
1116.000000	0.018809
1115.000000	0.018879
1114.000000	0.018959
1113.000000	0.019044
1112.000000	0.019151
1111.000000	0.019259
1110.000000	0.019340
1109.000000	0.019451
1108.000000	0.019657
1107.000000	0.019897
1106.000000	0.020065
1105.000000	0.020163
1104.000000	0.020266
1103.000000	0.020378
1102.000000	0.020452
1101.000000	0.020520
1100.000000	0.020646
1099.000000	0.020792
1098.000000	0.020880
1097.000000	0.020937
1096.000000	0.021058
1095.000000	0.021251
1094.000000	0.021461
1093.000000	0.021696
1092.000000	0.022007
1091.000000	0.022368
1090.000000	0.022734
1089.000000	0.023151
1088.000000	0.023687
1087.000000	0.024285
1086.000000	0.024819
1085.000000	0.025272
1084.000000	0.025708
1083.000000	0.026125
1082.000000	0.026465
1081.000000	0.026724
1080.000000	0.026925
1079.000000	0.027019
1078.000000	0.026949
1077.000000	0.026758
1076.000000	0.026516
1075.000000	0.026183
1074.000000	0.025700
1073.000000	0.025153
1072.000000	0.024699
1071.000000	0.024383
1070.000000	0.024147
1069.000000	0.023984
1068.000000	0.023930
1067.000000	0.023943
1066.000000	0.023947
1065.000000	0.023967
1064.000000	0.024080
1063.000000	0.024269
1062.000000	0.024439
1061.000000	0.024554
1060.000000	0.024632
1059.000000	0.024637
1058.000000	0.024530
1057.000000	0.024376
1056.000000	0.024288
1055.000000	0.024289
1054.000000	0.024352
1053.000000	0.024515
1052.000000	0.024830
1051.000000	0.025245
1050.000000	0.025654
1049.000000	0.026039
1048.000000	0.026400
1047.000000	0.026634
1046.000000	0.026646
1045.000000	0.026523
1044.000000	0.026442
1043.000000	0.026462
1042.000000	0.026522
1041.000000	0.026598
1040.000000	0.026729
1039.000000	0.026906
1038.000000	0.027095
1037.000000	0.027332
1036.000000	0.027664
1035.000000	0.028038
1034.000000	0.028367
1033.000000	0.028665
1032.000000	0.028992
1031.000000	0.029297
1030.000000	0.029472
1029.000000	0.029525
1028.000000	0.029562
1027.000000	0.029627
1026.000000	0.029674
1025.000000	0.029689
1024.000000	0.029700
1023.000000	0.029699
1022.000000	0.029656
1021.000000	0.029602
1020.000000	0.029582
1019.000000	0.029566
1018.000000	0.029503
1017.000000	0.029406
1016.000000	0.029293
1015.000000	0.029105
1014.000000	0.028779
1013.000000	0.028370
1012.000000	0.027980
1011.000000	0.027618
1010.000000	0.027228
1009.000000	0.026824
1008.000000	0.026451
1007.000000	0.026091
1006.000000	0.025694
1005.000000	0.025288
1004.000000	0.024935
1003.000000	0.024633
1002.000000	0.024337
1001.000000	0.024048
1000.000000	0.023782
999.000000	0.023495
998.000000	0.023154
997.000000	0.022817
996.000000	0.022553
995.000000	0.022315
994.000000	0.022013
993.000000	0.021652
992.000000	0.021295
991.000000	0.020944
990.000000	0.020570
989.000000	0.020206
988.000000	0.019900
987.000000	0.019612
986.000000	0.019266
985.000000	0.018873
984.000000	0.018495
983.000000	0.018138
982.000000	0.017772
981.000000	0.017429
980.000000	0.017153
979.000000	0.016913
978.000000	0.016646
977.000000	0.016376
976.000000	0.016159
975.000000	0.015971
974.000000	0.015751
973.000000	0.015504
972.000000	0.015277
971.000000	0.015048
970.000000	0.014771
969.000000	0.014466
968.000000	0.014171
967.000000	0.013848
966.000000	0.013451
965.000000	0.013044
964.000000	0.012729
963.000000	0.012506
962.000000	0.012302
961.000000	0.012104
960.000000	0.011953
959.000000	0.011829
958.000000	0.011671
957.000000	0.011470
956.000000	0.011254
955.000000	0.011008
954.000000	0.010719
953.000000	0.010456
952.000000	0.010295
951.000000	0.010207
950.000000	0.010113
949.000000	0.010021
948.000000	0.009994
947.000000	0.010019
946.000000	0.010031
945.000000	0.010018
944.000000	0.010011
943.000000	0.009998
942.000000	0.009955
941.000000	0.009923
940.000000	0.009959
939.000000	0.010026
938.000000	0.010048
937.000000	0.010021
936.000000	0.009980
935.000000	0.009911
934.000000	0.009798
933.000000	0.009700
932.000000	0.009673
931.000000	0.009661
930.000000	0.009581
929.000000	0.009466
928.000000	0.009404
927.000000	0.009392
926.000000	0.009355
925.000000	0.009284
924.000000	0.009223
923.000000	0.009170
922.000000	0.009094
921.000000	0.009015
920.000000	0.008959
919.000000	0.008862
918.000000	0.008657
917.000000	0.008400
916.000000	0.008205
915.000000	0.008085
914.000000	0.007970
913.000000	0.007845
912.000000	0.007752
911.000000	0.007681
910.000000	0.007576
909.000000	0.007434
908.000000	0.007311
907.000000	0.007233
906.000000	0.007197
905.000000	0.007210
904.000000	0.007254
903.000000	0.007260
902.000000	0.007192
901.000000	0.007121
900.000000	0.007105
899.000000	0.007080
898.000000	0.006957
897.000000	0.006774
896.000000	0.006628
895.000000	0.006532
894.000000	0.006432
893.000000	0.006332
892.000000	0.006275
891.000000	0.006237
890.000000	0.006171
889.000000	0.006104
888.000000	0.006100
887.000000	0.006160
886.000000	0.006243
885.000000	0.006351
884.000000	0.006505
883.000000	0.006697
882.000000	0.006945
881.000000	0.007328
880.000000	0.007872
879.000000	0.008471
878.000000	0.008994
877.000000	0.009405
876.000000	0.009687
875.000000	0.009742
874.000000	0.009525
873.000000	0.009169
872.000000	0.008845
871.000000	0.008582
870.000000	0.008323
869.000000	0.008090
868.000000	0.007939
867.000000	0.007836
866.000000	0.007711
865.000000	0.007575
864.000000	0.007479
863.000000	0.007408
862.000000	0.007336
861.000000	0.007318
860.000000	0.007404
859.000000	0.007525
858.000000	0.007566
857.000000	0.007524
856.000000	0.007460
855.000000	0.007391
854.000000	0.007308
853.000000	0.007257
852.000000	0.007282
851.000000	0.007338
850.000000	0.007365
849.000000	0.007398
848.000000	0.007473
847.000000	0.007524
846.000000	0.007469
845.000000	0.007347
844.000000	0.007255
843.000000	0.007202
842.000000	0.007133
841.000000	0.007052
840.000000	0.007000
839.000000	0.006964
838.000000	0.006905
837.000000	0.006834
836.000000	0.006760
835.000000	0.006633
834.000000	0.006425
833.000000	0.006208
832.000000	0.006079
831.000000	0.006042
830.000000	0.006046
829.000000	0.006074
828.000000	0.006106
827.000000	0.006100
826.000000	0.006095
825.000000	0.006219
824.000000	0.006505
823.000000	0.006803
822.000000	0.006976
821.000000	0.007075
820.000000	0.007183
819.000000	0.007249
818.000000	0.007195
817.000000	0.007062
816.000000	0.006930
815.000000	0.006787
814.000000	0.006612
813.000000	0.006480
812.000000	0.006467
811.000000	0.006524
810.000000	0.006563
809.000000	0.006575
808.000000	0.006571
807.000000	0.006508
806.000000	0.006386
805.000000	0.006316
804.000000	0.006364
803.000000	0.006445
802.000000	0.006475
801.000000	0.006508
800.000000	0.006605
799.000000	0.006688
798.000000	0.006675
797.000000	0.006633
796.000000	0.006659
795.000000	0.006710
794.000000	0.006701
793.000000	0.006685
792.000000	0.006762
791.000000	0.006899
790.000000	0.006990
789.000000	0.007032
788.000000	0.007085
787.000000	0.007126
786.000000	0.007090
785.000000	0.007008
784.000000	0.006989
783.000000	0.007080
782.000000	0.007231
781.000000	0.007372
780.000000	0.007442
779.000000	0.007399
778.000000	0.007273
777.000000	0.007166
776.000000	0.007139
775.000000	0.007145
774.000000	0.007144
773.000000	0.007182
772.000000	0.007296
771.000000	0.007429
770.000000	0.007522
769.000000	0.007608
768.000000	0.007716
767.000000	0.007805
766.000000	0.007848
765.000000	0.007902
764.000000	0.007997
763.000000	0.008049
762.000000	0.007985
761.000000	0.007872
760.000000	0.007810
759.000000	0.007805
758.000000	0.007814
757.000000	0.007842
756.000000	0.007897
755.000000	0.007925
754.000000	0.007889
753.000000	0.007830
752.000000	0.007794
751.000000	0.007761
750.000000	0.007722
749.000000	0.007733
748.000000	0.007821
747.000000	0.007923
746.000000	0.007992
745.000000	0.008065
744.000000	0.008161
743.000000	0.008206
742.000000	0.008147
741.000000	0.008040
740.000000	0.007974
739.000000	0.007974
738.000000	0.008040
737.000000	0.008182
736.000000	0.008357
735.000000	0.008473
734.000000	0.008517
733.000000	0.008584
732.000000	0.008728
731.000000	0.008891
730.000000	0.009018
729.000000	0.009135
728.000000	0.009275
727.000000	0.009415
726.000000	0.009550
725.000000	0.009754
724.000000	0.010064
723.000000	0.010406
722.000000	0.010696
721.000000	0.010912
720.000000	0.011044
719.000000	0.011084
718.000000	0.011103
717.000000	0.011222
716.000000	0.011452
715.000000	0.011681
714.000000	0.011834
713.000000	0.011940
712.000000	0.012026
711.000000	0.012063
710.000000	0.012080
709.000000	0.012153
708.000000	0.012264
707.000000	0.012304
706.000000	0.012262
705.000000	0.012279
704.000000	0.012429
703.000000	0.012610
702.000000	0.012728
701.000000	0.012812
700.000000	0.012873
699.000000	0.012861
698.000000	0.012778
697.000000	0.012723
696.000000	0.012720
695.000000	0.012673
694.000000	0.012556
693.000000	0.012444
692.000000	0.012355
691.000000	0.012251
690.000000	0.012187
689.000000	0.012312
688.000000	0.012624
687.000000	0.012933
686.000000	0.013137
685.000000	0.013265
684.000000	0.013305
683.000000	0.013216
682.000000	0.013088
681.000000	0.013070
680.000000	0.013152
679.000000	0.013215
678.000000	0.013266
677.000000	0.013349
676.000000	0.013449
675.000000	0.013590
674.000000	0.013801
673.000000	0.014066
672.000000	0.014157
671.000000	0.013888
670.000000	0.013518
669.000000	0.013586
668.000000	0.013381
667.000000	0.013415
666.000000	0.014765
665.000000	0.015509
664.000000	0.015166
663.000000	0.014686
662.000000	0.014394
661.000000	0.014232
660.000000	0.014180
659.000000	0.014217
658.000000	0.014248
657.000000	0.014236
656.000000	0.014241
655.000000	0.014258
654.000000	0.014135
653.000000	0.013958
652.000000	0.013961
651.000000	0.014126
650.000000	0.014261
649.000000	0.014359
648.000000	0.014552
647.000000	0.014758
646.000000	0.014787
645.000000	0.014696
644.000000	0.014654
643.000000	0.014636
642.000000	0.014529
641.000000	0.014404
640.000000	0.014412
639.000000	0.014492
638.000000	0.014478
637.000000	0.014413
636.000000	0.014440
635.000000	0.014510
634.000000	0.014509
633.000000	0.014502
632.000000	0.014568
631.000000	0.014568
630.000000	0.014388
629.000000	0.014235
628.000000	0.014365
627.000000	0.014660
626.000000	0.014828
625.000000	0.014850
624.000000	0.014883
623.000000	0.014913
622.000000	0.014842
621.000000	0.014769
620.000000	0.014840
619.000000	0.014942
618.000000	0.014911
617.000000	0.014886
616.000000	0.015082
615.000000	0.015355
614.000000	0.015394
613.000000	0.015225
612.000000	0.015126
611.000000	0.015149
610.000000	0.015125
609.000000	0.015030
608.000000	0.015009
607.000000	0.015090
606.000000	0.015192
605.000000	0.015357
604.000000	0.015620
603.000000	0.015780
602.000000	0.015631
601.000000	0.015312
600.000000	0.015138
599.000000	0.015194
598.000000	0.015309
597.000000	0.015398
596.000000	0.015498
595.000000	0.015581
594.000000	0.015584
593.000000	0.015572
592.000000	0.015622
591.000000	0.015642
590.000000	0.015558
589.000000	0.015505
588.000000	0.015619
587.000000	0.015753
586.000000	0.015715
585.000000	0.015617
584.000000	0.015681
583.000000	0.015857
582.000000	0.015934
581.000000	0.015912
580.000000	0.015923
579.000000	0.015932
578.000000	0.015859
577.000000	0.015883
576.000000	0.016212
575.000000	0.016651
574.000000	0.016825
573.000000	0.016747
572.000000	0.016742
571.000000	0.016931
570.000000	0.017176
569.000000	0.017392
568.000000	0.017586
567.000000	0.017606
566.000000	0.017322
565.000000	0.016956
564.000000	0.016877
563.000000	0.017092
562.000000	0.017273
561.000000	0.017237
560.000000	0.017062
559.000000	0.016824
558.000000	0.016585
557.000000	0.016524
556.000000	0.016687
555.000000	0.016782
554.000000	0.016552
553.000000	0.016216
552.000000	0.016143
551.000000	0.016288
550.000000	0.016322
549.000000	0.016192
548.000000	0.016106
547.000000	0.016099
546.000000	0.016046
545.000000	0.015985
544.000000	0.016037
543.000000	0.016076
542.000000	0.015888
541.000000	0.015569
540.000000	0.015383
539.000000	0.015308
538.000000	0.015139
537.000000	0.014920
536.000000	0.014916
535.000000	0.015191
534.000000	0.015597
533.000000	0.016080
532.000000	0.016549
531.000000	0.016719
530.000000	0.016426
529.000000	0.015977
528.000000	0.015810
527.000000	0.015987
526.000000	0.016207
525.000000	0.016266
524.000000	0.016190
523.000000	0.015929
522.000000	0.015462
521.000000	0.015021
520.000000	0.014824
519.000000	0.014717
518.000000	0.014429
517.000000	0.014047
516.000000	0.013845
515.000000	0.013799
514.000000	0.013711
513.000000	0.013554
512.000000	0.013367
511.000000	0.013053
510.000000	0.012608
509.000000	0.012287
508.000000	0.012195
507.000000	0.012080
506.000000	0.011699
505.000000	0.011287
504.000000	0.011185
503.000000	0.011353
502.000000	0.011514
501.000000	0.011560
500.000000	0.011527
499.000000	0.011324
498.000000	0.010937
497.000000	0.010641
496.000000	0.010640
495.000000	0.010728
494.000000	0.010635
493.000000	0.010428
492.000000	0.010333
491.000000	0.010325
490.000000	0.010243
489.000000	0.010131
488.000000	0.010067
487.000000	0.009935
486.000000	0.009614
485.000000	0.009277
484.000000	0.009198
483.000000	0.009392
482.000000	0.009679
481.000000	0.009891
480.000000	0.009883
479.000000	0.009541
478.000000	0.009037
477.000000	0.008857
476.000000	0.009159
475.000000	0.009439
474.000000	0.009251
473.000000	0.008881
472.000000	0.008841
471.000000	0.009041
470.000000	0.009067
469.000000	0.009025
468.000000	0.009255
467.000000	0.009519
466.000000	0.009326
465.000000	0.008811
464.000000	0.008494
463.000000	0.008427
462.000000	0.008196
461.000000	0.007635
460.000000	0.006979
459.000000	0.006385
458.000000	0.005912
457.000000	0.005800
456.000000	0.006083
455.000000	0.006310
454.000000	0.006234
453.000000	0.006140
452.000000	0.006427
451.000000	0.006678
450.000000	0.006431
