PE UV       SUBTECH     SPECTRUM    ASCII       PEDS        4.00        
   -1
Ams1240121.Sample.asc
18/03/16
17:35:05.00
18/03/16
17:35:05.00
Administrator

200.000000
1
Lambda 750
750N8071901
PerkinElmer UV WinLab 6.0.4.0738 / 1.61.00 Lambda 900

0
0
3350/servo 860.8/2
0
0
UV/VIS
1
1
1
CommonBeamDepol,150mm sphere / downward view
0
0
0
0
Program
Program
3350/servo 860.8/2
3350/0.2 860.8/0.2
3350/0.2 860.8/0.2
0
1
 
 
 
0
 
860.8
319.2
860.8
Front
100
on
 
 
0
0
0
 
0
 
 
 
0
 
 
0
0
0
0
0
 
 
 
 
0
0


0
0
#HDR
-1
-1
#GR
nm
A
1.0
0.0
2350.000000
-1.000000
2151
8
1.176102
0.059513
#DATA
2350.000000	0.292921
2349.000000	0.292443
2348.000000	0.294357
2347.000000	0.287520
2346.000000	0.291563
2345.000000	0.292866
2344.000000	0.289743
2343.000000	0.291812
2342.000000	0.287820
2341.000000	0.289747
2340.000000	0.286973
2339.000000	0.288727
2338.000000	0.285472
2337.000000	0.285625
2336.000000	0.287170
2335.000000	0.284523
2334.000000	0.285219
2333.000000	0.279014
2332.000000	0.281647
2331.000000	0.283302
2330.000000	0.284089
2329.000000	0.285922
2328.000000	0.285352
2327.000000	0.283047
2326.000000	0.286375
2325.000000	0.289985
2324.000000	0.287135
2323.000000	0.287872
2322.000000	0.289332
2321.000000	0.289238
2320.000000	0.286633
2319.000000	0.287518
2318.000000	0.288223
2317.000000	0.290647
2316.000000	0.290561
2315.000000	0.292936
2314.000000	0.293250
2313.000000	0.296346
2312.000000	0.297968
2311.000000	0.297905
2310.000000	0.300779
2309.000000	0.298252
2308.000000	0.299455
2307.000000	0.300734
2306.000000	0.303792
2305.000000	0.304336
2304.000000	0.303196
2303.000000	0.302357
2302.000000	0.304629
2301.000000	0.308434
2300.000000	0.307542
2299.000000	0.306894
2298.000000	0.309091
2297.000000	0.310696
2296.000000	0.311129
2295.000000	0.314600
2294.000000	0.313453
2293.000000	0.313910
2292.000000	0.315695
2291.000000	0.316756
2290.000000	0.317479
2289.000000	0.318427
2288.000000	0.316801
2287.000000	0.316560
2286.000000	0.318359
2285.000000	0.317590
2284.000000	0.317655
2283.000000	0.317669
2282.000000	0.316605
2281.000000	0.318012
2280.000000	0.319242
2279.000000	0.319285
2278.000000	0.316490
2277.000000	0.315369
2276.000000	0.316002
2275.000000	0.317657
2274.000000	0.314495
2273.000000	0.311747
2272.000000	0.312168
2271.000000	0.313126
2270.000000	0.311816
2269.000000	0.311755
2268.000000	0.311477
2267.000000	0.308615
2266.000000	0.306779
2265.000000	0.306918
2264.000000	0.304123
2263.000000	0.301949
2262.000000	0.299566
2261.000000	0.298136
2260.000000	0.296582
2259.000000	0.294718
2258.000000	0.291732
2257.000000	0.289398
2256.000000	0.288208
2255.000000	0.285093
2254.000000	0.282078
2253.000000	0.280067
2252.000000	0.276056
2251.000000	0.273651
2250.000000	0.271709
2249.000000	0.269434
2248.000000	0.267564
2247.000000	0.264402
2246.000000	0.260485
2245.000000	0.257326
2244.000000	0.255257
2243.000000	0.253428
2242.000000	0.251662
2241.000000	0.248893
2240.000000	0.246149
2239.000000	0.246461
2238.000000	0.246092
2237.000000	0.243394
2236.000000	0.241990
2235.000000	0.242726
2234.000000	0.241980
2233.000000	0.239546
2232.000000	0.239744
2231.000000	0.239524
2230.000000	0.238179
2229.000000	0.237442
2228.000000	0.236711
2227.000000	0.236088
2226.000000	0.237214
2225.000000	0.237112
2224.000000	0.236659
2223.000000	0.238096
2222.000000	0.237744
2221.000000	0.239263
2220.000000	0.240308
2219.000000	0.239229
2218.000000	0.239755
2217.000000	0.240445
2216.000000	0.240929
2215.000000	0.240911
2214.000000	0.242712
2213.000000	0.242687
2212.000000	0.244144
2211.000000	0.244843
2210.000000	0.245574
2209.000000	0.246475
2208.000000	0.247339
2207.000000	0.246813
2206.000000	0.247597
2205.000000	0.249576
2204.000000	0.250276
2203.000000	0.251634
2202.000000	0.252468
2201.000000	0.253855
2200.000000	0.255434
2199.000000	0.255401
2198.000000	0.255115
2197.000000	0.256309
2196.000000	0.258010
2195.000000	0.259787
2194.000000	0.259321
2193.000000	0.259476
2192.000000	0.261756
2191.000000	0.262774
2190.000000	0.262543
2189.000000	0.263223
2188.000000	0.265102
2187.000000	0.267126
2186.000000	0.266935
2185.000000	0.267749
2184.000000	0.267727
2183.000000	0.266297
2182.000000	0.269034
2181.000000	0.270380
2180.000000	0.271014
2179.000000	0.271002
2178.000000	0.269511
2177.000000	0.269290
2176.000000	0.267748
2175.000000	0.269841
2174.000000	0.268043
2173.000000	0.268504
2172.000000	0.268908
2171.000000	0.268496
2170.000000	0.267091
2169.000000	0.265470
2168.000000	0.265116
2167.000000	0.264947
2166.000000	0.263423
2165.000000	0.263137
2164.000000	0.261198
2163.000000	0.261045
2162.000000	0.261022
2161.000000	0.256941
2160.000000	0.256683
2159.000000	0.253496
2158.000000	0.254257
2157.000000	0.252670
2156.000000	0.249885
2155.000000	0.247874
2154.000000	0.248009
2153.000000	0.244192
2152.000000	0.243834
2151.000000	0.242505
2150.000000	0.241023
2149.000000	0.238917
2148.000000	0.239073
2147.000000	0.236213
2146.000000	0.235393
2145.000000	0.235218
2144.000000	0.232406
2143.000000	0.231759
2142.000000	0.230181
2141.000000	0.227913
2140.000000	0.227561
2139.000000	0.226635
2138.000000	0.224295
2137.000000	0.224504
2136.000000	0.222387
2135.000000	0.222377
2134.000000	0.220549
2133.000000	0.219842
2132.000000	0.217864
2131.000000	0.216502
2130.000000	0.214678
2129.000000	0.215529
2128.000000	0.216041
2127.000000	0.217548
2126.000000	0.215409
2125.000000	0.216072
2124.000000	0.213541
2123.000000	0.213775
2122.000000	0.213393
2121.000000	0.214027
2120.000000	0.213722
2119.000000	0.212368
2118.000000	0.212555
2117.000000	0.210489
2116.000000	0.211286
2115.000000	0.211470
2114.000000	0.211223
2113.000000	0.212189
2112.000000	0.211859
2111.000000	0.210398
2110.000000	0.211068
2109.000000	0.210885
2108.000000	0.210249
2107.000000	0.210202
2106.000000	0.209970
2105.000000	0.210350
2104.000000	0.210416
2103.000000	0.210923
2102.000000	0.210958
2101.000000	0.210185
2100.000000	0.209153
2099.000000	0.210137
2098.000000	0.210378
2097.000000	0.210445
2096.000000	0.210567
2095.000000	0.210290
2094.000000	0.210086
2093.000000	0.211170
2092.000000	0.211256
2091.000000	0.211231
2090.000000	0.212829
2089.000000	0.212550
2088.000000	0.212517
2087.000000	0.213395
2086.000000	0.214288
2085.000000	0.213488
2084.000000	0.213979
2083.000000	0.214822
2082.000000	0.216478
2081.000000	0.217030
2080.000000	0.218603
2079.000000	0.219264
2078.000000	0.220072
2077.000000	0.220559
2076.000000	0.221973
2075.000000	0.222912
2074.000000	0.223928
2073.000000	0.225310
2072.000000	0.226615
2071.000000	0.227452
2070.000000	0.229248
2069.000000	0.230844
2068.000000	0.232703
2067.000000	0.234134
2066.000000	0.236404
2065.000000	0.237547
2064.000000	0.238323
2063.000000	0.240261
2062.000000	0.242910
2061.000000	0.245180
2060.000000	0.246535
2059.000000	0.247806
2058.000000	0.249737
2057.000000	0.251558
2056.000000	0.252972
2055.000000	0.254303
2054.000000	0.256513
2053.000000	0.257852
2052.000000	0.258883
2051.000000	0.260276
2050.000000	0.261804
2049.000000	0.262675
2048.000000	0.263562
2047.000000	0.264650
2046.000000	0.265511
2045.000000	0.266493
2044.000000	0.268142
2043.000000	0.267789
2042.000000	0.267598
2041.000000	0.267800
2040.000000	0.267444
2039.000000	0.266500
2038.000000	0.265918
2037.000000	0.265766
2036.000000	0.265266
2035.000000	0.264241
2034.000000	0.263603
2033.000000	0.262466
2032.000000	0.261393
2031.000000	0.260540
2030.000000	0.259338
2029.000000	0.258050
2028.000000	0.257237
2027.000000	0.256569
2026.000000	0.255485
2025.000000	0.254487
2024.000000	0.254140
2023.000000	0.253734
2022.000000	0.253593
2021.000000	0.253267
2020.000000	0.252635
2019.000000	0.252443
2018.000000	0.252516
2017.000000	0.252829
2016.000000	0.252879
2015.000000	0.253170
2014.000000	0.253725
2013.000000	0.254566
2012.000000	0.255733
2011.000000	0.256513
2010.000000	0.257386
2009.000000	0.258167
2008.000000	0.259009
2007.000000	0.260226
2006.000000	0.261624
2005.000000	0.262911
2004.000000	0.264388
2003.000000	0.265835
2002.000000	0.267168
2001.000000	0.268515
2000.000000	0.270173
1999.000000	0.271580
1998.000000	0.272899
1997.000000	0.274318
1996.000000	0.275666
1995.000000	0.277499
1994.000000	0.278883
1993.000000	0.280291
1992.000000	0.282599
1991.000000	0.284393
1990.000000	0.286174
1989.000000	0.287902
1988.000000	0.288792
1987.000000	0.290857
1986.000000	0.292629
1985.000000	0.294187
1984.000000	0.295809
1983.000000	0.297588
1982.000000	0.299355
1981.000000	0.301045
1980.000000	0.302766
1979.000000	0.304476
1978.000000	0.306284
1977.000000	0.308504
1976.000000	0.309670
1975.000000	0.311321
1974.000000	0.312949
1973.000000	0.314760
1972.000000	0.316817
1971.000000	0.318497
1970.000000	0.320040
1969.000000	0.321419
1968.000000	0.323641
1967.000000	0.325169
1966.000000	0.326637
1965.000000	0.328429
1964.000000	0.329994
1963.000000	0.331374
1962.000000	0.333716
1961.000000	0.335532
1960.000000	0.336886
1959.000000	0.338564
1958.000000	0.340122
1957.000000	0.340947
1956.000000	0.342172
1955.000000	0.343770
1954.000000	0.345053
1953.000000	0.346533
1952.000000	0.347377
1951.000000	0.348084
1950.000000	0.349142
1949.000000	0.350419
1948.000000	0.351126
1947.000000	0.352559
1946.000000	0.351741
1945.000000	0.352754
1944.000000	0.353480
1943.000000	0.352500
1942.000000	0.352566
1941.000000	0.351931
1940.000000	0.352689
1939.000000	0.351167
1938.000000	0.351236
1937.000000	0.349546
1936.000000	0.348459
1935.000000	0.347298
1934.000000	0.345270
1933.000000	0.343921
1932.000000	0.342654
1931.000000	0.340456
1930.000000	0.337813
1929.000000	0.335092
1928.000000	0.333673
1927.000000	0.330203
1926.000000	0.326473
1925.000000	0.323443
1924.000000	0.320334
1923.000000	0.317231
1922.000000	0.312241
1921.000000	0.309208
1920.000000	0.305606
1919.000000	0.301203
1918.000000	0.297359
1917.000000	0.292793
1916.000000	0.288689
1915.000000	0.283338
1914.000000	0.278668
1913.000000	0.273277
1912.000000	0.269589
1911.000000	0.262994
1910.000000	0.258260
1909.000000	0.252779
1908.000000	0.246424
1907.000000	0.241392
1906.000000	0.235959
1905.000000	0.230784
1904.000000	0.224061
1903.000000	0.219205
1902.000000	0.213290
1901.000000	0.207321
1900.000000	0.201977
1899.000000	0.196561
1898.000000	0.190847
1897.000000	0.185876
1896.000000	0.180864
1895.000000	0.176163
1894.000000	0.171967
1893.000000	0.167009
1892.000000	0.161917
1891.000000	0.158092
1890.000000	0.154088
1889.000000	0.150341
1888.000000	0.146432
1887.000000	0.142934
1886.000000	0.139309
1885.000000	0.136261
1884.000000	0.132667
1883.000000	0.129737
1882.000000	0.127020
1881.000000	0.124350
1880.000000	0.121517
1879.000000	0.119416
1878.000000	0.116630
1877.000000	0.114451
1876.000000	0.112644
1875.000000	0.110650
1874.000000	0.108544
1873.000000	0.106728
1872.000000	0.105522
1871.000000	0.104055
1870.000000	0.102607
1869.000000	0.100974
1868.000000	0.099835
1867.000000	0.098977
1866.000000	0.097927
1865.000000	0.097532
1864.000000	0.096927
1863.000000	0.096015
1862.000000	0.095639
1861.000000	0.095000
1860.000000	0.094692
1859.000000	0.094357
1858.000000	0.094265
1857.000000	0.094119
1856.000000	0.093549
1855.000000	0.093140
1854.000000	0.092619
1853.000000	0.092710
1852.000000	0.092918
1851.000000	0.092529
1850.000000	0.092538
1849.000000	0.092674
1848.000000	0.092824
1847.000000	0.092790
1846.000000	0.092664
1845.000000	0.092697
1844.000000	0.092836
1843.000000	0.092882
1842.000000	0.093306
1841.000000	0.093442
1840.000000	0.093713
1839.000000	0.093747
1838.000000	0.093745
1837.000000	0.094204
1836.000000	0.094475
1835.000000	0.094925
1834.000000	0.095077
1833.000000	0.095333
1832.000000	0.095478
1831.000000	0.095674
1830.000000	0.096095
1829.000000	0.096423
1828.000000	0.096944
1827.000000	0.097148
1826.000000	0.097438
1825.000000	0.097695
1824.000000	0.097840
1823.000000	0.098064
1822.000000	0.098407
1821.000000	0.098637
1820.000000	0.098908
1819.000000	0.099290
1818.000000	0.099599
1817.000000	0.099926
1816.000000	0.100183
1815.000000	0.100381
1814.000000	0.100582
1813.000000	0.101057
1812.000000	0.101318
1811.000000	0.101454
1810.000000	0.101771
1809.000000	0.102007
1808.000000	0.102577
1807.000000	0.102805
1806.000000	0.102899
1805.000000	0.103311
1804.000000	0.103723
1803.000000	0.103854
1802.000000	0.103935
1801.000000	0.104325
1800.000000	0.104608
1799.000000	0.104743
1798.000000	0.105083
1797.000000	0.105390
1796.000000	0.105537
1795.000000	0.105762
1794.000000	0.105920
1793.000000	0.106138
1792.000000	0.106415
1791.000000	0.106555
1790.000000	0.106907
1789.000000	0.107124
1788.000000	0.107151
1787.000000	0.107322
1786.000000	0.107625
1785.000000	0.107840
1784.000000	0.108168
1783.000000	0.108411
1782.000000	0.108721
1781.000000	0.108860
1780.000000	0.109124
1779.000000	0.109314
1778.000000	0.109731
1777.000000	0.110075
1776.000000	0.110223
1775.000000	0.110562
1774.000000	0.110855
1773.000000	0.111255
1772.000000	0.111641
1771.000000	0.112104
1770.000000	0.112494
1769.000000	0.112786
1768.000000	0.113240
1767.000000	0.113613
1766.000000	0.114009
1765.000000	0.114236
1764.000000	0.114441
1763.000000	0.114964
1762.000000	0.115308
1761.000000	0.115548
1760.000000	0.115886
1759.000000	0.116310
1758.000000	0.116624
1757.000000	0.116892
1756.000000	0.117313
1755.000000	0.117557
1754.000000	0.117887
1753.000000	0.118316
1752.000000	0.118547
1751.000000	0.118848
1750.000000	0.119379
1749.000000	0.119499
1748.000000	0.120087
1747.000000	0.120747
1746.000000	0.120957
1745.000000	0.121403
1744.000000	0.121960
1743.000000	0.122435
1742.000000	0.122731
1741.000000	0.123253
1740.000000	0.123353
1739.000000	0.123733
1738.000000	0.124242
1737.000000	0.124585
1736.000000	0.124838
1735.000000	0.124923
1734.000000	0.124867
1733.000000	0.125277
1732.000000	0.125305
1731.000000	0.125191
1730.000000	0.125328
1729.000000	0.124971
1728.000000	0.124492
1727.000000	0.124209
1726.000000	0.123809
1725.000000	0.123074
1724.000000	0.123039
1723.000000	0.122414
1722.000000	0.121630
1721.000000	0.120903
1720.000000	0.120289
1719.000000	0.119477
1718.000000	0.119039
1717.000000	0.118412
1716.000000	0.117656
1715.000000	0.117088
1714.000000	0.116321
1713.000000	0.115587
1712.000000	0.115048
1711.000000	0.114458
1710.000000	0.114206
1709.000000	0.113816
1708.000000	0.113410
1707.000000	0.113008
1706.000000	0.112631
1705.000000	0.112299
1704.000000	0.112145
1703.000000	0.111916
1702.000000	0.111754
1701.000000	0.111524
1700.000000	0.111424
1699.000000	0.111370
1698.000000	0.110960
1697.000000	0.110994
1696.000000	0.110644
1695.000000	0.110454
1694.000000	0.110269
1693.000000	0.109974
1692.000000	0.109711
1691.000000	0.109190
1690.000000	0.108762
1689.000000	0.108357
1688.000000	0.107890
1687.000000	0.107357
1686.000000	0.106808
1685.000000	0.105926
1684.000000	0.104944
1683.000000	0.104421
1682.000000	0.103420
1681.000000	0.102547
1680.000000	0.101734
1679.000000	0.100595
1678.000000	0.099630
1677.000000	0.098891
1676.000000	0.097878
1675.000000	0.096789
1674.000000	0.095925
1673.000000	0.095116
1672.000000	0.094175
1671.000000	0.093328
1670.000000	0.092607
1669.000000	0.091736
1668.000000	0.090976
1667.000000	0.090148
1666.000000	0.089879
1665.000000	0.089345
1664.000000	0.088930
1663.000000	0.088305
1662.000000	0.088006
1661.000000	0.087496
1660.000000	0.087358
1659.000000	0.087049
1658.000000	0.086725
1657.000000	0.086597
1656.000000	0.086524
1655.000000	0.086322
1654.000000	0.086140
1653.000000	0.086186
1652.000000	0.086034
1651.000000	0.086062
1650.000000	0.086025
1649.000000	0.086118
1648.000000	0.086175
1647.000000	0.086206
1646.000000	0.086350
1645.000000	0.086535
1644.000000	0.086668
1643.000000	0.086606
1642.000000	0.086754
1641.000000	0.087221
1640.000000	0.087274
1639.000000	0.087435
1638.000000	0.087512
1637.000000	0.087705
1636.000000	0.087975
1635.000000	0.088085
1634.000000	0.088323
1633.000000	0.088620
1632.000000	0.088867
1631.000000	0.089053
1630.000000	0.089319
1629.000000	0.089719
1628.000000	0.089923
1627.000000	0.090175
1626.000000	0.090668
1625.000000	0.090933
1624.000000	0.091134
1623.000000	0.091454
1622.000000	0.091668
1621.000000	0.092054
1620.000000	0.092390
1619.000000	0.092740
1618.000000	0.093085
1617.000000	0.093402
1616.000000	0.093777
1615.000000	0.094115
1614.000000	0.094529
1613.000000	0.094918
1612.000000	0.095366
1611.000000	0.095759
1610.000000	0.096084
1609.000000	0.096394
1608.000000	0.096773
1607.000000	0.097181
1606.000000	0.097676
1605.000000	0.098070
1604.000000	0.098560
1603.000000	0.098982
1602.000000	0.099249
1601.000000	0.099716
1600.000000	0.100165
1599.000000	0.100510
1598.000000	0.100811
1597.000000	0.101266
1596.000000	0.101825
1595.000000	0.102151
1594.000000	0.102402
1593.000000	0.102729
1592.000000	0.103222
1591.000000	0.103532
1590.000000	0.103829
1589.000000	0.104384
1588.000000	0.104799
1587.000000	0.105063
1586.000000	0.105337
1585.000000	0.105637
1584.000000	0.105959
1583.000000	0.106264
1582.000000	0.106640
1581.000000	0.106993
1580.000000	0.107316
1579.000000	0.107608
1578.000000	0.107855
1577.000000	0.108271
1576.000000	0.108655
1575.000000	0.108931
1574.000000	0.109297
1573.000000	0.109567
1572.000000	0.109953
1571.000000	0.110368
1570.000000	0.110639
1569.000000	0.110772
1568.000000	0.111156
1567.000000	0.111424
1566.000000	0.111657
1565.000000	0.111927
1564.000000	0.112165
1563.000000	0.112358
1562.000000	0.112667
1561.000000	0.112978
1560.000000	0.113073
1559.000000	0.113219
1558.000000	0.113383
1557.000000	0.113589
1556.000000	0.113855
1555.000000	0.114155
1554.000000	0.114365
1553.000000	0.114535
1552.000000	0.114846
1551.000000	0.115140
1550.000000	0.115448
1549.000000	0.115689
1548.000000	0.116060
1547.000000	0.116509
1546.000000	0.116962
1545.000000	0.117320
1544.000000	0.117800
1543.000000	0.118345
1542.000000	0.118881
1541.000000	0.119447
1540.000000	0.120042
1539.000000	0.120623
1538.000000	0.121168
1537.000000	0.121751
1536.000000	0.122453
1535.000000	0.123097
1534.000000	0.123615
1533.000000	0.124059
1532.000000	0.124638
1531.000000	0.125227
1530.000000	0.125857
1529.000000	0.126383
1528.000000	0.126984
1527.000000	0.127575
1526.000000	0.128055
1525.000000	0.128599
1524.000000	0.129011
1523.000000	0.129482
1522.000000	0.129935
1521.000000	0.130294
1520.000000	0.130519
1519.000000	0.130908
1518.000000	0.131288
1517.000000	0.131609
1516.000000	0.131978
1515.000000	0.132287
1514.000000	0.132642
1513.000000	0.132892
1512.000000	0.133162
1511.000000	0.133328
1510.000000	0.133629
1509.000000	0.133933
1508.000000	0.134090
1507.000000	0.134318
1506.000000	0.134485
1505.000000	0.134786
1504.000000	0.134838
1503.000000	0.134921
1502.000000	0.135131
1501.000000	0.135408
1500.000000	0.135439
1499.000000	0.135667
1498.000000	0.135560
1497.000000	0.135644
1496.000000	0.135739
1495.000000	0.135847
1494.000000	0.135850
1493.000000	0.135722
1492.000000	0.135833
1491.000000	0.135712
1490.000000	0.135700
1489.000000	0.135587
1488.000000	0.135468
1487.000000	0.135484
1486.000000	0.135267
1485.000000	0.135129
1484.000000	0.135188
1483.000000	0.134817
1482.000000	0.134801
1481.000000	0.134586
1480.000000	0.134429
1479.000000	0.134489
1478.000000	0.134278
1477.000000	0.134006
1476.000000	0.133991
1475.000000	0.133852
1474.000000	0.133580
1473.000000	0.133550
1472.000000	0.133270
1471.000000	0.133159
1470.000000	0.133032
1469.000000	0.132954
1468.000000	0.132733
1467.000000	0.132589
1466.000000	0.132602
1465.000000	0.132137
1464.000000	0.132125
1463.000000	0.131794
1462.000000	0.131660
1461.000000	0.131602
1460.000000	0.131270
1459.000000	0.131091
1458.000000	0.130757
1457.000000	0.130473
1456.000000	0.130174
1455.000000	0.130034
1454.000000	0.129696
1453.000000	0.129332
1452.000000	0.128957
1451.000000	0.128515
1450.000000	0.128011
1449.000000	0.127663
1448.000000	0.127344
1447.000000	0.127021
1446.000000	0.126561
1445.000000	0.126179
1444.000000	0.125614
1443.000000	0.125020
1442.000000	0.124522
1441.000000	0.124131
1440.000000	0.123451
1439.000000	0.122922
1438.000000	0.122229
1437.000000	0.121633
1436.000000	0.120985
1435.000000	0.120307
1434.000000	0.119638
1433.000000	0.118939
1432.000000	0.118213
1431.000000	0.117413
1430.000000	0.116585
1429.000000	0.115742
1428.000000	0.114916
1427.000000	0.114033
1426.000000	0.113090
1425.000000	0.112237
1424.000000	0.111271
1423.000000	0.110250
1422.000000	0.109173
1421.000000	0.108086
1420.000000	0.106971
1419.000000	0.105839
1418.000000	0.104708
1417.000000	0.103594
1416.000000	0.102451
1415.000000	0.101228
1414.000000	0.100042
1413.000000	0.098774
1412.000000	0.097618
1411.000000	0.096368
1410.000000	0.095219
1409.000000	0.094084
1408.000000	0.092844
1407.000000	0.091662
1406.000000	0.090593
1405.000000	0.089350
1404.000000	0.088217
1403.000000	0.087111
1402.000000	0.086048
1401.000000	0.085030
1400.000000	0.083923
1399.000000	0.082903
1398.000000	0.081982
1397.000000	0.081046
1396.000000	0.080181
1395.000000	0.079310
1394.000000	0.078456
1393.000000	0.077567
1392.000000	0.076715
1391.000000	0.075985
1390.000000	0.075260
1389.000000	0.074681
1388.000000	0.074077
1387.000000	0.073421
1386.000000	0.072820
1385.000000	0.072264
1384.000000	0.071718
1383.000000	0.071258
1382.000000	0.070819
1381.000000	0.070307
1380.000000	0.069960
1379.000000	0.069634
1378.000000	0.069226
1377.000000	0.068947
1376.000000	0.068689
1375.000000	0.068309
1374.000000	0.068033
1373.000000	0.067758
1372.000000	0.067547
1371.000000	0.067431
1370.000000	0.067172
1369.000000	0.066932
1368.000000	0.066744
1367.000000	0.066501
1366.000000	0.066227
1365.000000	0.066077
1364.000000	0.065941
1363.000000	0.065773
1362.000000	0.065614
1361.000000	0.065372
1360.000000	0.065120
1359.000000	0.064949
1358.000000	0.064848
1357.000000	0.064723
1356.000000	0.064479
1355.000000	0.064182
1354.000000	0.063988
1353.000000	0.063849
1352.000000	0.063708
1351.000000	0.063596
1350.000000	0.063490
1349.000000	0.063326
1348.000000	0.063092
1347.000000	0.062956
1346.000000	0.062812
1345.000000	0.062655
1344.000000	0.062399
1343.000000	0.062321
1342.000000	0.062040
1341.000000	0.061795
1340.000000	0.061803
1339.000000	0.061761
1338.000000	0.061530
1337.000000	0.061464
1336.000000	0.061365
1335.000000	0.061090
1334.000000	0.061082
1333.000000	0.061021
1332.000000	0.060845
1331.000000	0.060649
1330.000000	0.060568
1329.000000	0.060667
1328.000000	0.060413
1327.000000	0.060190
1326.000000	0.060293
1325.000000	0.060170
1324.000000	0.060109
1323.000000	0.060070
1322.000000	0.059934
1321.000000	0.059984
1320.000000	0.059978
1319.000000	0.059914
1318.000000	0.059681
1317.000000	0.059964
1316.000000	0.059876
1315.000000	0.059815
1314.000000	0.059782
1313.000000	0.059576
1312.000000	0.059666
1311.000000	0.059765
1310.000000	0.059714
1309.000000	0.059513
1308.000000	0.059830
1307.000000	0.059725
1306.000000	0.059718
1305.000000	0.059599
1304.000000	0.059675
1303.000000	0.059862
1302.000000	0.059744
1301.000000	0.059748
1300.000000	0.059850
1299.000000	0.059883
1298.000000	0.059826
1297.000000	0.059956
1296.000000	0.060060
1295.000000	0.059994
1294.000000	0.060065
1293.000000	0.060158
1292.000000	0.060146
1291.000000	0.060278
1290.000000	0.060280
1289.000000	0.060182
1288.000000	0.060407
1287.000000	0.060537
1286.000000	0.060630
1285.000000	0.060477
1284.000000	0.060660
1283.000000	0.060652
1282.000000	0.060784
1281.000000	0.060764
1280.000000	0.060761
1279.000000	0.061067
1278.000000	0.060957
1277.000000	0.060966
1276.000000	0.061021
1275.000000	0.061172
1274.000000	0.061113
1273.000000	0.061196
1272.000000	0.061333
1271.000000	0.061282
1270.000000	0.061407
1269.000000	0.061348
1268.000000	0.061299
1267.000000	0.061282
1266.000000	0.061407
1265.000000	0.061527
1264.000000	0.061575
1263.000000	0.061511
1262.000000	0.061596
1261.000000	0.061402
1260.000000	0.061564
1259.000000	0.061652
1258.000000	0.061638
1257.000000	0.061812
1256.000000	0.061845
1255.000000	0.061818
1254.000000	0.061773
1253.000000	0.061763
1252.000000	0.061890
1251.000000	0.062041
1250.000000	0.062110
1249.000000	0.062090
1248.000000	0.062198
1247.000000	0.062305
1246.000000	0.062421
1245.000000	0.062494
1244.000000	0.062675
1243.000000	0.062747
1242.000000	0.062998
1241.000000	0.063217
1240.000000	0.063196
1239.000000	0.063240
1238.000000	0.063385
1237.000000	0.063672
1236.000000	0.063789
1235.000000	0.063965
1234.000000	0.064078
1233.000000	0.064165
1232.000000	0.064366
1231.000000	0.064517
1230.000000	0.064590
1229.000000	0.064833
1228.000000	0.064868
1227.000000	0.065170
1226.000000	0.065228
1225.000000	0.065341
1224.000000	0.065442
1223.000000	0.065653
1222.000000	0.065814
1221.000000	0.065912
1220.000000	0.066109
1219.000000	0.066299
1218.000000	0.066379
1217.000000	0.066416
1216.000000	0.066563
1215.000000	0.066905
1214.000000	0.066980
1213.000000	0.067244
1212.000000	0.067245
1211.000000	0.067428
1210.000000	0.067731
1209.000000	0.067984
1208.000000	0.067970
1207.000000	0.068295
1206.000000	0.068593
1205.000000	0.068565
1204.000000	0.068680
1203.000000	0.069062
1202.000000	0.069303
1201.000000	0.069247
1200.000000	0.069450
1199.000000	0.069682
1198.000000	0.069911
1197.000000	0.070020
1196.000000	0.070119
1195.000000	0.070246
1194.000000	0.070484
1193.000000	0.070616
1192.000000	0.070806
1191.000000	0.070878
1190.000000	0.071016
1189.000000	0.071147
1188.000000	0.071179
1187.000000	0.071318
1186.000000	0.071404
1185.000000	0.071448
1184.000000	0.071443
1183.000000	0.071388
1182.000000	0.071390
1181.000000	0.071375
1180.000000	0.071334
1179.000000	0.071288
1178.000000	0.071257
1177.000000	0.071103
1176.000000	0.070967
1175.000000	0.070954
1174.000000	0.070871
1173.000000	0.070642
1172.000000	0.070491
1171.000000	0.070413
1170.000000	0.070269
1169.000000	0.070072
1168.000000	0.069839
1167.000000	0.069667
1166.000000	0.069468
1165.000000	0.069240
1164.000000	0.069004
1163.000000	0.068829
1162.000000	0.068604
1161.000000	0.068373
1160.000000	0.068229
1159.000000	0.068037
1158.000000	0.067756
1157.000000	0.067610
1156.000000	0.067488
1155.000000	0.067190
1154.000000	0.066983
1153.000000	0.066855
1152.000000	0.066744
1151.000000	0.066590
1150.000000	0.066517
1149.000000	0.066364
1148.000000	0.066142
1147.000000	0.066030
1146.000000	0.065927
1145.000000	0.065858
1144.000000	0.065734
1143.000000	0.065589
1142.000000	0.065499
1141.000000	0.065456
1140.000000	0.065433
1139.000000	0.065382
1138.000000	0.065347
1137.000000	0.065241
1136.000000	0.065119
1135.000000	0.064958
1134.000000	0.064886
1133.000000	0.064952
1132.000000	0.064923
1131.000000	0.064750
1130.000000	0.064749
1129.000000	0.064733
1128.000000	0.064762
1127.000000	0.064855
1126.000000	0.064773
1125.000000	0.064661
1124.000000	0.064744
1123.000000	0.064767
1122.000000	0.064785
1121.000000	0.064774
1120.000000	0.064844
1119.000000	0.064870
1118.000000	0.065003
1117.000000	0.065009
1116.000000	0.065107
1115.000000	0.065228
1114.000000	0.065212
1113.000000	0.065202
1112.000000	0.065314
1111.000000	0.065421
1110.000000	0.065535
1109.000000	0.065517
1108.000000	0.065507
1107.000000	0.065549
1106.000000	0.065709
1105.000000	0.065744
1104.000000	0.065719
1103.000000	0.065887
1102.000000	0.066058
1101.000000	0.066053
1100.000000	0.066005
1099.000000	0.066243
1098.000000	0.066458
1097.000000	0.066406
1096.000000	0.066452
1095.000000	0.066514
1094.000000	0.066582
1093.000000	0.066684
1092.000000	0.066734
1091.000000	0.066905
1090.000000	0.067006
1089.000000	0.067067
1088.000000	0.067129
1087.000000	0.067123
1086.000000	0.067211
1085.000000	0.067287
1084.000000	0.067470
1083.000000	0.067599
1082.000000	0.067731
1081.000000	0.067679
1080.000000	0.067755
1079.000000	0.067929
1078.000000	0.067927
1077.000000	0.068099
1076.000000	0.068311
1075.000000	0.068280
1074.000000	0.068355
1073.000000	0.068510
1072.000000	0.068597
1071.000000	0.068768
1070.000000	0.068837
1069.000000	0.068860
1068.000000	0.069109
1067.000000	0.069107
1066.000000	0.069317
1065.000000	0.069308
1064.000000	0.069575
1063.000000	0.069517
1062.000000	0.069695
1061.000000	0.069735
1060.000000	0.069841
1059.000000	0.069872
1058.000000	0.070042
1057.000000	0.070356
1056.000000	0.070308
1055.000000	0.070480
1054.000000	0.070631
1053.000000	0.070813
1052.000000	0.070812
1051.000000	0.071072
1050.000000	0.070958
1049.000000	0.071147
1048.000000	0.071289
1047.000000	0.071327
1046.000000	0.071609
1045.000000	0.071611
1044.000000	0.071627
1043.000000	0.071831
1042.000000	0.071964
1041.000000	0.072026
1040.000000	0.072241
1039.000000	0.072254
1038.000000	0.072467
1037.000000	0.072353
1036.000000	0.072586
1035.000000	0.072693
1034.000000	0.072757
1033.000000	0.072969
1032.000000	0.073048
1031.000000	0.073210
1030.000000	0.073354
1029.000000	0.073321
1028.000000	0.073367
1027.000000	0.073477
1026.000000	0.073676
1025.000000	0.073745
1024.000000	0.073859
1023.000000	0.073860
1022.000000	0.074007
1021.000000	0.074090
1020.000000	0.074197
1019.000000	0.074326
1018.000000	0.074454
1017.000000	0.074516
1016.000000	0.074672
1015.000000	0.074604
1014.000000	0.074793
1013.000000	0.074916
1012.000000	0.075068
1011.000000	0.075140
1010.000000	0.075259
1009.000000	0.075269
1008.000000	0.075367
1007.000000	0.075590
1006.000000	0.075585
1005.000000	0.075645
1004.000000	0.075760
1003.000000	0.075885
1002.000000	0.075975
1001.000000	0.076059
1000.000000	0.076138
999.000000	0.076229
998.000000	0.076411
997.000000	0.076531
996.000000	0.076534
995.000000	0.076689
994.000000	0.076776
993.000000	0.076824
992.000000	0.076932
991.000000	0.077069
990.000000	0.077227
989.000000	0.077357
988.000000	0.077282
987.000000	0.077322
986.000000	0.077465
985.000000	0.077685
984.000000	0.077867
983.000000	0.077937
982.000000	0.077965
981.000000	0.078004
980.000000	0.078056
979.000000	0.078167
978.000000	0.078286
977.000000	0.078475
976.000000	0.078514
975.000000	0.078564
974.000000	0.078749
973.000000	0.078728
972.000000	0.078877
971.000000	0.079035
970.000000	0.079163
969.000000	0.079200
968.000000	0.079257
967.000000	0.079353
966.000000	0.079448
965.000000	0.079616
964.000000	0.079632
963.000000	0.079632
962.000000	0.079670
961.000000	0.079744
960.000000	0.079842
959.000000	0.079967
958.000000	0.079990
957.000000	0.080067
956.000000	0.080198
955.000000	0.080323
954.000000	0.080469
953.000000	0.080633
952.000000	0.080649
951.000000	0.080673
950.000000	0.080879
949.000000	0.080932
948.000000	0.081064
947.000000	0.081142
946.000000	0.081067
945.000000	0.081328
944.000000	0.081421
943.000000	0.081325
942.000000	0.081442
941.000000	0.081799
940.000000	0.081938
939.000000	0.081945
938.000000	0.082187
937.000000	0.082417
936.000000	0.082508
935.000000	0.082442
934.000000	0.082566
933.000000	0.082876
932.000000	0.083077
931.000000	0.083214
930.000000	0.083348
929.000000	0.083549
928.000000	0.083695
927.000000	0.083741
926.000000	0.083944
925.000000	0.084329
924.000000	0.084415
923.000000	0.084457
922.000000	0.084686
921.000000	0.084811
920.000000	0.085018
919.000000	0.084990
918.000000	0.085085
917.000000	0.085214
916.000000	0.085477
915.000000	0.085743
914.000000	0.085878
913.000000	0.085996
912.000000	0.086350
911.000000	0.086634
910.000000	0.086557
909.000000	0.086570
908.000000	0.086704
907.000000	0.086765
906.000000	0.087263
905.000000	0.087551
904.000000	0.087313
903.000000	0.087355
902.000000	0.087493
901.000000	0.087366
900.000000	0.088041
899.000000	0.088629
898.000000	0.088121
897.000000	0.088342
896.000000	0.088609
895.000000	0.088434
894.000000	0.088719
893.000000	0.088999
892.000000	0.089208
891.000000	0.089460
890.000000	0.089398
889.000000	0.089507
888.000000	0.089805
887.000000	0.089915
886.000000	0.090249
885.000000	0.090338
884.000000	0.090782
883.000000	0.090688
882.000000	0.090780
881.000000	0.091075
880.000000	0.091224
879.000000	0.091516
878.000000	0.091597
877.000000	0.091724
876.000000	0.092231
875.000000	0.092753
874.000000	0.092240
873.000000	0.092849
872.000000	0.092833
871.000000	0.093225
870.000000	0.093041
869.000000	0.093107
868.000000	0.093703
867.000000	0.093992
866.000000	0.094446
865.000000	0.094253
864.000000	0.094572
863.000000	0.094680
862.000000	0.095105
861.000000	0.094795
860.000000	0.095445
859.000000	0.097589
858.000000	0.095328
857.000000	0.094056
856.000000	0.092176
855.000000	0.096134
854.000000	0.096315
853.000000	0.094504
852.000000	0.095942
851.000000	0.096390
850.000000	0.097524
849.000000	0.100073
848.000000	0.098081
847.000000	0.098314
846.000000	0.097800
845.000000	0.098621
844.000000	0.099630
843.000000	0.099965
842.000000	0.098244
841.000000	0.099836
840.000000	0.098961
839.000000	0.100372
838.000000	0.100880
837.000000	0.101777
836.000000	0.101532
835.000000	0.101345
834.000000	0.102425
833.000000	0.102562
832.000000	0.103017
831.000000	0.102901
830.000000	0.103311
829.000000	0.103820
828.000000	0.104251
827.000000	0.104646
826.000000	0.103772
825.000000	0.105665
824.000000	0.104490
823.000000	0.104938
822.000000	0.106125
821.000000	0.105970
820.000000	0.105722
819.000000	0.105994
818.000000	0.108139
817.000000	0.107850
816.000000	0.107286
815.000000	0.108292
814.000000	0.109053
813.000000	0.108084
812.000000	0.109327
811.000000	0.109860
810.000000	0.109906
809.000000	0.109743
808.000000	0.111487
807.000000	0.111510
806.000000	0.111180
805.000000	0.110594
804.000000	0.112193
803.000000	0.112265
802.000000	0.113660
801.000000	0.112765
800.000000	0.113108
799.000000	0.115289
798.000000	0.114987
797.000000	0.114623
796.000000	0.116146
795.000000	0.115532
794.000000	0.116239
793.000000	0.116767
792.000000	0.116626
791.000000	0.118050
790.000000	0.117905
789.000000	0.118470
788.000000	0.119154
787.000000	0.119159
786.000000	0.119537
785.000000	0.119616
784.000000	0.120059
783.000000	0.119676
782.000000	0.120938
781.000000	0.122337
780.000000	0.123014
779.000000	0.123313
778.000000	0.123184
777.000000	0.123542
776.000000	0.124472
775.000000	0.125000
774.000000	0.126269
773.000000	0.126940
772.000000	0.126660
771.000000	0.127082
770.000000	0.127942
769.000000	0.128192
768.000000	0.129290
767.000000	0.129380
766.000000	0.130549
765.000000	0.131105
764.000000	0.131094
763.000000	0.131378
762.000000	0.132149
761.000000	0.132730
760.000000	0.133082
759.000000	0.133208
758.000000	0.133942
757.000000	0.135595
756.000000	0.136249
755.000000	0.136484
754.000000	0.137313
753.000000	0.137796
752.000000	0.138199
751.000000	0.138491
750.000000	0.139076
749.000000	0.139802
748.000000	0.140813
747.000000	0.141837
746.000000	0.142414
745.000000	0.142866
744.000000	0.143591
743.000000	0.143433
742.000000	0.144017
741.000000	0.145062
740.000000	0.146244
739.000000	0.146758
738.000000	0.147694
737.000000	0.148034
736.000000	0.148555
735.000000	0.149918
734.000000	0.150901
733.000000	0.150984
732.000000	0.151469
731.000000	0.153091
730.000000	0.153820
729.000000	0.154190
728.000000	0.155092
727.000000	0.155786
726.000000	0.156166
725.000000	0.157004
724.000000	0.157912
723.000000	0.158471
722.000000	0.159351
721.000000	0.160102
720.000000	0.161265
719.000000	0.162583
718.000000	0.163428
717.000000	0.164056
716.000000	0.164473
715.000000	0.165377
714.000000	0.166365
713.000000	0.167390
712.000000	0.168320
711.000000	0.168750
710.000000	0.169868
709.000000	0.170921
708.000000	0.171622
707.000000	0.172599
706.000000	0.173808
705.000000	0.174728
704.000000	0.175231
703.000000	0.175926
702.000000	0.176853
701.000000	0.177864
700.000000	0.178781
699.000000	0.179775
698.000000	0.180653
697.000000	0.181920
696.000000	0.183202
695.000000	0.183875
694.000000	0.184899
693.000000	0.186195
692.000000	0.187240
691.000000	0.187876
690.000000	0.188934
689.000000	0.190224
688.000000	0.191601
687.000000	0.192496
686.000000	0.193796
685.000000	0.194931
684.000000	0.196049
683.000000	0.197342
682.000000	0.198356
681.000000	0.199279
680.000000	0.200225
679.000000	0.201652
678.000000	0.202515
677.000000	0.203883
676.000000	0.205492
675.000000	0.205995
674.000000	0.207225
673.000000	0.208509
672.000000	0.209766
671.000000	0.210782
670.000000	0.211909
669.000000	0.213175
668.000000	0.214453
667.000000	0.215679
666.000000	0.216577
665.000000	0.217854
664.000000	0.219058
663.000000	0.220383
662.000000	0.221683
661.000000	0.222825
660.000000	0.224314
659.000000	0.225322
658.000000	0.226396
657.000000	0.227687
656.000000	0.228935
655.000000	0.230424
654.000000	0.231878
653.000000	0.232851
652.000000	0.234233
651.000000	0.235779
650.000000	0.237217
649.000000	0.237993
648.000000	0.239315
647.000000	0.240581
646.000000	0.242230
645.000000	0.243803
644.000000	0.244963
643.000000	0.246410
642.000000	0.247831
641.000000	0.248773
640.000000	0.250161
639.000000	0.251513
638.000000	0.253198
637.000000	0.254991
636.000000	0.256028
635.000000	0.257043
634.000000	0.258811
633.000000	0.260195
632.000000	0.262087
631.000000	0.263635
630.000000	0.265040
629.000000	0.265891
628.000000	0.267789
627.000000	0.269258
626.000000	0.270745
625.000000	0.272258
624.000000	0.273231
623.000000	0.275037
622.000000	0.276692
621.000000	0.278142
620.000000	0.279366
619.000000	0.281241
618.000000	0.282848
617.000000	0.284222
616.000000	0.285602
615.000000	0.287051
614.000000	0.288732
613.000000	0.290420
612.000000	0.291888
611.000000	0.293218
610.000000	0.295372
609.000000	0.296721
608.000000	0.298412
607.000000	0.300058
606.000000	0.301439
605.000000	0.302970
604.000000	0.304640
603.000000	0.306162
602.000000	0.308234
601.000000	0.309586
600.000000	0.311332
599.000000	0.313169
598.000000	0.315066
597.000000	0.316565
596.000000	0.318096
595.000000	0.319574
594.000000	0.321119
593.000000	0.323383
592.000000	0.325282
591.000000	0.326287
590.000000	0.328516
589.000000	0.330166
588.000000	0.332129
587.000000	0.333847
586.000000	0.335435
585.000000	0.337034
584.000000	0.339161
583.000000	0.340583
582.000000	0.342313
581.000000	0.344122
580.000000	0.346540
579.000000	0.348401
578.000000	0.350320
577.000000	0.352069
576.000000	0.353903
575.000000	0.355306
574.000000	0.357656
573.000000	0.358786
572.000000	0.361813
571.000000	0.363126
570.000000	0.365441
569.000000	0.367201
568.000000	0.369204
567.000000	0.370790
566.000000	0.372828
565.000000	0.374939
564.000000	0.377095
563.000000	0.379023
562.000000	0.380787
561.000000	0.382732
560.000000	0.385009
559.000000	0.386836
558.000000	0.388722
557.000000	0.391209
556.000000	0.392943
555.000000	0.395276
554.000000	0.397713
553.000000	0.399554
552.000000	0.401832
551.000000	0.403583
550.000000	0.406015
549.000000	0.408297
548.000000	0.411050
547.000000	0.413166
546.000000	0.415238
545.000000	0.417091
544.000000	0.419615
543.000000	0.422088
542.000000	0.424179
541.000000	0.426468
540.000000	0.429076
539.000000	0.431164
538.000000	0.433484
537.000000	0.435740
536.000000	0.438524
535.000000	0.440771
534.000000	0.443239
533.000000	0.445677
532.000000	0.447800
531.000000	0.450755
530.000000	0.453623
529.000000	0.455820
528.000000	0.458632
527.000000	0.460858
526.000000	0.463537
525.000000	0.466082
524.000000	0.468669
523.000000	0.471729
522.000000	0.474385
521.000000	0.476957
520.000000	0.479686
519.000000	0.482109
518.000000	0.485232
517.000000	0.487607
516.000000	0.490345
515.000000	0.493117
514.000000	0.496064
513.000000	0.499030
512.000000	0.501776
511.000000	0.504315
510.000000	0.507235
509.000000	0.510104
508.000000	0.512984
507.000000	0.516089
506.000000	0.519128
505.000000	0.522031
504.000000	0.525117
503.000000	0.528110
502.000000	0.530835
501.000000	0.534072
500.000000	0.537005
499.000000	0.540080
498.000000	0.543262
497.000000	0.546146
496.000000	0.549561
495.000000	0.553005
494.000000	0.556103
493.000000	0.559492
492.000000	0.562849
491.000000	0.565931
490.000000	0.569661
489.000000	0.573337
488.000000	0.576469
487.000000	0.579552
486.000000	0.583293
485.000000	0.586666
484.000000	0.589690
483.000000	0.592983
482.000000	0.596553
481.000000	0.599996
480.000000	0.603257
479.000000	0.606856
478.000000	0.610300
477.000000	0.614030
476.000000	0.618147
475.000000	0.621986
474.000000	0.625418
473.000000	0.628978
472.000000	0.632891
471.000000	0.636308
470.000000	0.639535
469.000000	0.643238
468.000000	0.647366
467.000000	0.651319
466.000000	0.655466
465.000000	0.659043
464.000000	0.662582
463.000000	0.666760
462.000000	0.670891
461.000000	0.674832
460.000000	0.678868
459.000000	0.682940
458.000000	0.686898
457.000000	0.691034
456.000000	0.695050
455.000000	0.699563
454.000000	0.703818
453.000000	0.708007
452.000000	0.712550
451.000000	0.717569
450.000000	0.722707
449.000000	0.726593
448.000000	0.730425
447.000000	0.734897
446.000000	0.739202
445.000000	0.743486
444.000000	0.748500
443.000000	0.753076
442.000000	0.757440
441.000000	0.762418
440.000000	0.766448
439.000000	0.771013
438.000000	0.775857
437.000000	0.780350
436.000000	0.785386
435.000000	0.790184
434.000000	0.793995
433.000000	0.798255
432.000000	0.803137
431.000000	0.807477
430.000000	0.812811
429.000000	0.817690
428.000000	0.822322
427.000000	0.827061
426.000000	0.832102
425.000000	0.836461
424.000000	0.841531
423.000000	0.846107
422.000000	0.850409
421.000000	0.855166
420.000000	0.859797
419.000000	0.864988
418.000000	0.869871
417.000000	0.875064
416.000000	0.880177
415.000000	0.884915
414.000000	0.889233
413.000000	0.895192
412.000000	0.899772
411.000000	0.904335
410.000000	0.908151
409.000000	0.913016
408.000000	0.918577
407.000000	0.923508
406.000000	0.928407
405.000000	0.933817
404.000000	0.937851
403.000000	0.941847
402.000000	0.946890
401.000000	0.951769
400.000000	0.956732
399.000000	0.961488
398.000000	0.965940
397.000000	0.971044
396.000000	0.974077
395.000000	0.978999
394.000000	0.984987
393.000000	0.989606
392.000000	0.993208
391.000000	0.997510
390.000000	1.002600
389.000000	1.006521
388.000000	1.012552
387.000000	1.016350
386.000000	1.020333
385.000000	1.023691
384.000000	1.027798
383.000000	1.032437
382.000000	1.037328
381.000000	1.041096
380.000000	1.043799
379.000000	1.048295
378.000000	1.051553
377.000000	1.056109
376.000000	1.059800
375.000000	1.065578
374.000000	1.066096
373.000000	1.069997
372.000000	1.076125
371.000000	1.077793
370.000000	1.082093
369.000000	1.083041
368.000000	1.085100
367.000000	1.089723
366.000000	1.092991
365.000000	1.097295
364.000000	1.098299
363.000000	1.100126
362.000000	1.103350
361.000000	1.106884
360.000000	1.108059
359.000000	1.110513
358.000000	1.113546
357.000000	1.119450
356.000000	1.122702
355.000000	1.123065
354.000000	1.123122
353.000000	1.129139
352.000000	1.129545
351.000000	1.131763
350.000000	1.134953
349.000000	1.133657
348.000000	1.135728
347.000000	1.137267
346.000000	1.141998
345.000000	1.142405
344.000000	1.142912
343.000000	1.144446
342.000000	1.148020
341.000000	1.148900
340.000000	1.153266
339.000000	1.153266
338.000000	1.155553
337.000000	1.157213
336.000000	1.161787
335.000000	1.159825
334.000000	1.157830
333.000000	1.160863
332.000000	1.158145
331.000000	1.166043
330.000000	1.168806
329.000000	1.166838
328.000000	1.165703
327.000000	1.174972
326.000000	1.169396
325.000000	1.170256
324.000000	1.173733
323.000000	1.169790
322.000000	1.175724
321.000000	1.171504
320.000000	1.171045
319.000000	1.170663
318.000000	1.176102
317.000000	1.174905
316.000000	1.174357
315.000000	1.174093
314.000000	1.176010
313.000000	1.175309
312.000000	1.174029
311.000000	1.175775
310.000000	1.173637
309.000000	1.173598
308.000000	1.175301
307.000000	1.174386
306.000000	1.171668
305.000000	1.173378
304.000000	1.172707
303.000000	1.172153
302.000000	1.172257
301.000000	1.170678
300.000000	1.173838
299.000000	1.172350
298.000000	1.169920
297.000000	1.167145
296.000000	1.168871
295.000000	1.168059
294.000000	1.167717
293.000000	1.166982
292.000000	1.165004
291.000000	1.165142
290.000000	1.162901
289.000000	1.162959
288.000000	1.162762
287.000000	1.162385
286.000000	1.160797
285.000000	1.160135
284.000000	1.155716
283.000000	1.153314
282.000000	1.154414
281.000000	1.152674
280.000000	1.149220
279.000000	1.148911
278.000000	1.148293
277.000000	1.148986
276.000000	1.146750
275.000000	1.140848
274.000000	1.140271
273.000000	1.140235
272.000000	1.136198
271.000000	1.136283
270.000000	1.130582
269.000000	1.128854
268.000000	1.127401
267.000000	1.125784
266.000000	1.122377
265.000000	1.121089
264.000000	1.119427
263.000000	1.115451
262.000000	1.113780
261.000000	1.109391
260.000000	1.108258
259.000000	1.104492
258.000000	1.099791
257.000000	1.096688
256.000000	1.091371
255.000000	1.090163
254.000000	1.084484
253.000000	1.079419
252.000000	1.076226
251.000000	1.068937
250.000000	1.065172
249.000000	1.058840
248.000000	1.052112
247.000000	1.046355
246.000000	1.043240
245.000000	1.037618
244.000000	1.031541
243.000000	1.027080
242.000000	1.020963
241.000000	1.013760
240.000000	1.010229
239.000000	1.004129
238.000000	0.998704
237.000000	0.991278
236.000000	0.987043
235.000000	0.983490
234.000000	0.975464
233.000000	0.968321
232.000000	0.965306
231.000000	0.961049
230.000000	0.958121
229.000000	0.953530
228.000000	0.948317
227.000000	0.943498
226.000000	0.936348
225.000000	0.932900
224.000000	0.930593
223.000000	0.924133
222.000000	0.918800
221.000000	0.912559
220.000000	0.907437
219.000000	0.901494
218.000000	0.893184
217.000000	0.888098
216.000000	0.883367
215.000000	0.881116
214.000000	0.875351
213.000000	0.865016
212.000000	0.858976
211.000000	0.853841
210.000000	0.844711
209.000000	0.834800
208.000000	0.826404
207.000000	0.816363
206.000000	0.804169
205.000000	0.789399
204.000000	0.772238
203.000000	0.760782
202.000000	0.750220
201.000000	0.734589
200.000000	0.724773
