PE UV       SUBTECH     SPECTRUM    ASCII       PEDS        4.00        
   -1
Amsfkat101.Sample.asc
18/03/16
17:10:22.00
18/03/16
17:10:22.00
Administrator

200.000000
1
Lambda 750
750N8071901
PerkinElmer UV WinLab 6.0.4.0738 / 1.61.00 Lambda 900

0
0
3350/servo 860.8/2
0
0
UV/VIS
1
1
1
CommonBeamDepol,150mm sphere / downward view
0
0
0
0
Program
Program
3350/servo 860.8/2
3350/0.2 860.8/0.2
3350/0.2 860.8/0.2
0
1
 
 
 
0
 
860.8
319.2
860.8
Front
100
on
 
 
0
0
0
 
0
 
 
 
0
 
 
0
0
0
0
0
 
 
 
 
0
0


0
0
#HDR
-1
-1
#GR
nm
A
1.0
0.0
2350.000000
-1.000000
2151
8
1.131179
0.095910
#DATA
2350.000000	0.336100
2349.000000	0.336534
2348.000000	0.333649
2347.000000	0.330084
2346.000000	0.334175
2345.000000	0.336338
2344.000000	0.334749
2343.000000	0.333502
2342.000000	0.330737
2341.000000	0.330711
2340.000000	0.329535
2339.000000	0.331056
2338.000000	0.329060
2337.000000	0.326436
2336.000000	0.328733
2335.000000	0.327589
2334.000000	0.326654
2333.000000	0.322383
2332.000000	0.321610
2331.000000	0.324852
2330.000000	0.325709
2329.000000	0.328634
2328.000000	0.326866
2327.000000	0.328432
2326.000000	0.329513
2325.000000	0.329566
2324.000000	0.327887
2323.000000	0.329159
2322.000000	0.329496
2321.000000	0.329134
2320.000000	0.331040
2319.000000	0.329878
2318.000000	0.329631
2317.000000	0.329491
2316.000000	0.332167
2315.000000	0.332422
2314.000000	0.335660
2313.000000	0.339005
2312.000000	0.336320
2311.000000	0.335584
2310.000000	0.340068
2309.000000	0.337915
2308.000000	0.339699
2307.000000	0.338426
2306.000000	0.340524
2305.000000	0.341030
2304.000000	0.341984
2303.000000	0.341738
2302.000000	0.342043
2301.000000	0.346102
2300.000000	0.347216
2299.000000	0.349136
2298.000000	0.347460
2297.000000	0.349512
2296.000000	0.350449
2295.000000	0.353542
2294.000000	0.351540
2293.000000	0.352389
2292.000000	0.353628
2291.000000	0.355163
2290.000000	0.355345
2289.000000	0.355193
2288.000000	0.354229
2287.000000	0.358197
2286.000000	0.359968
2285.000000	0.358334
2284.000000	0.357631
2283.000000	0.358810
2282.000000	0.357220
2281.000000	0.356824
2280.000000	0.359504
2279.000000	0.359675
2278.000000	0.356562
2277.000000	0.357669
2276.000000	0.357295
2275.000000	0.357383
2274.000000	0.355618
2273.000000	0.352933
2272.000000	0.352725
2271.000000	0.353217
2270.000000	0.353011
2269.000000	0.353640
2268.000000	0.352381
2267.000000	0.349380
2266.000000	0.349182
2265.000000	0.349182
2264.000000	0.347903
2263.000000	0.346589
2262.000000	0.344578
2261.000000	0.342959
2260.000000	0.341142
2259.000000	0.339236
2258.000000	0.336766
2257.000000	0.332864
2256.000000	0.331662
2255.000000	0.330922
2254.000000	0.327573
2253.000000	0.326227
2252.000000	0.324281
2251.000000	0.321890
2250.000000	0.318516
2249.000000	0.316175
2248.000000	0.315573
2247.000000	0.313372
2246.000000	0.310089
2245.000000	0.307635
2244.000000	0.306896
2243.000000	0.304459
2242.000000	0.302111
2241.000000	0.300299
2240.000000	0.299140
2239.000000	0.300108
2238.000000	0.298983
2237.000000	0.295866
2236.000000	0.295066
2235.000000	0.294358
2234.000000	0.293222
2233.000000	0.291900
2232.000000	0.291837
2231.000000	0.290833
2230.000000	0.290017
2229.000000	0.289857
2228.000000	0.290071
2227.000000	0.288934
2226.000000	0.288292
2225.000000	0.289787
2224.000000	0.289869
2223.000000	0.290613
2222.000000	0.290591
2221.000000	0.292244
2220.000000	0.291535
2219.000000	0.291131
2218.000000	0.292684
2217.000000	0.293295
2216.000000	0.293646
2215.000000	0.293934
2214.000000	0.293834
2213.000000	0.293439
2212.000000	0.294763
2211.000000	0.295912
2210.000000	0.296152
2209.000000	0.298396
2208.000000	0.299576
2207.000000	0.299019
2206.000000	0.298817
2205.000000	0.299770
2204.000000	0.300520
2203.000000	0.301605
2202.000000	0.301783
2201.000000	0.302008
2200.000000	0.304321
2199.000000	0.304866
2198.000000	0.303284
2197.000000	0.304521
2196.000000	0.305934
2195.000000	0.307559
2194.000000	0.308569
2193.000000	0.309360
2192.000000	0.309259
2191.000000	0.311211
2190.000000	0.311275
2189.000000	0.311040
2188.000000	0.312772
2187.000000	0.313116
2186.000000	0.313572
2185.000000	0.314013
2184.000000	0.312596
2183.000000	0.313329
2182.000000	0.315176
2181.000000	0.316068
2180.000000	0.316906
2179.000000	0.316920
2178.000000	0.316131
2177.000000	0.315676
2176.000000	0.316011
2175.000000	0.316983
2174.000000	0.314127
2173.000000	0.314384
2172.000000	0.313209
2171.000000	0.312968
2170.000000	0.313506
2169.000000	0.311094
2168.000000	0.311275
2167.000000	0.308172
2166.000000	0.310220
2165.000000	0.309075
2164.000000	0.309280
2163.000000	0.307900
2162.000000	0.304610
2161.000000	0.302777
2160.000000	0.302212
2159.000000	0.301410
2158.000000	0.302146
2157.000000	0.297771
2156.000000	0.297385
2155.000000	0.295846
2154.000000	0.295553
2153.000000	0.290898
2152.000000	0.291067
2151.000000	0.290199
2150.000000	0.289447
2149.000000	0.286546
2148.000000	0.288208
2147.000000	0.284485
2146.000000	0.283074
2145.000000	0.280779
2144.000000	0.279186
2143.000000	0.280449
2142.000000	0.276679
2141.000000	0.276749
2140.000000	0.276251
2139.000000	0.274156
2138.000000	0.271573
2137.000000	0.270233
2136.000000	0.271123
2135.000000	0.269246
2134.000000	0.268802
2133.000000	0.268099
2132.000000	0.266715
2131.000000	0.264500
2130.000000	0.265648
2129.000000	0.265574
2128.000000	0.263252
2127.000000	0.265403
2126.000000	0.263439
2125.000000	0.263676
2124.000000	0.262539
2123.000000	0.263376
2122.000000	0.262172
2121.000000	0.262005
2120.000000	0.262329
2119.000000	0.261389
2118.000000	0.262024
2117.000000	0.261008
2116.000000	0.260827
2115.000000	0.258891
2114.000000	0.260716
2113.000000	0.261287
2112.000000	0.260399
2111.000000	0.261312
2110.000000	0.260152
2109.000000	0.259878
2108.000000	0.260702
2107.000000	0.260273
2106.000000	0.259191
2105.000000	0.258803
2104.000000	0.259769
2103.000000	0.260793
2102.000000	0.258574
2101.000000	0.259359
2100.000000	0.258518
2099.000000	0.258422
2098.000000	0.259223
2097.000000	0.259255
2096.000000	0.259578
2095.000000	0.258266
2094.000000	0.258713
2093.000000	0.260294
2092.000000	0.258803
2091.000000	0.260214
2090.000000	0.261590
2089.000000	0.261574
2088.000000	0.261007
2087.000000	0.261770
2086.000000	0.262797
2085.000000	0.261901
2084.000000	0.262973
2083.000000	0.263735
2082.000000	0.263924
2081.000000	0.265531
2080.000000	0.266119
2079.000000	0.266401
2078.000000	0.267064
2077.000000	0.267926
2076.000000	0.269227
2075.000000	0.269902
2074.000000	0.272181
2073.000000	0.272722
2072.000000	0.273245
2071.000000	0.274513
2070.000000	0.276019
2069.000000	0.277441
2068.000000	0.278951
2067.000000	0.280297
2066.000000	0.282308
2065.000000	0.283099
2064.000000	0.284201
2063.000000	0.286396
2062.000000	0.287667
2061.000000	0.289434
2060.000000	0.290529
2059.000000	0.291800
2058.000000	0.294012
2057.000000	0.295763
2056.000000	0.297218
2055.000000	0.298559
2054.000000	0.299849
2053.000000	0.301192
2052.000000	0.302750
2051.000000	0.304274
2050.000000	0.305188
2049.000000	0.306017
2048.000000	0.307538
2047.000000	0.307977
2046.000000	0.308735
2045.000000	0.310134
2044.000000	0.309950
2043.000000	0.309763
2042.000000	0.309997
2041.000000	0.309984
2040.000000	0.310142
2039.000000	0.309894
2038.000000	0.309268
2037.000000	0.309308
2036.000000	0.309009
2035.000000	0.308087
2034.000000	0.307038
2033.000000	0.306176
2032.000000	0.305241
2031.000000	0.304344
2030.000000	0.303242
2029.000000	0.302371
2028.000000	0.301887
2027.000000	0.301106
2026.000000	0.299740
2025.000000	0.298553
2024.000000	0.297819
2023.000000	0.297240
2022.000000	0.297412
2021.000000	0.297375
2020.000000	0.296795
2019.000000	0.296615
2018.000000	0.296168
2017.000000	0.296224
2016.000000	0.296489
2015.000000	0.296438
2014.000000	0.296921
2013.000000	0.297749
2012.000000	0.298683
2011.000000	0.299234
2010.000000	0.299984
2009.000000	0.300635
2008.000000	0.301126
2007.000000	0.301828
2006.000000	0.303180
2005.000000	0.304068
2004.000000	0.305661
2003.000000	0.306622
2002.000000	0.307591
2001.000000	0.309122
2000.000000	0.310643
1999.000000	0.312199
1998.000000	0.313385
1997.000000	0.314244
1996.000000	0.315569
1995.000000	0.317072
1994.000000	0.318569
1993.000000	0.319889
1992.000000	0.321596
1991.000000	0.322427
1990.000000	0.323977
1989.000000	0.325333
1988.000000	0.326477
1987.000000	0.328093
1986.000000	0.329543
1985.000000	0.330580
1984.000000	0.332115
1983.000000	0.333373
1982.000000	0.334879
1981.000000	0.336655
1980.000000	0.337995
1979.000000	0.339279
1978.000000	0.340733
1977.000000	0.342331
1976.000000	0.343328
1975.000000	0.345175
1974.000000	0.346532
1973.000000	0.347722
1972.000000	0.349009
1971.000000	0.350386
1970.000000	0.351724
1969.000000	0.353199
1968.000000	0.354200
1967.000000	0.355698
1966.000000	0.356727
1965.000000	0.358531
1964.000000	0.359892
1963.000000	0.360795
1962.000000	0.362125
1961.000000	0.364206
1960.000000	0.364669
1959.000000	0.365929
1958.000000	0.367207
1957.000000	0.368936
1956.000000	0.369412
1955.000000	0.370419
1954.000000	0.371086
1953.000000	0.371865
1952.000000	0.372182
1951.000000	0.373319
1950.000000	0.374214
1949.000000	0.375638
1948.000000	0.376017
1947.000000	0.376328
1946.000000	0.376011
1945.000000	0.376115
1944.000000	0.377713
1943.000000	0.377135
1942.000000	0.376923
1941.000000	0.376080
1940.000000	0.376918
1939.000000	0.375180
1938.000000	0.374832
1937.000000	0.374468
1936.000000	0.373535
1935.000000	0.372392
1934.000000	0.370671
1933.000000	0.370203
1932.000000	0.369052
1931.000000	0.366490
1930.000000	0.364015
1929.000000	0.363187
1928.000000	0.360704
1927.000000	0.359130
1926.000000	0.355415
1925.000000	0.353193
1924.000000	0.350951
1923.000000	0.347081
1922.000000	0.345118
1921.000000	0.341174
1920.000000	0.339353
1919.000000	0.335409
1918.000000	0.332055
1917.000000	0.327373
1916.000000	0.324771
1915.000000	0.318839
1914.000000	0.315660
1913.000000	0.310811
1912.000000	0.307556
1911.000000	0.304102
1910.000000	0.299169
1909.000000	0.296106
1908.000000	0.290250
1907.000000	0.285212
1906.000000	0.280960
1905.000000	0.275850
1904.000000	0.270505
1903.000000	0.265846
1902.000000	0.260471
1901.000000	0.255090
1900.000000	0.250615
1899.000000	0.245832
1898.000000	0.240188
1897.000000	0.236165
1896.000000	0.230983
1895.000000	0.226777
1894.000000	0.222318
1893.000000	0.217557
1892.000000	0.213142
1891.000000	0.209157
1890.000000	0.204633
1889.000000	0.200488
1888.000000	0.196577
1887.000000	0.193801
1886.000000	0.189968
1885.000000	0.185820
1884.000000	0.182779
1883.000000	0.179428
1882.000000	0.176779
1881.000000	0.173571
1880.000000	0.170695
1879.000000	0.168461
1878.000000	0.165482
1877.000000	0.163132
1876.000000	0.160927
1875.000000	0.158360
1874.000000	0.156371
1873.000000	0.154495
1872.000000	0.153018
1871.000000	0.151231
1870.000000	0.149436
1869.000000	0.147711
1868.000000	0.146539
1867.000000	0.145650
1866.000000	0.144492
1865.000000	0.143907
1864.000000	0.143323
1863.000000	0.142287
1862.000000	0.141621
1861.000000	0.141073
1860.000000	0.140728
1859.000000	0.140199
1858.000000	0.139535
1857.000000	0.139330
1856.000000	0.139186
1855.000000	0.138569
1854.000000	0.138364
1853.000000	0.138298
1852.000000	0.138205
1851.000000	0.138135
1850.000000	0.138278
1849.000000	0.138063
1848.000000	0.137827
1847.000000	0.137903
1846.000000	0.138091
1845.000000	0.138305
1844.000000	0.138335
1843.000000	0.138593
1842.000000	0.138916
1841.000000	0.138790
1840.000000	0.139072
1839.000000	0.139521
1838.000000	0.139408
1837.000000	0.139637
1836.000000	0.140245
1835.000000	0.140740
1834.000000	0.140917
1833.000000	0.141295
1832.000000	0.141632
1831.000000	0.141829
1830.000000	0.142290
1829.000000	0.142820
1828.000000	0.143352
1827.000000	0.143609
1826.000000	0.143700
1825.000000	0.143823
1824.000000	0.143991
1823.000000	0.144502
1822.000000	0.145087
1821.000000	0.145483
1820.000000	0.145727
1819.000000	0.146070
1818.000000	0.146403
1817.000000	0.146916
1816.000000	0.147068
1815.000000	0.147298
1814.000000	0.147614
1813.000000	0.147890
1812.000000	0.148230
1811.000000	0.148489
1810.000000	0.148901
1809.000000	0.149291
1808.000000	0.149547
1807.000000	0.149826
1806.000000	0.150135
1805.000000	0.150444
1804.000000	0.150810
1803.000000	0.150969
1802.000000	0.151190
1801.000000	0.151721
1800.000000	0.151992
1799.000000	0.152209
1798.000000	0.152619
1797.000000	0.152828
1796.000000	0.153127
1795.000000	0.153446
1794.000000	0.153437
1793.000000	0.153769
1792.000000	0.154051
1791.000000	0.154213
1790.000000	0.154492
1789.000000	0.154658
1788.000000	0.154736
1787.000000	0.154955
1786.000000	0.155290
1785.000000	0.155461
1784.000000	0.155735
1783.000000	0.156038
1782.000000	0.156362
1781.000000	0.156775
1780.000000	0.157022
1779.000000	0.157001
1778.000000	0.157372
1777.000000	0.157873
1776.000000	0.158429
1775.000000	0.158923
1774.000000	0.159008
1773.000000	0.159353
1772.000000	0.159860
1771.000000	0.160393
1770.000000	0.160824
1769.000000	0.161128
1768.000000	0.161523
1767.000000	0.161885
1766.000000	0.162337
1765.000000	0.162543
1764.000000	0.162935
1763.000000	0.163573
1762.000000	0.164113
1761.000000	0.164206
1760.000000	0.164610
1759.000000	0.165173
1758.000000	0.165609
1757.000000	0.165894
1756.000000	0.166280
1755.000000	0.166613
1754.000000	0.167062
1753.000000	0.167798
1752.000000	0.168036
1751.000000	0.168234
1750.000000	0.168868
1749.000000	0.169222
1748.000000	0.169809
1747.000000	0.170834
1746.000000	0.171495
1745.000000	0.172057
1744.000000	0.172447
1743.000000	0.173207
1742.000000	0.173572
1741.000000	0.174088
1740.000000	0.174218
1739.000000	0.174658
1738.000000	0.174976
1737.000000	0.175219
1736.000000	0.175458
1735.000000	0.175590
1734.000000	0.175640
1733.000000	0.176291
1732.000000	0.176117
1731.000000	0.176119
1730.000000	0.175992
1729.000000	0.175830
1728.000000	0.175573
1727.000000	0.175100
1726.000000	0.174781
1725.000000	0.174255
1724.000000	0.173857
1723.000000	0.173301
1722.000000	0.172384
1721.000000	0.171795
1720.000000	0.171095
1719.000000	0.170260
1718.000000	0.169628
1717.000000	0.168975
1716.000000	0.168326
1715.000000	0.167754
1714.000000	0.166998
1713.000000	0.166125
1712.000000	0.165672
1711.000000	0.165037
1710.000000	0.164733
1709.000000	0.164220
1708.000000	0.163850
1707.000000	0.163250
1706.000000	0.163076
1705.000000	0.162691
1704.000000	0.162622
1703.000000	0.162639
1702.000000	0.162415
1701.000000	0.162144
1700.000000	0.162295
1699.000000	0.162056
1698.000000	0.161649
1697.000000	0.161709
1696.000000	0.161248
1695.000000	0.161389
1694.000000	0.161018
1693.000000	0.160756
1692.000000	0.160489
1691.000000	0.159818
1690.000000	0.159617
1689.000000	0.158902
1688.000000	0.158219
1687.000000	0.157673
1686.000000	0.156751
1685.000000	0.156132
1684.000000	0.155072
1683.000000	0.154203
1682.000000	0.153052
1681.000000	0.151919
1680.000000	0.150839
1679.000000	0.149796
1678.000000	0.148787
1677.000000	0.147513
1676.000000	0.146322
1675.000000	0.145164
1674.000000	0.144145
1673.000000	0.143156
1672.000000	0.141939
1671.000000	0.140820
1670.000000	0.139897
1669.000000	0.138558
1668.000000	0.137627
1667.000000	0.136920
1666.000000	0.136353
1665.000000	0.135604
1664.000000	0.134890
1663.000000	0.134337
1662.000000	0.134016
1661.000000	0.133384
1660.000000	0.133141
1659.000000	0.132824
1658.000000	0.132462
1657.000000	0.132074
1656.000000	0.131919
1655.000000	0.131956
1654.000000	0.131437
1653.000000	0.131517
1652.000000	0.131330
1651.000000	0.131669
1650.000000	0.131529
1649.000000	0.131563
1648.000000	0.131670
1647.000000	0.131742
1646.000000	0.131861
1645.000000	0.132005
1644.000000	0.132246
1643.000000	0.132436
1642.000000	0.132616
1641.000000	0.132982
1640.000000	0.132954
1639.000000	0.133183
1638.000000	0.133526
1637.000000	0.133791
1636.000000	0.134092
1635.000000	0.134247
1634.000000	0.134585
1633.000000	0.135028
1632.000000	0.135355
1631.000000	0.135695
1630.000000	0.135886
1629.000000	0.136425
1628.000000	0.136737
1627.000000	0.137087
1626.000000	0.137520
1625.000000	0.137774
1624.000000	0.138133
1623.000000	0.138631
1622.000000	0.139045
1621.000000	0.139616
1620.000000	0.139809
1619.000000	0.140184
1618.000000	0.140796
1617.000000	0.141170
1616.000000	0.141539
1615.000000	0.142031
1614.000000	0.142578
1613.000000	0.143047
1612.000000	0.143523
1611.000000	0.144046
1610.000000	0.144603
1609.000000	0.144997
1608.000000	0.145447
1607.000000	0.145956
1606.000000	0.146518
1605.000000	0.147038
1604.000000	0.147632
1603.000000	0.148133
1602.000000	0.148586
1601.000000	0.149133
1600.000000	0.149653
1599.000000	0.150116
1598.000000	0.150630
1597.000000	0.151157
1596.000000	0.151683
1595.000000	0.152101
1594.000000	0.152523
1593.000000	0.152873
1592.000000	0.153356
1591.000000	0.153850
1590.000000	0.154245
1589.000000	0.154810
1588.000000	0.155257
1587.000000	0.155639
1586.000000	0.156077
1585.000000	0.156422
1584.000000	0.156870
1583.000000	0.157227
1582.000000	0.157697
1581.000000	0.158086
1580.000000	0.158326
1579.000000	0.158697
1578.000000	0.159074
1577.000000	0.159704
1576.000000	0.160234
1575.000000	0.160447
1574.000000	0.160775
1573.000000	0.161124
1572.000000	0.161719
1571.000000	0.162214
1570.000000	0.162544
1569.000000	0.162763
1568.000000	0.163137
1567.000000	0.163504
1566.000000	0.163886
1565.000000	0.164160
1564.000000	0.164471
1563.000000	0.164688
1562.000000	0.164973
1561.000000	0.165396
1560.000000	0.165559
1559.000000	0.165778
1558.000000	0.166016
1557.000000	0.166217
1556.000000	0.166526
1555.000000	0.166785
1554.000000	0.166921
1553.000000	0.167158
1552.000000	0.167670
1551.000000	0.167871
1550.000000	0.168155
1549.000000	0.168589
1548.000000	0.169060
1547.000000	0.169472
1546.000000	0.169802
1545.000000	0.170319
1544.000000	0.171054
1543.000000	0.171646
1542.000000	0.172162
1541.000000	0.172807
1540.000000	0.173630
1539.000000	0.174307
1538.000000	0.174968
1537.000000	0.175696
1536.000000	0.176452
1535.000000	0.177009
1534.000000	0.177853
1533.000000	0.178480
1532.000000	0.179069
1531.000000	0.179792
1530.000000	0.180627
1529.000000	0.181272
1528.000000	0.181862
1527.000000	0.182572
1526.000000	0.183223
1525.000000	0.183675
1524.000000	0.184090
1523.000000	0.184684
1522.000000	0.185180
1521.000000	0.185708
1520.000000	0.186055
1519.000000	0.186494
1518.000000	0.186800
1517.000000	0.187038
1516.000000	0.187327
1515.000000	0.187597
1514.000000	0.188053
1513.000000	0.188335
1512.000000	0.188513
1511.000000	0.188785
1510.000000	0.188965
1509.000000	0.189323
1508.000000	0.189340
1507.000000	0.189762
1506.000000	0.189830
1505.000000	0.190166
1504.000000	0.190178
1503.000000	0.190278
1502.000000	0.190544
1501.000000	0.190649
1500.000000	0.190741
1499.000000	0.190750
1498.000000	0.190828
1497.000000	0.190994
1496.000000	0.191056
1495.000000	0.191101
1494.000000	0.191063
1493.000000	0.191014
1492.000000	0.191142
1491.000000	0.190971
1490.000000	0.190952
1489.000000	0.190813
1488.000000	0.190650
1487.000000	0.190652
1486.000000	0.190393
1485.000000	0.190334
1484.000000	0.190075
1483.000000	0.189924
1482.000000	0.189876
1481.000000	0.189453
1480.000000	0.189463
1479.000000	0.189417
1478.000000	0.189030
1477.000000	0.188921
1476.000000	0.188702
1475.000000	0.188511
1474.000000	0.188250
1473.000000	0.188209
1472.000000	0.187921
1471.000000	0.187754
1470.000000	0.187661
1469.000000	0.187553
1468.000000	0.187237
1467.000000	0.187030
1466.000000	0.187009
1465.000000	0.186762
1464.000000	0.186575
1463.000000	0.186232
1462.000000	0.186001
1461.000000	0.185735
1460.000000	0.185472
1459.000000	0.185192
1458.000000	0.184901
1457.000000	0.184657
1456.000000	0.184251
1455.000000	0.183898
1454.000000	0.183643
1453.000000	0.183051
1452.000000	0.182551
1451.000000	0.182193
1450.000000	0.181700
1449.000000	0.181406
1448.000000	0.180803
1447.000000	0.180398
1446.000000	0.179847
1445.000000	0.179314
1444.000000	0.178642
1443.000000	0.178131
1442.000000	0.177578
1441.000000	0.176848
1440.000000	0.176129
1439.000000	0.175584
1438.000000	0.174830
1437.000000	0.174029
1436.000000	0.173204
1435.000000	0.172448
1434.000000	0.171776
1433.000000	0.171007
1432.000000	0.170119
1431.000000	0.169202
1430.000000	0.168127
1429.000000	0.167174
1428.000000	0.166274
1427.000000	0.165272
1426.000000	0.164188
1425.000000	0.163131
1424.000000	0.161919
1423.000000	0.160801
1422.000000	0.159531
1421.000000	0.158272
1420.000000	0.156982
1419.000000	0.155702
1418.000000	0.154299
1417.000000	0.152969
1416.000000	0.151606
1415.000000	0.150186
1414.000000	0.148800
1413.000000	0.147326
1412.000000	0.145938
1411.000000	0.144512
1410.000000	0.143106
1409.000000	0.141640
1408.000000	0.140116
1407.000000	0.138690
1406.000000	0.137387
1405.000000	0.135904
1404.000000	0.134582
1403.000000	0.133237
1402.000000	0.131864
1401.000000	0.130638
1400.000000	0.129378
1399.000000	0.128117
1398.000000	0.126822
1397.000000	0.125599
1396.000000	0.124484
1395.000000	0.123420
1394.000000	0.122305
1393.000000	0.121236
1392.000000	0.120183
1391.000000	0.119200
1390.000000	0.118281
1389.000000	0.117376
1388.000000	0.116519
1387.000000	0.115807
1386.000000	0.114958
1385.000000	0.114206
1384.000000	0.113546
1383.000000	0.112931
1382.000000	0.112397
1381.000000	0.111807
1380.000000	0.111139
1379.000000	0.110656
1378.000000	0.110224
1377.000000	0.109763
1376.000000	0.109372
1375.000000	0.109005
1374.000000	0.108624
1373.000000	0.108172
1372.000000	0.107851
1371.000000	0.107592
1370.000000	0.107278
1369.000000	0.107019
1368.000000	0.106704
1367.000000	0.106381
1366.000000	0.106100
1365.000000	0.105905
1364.000000	0.105655
1363.000000	0.105380
1362.000000	0.105205
1361.000000	0.104910
1360.000000	0.104586
1359.000000	0.104380
1358.000000	0.104130
1357.000000	0.103831
1356.000000	0.103615
1355.000000	0.103301
1354.000000	0.102999
1353.000000	0.102777
1352.000000	0.102552
1351.000000	0.102327
1350.000000	0.102070
1349.000000	0.101728
1348.000000	0.101420
1347.000000	0.101278
1346.000000	0.101167
1345.000000	0.100916
1344.000000	0.100525
1343.000000	0.100258
1342.000000	0.099794
1341.000000	0.099408
1340.000000	0.099124
1339.000000	0.099060
1338.000000	0.098894
1337.000000	0.098746
1336.000000	0.098597
1335.000000	0.098327
1334.000000	0.098265
1333.000000	0.098050
1332.000000	0.097960
1331.000000	0.097743
1330.000000	0.097507
1329.000000	0.097453
1328.000000	0.097354
1327.000000	0.097099
1326.000000	0.097070
1325.000000	0.096942
1324.000000	0.096922
1323.000000	0.096764
1322.000000	0.096728
1321.000000	0.096695
1320.000000	0.096659
1319.000000	0.096604
1318.000000	0.096439
1317.000000	0.096568
1316.000000	0.096462
1315.000000	0.096259
1314.000000	0.096360
1313.000000	0.096223
1312.000000	0.096216
1311.000000	0.096201
1310.000000	0.096288
1309.000000	0.095995
1308.000000	0.096038
1307.000000	0.096161
1306.000000	0.096166
1305.000000	0.096011
1304.000000	0.095910
1303.000000	0.096105
1302.000000	0.096027
1301.000000	0.096076
1300.000000	0.096193
1299.000000	0.096072
1298.000000	0.096075
1297.000000	0.096162
1296.000000	0.096220
1295.000000	0.096266
1294.000000	0.096355
1293.000000	0.096367
1292.000000	0.096444
1291.000000	0.096576
1290.000000	0.096710
1289.000000	0.096587
1288.000000	0.096748
1287.000000	0.097049
1286.000000	0.097092
1285.000000	0.096986
1284.000000	0.097115
1283.000000	0.097132
1282.000000	0.097273
1281.000000	0.097385
1280.000000	0.097418
1279.000000	0.097585
1278.000000	0.097716
1277.000000	0.097600
1276.000000	0.097641
1275.000000	0.097877
1274.000000	0.097935
1273.000000	0.097923
1272.000000	0.098019
1271.000000	0.098022
1270.000000	0.098177
1269.000000	0.098125
1268.000000	0.098131
1267.000000	0.098047
1266.000000	0.098327
1265.000000	0.098326
1264.000000	0.098350
1263.000000	0.098380
1262.000000	0.098434
1261.000000	0.098177
1260.000000	0.098273
1259.000000	0.098337
1258.000000	0.098499
1257.000000	0.098574
1256.000000	0.098621
1255.000000	0.098465
1254.000000	0.098490
1253.000000	0.098452
1252.000000	0.098589
1251.000000	0.098779
1250.000000	0.098793
1249.000000	0.098846
1248.000000	0.099062
1247.000000	0.099068
1246.000000	0.099176
1245.000000	0.099241
1244.000000	0.099468
1243.000000	0.099615
1242.000000	0.099891
1241.000000	0.100008
1240.000000	0.100086
1239.000000	0.100219
1238.000000	0.100352
1237.000000	0.100802
1236.000000	0.100891
1235.000000	0.101013
1234.000000	0.101373
1233.000000	0.101444
1232.000000	0.101650
1231.000000	0.101791
1230.000000	0.101974
1229.000000	0.102275
1228.000000	0.102366
1227.000000	0.102572
1226.000000	0.102691
1225.000000	0.102902
1224.000000	0.103158
1223.000000	0.103333
1222.000000	0.103628
1221.000000	0.103748
1220.000000	0.104073
1219.000000	0.104180
1218.000000	0.104438
1217.000000	0.104550
1216.000000	0.104728
1215.000000	0.105024
1214.000000	0.105155
1213.000000	0.105445
1212.000000	0.105719
1211.000000	0.105980
1210.000000	0.106232
1209.000000	0.106455
1208.000000	0.106712
1207.000000	0.106923
1206.000000	0.107245
1205.000000	0.107489
1204.000000	0.107735
1203.000000	0.108001
1202.000000	0.108253
1201.000000	0.108459
1200.000000	0.108861
1199.000000	0.109021
1198.000000	0.109212
1197.000000	0.109488
1196.000000	0.109706
1195.000000	0.109884
1194.000000	0.110164
1193.000000	0.110303
1192.000000	0.110467
1191.000000	0.110632
1190.000000	0.110853
1189.000000	0.111120
1188.000000	0.111133
1187.000000	0.111192
1186.000000	0.111366
1185.000000	0.111441
1184.000000	0.111506
1183.000000	0.111501
1182.000000	0.111406
1181.000000	0.111318
1180.000000	0.111309
1179.000000	0.111278
1178.000000	0.111158
1177.000000	0.111003
1176.000000	0.110810
1175.000000	0.110706
1174.000000	0.110498
1173.000000	0.110185
1172.000000	0.109978
1171.000000	0.109853
1170.000000	0.109543
1169.000000	0.109197
1168.000000	0.108916
1167.000000	0.108587
1166.000000	0.108345
1165.000000	0.108046
1164.000000	0.107709
1163.000000	0.107397
1162.000000	0.107062
1161.000000	0.106789
1160.000000	0.106519
1159.000000	0.106225
1158.000000	0.105830
1157.000000	0.105574
1156.000000	0.105357
1155.000000	0.104961
1154.000000	0.104658
1153.000000	0.104429
1152.000000	0.104165
1151.000000	0.103951
1150.000000	0.103807
1149.000000	0.103532
1148.000000	0.103245
1147.000000	0.103114
1146.000000	0.102931
1145.000000	0.102726
1144.000000	0.102513
1143.000000	0.102331
1142.000000	0.102199
1141.000000	0.102097
1140.000000	0.101983
1139.000000	0.101984
1138.000000	0.101880
1137.000000	0.101657
1136.000000	0.101422
1135.000000	0.101217
1134.000000	0.101087
1133.000000	0.101059
1132.000000	0.100987
1131.000000	0.100872
1130.000000	0.100706
1129.000000	0.100651
1128.000000	0.100696
1127.000000	0.100686
1126.000000	0.100701
1125.000000	0.100556
1124.000000	0.100550
1123.000000	0.100570
1122.000000	0.100536
1121.000000	0.100544
1120.000000	0.100589
1119.000000	0.100649
1118.000000	0.100715
1117.000000	0.100749
1116.000000	0.100868
1115.000000	0.100980
1114.000000	0.101010
1113.000000	0.100977
1112.000000	0.101074
1111.000000	0.101146
1110.000000	0.101155
1109.000000	0.101212
1108.000000	0.101304
1107.000000	0.101400
1106.000000	0.101434
1105.000000	0.101519
1104.000000	0.101505
1103.000000	0.101546
1102.000000	0.101915
1101.000000	0.101930
1100.000000	0.101879
1099.000000	0.102018
1098.000000	0.102180
1097.000000	0.102133
1096.000000	0.102205
1095.000000	0.102326
1094.000000	0.102390
1093.000000	0.102560
1092.000000	0.102635
1091.000000	0.102771
1090.000000	0.102816
1089.000000	0.102884
1088.000000	0.102917
1087.000000	0.102972
1086.000000	0.103087
1085.000000	0.103246
1084.000000	0.103335
1083.000000	0.103586
1082.000000	0.103697
1081.000000	0.103662
1080.000000	0.103830
1079.000000	0.103944
1078.000000	0.103986
1077.000000	0.104102
1076.000000	0.104270
1075.000000	0.104291
1074.000000	0.104474
1073.000000	0.104596
1072.000000	0.104676
1071.000000	0.104873
1070.000000	0.105038
1069.000000	0.105183
1068.000000	0.105289
1067.000000	0.105348
1066.000000	0.105541
1065.000000	0.105540
1064.000000	0.105706
1063.000000	0.105692
1062.000000	0.105895
1061.000000	0.106081
1060.000000	0.106287
1059.000000	0.106315
1058.000000	0.106471
1057.000000	0.106702
1056.000000	0.106684
1055.000000	0.106934
1054.000000	0.107057
1053.000000	0.107194
1052.000000	0.107333
1051.000000	0.107377
1050.000000	0.107614
1049.000000	0.107732
1048.000000	0.107796
1047.000000	0.107895
1046.000000	0.108190
1045.000000	0.108166
1044.000000	0.108187
1043.000000	0.108359
1042.000000	0.108660
1041.000000	0.108617
1040.000000	0.108911
1039.000000	0.108972
1038.000000	0.109073
1037.000000	0.109039
1036.000000	0.109271
1035.000000	0.109414
1034.000000	0.109512
1033.000000	0.109638
1032.000000	0.109736
1031.000000	0.109891
1030.000000	0.110004
1029.000000	0.110039
1028.000000	0.110216
1027.000000	0.110162
1026.000000	0.110325
1025.000000	0.110435
1024.000000	0.110590
1023.000000	0.110617
1022.000000	0.110823
1021.000000	0.110792
1020.000000	0.110974
1019.000000	0.111053
1018.000000	0.111254
1017.000000	0.111272
1016.000000	0.111416
1015.000000	0.111383
1014.000000	0.111560
1013.000000	0.111665
1012.000000	0.111742
1011.000000	0.111824
1010.000000	0.111924
1009.000000	0.112052
1008.000000	0.112159
1007.000000	0.112232
1006.000000	0.112233
1005.000000	0.112241
1004.000000	0.112423
1003.000000	0.112515
1002.000000	0.112695
1001.000000	0.112713
1000.000000	0.112743
999.000000	0.112883
998.000000	0.113012
997.000000	0.113097
996.000000	0.113073
995.000000	0.113227
994.000000	0.113268
993.000000	0.113265
992.000000	0.113397
991.000000	0.113578
990.000000	0.113711
989.000000	0.113801
988.000000	0.113860
987.000000	0.113914
986.000000	0.113990
985.000000	0.114178
984.000000	0.114171
983.000000	0.114259
982.000000	0.114270
981.000000	0.114381
980.000000	0.114490
979.000000	0.114686
978.000000	0.114710
977.000000	0.114629
976.000000	0.114752
975.000000	0.114810
974.000000	0.114951
973.000000	0.115015
972.000000	0.115101
971.000000	0.115125
970.000000	0.115279
969.000000	0.115397
968.000000	0.115372
967.000000	0.115330
966.000000	0.115480
965.000000	0.115554
964.000000	0.115588
963.000000	0.115701
962.000000	0.115657
961.000000	0.115730
960.000000	0.115730
959.000000	0.115836
958.000000	0.115862
957.000000	0.115972
956.000000	0.116138
955.000000	0.116165
954.000000	0.116271
953.000000	0.116359
952.000000	0.116364
951.000000	0.116449
950.000000	0.116588
949.000000	0.116719
948.000000	0.116792
947.000000	0.116728
946.000000	0.116677
945.000000	0.116922
944.000000	0.116965
943.000000	0.116968
942.000000	0.117075
941.000000	0.117331
940.000000	0.117438
939.000000	0.117443
938.000000	0.117636
937.000000	0.117797
936.000000	0.117852
935.000000	0.118013
934.000000	0.118294
933.000000	0.118355
932.000000	0.118466
931.000000	0.118527
930.000000	0.118573
929.000000	0.118846
928.000000	0.119079
927.000000	0.119143
926.000000	0.119206
925.000000	0.119243
924.000000	0.119358
923.000000	0.119515
922.000000	0.119741
921.000000	0.119722
920.000000	0.119961
919.000000	0.120273
918.000000	0.120527
917.000000	0.120400
916.000000	0.120666
915.000000	0.120714
914.000000	0.120865
913.000000	0.121040
912.000000	0.121351
911.000000	0.121693
910.000000	0.121719
909.000000	0.121618
908.000000	0.121437
907.000000	0.121695
906.000000	0.121964
905.000000	0.122243
904.000000	0.122272
903.000000	0.122239
902.000000	0.122283
901.000000	0.122256
900.000000	0.122568
899.000000	0.122910
898.000000	0.123079
897.000000	0.123098
896.000000	0.122914
895.000000	0.122843
894.000000	0.123302
893.000000	0.123233
892.000000	0.123288
891.000000	0.123640
890.000000	0.123716
889.000000	0.124011
888.000000	0.123940
887.000000	0.124115
886.000000	0.124445
885.000000	0.124126
884.000000	0.124612
883.000000	0.124730
882.000000	0.124696
881.000000	0.124924
880.000000	0.124746
879.000000	0.124796
878.000000	0.124950
877.000000	0.125076
876.000000	0.126228
875.000000	0.126229
874.000000	0.126597
873.000000	0.126400
872.000000	0.126155
871.000000	0.126132
870.000000	0.126066
869.000000	0.125694
868.000000	0.126854
867.000000	0.126518
866.000000	0.126781
865.000000	0.127234
864.000000	0.127339
863.000000	0.127074
862.000000	0.127946
861.000000	0.127835
860.000000	0.127478
859.000000	0.126862
858.000000	0.125508
857.000000	0.125461
856.000000	0.126061
855.000000	0.128073
854.000000	0.129968
853.000000	0.125539
852.000000	0.127582
851.000000	0.129204
850.000000	0.129467
849.000000	0.130974
848.000000	0.130647
847.000000	0.130089
846.000000	0.130755
845.000000	0.129696
844.000000	0.131355
843.000000	0.131421
842.000000	0.129888
841.000000	0.131711
840.000000	0.131215
839.000000	0.132231
838.000000	0.131578
837.000000	0.131967
836.000000	0.132034
835.000000	0.131309
834.000000	0.132977
833.000000	0.133669
832.000000	0.132331
831.000000	0.133500
830.000000	0.131969
829.000000	0.134120
828.000000	0.133771
827.000000	0.134193
826.000000	0.133760
825.000000	0.134382
824.000000	0.133852
823.000000	0.134711
822.000000	0.134981
821.000000	0.135299
820.000000	0.135550
819.000000	0.134478
818.000000	0.137013
817.000000	0.137396
816.000000	0.136601
815.000000	0.136494
814.000000	0.136079
813.000000	0.136271
812.000000	0.138012
811.000000	0.137360
810.000000	0.138647
809.000000	0.138456
808.000000	0.138334
807.000000	0.138023
806.000000	0.139024
805.000000	0.139198
804.000000	0.139274
803.000000	0.140650
802.000000	0.139505
801.000000	0.140350
800.000000	0.140183
799.000000	0.140620
798.000000	0.140940
797.000000	0.140905
796.000000	0.142025
795.000000	0.141725
794.000000	0.141373
793.000000	0.142043
792.000000	0.142026
791.000000	0.142805
790.000000	0.143524
789.000000	0.143574
788.000000	0.144568
787.000000	0.144330
786.000000	0.144310
785.000000	0.144412
784.000000	0.145481
783.000000	0.144663
782.000000	0.144899
781.000000	0.145562
780.000000	0.146152
779.000000	0.146597
778.000000	0.146435
777.000000	0.145917
776.000000	0.146787
775.000000	0.147466
774.000000	0.148171
773.000000	0.148561
772.000000	0.148233
771.000000	0.148313
770.000000	0.149114
769.000000	0.149922
768.000000	0.150259
767.000000	0.149548
766.000000	0.150381
765.000000	0.150882
764.000000	0.150606
763.000000	0.151222
762.000000	0.151943
761.000000	0.152066
760.000000	0.152120
759.000000	0.151770
758.000000	0.152906
757.000000	0.154187
756.000000	0.154005
755.000000	0.154052
754.000000	0.154662
753.000000	0.154610
752.000000	0.155212
751.000000	0.155535
750.000000	0.155802
749.000000	0.156524
748.000000	0.156805
747.000000	0.157595
746.000000	0.158173
745.000000	0.158083
744.000000	0.158466
743.000000	0.158230
742.000000	0.159071
741.000000	0.159441
740.000000	0.159821
739.000000	0.160051
738.000000	0.160634
737.000000	0.161018
736.000000	0.161378
735.000000	0.161829
734.000000	0.162030
733.000000	0.162594
732.000000	0.162870
731.000000	0.163106
730.000000	0.163559
729.000000	0.164468
728.000000	0.165229
727.000000	0.165745
726.000000	0.166076
725.000000	0.166453
724.000000	0.166518
723.000000	0.166813
722.000000	0.167584
721.000000	0.168311
720.000000	0.168725
719.000000	0.168973
718.000000	0.169707
717.000000	0.170275
716.000000	0.170955
715.000000	0.171425
714.000000	0.171102
713.000000	0.171757
712.000000	0.172558
711.000000	0.172842
710.000000	0.173731
709.000000	0.174087
708.000000	0.174637
707.000000	0.175299
706.000000	0.175711
705.000000	0.176436
704.000000	0.176765
703.000000	0.177328
702.000000	0.178127
701.000000	0.178602
700.000000	0.178791
699.000000	0.179304
698.000000	0.180207
697.000000	0.180682
696.000000	0.181418
695.000000	0.182347
694.000000	0.182715
693.000000	0.183460
692.000000	0.184184
691.000000	0.184175
690.000000	0.184675
689.000000	0.185316
688.000000	0.186033
687.000000	0.186716
686.000000	0.188079
685.000000	0.188575
684.000000	0.188685
683.000000	0.189587
682.000000	0.190589
681.000000	0.191326
680.000000	0.191757
679.000000	0.192188
678.000000	0.192789
677.000000	0.193364
676.000000	0.194090
675.000000	0.194541
674.000000	0.195276
673.000000	0.196278
672.000000	0.196938
671.000000	0.197329
670.000000	0.198317
669.000000	0.199043
668.000000	0.199965
667.000000	0.200758
666.000000	0.201376
665.000000	0.201911
664.000000	0.202633
663.000000	0.203242
662.000000	0.204187
661.000000	0.205131
660.000000	0.205616
659.000000	0.205941
658.000000	0.206713
657.000000	0.207523
656.000000	0.208190
655.000000	0.209060
654.000000	0.209985
653.000000	0.210618
652.000000	0.211539
651.000000	0.212087
650.000000	0.212958
649.000000	0.213685
648.000000	0.214374
647.000000	0.215146
646.000000	0.216402
645.000000	0.217069
644.000000	0.217619
643.000000	0.218306
642.000000	0.218978
641.000000	0.220123
640.000000	0.220696
639.000000	0.221231
638.000000	0.222769
637.000000	0.223610
636.000000	0.224356
635.000000	0.225087
634.000000	0.225727
633.000000	0.226529
632.000000	0.227576
631.000000	0.228532
630.000000	0.229558
629.000000	0.230020
628.000000	0.231119
627.000000	0.231969
626.000000	0.232885
625.000000	0.233661
624.000000	0.234679
623.000000	0.235613
622.000000	0.236634
621.000000	0.237429
620.000000	0.238180
619.000000	0.239158
618.000000	0.240126
617.000000	0.241377
616.000000	0.242123
615.000000	0.243363
614.000000	0.243951
613.000000	0.245297
612.000000	0.246172
611.000000	0.246683
610.000000	0.248410
609.000000	0.249097
608.000000	0.250209
607.000000	0.251043
606.000000	0.252027
605.000000	0.252833
604.000000	0.253846
603.000000	0.254647
602.000000	0.256150
601.000000	0.257328
600.000000	0.258172
599.000000	0.259327
598.000000	0.260550
597.000000	0.261657
596.000000	0.262629
595.000000	0.263613
594.000000	0.265069
593.000000	0.266048
592.000000	0.267009
591.000000	0.267710
590.000000	0.269363
589.000000	0.270742
588.000000	0.271448
587.000000	0.273270
586.000000	0.274148
585.000000	0.274858
584.000000	0.276180
583.000000	0.277122
582.000000	0.278621
581.000000	0.279855
580.000000	0.281142
579.000000	0.282521
578.000000	0.283617
577.000000	0.284897
576.000000	0.286643
575.000000	0.287225
574.000000	0.289216
573.000000	0.289465
572.000000	0.291604
571.000000	0.292886
570.000000	0.293870
569.000000	0.295532
568.000000	0.296826
567.000000	0.297993
566.000000	0.299523
565.000000	0.300870
564.000000	0.302577
563.000000	0.303551
562.000000	0.305228
561.000000	0.306515
560.000000	0.308093
559.000000	0.309251
558.000000	0.310534
557.000000	0.312405
556.000000	0.313351
555.000000	0.315243
554.000000	0.316865
553.000000	0.317897
552.000000	0.319646
551.000000	0.321213
550.000000	0.323005
549.000000	0.324512
548.000000	0.326352
547.000000	0.327497
546.000000	0.329039
545.000000	0.330553
544.000000	0.332022
543.000000	0.333791
542.000000	0.335444
541.000000	0.337264
540.000000	0.338969
539.000000	0.340528
538.000000	0.342254
537.000000	0.343520
536.000000	0.345590
535.000000	0.347461
534.000000	0.349019
533.000000	0.350839
532.000000	0.352231
531.000000	0.353988
530.000000	0.356183
529.000000	0.357826
528.000000	0.359593
527.000000	0.361359
526.000000	0.363410
525.000000	0.365081
524.000000	0.366959
523.000000	0.368950
522.000000	0.370763
521.000000	0.372558
520.000000	0.374399
519.000000	0.376437
518.000000	0.378546
517.000000	0.379987
516.000000	0.382087
515.000000	0.384058
514.000000	0.385841
513.000000	0.387861
512.000000	0.390133
511.000000	0.391936
510.000000	0.393644
509.000000	0.395754
508.000000	0.397535
507.000000	0.399718
506.000000	0.401772
505.000000	0.403976
504.000000	0.406112
503.000000	0.408009
502.000000	0.409930
501.000000	0.412119
500.000000	0.413964
499.000000	0.415894
498.000000	0.418463
497.000000	0.420534
496.000000	0.422283
495.000000	0.424831
494.000000	0.427179
493.000000	0.429390
492.000000	0.431732
491.000000	0.433903
490.000000	0.435955
489.000000	0.438071
488.000000	0.440532
487.000000	0.442459
486.000000	0.444738
485.000000	0.447206
484.000000	0.448900
483.000000	0.450881
482.000000	0.453381
481.000000	0.455578
480.000000	0.457421
479.000000	0.459533
478.000000	0.461939
477.000000	0.464532
476.000000	0.467059
475.000000	0.469124
474.000000	0.471422
473.000000	0.473605
472.000000	0.475649
471.000000	0.478235
470.000000	0.480404
469.000000	0.482811
468.000000	0.485302
467.000000	0.487435
466.000000	0.490174
465.000000	0.492565
464.000000	0.495099
463.000000	0.497683
462.000000	0.500273
461.000000	0.502655
460.000000	0.504844
459.000000	0.507604
458.000000	0.510434
457.000000	0.513011
456.000000	0.515973
455.000000	0.518764
454.000000	0.521543
453.000000	0.524315
452.000000	0.527079
451.000000	0.530310
450.000000	0.533312
449.000000	0.536039
448.000000	0.539196
447.000000	0.542525
446.000000	0.545431
445.000000	0.548298
444.000000	0.551356
443.000000	0.554300
442.000000	0.557845
441.000000	0.560873
440.000000	0.563918
439.000000	0.567197
438.000000	0.570334
437.000000	0.573862
436.000000	0.577842
435.000000	0.581212
434.000000	0.583990
433.000000	0.587382
432.000000	0.591182
431.000000	0.595088
430.000000	0.598303
429.000000	0.601549
428.000000	0.605543
427.000000	0.609395
426.000000	0.613181
425.000000	0.616333
424.000000	0.619925
423.000000	0.624242
422.000000	0.627525
421.000000	0.631072
420.000000	0.635248
419.000000	0.638989
418.000000	0.642686
417.000000	0.647235
416.000000	0.651613
415.000000	0.655403
414.000000	0.659273
413.000000	0.663640
412.000000	0.667282
411.000000	0.671597
410.000000	0.675090
409.000000	0.679759
408.000000	0.683841
407.000000	0.687734
406.000000	0.692641
405.000000	0.697269
404.000000	0.701627
403.000000	0.705952
402.000000	0.709919
401.000000	0.714281
400.000000	0.718755
399.000000	0.723626
398.000000	0.727869
397.000000	0.732355
396.000000	0.736348
395.000000	0.740800
394.000000	0.746672
393.000000	0.749872
392.000000	0.754184
391.000000	0.759425
390.000000	0.764261
389.000000	0.768136
388.000000	0.773273
387.000000	0.777239
386.000000	0.783120
385.000000	0.787332
384.000000	0.792180
383.000000	0.797209
382.000000	0.802077
381.000000	0.807128
380.000000	0.811033
379.000000	0.816072
378.000000	0.821785
377.000000	0.826948
376.000000	0.830760
375.000000	0.837010
374.000000	0.841466
373.000000	0.845072
372.000000	0.852039
371.000000	0.856475
370.000000	0.859267
369.000000	0.864198
368.000000	0.870086
367.000000	0.873539
366.000000	0.877550
365.000000	0.880747
364.000000	0.886274
363.000000	0.890989
362.000000	0.897132
361.000000	0.900911
360.000000	0.906254
359.000000	0.911099
358.000000	0.913852
357.000000	0.917827
356.000000	0.924171
355.000000	0.928439
354.000000	0.934197
353.000000	0.936413
352.000000	0.941814
351.000000	0.943899
350.000000	0.948987
349.000000	0.951789
348.000000	0.957786
347.000000	0.960078
346.000000	0.963782
345.000000	0.973735
344.000000	0.974674
343.000000	0.979070
342.000000	0.986816
341.000000	0.990759
340.000000	0.991883
339.000000	0.997255
338.000000	1.002641
337.000000	1.007072
336.000000	1.010913
335.000000	1.014759
334.000000	1.017914
333.000000	1.025170
332.000000	1.025329
331.000000	1.031841
330.000000	1.040475
329.000000	1.038096
328.000000	1.039797
327.000000	1.050552
326.000000	1.049028
325.000000	1.054996
324.000000	1.054192
323.000000	1.061452
322.000000	1.063510
321.000000	1.064288
320.000000	1.068230
319.000000	1.072117
318.000000	1.081074
317.000000	1.081347
316.000000	1.080467
315.000000	1.086367
314.000000	1.090602
313.000000	1.090050
312.000000	1.095731
311.000000	1.096984
310.000000	1.099985
309.000000	1.098076
308.000000	1.099941
307.000000	1.102409
306.000000	1.104661
305.000000	1.105902
304.000000	1.104081
303.000000	1.106123
302.000000	1.108087
301.000000	1.111438
300.000000	1.114088
299.000000	1.113043
298.000000	1.111962
297.000000	1.114000
296.000000	1.119870
295.000000	1.118522
294.000000	1.117007
293.000000	1.119913
292.000000	1.122777
291.000000	1.126080
290.000000	1.125272
289.000000	1.126678
288.000000	1.129816
287.000000	1.131179
286.000000	1.128393
285.000000	1.128682
284.000000	1.129298
283.000000	1.127658
282.000000	1.126560
281.000000	1.130289
280.000000	1.127140
279.000000	1.124978
278.000000	1.124847
277.000000	1.120189
276.000000	1.119824
275.000000	1.118895
274.000000	1.116638
273.000000	1.115901
272.000000	1.113831
271.000000	1.113864
270.000000	1.109158
269.000000	1.104637
268.000000	1.100816
267.000000	1.101390
266.000000	1.098768
265.000000	1.094178
264.000000	1.089864
263.000000	1.085672
262.000000	1.082804
261.000000	1.079481
260.000000	1.076799
259.000000	1.071893
258.000000	1.068476
257.000000	1.065930
256.000000	1.061202
255.000000	1.056419
254.000000	1.050816
253.000000	1.048728
252.000000	1.044866
251.000000	1.037901
250.000000	1.034873
249.000000	1.034080
248.000000	1.030193
247.000000	1.027059
246.000000	1.024774
245.000000	1.022742
244.000000	1.021870
243.000000	1.020395
242.000000	1.021499
241.000000	1.022497
240.000000	1.022379
239.000000	1.023625
238.000000	1.027301
237.000000	1.028960
236.000000	1.030311
235.000000	1.032817
234.000000	1.035041
233.000000	1.039304
232.000000	1.045047
231.000000	1.047720
230.000000	1.050252
229.000000	1.055182
228.000000	1.056811
227.000000	1.058865
226.000000	1.058944
225.000000	1.060584
224.000000	1.062728
223.000000	1.066874
222.000000	1.070698
221.000000	1.070070
220.000000	1.069049
219.000000	1.070218
218.000000	1.069590
217.000000	1.070355
216.000000	1.072178
215.000000	1.068571
214.000000	1.062424
213.000000	1.059451
212.000000	1.060937
211.000000	1.057787
210.000000	1.048385
209.000000	1.045261
208.000000	1.045288
207.000000	1.037907
206.000000	1.023175
205.000000	1.012843
204.000000	1.006678
203.000000	0.998056
202.000000	0.985353
201.000000	0.974394
200.000000	0.958792
