PE IR       SUBTECH     SPECTRUM    ASCII       PEDS        4.00        
   -1
Peau011_1.ASC
23/06/14
14:49:44.00
23/06/14
15:01:00.00
uco
Sample 011 By uco Date Wednesday, June 14 2023
450.000000
#HDR
-1
-1
#GR
cm-1
A
1.0
0.0
4000.000000
-1.000000
3551
8
0.027988
0.003085
#DATA
4000.000000	0.003346
3999.000000	0.003352
3998.000000	0.003359
3997.000000	0.003365
3996.000000	0.003367
3995.000000	0.003364
3994.000000	0.003360
3993.000000	0.003359
3992.000000	0.003361
3991.000000	0.003364
3990.000000	0.003364
3989.000000	0.003362
3988.000000	0.003362
3987.000000	0.003363
3986.000000	0.003363
3985.000000	0.003362
3984.000000	0.003362
3983.000000	0.003364
3982.000000	0.003372
3981.000000	0.003381
3980.000000	0.003384
3979.000000	0.003381
3978.000000	0.003374
3977.000000	0.003370
3976.000000	0.003373
3975.000000	0.003382
3974.000000	0.003392
3973.000000	0.003401
3972.000000	0.003412
3971.000000	0.003424
3970.000000	0.003435
3969.000000	0.003441
3968.000000	0.003439
3967.000000	0.003429
3966.000000	0.003417
3965.000000	0.003406
3964.000000	0.003397
3963.000000	0.003390
3962.000000	0.003384
3961.000000	0.003380
3960.000000	0.003381
3959.000000	0.003391
3958.000000	0.003407
3957.000000	0.003423
3956.000000	0.003434
3955.000000	0.003438
3954.000000	0.003439
3953.000000	0.003442
3952.000000	0.003445
3951.000000	0.003449
3950.000000	0.003451
3949.000000	0.003453
3948.000000	0.003455
3947.000000	0.003457
3946.000000	0.003457
3945.000000	0.003456
3944.000000	0.003456
3943.000000	0.003456
3942.000000	0.003450
3941.000000	0.003439
3940.000000	0.003424
3939.000000	0.003412
3938.000000	0.003405
3937.000000	0.003402
3936.000000	0.003404
3935.000000	0.003411
3934.000000	0.003420
3933.000000	0.003430
3932.000000	0.003438
3931.000000	0.003448
3930.000000	0.003463
3929.000000	0.003479
3928.000000	0.003486
3927.000000	0.003477
3926.000000	0.003457
3925.000000	0.003435
3924.000000	0.003422
3923.000000	0.003424
3922.000000	0.003442
3921.000000	0.003470
3920.000000	0.003499
3919.000000	0.003519
3918.000000	0.003526
3917.000000	0.003521
3916.000000	0.003512
3915.000000	0.003506
3914.000000	0.003508
3913.000000	0.003514
3912.000000	0.003518
3911.000000	0.003517
3910.000000	0.003513
3909.000000	0.003509
3908.000000	0.003510
3907.000000	0.003517
3906.000000	0.003531
3905.000000	0.003547
3904.000000	0.003555
3903.000000	0.003548
3902.000000	0.003526
3901.000000	0.003501
3900.000000	0.003483
3899.000000	0.003479
3898.000000	0.003486
3897.000000	0.003496
3896.000000	0.003504
3895.000000	0.003505
3894.000000	0.003501
3893.000000	0.003500
3892.000000	0.003500
3891.000000	0.003495
3890.000000	0.003486
3889.000000	0.003479
3888.000000	0.003474
3887.000000	0.003473
3886.000000	0.003468
3885.000000	0.003455
3884.000000	0.003443
3883.000000	0.003446
3882.000000	0.003473
3881.000000	0.003517
3880.000000	0.003558
3879.000000	0.003581
3878.000000	0.003589
3877.000000	0.003582
3876.000000	0.003567
3875.000000	0.003548
3874.000000	0.003536
3873.000000	0.003537
3872.000000	0.003556
3871.000000	0.003581
3870.000000	0.003584
3869.000000	0.003549
3868.000000	0.003492
3867.000000	0.003444
3866.000000	0.003423
3865.000000	0.003430
3864.000000	0.003452
3863.000000	0.003478
3862.000000	0.003502
3861.000000	0.003522
3860.000000	0.003536
3859.000000	0.003542
3858.000000	0.003538
3857.000000	0.003523
3856.000000	0.003502
3855.000000	0.003484
3854.000000	0.003473
3853.000000	0.003455
3852.000000	0.003438
3851.000000	0.003442
3850.000000	0.003466
3849.000000	0.003501
3848.000000	0.003531
3847.000000	0.003543
3846.000000	0.003534
3845.000000	0.003512
3844.000000	0.003493
3843.000000	0.003481
3842.000000	0.003472
3841.000000	0.003463
3840.000000	0.003464
3839.000000	0.003479
3838.000000	0.003501
3837.000000	0.003512
3836.000000	0.003505
3835.000000	0.003485
3834.000000	0.003464
3833.000000	0.003454
3832.000000	0.003458
3831.000000	0.003473
3830.000000	0.003491
3829.000000	0.003510
3828.000000	0.003529
3827.000000	0.003550
3826.000000	0.003568
3825.000000	0.003577
3824.000000	0.003577
3823.000000	0.003573
3822.000000	0.003572
3821.000000	0.003567
3820.000000	0.003552
3819.000000	0.003536
3818.000000	0.003529
3817.000000	0.003533
3816.000000	0.003530
3815.000000	0.003515
3814.000000	0.003501
3813.000000	0.003501
3812.000000	0.003518
3811.000000	0.003543
3810.000000	0.003565
3809.000000	0.003581
3808.000000	0.003589
3807.000000	0.003579
3806.000000	0.003544
3805.000000	0.003494
3804.000000	0.003447
3803.000000	0.003423
3802.000000	0.003424
3801.000000	0.003430
3800.000000	0.003434
3799.000000	0.003446
3798.000000	0.003469
3797.000000	0.003499
3796.000000	0.003524
3795.000000	0.003534
3794.000000	0.003533
3793.000000	0.003530
3792.000000	0.003531
3791.000000	0.003539
3790.000000	0.003548
3789.000000	0.003551
3788.000000	0.003545
3787.000000	0.003534
3786.000000	0.003526
3785.000000	0.003524
3784.000000	0.003525
3783.000000	0.003524
3782.000000	0.003518
3781.000000	0.003511
3780.000000	0.003507
3779.000000	0.003507
3778.000000	0.003511
3777.000000	0.003523
3776.000000	0.003544
3775.000000	0.003565
3774.000000	0.003574
3773.000000	0.003571
3772.000000	0.003566
3771.000000	0.003570
3770.000000	0.003583
3769.000000	0.003588
3768.000000	0.003575
3767.000000	0.003548
3766.000000	0.003515
3765.000000	0.003487
3764.000000	0.003474
3763.000000	0.003479
3762.000000	0.003500
3761.000000	0.003528
3760.000000	0.003550
3759.000000	0.003555
3758.000000	0.003543
3757.000000	0.003519
3756.000000	0.003490
3755.000000	0.003460
3754.000000	0.003438
3753.000000	0.003435
3752.000000	0.003456
3751.000000	0.003480
3750.000000	0.003488
3749.000000	0.003480
3748.000000	0.003468
3747.000000	0.003462
3746.000000	0.003468
3745.000000	0.003467
3744.000000	0.003437
3743.000000	0.003397
3742.000000	0.003375
3741.000000	0.003370
3740.000000	0.003366
3739.000000	0.003352
3738.000000	0.003328
3737.000000	0.003314
3736.000000	0.003322
3735.000000	0.003342
3734.000000	0.003360
3733.000000	0.003373
3732.000000	0.003384
3731.000000	0.003399
3730.000000	0.003420
3729.000000	0.003451
3728.000000	0.003486
3727.000000	0.003512
3726.000000	0.003517
3725.000000	0.003502
3724.000000	0.003482
3723.000000	0.003468
3722.000000	0.003465
3721.000000	0.003472
3720.000000	0.003486
3719.000000	0.003497
3718.000000	0.003497
3717.000000	0.003486
3716.000000	0.003469
3715.000000	0.003456
3714.000000	0.003454
3713.000000	0.003466
3712.000000	0.003488
3711.000000	0.003504
3710.000000	0.003501
3709.000000	0.003480
3708.000000	0.003452
3707.000000	0.003430
3706.000000	0.003422
3705.000000	0.003425
3704.000000	0.003434
3703.000000	0.003448
3702.000000	0.003463
3701.000000	0.003470
3700.000000	0.003462
3699.000000	0.003439
3698.000000	0.003411
3697.000000	0.003394
3696.000000	0.003393
3695.000000	0.003406
3694.000000	0.003417
3693.000000	0.003409
3692.000000	0.003379
3691.000000	0.003346
3690.000000	0.003332
3689.000000	0.003338
3688.000000	0.003346
3687.000000	0.003346
3686.000000	0.003337
3685.000000	0.003330
3684.000000	0.003331
3683.000000	0.003345
3682.000000	0.003365
3681.000000	0.003383
3680.000000	0.003391
3679.000000	0.003385
3678.000000	0.003375
3677.000000	0.003384
3676.000000	0.003413
3675.000000	0.003432
3674.000000	0.003430
3673.000000	0.003424
3672.000000	0.003432
3671.000000	0.003459
3670.000000	0.003483
3669.000000	0.003480
3668.000000	0.003460
3667.000000	0.003442
3666.000000	0.003434
3665.000000	0.003434
3664.000000	0.003440
3663.000000	0.003452
3662.000000	0.003473
3661.000000	0.003500
3660.000000	0.003521
3659.000000	0.003529
3658.000000	0.003531
3657.000000	0.003538
3656.000000	0.003555
3655.000000	0.003577
3654.000000	0.003595
3653.000000	0.003601
3652.000000	0.003599
3651.000000	0.003609
3650.000000	0.003641
3649.000000	0.003674
3648.000000	0.003684
3647.000000	0.003676
3646.000000	0.003669
3645.000000	0.003679
3644.000000	0.003708
3643.000000	0.003744
3642.000000	0.003776
3641.000000	0.003800
3640.000000	0.003823
3639.000000	0.003850
3638.000000	0.003876
3637.000000	0.003891
3636.000000	0.003891
3635.000000	0.003883
3634.000000	0.003874
3633.000000	0.003865
3632.000000	0.003853
3631.000000	0.003850
3630.000000	0.003875
3629.000000	0.003929
3628.000000	0.003983
3627.000000	0.004020
3626.000000	0.004039
3625.000000	0.004044
3624.000000	0.004037
3623.000000	0.004017
3622.000000	0.003985
3621.000000	0.003950
3620.000000	0.003929
3619.000000	0.003937
3618.000000	0.003976
3617.000000	0.004034
3616.000000	0.004091
3615.000000	0.004133
3614.000000	0.004154
3613.000000	0.004156
3612.000000	0.004149
3611.000000	0.004149
3610.000000	0.004163
3609.000000	0.004189
3608.000000	0.004213
3607.000000	0.004225
3606.000000	0.004226
3605.000000	0.004225
3604.000000	0.004224
3603.000000	0.004227
3602.000000	0.004236
3601.000000	0.004258
3600.000000	0.004291
3599.000000	0.004327
3598.000000	0.004357
3597.000000	0.004381
3596.000000	0.004404
3595.000000	0.004435
3594.000000	0.004471
3593.000000	0.004505
3592.000000	0.004534
3591.000000	0.004554
3590.000000	0.004570
3589.000000	0.004590
3588.000000	0.004613
3587.000000	0.004627
3586.000000	0.004625
3585.000000	0.004619
3584.000000	0.004628
3583.000000	0.004661
3582.000000	0.004712
3581.000000	0.004764
3580.000000	0.004802
3579.000000	0.004826
3578.000000	0.004843
3577.000000	0.004861
3576.000000	0.004880
3575.000000	0.004894
3574.000000	0.004902
3573.000000	0.004906
3572.000000	0.004909
3571.000000	0.004914
3570.000000	0.004921
3569.000000	0.004938
3568.000000	0.004973
3567.000000	0.005021
3566.000000	0.005068
3565.000000	0.005105
3564.000000	0.005135
3563.000000	0.005163
3562.000000	0.005192
3561.000000	0.005223
3560.000000	0.005246
3559.000000	0.005255
3558.000000	0.005251
3557.000000	0.005249
3556.000000	0.005264
3555.000000	0.005304
3554.000000	0.005358
3553.000000	0.005411
3552.000000	0.005447
3551.000000	0.005463
3550.000000	0.005468
3549.000000	0.005473
3548.000000	0.005489
3547.000000	0.005518
3546.000000	0.005555
3545.000000	0.005593
3544.000000	0.005629
3543.000000	0.005662
3542.000000	0.005692
3541.000000	0.005716
3540.000000	0.005735
3539.000000	0.005748
3538.000000	0.005763
3537.000000	0.005783
3536.000000	0.005808
3535.000000	0.005836
3534.000000	0.005862
3533.000000	0.005881
3532.000000	0.005892
3531.000000	0.005895
3530.000000	0.005898
3529.000000	0.005909
3528.000000	0.005928
3527.000000	0.005951
3526.000000	0.005976
3525.000000	0.006008
3524.000000	0.006054
3523.000000	0.006112
3522.000000	0.006171
3521.000000	0.006220
3520.000000	0.006256
3519.000000	0.006279
3518.000000	0.006289
3517.000000	0.006287
3516.000000	0.006276
3515.000000	0.006269
3514.000000	0.006278
3513.000000	0.006305
3512.000000	0.006345
3511.000000	0.006390
3510.000000	0.006431
3509.000000	0.006463
3508.000000	0.006481
3507.000000	0.006492
3506.000000	0.006502
3505.000000	0.006520
3504.000000	0.006542
3503.000000	0.006560
3502.000000	0.006565
3501.000000	0.006557
3500.000000	0.006548
3499.000000	0.006548
3498.000000	0.006569
3497.000000	0.006610
3496.000000	0.006664
3495.000000	0.006719
3494.000000	0.006772
3493.000000	0.006820
3492.000000	0.006858
3491.000000	0.006884
3490.000000	0.006895
3489.000000	0.006902
3488.000000	0.006916
3487.000000	0.006944
3486.000000	0.006978
3485.000000	0.007007
3484.000000	0.007022
3483.000000	0.007027
3482.000000	0.007033
3481.000000	0.007047
3480.000000	0.007074
3479.000000	0.007109
3478.000000	0.007144
3477.000000	0.007172
3476.000000	0.007187
3475.000000	0.007194
3474.000000	0.007203
3473.000000	0.007219
3472.000000	0.007239
3471.000000	0.007258
3470.000000	0.007273
3469.000000	0.007287
3468.000000	0.007304
3467.000000	0.007324
3466.000000	0.007345
3465.000000	0.007358
3464.000000	0.007359
3463.000000	0.007352
3462.000000	0.007345
3461.000000	0.007347
3460.000000	0.007361
3459.000000	0.007387
3458.000000	0.007423
3457.000000	0.007467
3456.000000	0.007513
3455.000000	0.007555
3454.000000	0.007588
3453.000000	0.007607
3452.000000	0.007611
3451.000000	0.007603
3450.000000	0.007588
3449.000000	0.007572
3448.000000	0.007563
3447.000000	0.007572
3446.000000	0.007604
3445.000000	0.007652
3444.000000	0.007704
3443.000000	0.007746
3442.000000	0.007778
3441.000000	0.007802
3440.000000	0.007823
3439.000000	0.007842
3438.000000	0.007859
3437.000000	0.007875
3436.000000	0.007887
3435.000000	0.007895
3434.000000	0.007897
3433.000000	0.007899
3432.000000	0.007906
3431.000000	0.007920
3430.000000	0.007939
3429.000000	0.007959
3428.000000	0.007982
3427.000000	0.008009
3426.000000	0.008044
3425.000000	0.008084
3424.000000	0.008122
3423.000000	0.008152
3422.000000	0.008178
3421.000000	0.008201
3420.000000	0.008218
3419.000000	0.008224
3418.000000	0.008224
3417.000000	0.008231
3416.000000	0.008249
3415.000000	0.008270
3414.000000	0.008287
3413.000000	0.008300
3412.000000	0.008318
3411.000000	0.008345
3410.000000	0.008379
3409.000000	0.008415
3408.000000	0.008446
3407.000000	0.008468
3406.000000	0.008479
3405.000000	0.008480
3404.000000	0.008475
3403.000000	0.008469
3402.000000	0.008474
3401.000000	0.008501
3400.000000	0.008553
3399.000000	0.008618
3398.000000	0.008679
3397.000000	0.008724
3396.000000	0.008754
3395.000000	0.008777
3394.000000	0.008799
3393.000000	0.008822
3392.000000	0.008844
3391.000000	0.008861
3390.000000	0.008873
3389.000000	0.008882
3388.000000	0.008890
3387.000000	0.008899
3386.000000	0.008912
3385.000000	0.008929
3384.000000	0.008946
3383.000000	0.008961
3382.000000	0.008973
3381.000000	0.008986
3380.000000	0.009004
3379.000000	0.009025
3378.000000	0.009047
3377.000000	0.009070
3376.000000	0.009095
3375.000000	0.009123
3374.000000	0.009155
3373.000000	0.009188
3372.000000	0.009220
3371.000000	0.009251
3370.000000	0.009280
3369.000000	0.009307
3368.000000	0.009335
3367.000000	0.009367
3366.000000	0.009402
3365.000000	0.009440
3364.000000	0.009480
3363.000000	0.009530
3362.000000	0.009591
3361.000000	0.009659
3360.000000	0.009721
3359.000000	0.009767
3358.000000	0.009796
3357.000000	0.009818
3356.000000	0.009841
3355.000000	0.009869
3354.000000	0.009903
3353.000000	0.009940
3352.000000	0.009978
3351.000000	0.010014
3350.000000	0.010044
3349.000000	0.010074
3348.000000	0.010110
3347.000000	0.010160
3346.000000	0.010222
3345.000000	0.010287
3344.000000	0.010341
3343.000000	0.010378
3342.000000	0.010402
3341.000000	0.010422
3340.000000	0.010451
3339.000000	0.010496
3338.000000	0.010558
3337.000000	0.010627
3336.000000	0.010687
3335.000000	0.010730
3334.000000	0.010755
3333.000000	0.010772
3332.000000	0.010790
3331.000000	0.010813
3330.000000	0.010842
3329.000000	0.010879
3328.000000	0.010921
3327.000000	0.010963
3326.000000	0.011000
3325.000000	0.011030
3324.000000	0.011060
3323.000000	0.011096
3322.000000	0.011140
3321.000000	0.011186
3320.000000	0.011224
3319.000000	0.011249
3318.000000	0.011266
3317.000000	0.011284
3316.000000	0.011306
3315.000000	0.011328
3314.000000	0.011344
3313.000000	0.011354
3312.000000	0.011360
3311.000000	0.011367
3310.000000	0.011376
3309.000000	0.011387
3308.000000	0.011402
3307.000000	0.011422
3306.000000	0.011446
3305.000000	0.011473
3304.000000	0.011503
3303.000000	0.011538
3302.000000	0.011578
3301.000000	0.011618
3300.000000	0.011650
3299.000000	0.011666
3298.000000	0.011667
3297.000000	0.011657
3296.000000	0.011645
3295.000000	0.011637
3294.000000	0.011635
3293.000000	0.011640
3292.000000	0.011646
3291.000000	0.011654
3290.000000	0.011668
3289.000000	0.011690
3288.000000	0.011717
3287.000000	0.011736
3286.000000	0.011740
3285.000000	0.011728
3284.000000	0.011709
3283.000000	0.011697
3282.000000	0.011696
3281.000000	0.011704
3280.000000	0.011714
3279.000000	0.011714
3278.000000	0.011703
3277.000000	0.011683
3276.000000	0.011664
3275.000000	0.011653
3274.000000	0.011652
3273.000000	0.011654
3272.000000	0.011648
3271.000000	0.011631
3270.000000	0.011607
3269.000000	0.011585
3268.000000	0.011567
3267.000000	0.011554
3266.000000	0.011544
3265.000000	0.011538
3264.000000	0.011530
3263.000000	0.011514
3262.000000	0.011489
3261.000000	0.011462
3260.000000	0.011439
3259.000000	0.011419
3258.000000	0.011399
3257.000000	0.011379
3256.000000	0.011365
3255.000000	0.011357
3254.000000	0.011353
3253.000000	0.011347
3252.000000	0.011332
3251.000000	0.011310
3250.000000	0.011282
3249.000000	0.011251
3248.000000	0.011220
3247.000000	0.011195
3246.000000	0.011179
3245.000000	0.011171
3244.000000	0.011165
3243.000000	0.011152
3242.000000	0.011132
3241.000000	0.011108
3240.000000	0.011083
3239.000000	0.011054
3238.000000	0.011020
3237.000000	0.010983
3236.000000	0.010954
3235.000000	0.010936
3234.000000	0.010928
3233.000000	0.010922
3232.000000	0.010912
3231.000000	0.010895
3230.000000	0.010869
3229.000000	0.010842
3228.000000	0.010823
3227.000000	0.010813
3226.000000	0.010809
3225.000000	0.010808
3224.000000	0.010806
3223.000000	0.010801
3222.000000	0.010790
3221.000000	0.010769
3220.000000	0.010743
3219.000000	0.010718
3218.000000	0.010701
3217.000000	0.010693
3216.000000	0.010692
3215.000000	0.010695
3214.000000	0.010700
3213.000000	0.010704
3212.000000	0.010701
3211.000000	0.010691
3210.000000	0.010674
3209.000000	0.010653
3208.000000	0.010632
3207.000000	0.010618
3206.000000	0.010611
3205.000000	0.010605
3204.000000	0.010593
3203.000000	0.010569
3202.000000	0.010536
3201.000000	0.010502
3200.000000	0.010471
3199.000000	0.010444
3198.000000	0.010420
3197.000000	0.010398
3196.000000	0.010381
3195.000000	0.010371
3194.000000	0.010365
3193.000000	0.010356
3192.000000	0.010337
3191.000000	0.010314
3190.000000	0.010297
3189.000000	0.010287
3188.000000	0.010276
3187.000000	0.010247
3186.000000	0.010194
3185.000000	0.010131
3184.000000	0.010078
3183.000000	0.010050
3182.000000	0.010043
3181.000000	0.010043
3180.000000	0.010036
3179.000000	0.010018
3178.000000	0.009988
3177.000000	0.009951
3176.000000	0.009910
3175.000000	0.009870
3174.000000	0.009835
3173.000000	0.009808
3172.000000	0.009788
3171.000000	0.009772
3170.000000	0.009756
3169.000000	0.009734
3168.000000	0.009706
3167.000000	0.009677
3166.000000	0.009649
3165.000000	0.009622
3164.000000	0.009595
3163.000000	0.009565
3162.000000	0.009531
3161.000000	0.009489
3160.000000	0.009440
3159.000000	0.009391
3158.000000	0.009353
3157.000000	0.009334
3156.000000	0.009332
3155.000000	0.009335
3154.000000	0.009329
3153.000000	0.009307
3152.000000	0.009273
3151.000000	0.009241
3150.000000	0.009218
3149.000000	0.009200
3148.000000	0.009176
3147.000000	0.009142
3146.000000	0.009104
3145.000000	0.009069
3144.000000	0.009034
3143.000000	0.008997
3142.000000	0.008957
3141.000000	0.008923
3140.000000	0.008904
3139.000000	0.008901
3138.000000	0.008908
3137.000000	0.008915
3136.000000	0.008914
3135.000000	0.008909
3134.000000	0.008905
3133.000000	0.008904
3132.000000	0.008898
3131.000000	0.008880
3130.000000	0.008853
3129.000000	0.008828
3128.000000	0.008810
3127.000000	0.008795
3126.000000	0.008776
3125.000000	0.008750
3124.000000	0.008721
3123.000000	0.008695
3122.000000	0.008675
3121.000000	0.008659
3120.000000	0.008645
3119.000000	0.008628
3118.000000	0.008608
3117.000000	0.008593
3116.000000	0.008592
3115.000000	0.008609
3114.000000	0.008638
3113.000000	0.008666
3112.000000	0.008682
3111.000000	0.008684
3110.000000	0.008681
3109.000000	0.008682
3108.000000	0.008690
3107.000000	0.008707
3106.000000	0.008727
3105.000000	0.008747
3104.000000	0.008768
3103.000000	0.008789
3102.000000	0.008805
3101.000000	0.008809
3100.000000	0.008799
3099.000000	0.008784
3098.000000	0.008777
3097.000000	0.008785
3096.000000	0.008806
3095.000000	0.008830
3094.000000	0.008849
3093.000000	0.008863
3092.000000	0.008874
3091.000000	0.008885
3090.000000	0.008899
3089.000000	0.008909
3088.000000	0.008910
3087.000000	0.008901
3086.000000	0.008892
3085.000000	0.008892
3084.000000	0.008903
3083.000000	0.008921
3082.000000	0.008942
3081.000000	0.008958
3080.000000	0.008964
3079.000000	0.008962
3078.000000	0.008962
3077.000000	0.008972
3076.000000	0.008990
3075.000000	0.009008
3074.000000	0.009026
3073.000000	0.009050
3072.000000	0.009080
3071.000000	0.009106
3070.000000	0.009113
3069.000000	0.009099
3068.000000	0.009071
3067.000000	0.009043
3066.000000	0.009020
3065.000000	0.009010
3064.000000	0.009012
3063.000000	0.009025
3062.000000	0.009042
3061.000000	0.009050
3060.000000	0.009036
3059.000000	0.009002
3058.000000	0.008960
3057.000000	0.008926
3056.000000	0.008908
3055.000000	0.008902
3054.000000	0.008896
3053.000000	0.008884
3052.000000	0.008862
3051.000000	0.008831
3050.000000	0.008795
3049.000000	0.008760
3048.000000	0.008731
3047.000000	0.008711
3046.000000	0.008698
3045.000000	0.008690
3044.000000	0.008679
3043.000000	0.008658
3042.000000	0.008624
3041.000000	0.008581
3040.000000	0.008543
3039.000000	0.008520
3038.000000	0.008506
3037.000000	0.008484
3036.000000	0.008449
3035.000000	0.008409
3034.000000	0.008378
3033.000000	0.008358
3032.000000	0.008337
3031.000000	0.008307
3030.000000	0.008271
3029.000000	0.008240
3028.000000	0.008214
3027.000000	0.008191
3026.000000	0.008166
3025.000000	0.008141
3024.000000	0.008118
3023.000000	0.008098
3022.000000	0.008078
3021.000000	0.008053
3020.000000	0.008020
3019.000000	0.007984
3018.000000	0.007949
3017.000000	0.007916
3016.000000	0.007885
3015.000000	0.007856
3014.000000	0.007832
3013.000000	0.007814
3012.000000	0.007799
3011.000000	0.007788
3010.000000	0.007786
3009.000000	0.007795
3008.000000	0.007806
3007.000000	0.007809
3006.000000	0.007800
3005.000000	0.007782
3004.000000	0.007763
3003.000000	0.007753
3002.000000	0.007759
3001.000000	0.007779
3000.000000	0.007794
2999.000000	0.007791
2998.000000	0.007773
2997.000000	0.007762
2996.000000	0.007778
2995.000000	0.007825
2994.000000	0.007890
2993.000000	0.007949
2992.000000	0.007986
2991.000000	0.008003
2990.000000	0.008022
2989.000000	0.008069
2988.000000	0.008146
2987.000000	0.008236
2986.000000	0.008321
2985.000000	0.008396
2984.000000	0.008466
2983.000000	0.008541
2982.000000	0.008628
2981.000000	0.008733
2980.000000	0.008853
2979.000000	0.008979
2978.000000	0.009103
2977.000000	0.009225
2976.000000	0.009351
2975.000000	0.009491
2974.000000	0.009649
2973.000000	0.009819
2972.000000	0.009988
2971.000000	0.010149
2970.000000	0.010311
2969.000000	0.010490
2968.000000	0.010695
2967.000000	0.010914
2966.000000	0.011126
2965.000000	0.011321
2964.000000	0.011499
2963.000000	0.011663
2962.000000	0.011807
2961.000000	0.011926
2960.000000	0.012018
2959.000000	0.012090
2958.000000	0.012143
2957.000000	0.012178
2956.000000	0.012190
2955.000000	0.012178
2954.000000	0.012146
2953.000000	0.012099
2952.000000	0.012043
2951.000000	0.011987
2950.000000	0.011943
2949.000000	0.011921
2948.000000	0.011926
2947.000000	0.011954
2946.000000	0.012003
2945.000000	0.012078
2944.000000	0.012186
2943.000000	0.012330
2942.000000	0.012503
2941.000000	0.012695
2940.000000	0.012896
2939.000000	0.013106
2938.000000	0.013333
2937.000000	0.013580
2936.000000	0.013836
2935.000000	0.014082
2934.000000	0.014305
2933.000000	0.014510
2932.000000	0.014700
2931.000000	0.014872
2930.000000	0.015019
2929.000000	0.015138
2928.000000	0.015234
2927.000000	0.015310
2926.000000	0.015370
2925.000000	0.015410
2924.000000	0.015425
2923.000000	0.015405
2922.000000	0.015349
2921.000000	0.015263
2920.000000	0.015148
2919.000000	0.014998
2918.000000	0.014808
2917.000000	0.014583
2916.000000	0.014336
2915.000000	0.014080
2914.000000	0.013823
2913.000000	0.013566
2912.000000	0.013311
2911.000000	0.013063
2910.000000	0.012829
2909.000000	0.012615
2908.000000	0.012422
2907.000000	0.012242
2906.000000	0.012063
2905.000000	0.011876
2904.000000	0.011683
2903.000000	0.011493
2902.000000	0.011320
2901.000000	0.011171
2900.000000	0.011043
2899.000000	0.010923
2898.000000	0.010799
2897.000000	0.010669
2896.000000	0.010541
2895.000000	0.010422
2894.000000	0.010314
2893.000000	0.010215
2892.000000	0.010121
2891.000000	0.010032
2890.000000	0.009954
2889.000000	0.009894
2888.000000	0.009852
2887.000000	0.009819
2886.000000	0.009786
2885.000000	0.009756
2884.000000	0.009744
2883.000000	0.009762
2882.000000	0.009812
2881.000000	0.009886
2880.000000	0.009970
2879.000000	0.010054
2878.000000	0.010137
2877.000000	0.010223
2876.000000	0.010316
2875.000000	0.010409
2874.000000	0.010493
2873.000000	0.010556
2872.000000	0.010593
2871.000000	0.010606
2870.000000	0.010604
2869.000000	0.010601
2868.000000	0.010610
2867.000000	0.010636
2866.000000	0.010682
2865.000000	0.010752
2864.000000	0.010846
2863.000000	0.010960
2862.000000	0.011086
2861.000000	0.011215
2860.000000	0.011349
2859.000000	0.011493
2858.000000	0.011640
2857.000000	0.011773
2856.000000	0.011869
2855.000000	0.011917
2854.000000	0.011920
2853.000000	0.011884
2852.000000	0.011806
2851.000000	0.011677
2850.000000	0.011493
2849.000000	0.011263
2848.000000	0.010999
2847.000000	0.010713
2846.000000	0.010416
2845.000000	0.010126
2844.000000	0.009861
2843.000000	0.009632
2842.000000	0.009435
2841.000000	0.009256
2840.000000	0.009088
2839.000000	0.008934
2838.000000	0.008801
2837.000000	0.008690
2836.000000	0.008593
2835.000000	0.008503
2834.000000	0.008418
2833.000000	0.008344
2832.000000	0.008283
2831.000000	0.008234
2830.000000	0.008190
2829.000000	0.008149
2828.000000	0.008109
2827.000000	0.008072
2826.000000	0.008041
2825.000000	0.008015
2824.000000	0.007992
2823.000000	0.007969
2822.000000	0.007947
2821.000000	0.007931
2820.000000	0.007918
2819.000000	0.007905
2818.000000	0.007885
2817.000000	0.007860
2816.000000	0.007834
2815.000000	0.007809
2814.000000	0.007789
2813.000000	0.007776
2812.000000	0.007765
2811.000000	0.007742
2810.000000	0.007703
2809.000000	0.007658
2808.000000	0.007621
2807.000000	0.007597
2806.000000	0.007581
2805.000000	0.007567
2804.000000	0.007554
2803.000000	0.007543
2802.000000	0.007531
2801.000000	0.007520
2800.000000	0.007512
2799.000000	0.007508
2798.000000	0.007503
2797.000000	0.007492
2796.000000	0.007473
2795.000000	0.007449
2794.000000	0.007421
2793.000000	0.007394
2792.000000	0.007371
2791.000000	0.007353
2790.000000	0.007337
2789.000000	0.007318
2788.000000	0.007294
2787.000000	0.007270
2786.000000	0.007250
2785.000000	0.007240
2784.000000	0.007240
2783.000000	0.007247
2782.000000	0.007253
2781.000000	0.007250
2780.000000	0.007238
2779.000000	0.007222
2778.000000	0.007212
2777.000000	0.007208
2776.000000	0.007200
2775.000000	0.007178
2774.000000	0.007146
2773.000000	0.007118
2772.000000	0.007110
2771.000000	0.007119
2770.000000	0.007130
2769.000000	0.007130
2768.000000	0.007119
2767.000000	0.007103
2766.000000	0.007089
2765.000000	0.007077
2764.000000	0.007064
2763.000000	0.007047
2762.000000	0.007034
2761.000000	0.007029
2760.000000	0.007030
2759.000000	0.007025
2758.000000	0.007010
2757.000000	0.006992
2756.000000	0.006982
2755.000000	0.006984
2754.000000	0.006989
2753.000000	0.006988
2752.000000	0.006983
2751.000000	0.006976
2750.000000	0.006969
2749.000000	0.006955
2748.000000	0.006930
2747.000000	0.006898
2746.000000	0.006876
2745.000000	0.006876
2744.000000	0.006900
2743.000000	0.006934
2742.000000	0.006961
2741.000000	0.006972
2740.000000	0.006970
2739.000000	0.006959
2738.000000	0.006943
2737.000000	0.006921
2736.000000	0.006895
2735.000000	0.006867
2734.000000	0.006842
2733.000000	0.006822
2732.000000	0.006810
2731.000000	0.006805
2730.000000	0.006806
2729.000000	0.006810
2728.000000	0.006813
2727.000000	0.006812
2726.000000	0.006807
2725.000000	0.006803
2724.000000	0.006804
2723.000000	0.006807
2722.000000	0.006809
2721.000000	0.006803
2720.000000	0.006791
2719.000000	0.006779
2718.000000	0.006772
2717.000000	0.006770
2716.000000	0.006768
2715.000000	0.006755
2714.000000	0.006729
2713.000000	0.006699
2712.000000	0.006680
2711.000000	0.006678
2710.000000	0.006687
2709.000000	0.006696
2708.000000	0.006697
2707.000000	0.006689
2706.000000	0.006673
2705.000000	0.006653
2704.000000	0.006639
2703.000000	0.006637
2702.000000	0.006642
2701.000000	0.006642
2700.000000	0.006631
2699.000000	0.006609
2698.000000	0.006585
2697.000000	0.006569
2696.000000	0.006565
2695.000000	0.006574
2694.000000	0.006590
2693.000000	0.006605
2692.000000	0.006610
2691.000000	0.006606
2690.000000	0.006601
2689.000000	0.006600
2688.000000	0.006602
2687.000000	0.006598
2686.000000	0.006588
2685.000000	0.006577
2684.000000	0.006572
2683.000000	0.006580
2682.000000	0.006597
2681.000000	0.006613
2680.000000	0.006616
2679.000000	0.006602
2678.000000	0.006579
2677.000000	0.006559
2676.000000	0.006549
2675.000000	0.006549
2674.000000	0.006555
2673.000000	0.006565
2672.000000	0.006576
2671.000000	0.006582
2670.000000	0.006578
2669.000000	0.006564
2668.000000	0.006544
2667.000000	0.006524
2666.000000	0.006509
2665.000000	0.006501
2664.000000	0.006502
2663.000000	0.006507
2662.000000	0.006513
2661.000000	0.006517
2660.000000	0.006515
2659.000000	0.006508
2658.000000	0.006498
2657.000000	0.006489
2656.000000	0.006483
2655.000000	0.006475
2654.000000	0.006456
2653.000000	0.006426
2652.000000	0.006391
2651.000000	0.006364
2650.000000	0.006354
2649.000000	0.006360
2648.000000	0.006369
2647.000000	0.006362
2646.000000	0.006338
2645.000000	0.006308
2644.000000	0.006291
2643.000000	0.006290
2642.000000	0.006296
2641.000000	0.006294
2640.000000	0.006282
2639.000000	0.006267
2638.000000	0.006255
2637.000000	0.006244
2636.000000	0.006228
2635.000000	0.006201
2634.000000	0.006164
2633.000000	0.006126
2632.000000	0.006098
2631.000000	0.006088
2630.000000	0.006090
2629.000000	0.006096
2628.000000	0.006097
2627.000000	0.006088
2626.000000	0.006070
2625.000000	0.006046
2624.000000	0.006029
2623.000000	0.006027
2622.000000	0.006040
2621.000000	0.006053
2620.000000	0.006057
2619.000000	0.006050
2618.000000	0.006035
2617.000000	0.006013
2616.000000	0.005984
2615.000000	0.005957
2614.000000	0.005945
2613.000000	0.005952
2612.000000	0.005963
2611.000000	0.005964
2610.000000	0.005952
2609.000000	0.005937
2608.000000	0.005926
2607.000000	0.005923
2606.000000	0.005924
2605.000000	0.005924
2604.000000	0.005917
2603.000000	0.005904
2602.000000	0.005900
2601.000000	0.005912
2600.000000	0.005936
2599.000000	0.005952
2598.000000	0.005950
2597.000000	0.005933
2596.000000	0.005905
2595.000000	0.005866
2594.000000	0.005816
2593.000000	0.005763
2592.000000	0.005722
2591.000000	0.005702
2590.000000	0.005706
2589.000000	0.005729
2588.000000	0.005751
2587.000000	0.005756
2586.000000	0.005740
2585.000000	0.005715
2584.000000	0.005694
2583.000000	0.005674
2582.000000	0.005645
2581.000000	0.005610
2580.000000	0.005581
2579.000000	0.005570
2578.000000	0.005578
2577.000000	0.005599
2576.000000	0.005620
2575.000000	0.005631
2574.000000	0.005629
2573.000000	0.005623
2572.000000	0.005626
2571.000000	0.005637
2570.000000	0.005642
2569.000000	0.005638
2568.000000	0.005626
2567.000000	0.005614
2566.000000	0.005601
2565.000000	0.005587
2564.000000	0.005578
2563.000000	0.005581
2562.000000	0.005591
2561.000000	0.005595
2560.000000	0.005584
2559.000000	0.005565
2558.000000	0.005552
2557.000000	0.005555
2556.000000	0.005572
2555.000000	0.005592
2554.000000	0.005601
2553.000000	0.005593
2552.000000	0.005573
2551.000000	0.005557
2550.000000	0.005553
2549.000000	0.005557
2548.000000	0.005562
2547.000000	0.005568
2546.000000	0.005578
2545.000000	0.005587
2544.000000	0.005584
2543.000000	0.005565
2542.000000	0.005541
2541.000000	0.005522
2540.000000	0.005514
2539.000000	0.005520
2538.000000	0.005543
2537.000000	0.005569
2536.000000	0.005577
2535.000000	0.005551
2534.000000	0.005498
2533.000000	0.005441
2532.000000	0.005404
2531.000000	0.005396
2530.000000	0.005420
2529.000000	0.005460
2528.000000	0.005495
2527.000000	0.005515
2526.000000	0.005530
2525.000000	0.005550
2524.000000	0.005575
2523.000000	0.005594
2522.000000	0.005608
2521.000000	0.005624
2520.000000	0.005635
2519.000000	0.005627
2518.000000	0.005597
2517.000000	0.005564
2516.000000	0.005543
2515.000000	0.005538
2514.000000	0.005543
2513.000000	0.005555
2512.000000	0.005565
2511.000000	0.005565
2510.000000	0.005551
2509.000000	0.005534
2508.000000	0.005525
2507.000000	0.005528
2506.000000	0.005536
2505.000000	0.005534
2504.000000	0.005501
2503.000000	0.005430
2502.000000	0.005349
2501.000000	0.005304
2500.000000	0.005313
2499.000000	0.005346
2498.000000	0.005369
2497.000000	0.005376
2496.000000	0.005390
2495.000000	0.005417
2494.000000	0.005438
2493.000000	0.005432
2492.000000	0.005398
2491.000000	0.005358
2490.000000	0.005333
2489.000000	0.005331
2488.000000	0.005346
2487.000000	0.005360
2486.000000	0.005362
2485.000000	0.005361
2484.000000	0.005370
2483.000000	0.005389
2482.000000	0.005398
2481.000000	0.005376
2480.000000	0.005326
2479.000000	0.005273
2478.000000	0.005238
2477.000000	0.005223
2476.000000	0.005216
2475.000000	0.005203
2474.000000	0.005183
2473.000000	0.005163
2472.000000	0.005149
2471.000000	0.005143
2470.000000	0.005149
2469.000000	0.005173
2468.000000	0.005215
2467.000000	0.005262
2466.000000	0.005293
2465.000000	0.005296
2464.000000	0.005275
2463.000000	0.005240
2462.000000	0.005199
2461.000000	0.005155
2460.000000	0.005117
2459.000000	0.005091
2458.000000	0.005084
2457.000000	0.005087
2456.000000	0.005091
2455.000000	0.005093
2454.000000	0.005097
2453.000000	0.005110
2452.000000	0.005131
2451.000000	0.005154
2450.000000	0.005177
2449.000000	0.005202
2448.000000	0.005223
2447.000000	0.005233
2446.000000	0.005225
2445.000000	0.005204
2444.000000	0.005180
2443.000000	0.005168
2442.000000	0.005176
2441.000000	0.005201
2440.000000	0.005223
2439.000000	0.005222
2438.000000	0.005192
2437.000000	0.005150
2436.000000	0.005120
2435.000000	0.005109
2434.000000	0.005102
2433.000000	0.005079
2432.000000	0.005042
2431.000000	0.005017
2430.000000	0.005023
2429.000000	0.005059
2428.000000	0.005100
2427.000000	0.005129
2426.000000	0.005144
2425.000000	0.005153
2424.000000	0.005155
2423.000000	0.005145
2422.000000	0.005128
2421.000000	0.005113
2420.000000	0.005101
2419.000000	0.005083
2418.000000	0.005059
2417.000000	0.005043
2416.000000	0.005048
2415.000000	0.005071
2414.000000	0.005094
2413.000000	0.005102
2412.000000	0.005096
2411.000000	0.005090
2410.000000	0.005097
2409.000000	0.005119
2408.000000	0.005143
2407.000000	0.005149
2406.000000	0.005131
2405.000000	0.005109
2404.000000	0.005106
2403.000000	0.005130
2402.000000	0.005160
2401.000000	0.005169
2400.000000	0.005147
2399.000000	0.005106
2398.000000	0.005067
2397.000000	0.005043
2396.000000	0.005037
2395.000000	0.005050
2394.000000	0.005074
2393.000000	0.005095
2392.000000	0.005097
2391.000000	0.005084
2390.000000	0.005076
2389.000000	0.005090
2388.000000	0.005119
2387.000000	0.005140
2386.000000	0.005133
2385.000000	0.005093
2384.000000	0.005029
2383.000000	0.004962
2382.000000	0.004911
2381.000000	0.004886
2380.000000	0.004880
2379.000000	0.004884
2378.000000	0.004902
2377.000000	0.004941
2376.000000	0.004996
2375.000000	0.005047
2374.000000	0.005074
2373.000000	0.005069
2372.000000	0.005036
2371.000000	0.005000
2370.000000	0.004989
2369.000000	0.005012
2368.000000	0.005047
2367.000000	0.005064
2366.000000	0.005053
2365.000000	0.005034
2364.000000	0.005033
2363.000000	0.005068
2362.000000	0.005127
2361.000000	0.005165
2360.000000	0.005150
2359.000000	0.005090
2358.000000	0.005025
2357.000000	0.004989
2356.000000	0.004993
2355.000000	0.005034
2354.000000	0.005084
2353.000000	0.005107
2352.000000	0.005099
2351.000000	0.005088
2350.000000	0.005093
2349.000000	0.005108
2348.000000	0.005120
2347.000000	0.005120
2346.000000	0.005128
2345.000000	0.005174
2344.000000	0.005246
2343.000000	0.005295
2342.000000	0.005286
2341.000000	0.005231
2340.000000	0.005176
2339.000000	0.005154
2338.000000	0.005163
2337.000000	0.005174
2336.000000	0.005165
2335.000000	0.005130
2334.000000	0.005078
2333.000000	0.005021
2332.000000	0.004989
2331.000000	0.004995
2330.000000	0.005036
2329.000000	0.005089
2328.000000	0.005153
2327.000000	0.005230
2326.000000	0.005312
2325.000000	0.005369
2324.000000	0.005372
2323.000000	0.005327
2322.000000	0.005274
2321.000000	0.005263
2320.000000	0.005296
2319.000000	0.005334
2318.000000	0.005336
2317.000000	0.005293
2316.000000	0.005228
2315.000000	0.005166
2314.000000	0.005134
2313.000000	0.005138
2312.000000	0.005158
2311.000000	0.005156
2310.000000	0.005112
2309.000000	0.005046
2308.000000	0.004995
2307.000000	0.004976
2306.000000	0.004979
2305.000000	0.004988
2304.000000	0.004991
2303.000000	0.004989
2302.000000	0.004994
2301.000000	0.005010
2300.000000	0.005031
2299.000000	0.005042
2298.000000	0.005044
2297.000000	0.005058
2296.000000	0.005094
2295.000000	0.005133
2294.000000	0.005149
2293.000000	0.005136
2292.000000	0.005112
2291.000000	0.005097
2290.000000	0.005104
2289.000000	0.005133
2288.000000	0.005170
2287.000000	0.005195
2286.000000	0.005200
2285.000000	0.005196
2284.000000	0.005192
2283.000000	0.005175
2282.000000	0.005126
2281.000000	0.005051
2280.000000	0.004977
2279.000000	0.004928
2278.000000	0.004916
2277.000000	0.004936
2276.000000	0.004977
2275.000000	0.005017
2274.000000	0.005040
2273.000000	0.005040
2272.000000	0.005012
2271.000000	0.004952
2270.000000	0.004874
2269.000000	0.004818
2268.000000	0.004817
2267.000000	0.004869
2266.000000	0.004948
2265.000000	0.005024
2264.000000	0.005081
2263.000000	0.005102
2262.000000	0.005089
2261.000000	0.005062
2260.000000	0.005040
2259.000000	0.005018
2258.000000	0.004979
2257.000000	0.004915
2256.000000	0.004827
2255.000000	0.004717
2254.000000	0.004606
2253.000000	0.004538
2252.000000	0.004536
2251.000000	0.004572
2250.000000	0.004596
2249.000000	0.004600
2248.000000	0.004614
2247.000000	0.004660
2246.000000	0.004730
2245.000000	0.004812
2244.000000	0.004889
2243.000000	0.004936
2242.000000	0.004927
2241.000000	0.004864
2240.000000	0.004779
2239.000000	0.004698
2238.000000	0.004637
2237.000000	0.004617
2236.000000	0.004647
2235.000000	0.004687
2234.000000	0.004660
2233.000000	0.004547
2232.000000	0.004431
2231.000000	0.004425
2230.000000	0.004554
2229.000000	0.004728
2228.000000	0.004828
2227.000000	0.004798
2226.000000	0.004675
2225.000000	0.004536
2224.000000	0.004437
2223.000000	0.004392
2222.000000	0.004390
2221.000000	0.004421
2220.000000	0.004477
2219.000000	0.004538
2218.000000	0.004580
2217.000000	0.004606
2216.000000	0.004642
2215.000000	0.004702
2214.000000	0.004760
2213.000000	0.004770
2212.000000	0.004717
2211.000000	0.004620
2210.000000	0.004510
2209.000000	0.004402
2208.000000	0.004307
2207.000000	0.004253
2206.000000	0.004264
2205.000000	0.004326
2204.000000	0.004390
2203.000000	0.004423
2202.000000	0.004440
2201.000000	0.004472
2200.000000	0.004515
2199.000000	0.004545
2198.000000	0.004564
2197.000000	0.004600
2196.000000	0.004659
2195.000000	0.004717
2194.000000	0.004768
2193.000000	0.004837
2192.000000	0.004916
2191.000000	0.004933
2190.000000	0.004823
2189.000000	0.004620
2188.000000	0.004437
2187.000000	0.004349
2186.000000	0.004330
2185.000000	0.004302
2184.000000	0.004234
2183.000000	0.004173
2182.000000	0.004181
2181.000000	0.004265
2180.000000	0.004363
2179.000000	0.004418
2178.000000	0.004438
2177.000000	0.004469
2176.000000	0.004521
2175.000000	0.004567
2174.000000	0.004587
2173.000000	0.004589
2172.000000	0.004569
2171.000000	0.004512
2170.000000	0.004425
2169.000000	0.004361
2168.000000	0.004357
2167.000000	0.004385
2166.000000	0.004379
2165.000000	0.004301
2164.000000	0.004164
2163.000000	0.004007
2162.000000	0.003868
2161.000000	0.003768
2160.000000	0.003703
2159.000000	0.003650
2158.000000	0.003592
2157.000000	0.003514
2156.000000	0.003390
2155.000000	0.003233
2154.000000	0.003121
2153.000000	0.003133
2152.000000	0.003257
2151.000000	0.003405
2150.000000	0.003517
2149.000000	0.003609
2148.000000	0.003717
2147.000000	0.003840
2146.000000	0.003954
2145.000000	0.004043
2144.000000	0.004090
2143.000000	0.004080
2142.000000	0.004021
2141.000000	0.003961
2140.000000	0.003951
2139.000000	0.004004
2138.000000	0.004083
2137.000000	0.004130
2136.000000	0.004103
2135.000000	0.004017
2134.000000	0.003940
2133.000000	0.003939
2132.000000	0.004015
2131.000000	0.004110
2130.000000	0.004185
2129.000000	0.004249
2128.000000	0.004326
2127.000000	0.004412
2126.000000	0.004482
2125.000000	0.004516
2124.000000	0.004508
2123.000000	0.004466
2122.000000	0.004410
2121.000000	0.004372
2120.000000	0.004383
2119.000000	0.004448
2118.000000	0.004549
2117.000000	0.004654
2116.000000	0.004728
2115.000000	0.004761
2114.000000	0.004772
2113.000000	0.004774
2112.000000	0.004750
2111.000000	0.004668
2110.000000	0.004538
2109.000000	0.004419
2108.000000	0.004366
2107.000000	0.004379
2106.000000	0.004419
2105.000000	0.004458
2104.000000	0.004492
2103.000000	0.004522
2102.000000	0.004535
2101.000000	0.004513
2100.000000	0.004450
2099.000000	0.004365
2098.000000	0.004306
2097.000000	0.004314
2096.000000	0.004385
2095.000000	0.004474
2094.000000	0.004535
2093.000000	0.004558
2092.000000	0.004551
2091.000000	0.004524
2090.000000	0.004490
2089.000000	0.004457
2088.000000	0.004427
2087.000000	0.004393
2086.000000	0.004359
2085.000000	0.004338
2084.000000	0.004332
2083.000000	0.004324
2082.000000	0.004308
2081.000000	0.004302
2080.000000	0.004322
2079.000000	0.004363
2078.000000	0.004408
2077.000000	0.004443
2076.000000	0.004458
2075.000000	0.004446
2074.000000	0.004416
2073.000000	0.004389
2072.000000	0.004368
2071.000000	0.004331
2070.000000	0.004266
2069.000000	0.004184
2068.000000	0.004111
2067.000000	0.004069
2066.000000	0.004083
2065.000000	0.004148
2064.000000	0.004210
2063.000000	0.004206
2062.000000	0.004143
2061.000000	0.004100
2060.000000	0.004131
2059.000000	0.004196
2058.000000	0.004224
2057.000000	0.004193
2056.000000	0.004142
2055.000000	0.004117
2054.000000	0.004138
2053.000000	0.004190
2052.000000	0.004218
2051.000000	0.004158
2050.000000	0.004008
2049.000000	0.003851
2048.000000	0.003776
2047.000000	0.003780
2046.000000	0.003812
2045.000000	0.003859
2044.000000	0.003928
2043.000000	0.003978
2042.000000	0.003951
2041.000000	0.003860
2040.000000	0.003790
2039.000000	0.003802
2038.000000	0.003870
2037.000000	0.003923
2036.000000	0.003897
2035.000000	0.003762
2034.000000	0.003545
2033.000000	0.003328
2032.000000	0.003192
2031.000000	0.003152
2030.000000	0.003198
2029.000000	0.003323
2028.000000	0.003498
2027.000000	0.003627
2026.000000	0.003624
2025.000000	0.003527
2024.000000	0.003478
2023.000000	0.003572
2022.000000	0.003737
2021.000000	0.003808
2020.000000	0.003690
2019.000000	0.003448
2018.000000	0.003244
2017.000000	0.003186
2016.000000	0.003248
2015.000000	0.003337
2014.000000	0.003403
2013.000000	0.003450
2012.000000	0.003478
2011.000000	0.003464
2010.000000	0.003413
2009.000000	0.003357
2008.000000	0.003317
2007.000000	0.003285
2006.000000	0.003268
2005.000000	0.003297
2004.000000	0.003374
2003.000000	0.003458
2002.000000	0.003518
2001.000000	0.003568
2000.000000	0.003641
1999.000000	0.003756
1998.000000	0.003895
1997.000000	0.004004
1996.000000	0.004028
1995.000000	0.003965
1994.000000	0.003897
1993.000000	0.003918
1992.000000	0.004019
1991.000000	0.004101
1990.000000	0.004078
1989.000000	0.003951
1988.000000	0.003756
1987.000000	0.003537
1986.000000	0.003370
1985.000000	0.003343
1984.000000	0.003471
1983.000000	0.003667
1982.000000	0.003841
1981.000000	0.003971
1980.000000	0.004048
1979.000000	0.004007
1978.000000	0.003798
1977.000000	0.003507
1976.000000	0.003303
1975.000000	0.003261
1974.000000	0.003317
1973.000000	0.003390
1972.000000	0.003454
1971.000000	0.003493
1970.000000	0.003481
1969.000000	0.003413
1968.000000	0.003340
1967.000000	0.003327
1966.000000	0.003382
1965.000000	0.003451
1964.000000	0.003489
1963.000000	0.003505
1962.000000	0.003520
1961.000000	0.003517
1960.000000	0.003469
1959.000000	0.003403
1958.000000	0.003392
1957.000000	0.003450
1956.000000	0.003492
1955.000000	0.003446
1954.000000	0.003356
1953.000000	0.003328
1952.000000	0.003400
1951.000000	0.003518
1950.000000	0.003621
1949.000000	0.003693
1948.000000	0.003722
1947.000000	0.003686
1946.000000	0.003595
1945.000000	0.003496
1944.000000	0.003422
1943.000000	0.003370
1942.000000	0.003343
1941.000000	0.003360
1940.000000	0.003414
1939.000000	0.003463
1938.000000	0.003481
1937.000000	0.003483
1936.000000	0.003497
1935.000000	0.003524
1934.000000	0.003545
1933.000000	0.003551
1932.000000	0.003543
1931.000000	0.003538
1930.000000	0.003557
1929.000000	0.003590
1928.000000	0.003597
1927.000000	0.003553
1926.000000	0.003503
1925.000000	0.003506
1924.000000	0.003552
1923.000000	0.003576
1922.000000	0.003556
1921.000000	0.003541
1920.000000	0.003569
1919.000000	0.003616
1918.000000	0.003650
1917.000000	0.003686
1916.000000	0.003743
1915.000000	0.003797
1914.000000	0.003818
1913.000000	0.003813
1912.000000	0.003804
1911.000000	0.003797
1910.000000	0.003785
1909.000000	0.003773
1908.000000	0.003768
1907.000000	0.003758
1906.000000	0.003735
1905.000000	0.003707
1904.000000	0.003681
1903.000000	0.003652
1902.000000	0.003618
1901.000000	0.003590
1900.000000	0.003574
1899.000000	0.003561
1898.000000	0.003549
1897.000000	0.003554
1896.000000	0.003581
1895.000000	0.003605
1894.000000	0.003602
1893.000000	0.003581
1892.000000	0.003571
1891.000000	0.003583
1890.000000	0.003602
1889.000000	0.003615
1888.000000	0.003619
1887.000000	0.003613
1886.000000	0.003608
1885.000000	0.003619
1884.000000	0.003645
1883.000000	0.003667
1882.000000	0.003664
1881.000000	0.003634
1880.000000	0.003586
1879.000000	0.003535
1878.000000	0.003498
1877.000000	0.003499
1876.000000	0.003541
1875.000000	0.003584
1874.000000	0.003593
1873.000000	0.003569
1872.000000	0.003549
1871.000000	0.003563
1870.000000	0.003605
1869.000000	0.003640
1868.000000	0.003649
1867.000000	0.003645
1866.000000	0.003644
1865.000000	0.003649
1864.000000	0.003638
1863.000000	0.003598
1862.000000	0.003548
1861.000000	0.003523
1860.000000	0.003541
1859.000000	0.003582
1858.000000	0.003614
1857.000000	0.003623
1856.000000	0.003608
1855.000000	0.003580
1854.000000	0.003561
1853.000000	0.003563
1852.000000	0.003577
1851.000000	0.003573
1850.000000	0.003525
1849.000000	0.003432
1848.000000	0.003321
1847.000000	0.003236
1846.000000	0.003226
1845.000000	0.003296
1844.000000	0.003397
1843.000000	0.003466
1842.000000	0.003487
1841.000000	0.003485
1840.000000	0.003490
1839.000000	0.003505
1838.000000	0.003525
1837.000000	0.003549
1836.000000	0.003554
1835.000000	0.003509
1834.000000	0.003418
1833.000000	0.003329
1832.000000	0.003297
1831.000000	0.003311
1830.000000	0.003319
1829.000000	0.003309
1828.000000	0.003315
1827.000000	0.003347
1826.000000	0.003383
1825.000000	0.003406
1824.000000	0.003425
1823.000000	0.003451
1822.000000	0.003474
1821.000000	0.003485
1820.000000	0.003479
1819.000000	0.003451
1818.000000	0.003409
1817.000000	0.003377
1816.000000	0.003377
1815.000000	0.003412
1814.000000	0.003461
1813.000000	0.003509
1812.000000	0.003540
1811.000000	0.003541
1810.000000	0.003526
1809.000000	0.003520
1808.000000	0.003532
1807.000000	0.003548
1806.000000	0.003562
1805.000000	0.003578
1804.000000	0.003603
1803.000000	0.003631
1802.000000	0.003650
1801.000000	0.003665
1800.000000	0.003689
1799.000000	0.003721
1798.000000	0.003746
1797.000000	0.003743
1796.000000	0.003708
1795.000000	0.003670
1794.000000	0.003662
1793.000000	0.003679
1792.000000	0.003682
1791.000000	0.003647
1790.000000	0.003590
1789.000000	0.003540
1788.000000	0.003513
1787.000000	0.003504
1786.000000	0.003491
1785.000000	0.003466
1784.000000	0.003438
1783.000000	0.003435
1782.000000	0.003456
1781.000000	0.003486
1780.000000	0.003507
1779.000000	0.003508
1778.000000	0.003477
1777.000000	0.003402
1776.000000	0.003301
1775.000000	0.003231
1774.000000	0.003230
1773.000000	0.003268
1772.000000	0.003299
1771.000000	0.003337
1770.000000	0.003418
1769.000000	0.003548
1768.000000	0.003678
1767.000000	0.003758
1766.000000	0.003792
1765.000000	0.003836
1764.000000	0.003936
1763.000000	0.004086
1762.000000	0.004241
1761.000000	0.004397
1760.000000	0.004586
1759.000000	0.004845
1758.000000	0.005182
1757.000000	0.005569
1756.000000	0.005970
1755.000000	0.006364
1754.000000	0.006780
1753.000000	0.007279
1752.000000	0.007888
1751.000000	0.008551
1750.000000	0.009194
1749.000000	0.009782
1748.000000	0.010308
1747.000000	0.010775
1746.000000	0.011190
1745.000000	0.011556
1744.000000	0.011839
1743.000000	0.012018
1742.000000	0.012137
1741.000000	0.012233
1740.000000	0.012230
1739.000000	0.012053
1738.000000	0.011781
1737.000000	0.011547
1736.000000	0.011398
1735.000000	0.011178
1734.000000	0.010734
1733.000000	0.010278
1732.000000	0.009998
1731.000000	0.009774
1730.000000	0.009465
1729.000000	0.009067
1728.000000	0.008659
1727.000000	0.008292
1726.000000	0.007960
1725.000000	0.007648
1724.000000	0.007317
1723.000000	0.006932
1722.000000	0.006517
1721.000000	0.006150
1720.000000	0.005900
1719.000000	0.005747
1718.000000	0.005617
1717.000000	0.005517
1716.000000	0.005491
1715.000000	0.005497
1714.000000	0.005497
1713.000000	0.005507
1712.000000	0.005536
1711.000000	0.005555
1710.000000	0.005546
1709.000000	0.005548
1708.000000	0.005626
1707.000000	0.005781
1706.000000	0.005938
1705.000000	0.006016
1704.000000	0.006007
1703.000000	0.005994
1702.000000	0.006128
1701.000000	0.006438
1700.000000	0.006779
1699.000000	0.007051
1698.000000	0.007316
1697.000000	0.007696
1696.000000	0.008165
1695.000000	0.008629
1694.000000	0.009012
1693.000000	0.009508
1692.000000	0.009853
1691.000000	0.010161
1690.000000	0.010452
1689.000000	0.010766
1688.000000	0.011043
1687.000000	0.011450
1686.000000	0.011006
1685.000000	0.011393
1684.000000	0.012046
1683.000000	0.012535
1682.000000	0.013003
1681.000000	0.013423
1680.000000	0.013809
1679.000000	0.014116
1678.000000	0.014408
1677.000000	0.014801
1676.000000	0.015329
1675.000000	0.015886
1674.000000	0.016360
1673.000000	0.016781
1672.000000	0.017229
1671.000000	0.017751
1670.000000	0.018338
1669.000000	0.018943
1668.000000	0.019506
1667.000000	0.019974
1666.000000	0.020379
1665.000000	0.020820
1664.000000	0.021345
1663.000000	0.021889
1662.000000	0.022376
1661.000000	0.022819
1660.000000	0.023244
1659.000000	0.023599
1658.000000	0.023805
1657.000000	0.023864
1656.000000	0.023903
1655.000000	0.024123
1654.000000	0.024539
1653.000000	0.024922
1652.000000	0.025256
1651.000000	0.025581
1650.000000	0.025850
1649.000000	0.026091
1648.000000	0.026339
1647.000000	0.026540
1646.000000	0.026680
1645.000000	0.026839
1644.000000	0.027036
1643.000000	0.027215
1642.000000	0.027333
1641.000000	0.027382
1640.000000	0.027382
1639.000000	0.027371
1638.000000	0.027408
1637.000000	0.027522
1636.000000	0.027636
1635.000000	0.027688
1634.000000	0.027744
1633.000000	0.027841
1632.000000	0.027936
1631.000000	0.027988
1630.000000	0.027975
1629.000000	0.027876
1628.000000	0.027681
1627.000000	0.027428
1626.000000	0.027184
1625.000000	0.026971
1624.000000	0.026724
1623.000000	0.026358
1622.000000	0.025904
1621.000000	0.025450
1620.000000	0.025027
1619.000000	0.024623
1618.000000	0.024206
1617.000000	0.023715
1616.000000	0.023190
1615.000000	0.022750
1614.000000	0.022408
1613.000000	0.022085
1612.000000	0.021720
1611.000000	0.021310
1610.000000	0.020889
1609.000000	0.020480
1608.000000	0.020072
1607.000000	0.019671
1606.000000	0.019300
1605.000000	0.018962
1604.000000	0.018643
1603.000000	0.018330
1602.000000	0.018032
1601.000000	0.017749
1600.000000	0.017478
1599.000000	0.017225
1598.000000	0.017009
1597.000000	0.016829
1596.000000	0.016664
1595.000000	0.016501
1594.000000	0.016358
1593.000000	0.016248
1592.000000	0.016160
1591.000000	0.016081
1590.000000	0.016015
1589.000000	0.015966
1588.000000	0.015927
1587.000000	0.015896
1586.000000	0.015880
1585.000000	0.015881
1584.000000	0.015902
1583.000000	0.015952
1582.000000	0.016022
1581.000000	0.016066
1580.000000	0.016058
1579.000000	0.016037
1578.000000	0.016099
1577.000000	0.016277
1576.000000	0.016486
1575.000000	0.016674
1574.000000	0.016850
1573.000000	0.017016
1572.000000	0.017194
1571.000000	0.017416
1570.000000	0.017678
1569.000000	0.017949
1568.000000	0.018224
1567.000000	0.018519
1566.000000	0.018832
1565.000000	0.019100
1564.000000	0.019248
1563.000000	0.019262
1562.000000	0.019251
1561.000000	0.019426
1560.000000	0.019898
1559.000000	0.020427
1558.000000	0.020891
1557.000000	0.021384
1556.000000	0.021889
1555.000000	0.022350
1554.000000	0.022742
1553.000000	0.023092
1552.000000	0.023440
1551.000000	0.023770
1550.000000	0.024041
1549.000000	0.024243
1548.000000	0.024418
1547.000000	0.024602
1546.000000	0.024783
1545.000000	0.024907
1544.000000	0.024947
1543.000000	0.024943
1542.000000	0.025002
1541.000000	0.025164
1540.000000	0.025308
1539.000000	0.025380
1538.000000	0.025461
1537.000000	0.025567
1536.000000	0.025670
1535.000000	0.025747
1534.000000	0.025724
1533.000000	0.025592
1532.000000	0.025465
1531.000000	0.025393
1530.000000	0.025338
1529.000000	0.025261
1528.000000	0.025141
1527.000000	0.024957
1526.000000	0.024703
1525.000000	0.024433
1524.000000	0.024219
1523.000000	0.024068
1522.000000	0.023883
1521.000000	0.023624
1520.000000	0.023435
1519.000000	0.023396
1518.000000	0.023411
1517.000000	0.023346
1516.000000	0.023165
1515.000000	0.022946
1514.000000	0.022741
1513.000000	0.022529
1512.000000	0.022266
1511.000000	0.021939
1510.000000	0.021582
1509.000000	0.021256
1508.000000	0.020930
1507.000000	0.020439
1506.000000	0.019888
1505.000000	0.019594
1504.000000	0.019528
1503.000000	0.019479
1502.000000	0.019332
1501.000000	0.019073
1500.000000	0.018756
1499.000000	0.018441
1498.000000	0.018158
1497.000000	0.017902
1496.000000	0.017660
1495.000000	0.017435
1494.000000	0.017234
1493.000000	0.017075
1492.000000	0.016965
1491.000000	0.016864
1490.000000	0.016720
1489.000000	0.016570
1488.000000	0.016472
1487.000000	0.016415
1486.000000	0.016389
1485.000000	0.016410
1484.000000	0.016490
1483.000000	0.016605
1482.000000	0.016723
1481.000000	0.016848
1480.000000	0.017000
1479.000000	0.017181
1478.000000	0.017373
1477.000000	0.017568
1476.000000	0.017777
1475.000000	0.018040
1474.000000	0.018412
1473.000000	0.018898
1472.000000	0.019432
1471.000000	0.019938
1470.000000	0.020394
1469.000000	0.020813
1468.000000	0.021198
1467.000000	0.021554
1466.000000	0.021884
1465.000000	0.022182
1464.000000	0.022453
1463.000000	0.022703
1462.000000	0.022926
1461.000000	0.023117
1460.000000	0.023304
1459.000000	0.023554
1458.000000	0.023898
1457.000000	0.024265
1456.000000	0.024606
1455.000000	0.024940
1454.000000	0.025255
1453.000000	0.025520
1452.000000	0.025718
1451.000000	0.025859
1450.000000	0.025983
1449.000000	0.026106
1448.000000	0.026195
1447.000000	0.026241
1446.000000	0.026277
1445.000000	0.026325
1444.000000	0.026371
1443.000000	0.026387
1442.000000	0.026368
1441.000000	0.026322
1440.000000	0.026271
1439.000000	0.026237
1438.000000	0.026227
1437.000000	0.026183
1436.000000	0.026089
1435.000000	0.026027
1434.000000	0.026033
1433.000000	0.026059
1432.000000	0.026052
1431.000000	0.026000
1430.000000	0.025939
1429.000000	0.025919
1428.000000	0.025959
1427.000000	0.026052
1426.000000	0.026166
1425.000000	0.026232
1424.000000	0.026200
1423.000000	0.026117
1422.000000	0.026078
1421.000000	0.026131
1420.000000	0.026222
1419.000000	0.026252
1418.000000	0.026239
1417.000000	0.026253
1416.000000	0.026271
1415.000000	0.026255
1414.000000	0.026211
1413.000000	0.026165
1412.000000	0.026114
1411.000000	0.026044
1410.000000	0.025962
1409.000000	0.025892
1408.000000	0.025837
1407.000000	0.025790
1406.000000	0.025741
1405.000000	0.025670
1404.000000	0.025568
1403.000000	0.025465
1402.000000	0.025400
1401.000000	0.025367
1400.000000	0.025311
1399.000000	0.025196
1398.000000	0.025072
1397.000000	0.024993
1396.000000	0.024925
1395.000000	0.024814
1394.000000	0.024684
1393.000000	0.024605
1392.000000	0.024588
1391.000000	0.024584
1390.000000	0.024564
1389.000000	0.024515
1388.000000	0.024416
1387.000000	0.024265
1386.000000	0.024116
1385.000000	0.024014
1384.000000	0.023938
1383.000000	0.023843
1382.000000	0.023722
1381.000000	0.023595
1380.000000	0.023461
1379.000000	0.023293
1378.000000	0.023089
1377.000000	0.022876
1376.000000	0.022667
1375.000000	0.022439
1374.000000	0.022182
1373.000000	0.021923
1372.000000	0.021694
1371.000000	0.021496
1370.000000	0.021309
1369.000000	0.021104
1368.000000	0.020872
1367.000000	0.020628
1366.000000	0.020403
1365.000000	0.020203
1364.000000	0.020004
1363.000000	0.019785
1362.000000	0.019568
1361.000000	0.019396
1360.000000	0.019274
1359.000000	0.019185
1358.000000	0.019115
1357.000000	0.019064
1356.000000	0.019023
1355.000000	0.018985
1354.000000	0.018955
1353.000000	0.018947
1352.000000	0.018965
1351.000000	0.019004
1350.000000	0.019058
1349.000000	0.019121
1348.000000	0.019185
1347.000000	0.019248
1346.000000	0.019319
1345.000000	0.019404
1344.000000	0.019499
1343.000000	0.019605
1342.000000	0.019732
1341.000000	0.019878
1340.000000	0.020025
1339.000000	0.020153
1338.000000	0.020263
1337.000000	0.020358
1336.000000	0.020424
1335.000000	0.020443
1334.000000	0.020413
1333.000000	0.020348
1332.000000	0.020254
1331.000000	0.020129
1330.000000	0.019980
1329.000000	0.019816
1328.000000	0.019643
1327.000000	0.019471
1326.000000	0.019317
1325.000000	0.019187
1324.000000	0.019073
1323.000000	0.018964
1322.000000	0.018863
1321.000000	0.018779
1320.000000	0.018709
1319.000000	0.018640
1318.000000	0.018568
1317.000000	0.018498
1316.000000	0.018426
1315.000000	0.018333
1314.000000	0.018208
1313.000000	0.018056
1312.000000	0.017902
1311.000000	0.017766
1310.000000	0.017645
1309.000000	0.017519
1308.000000	0.017367
1307.000000	0.017197
1306.000000	0.017036
1305.000000	0.016903
1304.000000	0.016796
1303.000000	0.016697
1302.000000	0.016593
1301.000000	0.016480
1300.000000	0.016358
1299.000000	0.016232
1298.000000	0.016107
1297.000000	0.015991
1296.000000	0.015893
1295.000000	0.015828
1294.000000	0.015807
1293.000000	0.015822
1292.000000	0.015857
1291.000000	0.015902
1290.000000	0.015960
1289.000000	0.016028
1288.000000	0.016094
1287.000000	0.016151
1286.000000	0.016207
1285.000000	0.016268
1284.000000	0.016328
1283.000000	0.016377
1282.000000	0.016410
1281.000000	0.016431
1280.000000	0.016445
1279.000000	0.016460
1278.000000	0.016487
1277.000000	0.016531
1276.000000	0.016582
1275.000000	0.016632
1274.000000	0.016689
1273.000000	0.016763
1272.000000	0.016851
1271.000000	0.016944
1270.000000	0.017049
1269.000000	0.017182
1268.000000	0.017343
1267.000000	0.017516
1266.000000	0.017686
1265.000000	0.017858
1264.000000	0.018046
1263.000000	0.018254
1262.000000	0.018475
1261.000000	0.018695
1260.000000	0.018902
1259.000000	0.019096
1258.000000	0.019288
1257.000000	0.019490
1256.000000	0.019698
1255.000000	0.019887
1254.000000	0.020038
1253.000000	0.020155
1252.000000	0.020267
1251.000000	0.020411
1250.000000	0.020606
1249.000000	0.020839
1248.000000	0.021075
1247.000000	0.021296
1246.000000	0.021510
1245.000000	0.021731
1244.000000	0.021953
1243.000000	0.022163
1242.000000	0.022354
1241.000000	0.022525
1240.000000	0.022662
1239.000000	0.022755
1238.000000	0.022823
1237.000000	0.022893
1236.000000	0.022959
1235.000000	0.022984
1234.000000	0.022941
1233.000000	0.022836
1232.000000	0.022686
1231.000000	0.022500
1230.000000	0.022285
1229.000000	0.022045
1228.000000	0.021778
1227.000000	0.021469
1226.000000	0.021109
1225.000000	0.020710
1224.000000	0.020292
1223.000000	0.019876
1222.000000	0.019482
1221.000000	0.019117
1220.000000	0.018774
1219.000000	0.018449
1218.000000	0.018147
1217.000000	0.017884
1216.000000	0.017672
1215.000000	0.017512
1214.000000	0.017400
1213.000000	0.017329
1212.000000	0.017287
1211.000000	0.017259
1210.000000	0.017243
1209.000000	0.017247
1208.000000	0.017282
1207.000000	0.017351
1206.000000	0.017452
1205.000000	0.017567
1204.000000	0.017670
1203.000000	0.017740
1202.000000	0.017773
1201.000000	0.017776
1200.000000	0.017746
1199.000000	0.017678
1198.000000	0.017577
1197.000000	0.017464
1196.000000	0.017358
1195.000000	0.017264
1194.000000	0.017177
1193.000000	0.017089
1192.000000	0.016994
1191.000000	0.016894
1190.000000	0.016807
1189.000000	0.016751
1188.000000	0.016720
1187.000000	0.016700
1186.000000	0.016688
1185.000000	0.016698
1184.000000	0.016736
1183.000000	0.016793
1182.000000	0.016853
1181.000000	0.016917
1180.000000	0.016996
1179.000000	0.017092
1178.000000	0.017207
1177.000000	0.017340
1176.000000	0.017490
1175.000000	0.017645
1174.000000	0.017791
1173.000000	0.017923
1172.000000	0.018045
1171.000000	0.018164
1170.000000	0.018280
1169.000000	0.018393
1168.000000	0.018503
1167.000000	0.018609
1166.000000	0.018707
1165.000000	0.018792
1164.000000	0.018861
1163.000000	0.018915
1162.000000	0.018951
1161.000000	0.018966
1160.000000	0.018950
1159.000000	0.018896
1158.000000	0.018792
1157.000000	0.018628
1156.000000	0.018402
1155.000000	0.018135
1154.000000	0.017857
1153.000000	0.017574
1152.000000	0.017269
1151.000000	0.016930
1150.000000	0.016568
1149.000000	0.016202
1148.000000	0.015828
1147.000000	0.015437
1146.000000	0.015037
1145.000000	0.014653
1144.000000	0.014294
1143.000000	0.013951
1142.000000	0.013617
1141.000000	0.013298
1140.000000	0.012998
1139.000000	0.012719
1138.000000	0.012463
1137.000000	0.012233
1136.000000	0.012032
1135.000000	0.011859
1134.000000	0.011719
1133.000000	0.011616
1132.000000	0.011543
1131.000000	0.011485
1130.000000	0.011433
1129.000000	0.011401
1128.000000	0.011403
1127.000000	0.011434
1126.000000	0.011476
1125.000000	0.011514
1124.000000	0.011548
1123.000000	0.011591
1122.000000	0.011644
1121.000000	0.011696
1120.000000	0.011739
1119.000000	0.011781
1118.000000	0.011846
1117.000000	0.011954
1116.000000	0.012101
1115.000000	0.012269
1114.000000	0.012451
1113.000000	0.012651
1112.000000	0.012868
1111.000000	0.013080
1110.000000	0.013255
1109.000000	0.013370
1108.000000	0.013425
1107.000000	0.013435
1106.000000	0.013427
1105.000000	0.013423
1104.000000	0.013429
1103.000000	0.013442
1102.000000	0.013466
1101.000000	0.013513
1100.000000	0.013584
1099.000000	0.013662
1098.000000	0.013731
1097.000000	0.013794
1096.000000	0.013871
1095.000000	0.013974
1094.000000	0.014093
1093.000000	0.014204
1092.000000	0.014287
1091.000000	0.014334
1090.000000	0.014361
1089.000000	0.014386
1088.000000	0.014408
1087.000000	0.014409
1086.000000	0.014372
1085.000000	0.014308
1084.000000	0.014229
1083.000000	0.014133
1082.000000	0.014006
1081.000000	0.013842
1080.000000	0.013656
1079.000000	0.013459
1078.000000	0.013242
1077.000000	0.012990
1076.000000	0.012710
1075.000000	0.012430
1074.000000	0.012183
1073.000000	0.011990
1072.000000	0.011855
1071.000000	0.011771
1070.000000	0.011715
1069.000000	0.011657
1068.000000	0.011590
1067.000000	0.011539
1066.000000	0.011538
1065.000000	0.011587
1064.000000	0.011653
1063.000000	0.011694
1062.000000	0.011692
1061.000000	0.011651
1060.000000	0.011585
1059.000000	0.011504
1058.000000	0.011422
1057.000000	0.011343
1056.000000	0.011267
1055.000000	0.011190
1054.000000	0.011111
1053.000000	0.011034
1052.000000	0.010964
1051.000000	0.010901
1050.000000	0.010851
1049.000000	0.010823
1048.000000	0.010825
1047.000000	0.010859
1046.000000	0.010920
1045.000000	0.011000
1044.000000	0.011082
1043.000000	0.011152
1042.000000	0.011218
1041.000000	0.011312
1040.000000	0.011463
1039.000000	0.011670
1038.000000	0.011905
1037.000000	0.012140
1036.000000	0.012366
1035.000000	0.012583
1034.000000	0.012783
1033.000000	0.012954
1032.000000	0.013088
1031.000000	0.013181
1030.000000	0.013231
1029.000000	0.013237
1028.000000	0.013208
1027.000000	0.013162
1026.000000	0.013103
1025.000000	0.013011
1024.000000	0.012871
1023.000000	0.012693
1022.000000	0.012508
1021.000000	0.012343
1020.000000	0.012204
1019.000000	0.012092
1018.000000	0.012003
1017.000000	0.011931
1016.000000	0.011861
1015.000000	0.011791
1014.000000	0.011728
1013.000000	0.011670
1012.000000	0.011597
1011.000000	0.011485
1010.000000	0.011327
1009.000000	0.011135
1008.000000	0.010925
1007.000000	0.010712
1006.000000	0.010507
1005.000000	0.010319
1004.000000	0.010157
1003.000000	0.010027
1002.000000	0.009924
1001.000000	0.009818
1000.000000	0.009678
999.000000	0.009498
998.000000	0.009309
997.000000	0.009143
996.000000	0.009003
995.000000	0.008868
994.000000	0.008740
993.000000	0.008635
992.000000	0.008563
991.000000	0.008505
990.000000	0.008435
989.000000	0.008345
988.000000	0.008241
987.000000	0.008132
986.000000	0.008028
985.000000	0.007942
984.000000	0.007889
983.000000	0.007869
982.000000	0.007870
981.000000	0.007879
980.000000	0.007894
979.000000	0.007917
978.000000	0.007957
977.000000	0.008020
976.000000	0.008107
975.000000	0.008203
974.000000	0.008286
973.000000	0.008335
972.000000	0.008342
971.000000	0.008304
970.000000	0.008234
969.000000	0.008150
968.000000	0.008071
967.000000	0.008004
966.000000	0.007943
965.000000	0.007874
964.000000	0.007791
963.000000	0.007696
962.000000	0.007602
961.000000	0.007523
960.000000	0.007462
959.000000	0.007409
958.000000	0.007344
957.000000	0.007259
956.000000	0.007165
955.000000	0.007078
954.000000	0.007003
953.000000	0.006929
952.000000	0.006846
951.000000	0.006756
950.000000	0.006665
949.000000	0.006574
948.000000	0.006485
947.000000	0.006412
946.000000	0.006371
945.000000	0.006359
944.000000	0.006356
943.000000	0.006338
942.000000	0.006301
941.000000	0.006249
940.000000	0.006190
939.000000	0.006127
938.000000	0.006068
937.000000	0.006021
936.000000	0.005984
935.000000	0.005940
934.000000	0.005870
933.000000	0.005773
932.000000	0.005668
931.000000	0.005576
930.000000	0.005506
929.000000	0.005454
928.000000	0.005409
927.000000	0.005357
926.000000	0.005287
925.000000	0.005196
924.000000	0.005098
923.000000	0.005021
922.000000	0.004980
921.000000	0.004960
920.000000	0.004931
919.000000	0.004871
918.000000	0.004792
917.000000	0.004715
916.000000	0.004651
915.000000	0.004589
914.000000	0.004514
913.000000	0.004416
912.000000	0.004298
911.000000	0.004169
910.000000	0.004046
909.000000	0.003944
908.000000	0.003869
907.000000	0.003818
906.000000	0.003775
905.000000	0.003727
904.000000	0.003666
903.000000	0.003596
902.000000	0.003528
901.000000	0.003474
900.000000	0.003441
899.000000	0.003425
898.000000	0.003413
897.000000	0.003396
896.000000	0.003372
895.000000	0.003343
894.000000	0.003308
893.000000	0.003271
892.000000	0.003240
891.000000	0.003227
890.000000	0.003239
889.000000	0.003297
888.000000	0.003448
887.000000	0.003745
886.000000	0.004208
885.000000	0.004797
884.000000	0.005435
883.000000	0.006053
882.000000	0.006641
881.000000	0.007253
880.000000	0.007964
879.000000	0.008802
878.000000	0.009717
877.000000	0.010590
876.000000	0.011297
875.000000	0.011760
874.000000	0.011959
873.000000	0.011909
872.000000	0.011622
871.000000	0.011109
870.000000	0.010410
869.000000	0.009606
868.000000	0.008800
867.000000	0.008079
866.000000	0.007489
865.000000	0.007035
864.000000	0.006693
863.000000	0.006421
862.000000	0.006177
861.000000	0.005938
860.000000	0.005706
859.000000	0.005504
858.000000	0.005342
857.000000	0.005209
856.000000	0.005083
855.000000	0.004950
854.000000	0.004817
853.000000	0.004704
852.000000	0.004635
851.000000	0.004626
850.000000	0.004668
849.000000	0.004726
848.000000	0.004752
847.000000	0.004711
846.000000	0.004591
845.000000	0.004405
844.000000	0.004193
843.000000	0.004006
842.000000	0.003882
841.000000	0.003816
840.000000	0.003769
839.000000	0.003711
838.000000	0.003640
837.000000	0.003569
836.000000	0.003500
835.000000	0.003437
834.000000	0.003392
833.000000	0.003380
832.000000	0.003400
831.000000	0.003431
830.000000	0.003449
829.000000	0.003444
828.000000	0.003418
827.000000	0.003387
826.000000	0.003374
825.000000	0.003394
824.000000	0.003434
823.000000	0.003463
822.000000	0.003461
821.000000	0.003424
820.000000	0.003361
819.000000	0.003291
818.000000	0.003247
817.000000	0.003247
816.000000	0.003280
815.000000	0.003311
814.000000	0.003324
813.000000	0.003341
812.000000	0.003377
811.000000	0.003415
810.000000	0.003420
809.000000	0.003388
808.000000	0.003344
807.000000	0.003312
806.000000	0.003294
805.000000	0.003281
804.000000	0.003270
803.000000	0.003267
802.000000	0.003278
801.000000	0.003311
800.000000	0.003358
799.000000	0.003393
798.000000	0.003393
797.000000	0.003363
796.000000	0.003332
795.000000	0.003322
794.000000	0.003327
793.000000	0.003326
792.000000	0.003311
791.000000	0.003301
790.000000	0.003324
789.000000	0.003388
788.000000	0.003472
787.000000	0.003538
786.000000	0.003560
785.000000	0.003537
784.000000	0.003493
783.000000	0.003457
782.000000	0.003448
781.000000	0.003468
780.000000	0.003497
779.000000	0.003506
778.000000	0.003490
777.000000	0.003468
776.000000	0.003460
775.000000	0.003468
774.000000	0.003479
773.000000	0.003488
772.000000	0.003491
771.000000	0.003484
770.000000	0.003462
769.000000	0.003428
768.000000	0.003386
767.000000	0.003340
766.000000	0.003294
765.000000	0.003265
764.000000	0.003269
763.000000	0.003305
762.000000	0.003363
761.000000	0.003433
760.000000	0.003498
759.000000	0.003533
758.000000	0.003525
757.000000	0.003492
756.000000	0.003471
755.000000	0.003471
754.000000	0.003479
753.000000	0.003492
752.000000	0.003529
751.000000	0.003595
750.000000	0.003660
749.000000	0.003691
748.000000	0.003691
747.000000	0.003687
746.000000	0.003701
745.000000	0.003727
744.000000	0.003746
743.000000	0.003744
742.000000	0.003717
741.000000	0.003672
740.000000	0.003624
739.000000	0.003598
738.000000	0.003621
737.000000	0.003704
736.000000	0.003827
735.000000	0.003946
734.000000	0.004027
733.000000	0.004078
732.000000	0.004129
731.000000	0.004191
730.000000	0.004253
729.000000	0.004312
728.000000	0.004388
727.000000	0.004486
726.000000	0.004589
725.000000	0.004686
724.000000	0.004784
723.000000	0.004882
722.000000	0.004959
721.000000	0.005004
720.000000	0.005049
719.000000	0.005155
718.000000	0.005365
717.000000	0.005705
716.000000	0.006193
715.000000	0.006821
714.000000	0.007498
713.000000	0.008049
712.000000	0.008304
711.000000	0.008214
710.000000	0.007880
709.000000	0.007477
708.000000	0.007152
707.000000	0.006969
706.000000	0.006921
705.000000	0.006969
704.000000	0.007055
703.000000	0.007128
702.000000	0.007162
701.000000	0.007168
700.000000	0.007178
699.000000	0.007202
698.000000	0.007225
697.000000	0.007231
696.000000	0.007225
695.000000	0.007228
694.000000	0.007247
693.000000	0.007265
692.000000	0.007260
691.000000	0.007223
690.000000	0.007174
689.000000	0.007154
688.000000	0.007204
687.000000	0.007325
686.000000	0.007469
685.000000	0.007578
684.000000	0.007629
683.000000	0.007639
682.000000	0.007630
681.000000	0.007618
680.000000	0.007612
679.000000	0.007614
678.000000	0.007612
677.000000	0.007614
676.000000	0.007659
675.000000	0.007747
674.000000	0.007812
673.000000	0.007779
672.000000	0.007641
671.000000	0.007443
670.000000	0.007242
669.000000	0.007112
668.000000	0.007198
667.000000	0.007438
666.000000	0.007571
665.000000	0.007648
664.000000	0.007780
663.000000	0.007931
662.000000	0.008025
661.000000	0.008028
660.000000	0.007991
659.000000	0.007972
658.000000	0.007980
657.000000	0.007998
656.000000	0.008010
655.000000	0.008007
654.000000	0.008017
653.000000	0.008087
652.000000	0.008211
651.000000	0.008333
650.000000	0.008423
649.000000	0.008512
648.000000	0.008618
647.000000	0.008715
646.000000	0.008793
645.000000	0.008873
644.000000	0.008960
643.000000	0.009032
642.000000	0.009092
641.000000	0.009191
640.000000	0.009337
639.000000	0.009451
638.000000	0.009457
637.000000	0.009383
636.000000	0.009322
635.000000	0.009325
634.000000	0.009373
633.000000	0.009408
632.000000	0.009397
631.000000	0.009356
630.000000	0.009343
629.000000	0.009405
628.000000	0.009526
627.000000	0.009648
626.000000	0.009751
625.000000	0.009848
624.000000	0.009923
623.000000	0.009924
622.000000	0.009846
621.000000	0.009751
620.000000	0.009706
619.000000	0.009721
618.000000	0.009781
617.000000	0.009873
616.000000	0.009964
615.000000	0.010008
614.000000	0.009997
613.000000	0.009979
612.000000	0.009994
611.000000	0.010036
610.000000	0.010089
609.000000	0.010143
608.000000	0.010167
607.000000	0.010121
606.000000	0.010027
605.000000	0.009957
604.000000	0.009934
603.000000	0.009891
602.000000	0.009762
601.000000	0.009564
600.000000	0.009369
599.000000	0.009240
598.000000	0.009193
597.000000	0.009188
596.000000	0.009143
595.000000	0.008994
594.000000	0.008787
593.000000	0.008639
592.000000	0.008608
591.000000	0.008630
590.000000	0.008621
589.000000	0.008576
588.000000	0.008526
587.000000	0.008485
586.000000	0.008472
585.000000	0.008528
584.000000	0.008656
583.000000	0.008787
582.000000	0.008864
581.000000	0.008891
580.000000	0.008887
579.000000	0.008830
578.000000	0.008709
577.000000	0.008565
576.000000	0.008448
575.000000	0.008374
574.000000	0.008363
573.000000	0.008463
572.000000	0.008666
571.000000	0.008879
570.000000	0.009027
569.000000	0.009140
568.000000	0.009266
567.000000	0.009356
566.000000	0.009329
565.000000	0.009210
564.000000	0.009116
563.000000	0.009126
562.000000	0.009245
561.000000	0.009445
560.000000	0.009671
559.000000	0.009831
558.000000	0.009863
557.000000	0.009800
556.000000	0.009710
555.000000	0.009610
554.000000	0.009499
553.000000	0.009426
552.000000	0.009448
551.000000	0.009538
550.000000	0.009616
549.000000	0.009665
548.000000	0.009730
547.000000	0.009816
546.000000	0.009856
545.000000	0.009786
544.000000	0.009615
543.000000	0.009429
542.000000	0.009336
541.000000	0.009391
540.000000	0.009531
539.000000	0.009630
538.000000	0.009647
537.000000	0.009677
536.000000	0.009820
535.000000	0.010047
534.000000	0.010263
533.000000	0.010422
532.000000	0.010536
531.000000	0.010628
530.000000	0.010718
529.000000	0.010827
528.000000	0.010920
527.000000	0.010907
526.000000	0.010767
525.000000	0.010619
524.000000	0.010574
523.000000	0.010603
522.000000	0.010616
521.000000	0.010574
520.000000	0.010461
519.000000	0.010253
518.000000	0.009979
517.000000	0.009747
516.000000	0.009604
515.000000	0.009497
514.000000	0.009427
513.000000	0.009498
512.000000	0.009714
511.000000	0.009858
510.000000	0.009724
509.000000	0.009370
508.000000	0.008994
507.000000	0.008660
506.000000	0.008320
505.000000	0.008027
504.000000	0.007929
503.000000	0.008049
502.000000	0.008218
501.000000	0.008263
500.000000	0.008172
499.000000	0.008021
498.000000	0.007881
497.000000	0.007814
496.000000	0.007847
495.000000	0.007933
494.000000	0.008002
493.000000	0.008019
492.000000	0.007950
491.000000	0.007739
490.000000	0.007408
489.000000	0.007105
488.000000	0.006948
487.000000	0.006875
486.000000	0.006764
485.000000	0.006629
484.000000	0.006577
483.000000	0.006619
482.000000	0.006656
481.000000	0.006642
480.000000	0.006616
479.000000	0.006604
478.000000	0.006611
477.000000	0.006668
476.000000	0.006791
475.000000	0.006901
474.000000	0.006904
473.000000	0.006814
472.000000	0.006695
471.000000	0.006550
470.000000	0.006393
469.000000	0.006352
468.000000	0.006492
467.000000	0.006627
466.000000	0.006500
465.000000	0.006143
464.000000	0.005820
463.000000	0.005675
462.000000	0.005642
461.000000	0.005642
460.000000	0.005670
459.000000	0.005644
458.000000	0.005392
457.000000	0.004935
456.000000	0.004541
455.000000	0.004347
454.000000	0.004254
453.000000	0.004137
452.000000	0.003941
451.000000	0.003589
450.000000	0.003085
