PE IR       SUBTECH     SPECTRUM    ASCII       PEDS        4.00        
   -1
Peau016_1.ASC
23/06/14
14:55:14.00
23/06/14
15:01:00.00
uco
Sample 016 By uco Date Wednesday, June 14 2023
450.000000
#HDR
-1
-1
#GR
cm-1
A
1.0
0.0
4000.000000
-1.000000
3551
8
0.036910
0.003983
#DATA
4000.000000	0.004301
3999.000000	0.004302
3998.000000	0.004292
3997.000000	0.004280
3996.000000	0.004273
3995.000000	0.004275
3994.000000	0.004288
3993.000000	0.004310
3992.000000	0.004336
3991.000000	0.004354
3990.000000	0.004358
3989.000000	0.004347
3988.000000	0.004330
3987.000000	0.004314
3986.000000	0.004305
3985.000000	0.004304
3984.000000	0.004310
3983.000000	0.004320
3982.000000	0.004333
3981.000000	0.004344
3980.000000	0.004352
3979.000000	0.004357
3978.000000	0.004363
3977.000000	0.004374
3976.000000	0.004392
3975.000000	0.004409
3974.000000	0.004414
3973.000000	0.004405
3972.000000	0.004390
3971.000000	0.004378
3970.000000	0.004372
3969.000000	0.004370
3968.000000	0.004365
3967.000000	0.004361
3966.000000	0.004365
3965.000000	0.004378
3964.000000	0.004394
3963.000000	0.004405
3962.000000	0.004406
3961.000000	0.004402
3960.000000	0.004403
3959.000000	0.004414
3958.000000	0.004429
3957.000000	0.004438
3956.000000	0.004439
3955.000000	0.004432
3954.000000	0.004426
3953.000000	0.004423
3952.000000	0.004422
3951.000000	0.004421
3950.000000	0.004419
3949.000000	0.004419
3948.000000	0.004423
3947.000000	0.004429
3946.000000	0.004435
3945.000000	0.004440
3944.000000	0.004448
3943.000000	0.004458
3942.000000	0.004469
3941.000000	0.004479
3940.000000	0.004488
3939.000000	0.004495
3938.000000	0.004497
3937.000000	0.004493
3936.000000	0.004485
3935.000000	0.004478
3934.000000	0.004473
3933.000000	0.004467
3932.000000	0.004456
3931.000000	0.004443
3930.000000	0.004433
3929.000000	0.004430
3928.000000	0.004432
3927.000000	0.004442
3926.000000	0.004459
3925.000000	0.004479
3924.000000	0.004491
3923.000000	0.004490
3922.000000	0.004479
3921.000000	0.004466
3920.000000	0.004460
3919.000000	0.004464
3918.000000	0.004476
3917.000000	0.004490
3916.000000	0.004497
3915.000000	0.004496
3914.000000	0.004495
3913.000000	0.004501
3912.000000	0.004513
3911.000000	0.004526
3910.000000	0.004532
3909.000000	0.004533
3908.000000	0.004536
3907.000000	0.004553
3906.000000	0.004586
3905.000000	0.004627
3904.000000	0.004654
3903.000000	0.004652
3902.000000	0.004622
3901.000000	0.004579
3900.000000	0.004541
3899.000000	0.004515
3898.000000	0.004505
3897.000000	0.004504
3896.000000	0.004507
3895.000000	0.004511
3894.000000	0.004516
3893.000000	0.004527
3892.000000	0.004538
3891.000000	0.004543
3890.000000	0.004538
3889.000000	0.004528
3888.000000	0.004526
3887.000000	0.004539
3886.000000	0.004558
3885.000000	0.004563
3884.000000	0.004553
3883.000000	0.004540
3882.000000	0.004539
3881.000000	0.004550
3880.000000	0.004561
3879.000000	0.004566
3878.000000	0.004568
3877.000000	0.004574
3876.000000	0.004586
3875.000000	0.004601
3874.000000	0.004611
3873.000000	0.004613
3872.000000	0.004614
3871.000000	0.004618
3870.000000	0.004614
3869.000000	0.004594
3868.000000	0.004570
3867.000000	0.004555
3866.000000	0.004550
3865.000000	0.004544
3864.000000	0.004529
3863.000000	0.004513
3862.000000	0.004513
3861.000000	0.004534
3860.000000	0.004567
3859.000000	0.004600
3858.000000	0.004621
3857.000000	0.004629
3856.000000	0.004632
3855.000000	0.004644
3854.000000	0.004653
3853.000000	0.004630
3852.000000	0.004581
3851.000000	0.004533
3850.000000	0.004502
3849.000000	0.004491
3848.000000	0.004492
3847.000000	0.004502
3846.000000	0.004517
3845.000000	0.004534
3844.000000	0.004556
3843.000000	0.004583
3842.000000	0.004617
3841.000000	0.004657
3840.000000	0.004700
3839.000000	0.004731
3838.000000	0.004733
3837.000000	0.004703
3836.000000	0.004656
3835.000000	0.004614
3834.000000	0.004587
3833.000000	0.004576
3832.000000	0.004573
3831.000000	0.004573
3830.000000	0.004578
3829.000000	0.004596
3828.000000	0.004628
3827.000000	0.004662
3826.000000	0.004683
3825.000000	0.004687
3824.000000	0.004682
3823.000000	0.004681
3822.000000	0.004683
3821.000000	0.004667
3820.000000	0.004626
3819.000000	0.004580
3818.000000	0.004548
3817.000000	0.004536
3816.000000	0.004527
3815.000000	0.004509
3814.000000	0.004493
3813.000000	0.004493
3812.000000	0.004512
3811.000000	0.004537
3810.000000	0.004552
3809.000000	0.004555
3808.000000	0.004552
3807.000000	0.004551
3806.000000	0.004554
3805.000000	0.004560
3804.000000	0.004563
3803.000000	0.004558
3802.000000	0.004540
3801.000000	0.004510
3800.000000	0.004491
3799.000000	0.004494
3798.000000	0.004511
3797.000000	0.004528
3796.000000	0.004536
3795.000000	0.004536
3794.000000	0.004536
3793.000000	0.004537
3792.000000	0.004539
3791.000000	0.004542
3790.000000	0.004550
3789.000000	0.004566
3788.000000	0.004588
3787.000000	0.004615
3786.000000	0.004639
3785.000000	0.004657
3784.000000	0.004667
3783.000000	0.004670
3782.000000	0.004669
3781.000000	0.004663
3780.000000	0.004649
3779.000000	0.004627
3778.000000	0.004600
3777.000000	0.004576
3776.000000	0.004556
3775.000000	0.004539
3774.000000	0.004522
3773.000000	0.004510
3772.000000	0.004512
3771.000000	0.004531
3770.000000	0.004552
3769.000000	0.004560
3768.000000	0.004550
3767.000000	0.004533
3766.000000	0.004519
3765.000000	0.004508
3764.000000	0.004497
3763.000000	0.004485
3762.000000	0.004478
3761.000000	0.004480
3760.000000	0.004488
3759.000000	0.004497
3758.000000	0.004505
3757.000000	0.004513
3756.000000	0.004517
3755.000000	0.004516
3754.000000	0.004512
3753.000000	0.004509
3752.000000	0.004509
3751.000000	0.004519
3750.000000	0.004543
3749.000000	0.004570
3748.000000	0.004577
3747.000000	0.004559
3746.000000	0.004531
3745.000000	0.004507
3744.000000	0.004484
3743.000000	0.004466
3742.000000	0.004454
3741.000000	0.004446
3740.000000	0.004438
3739.000000	0.004431
3738.000000	0.004437
3737.000000	0.004466
3736.000000	0.004499
3735.000000	0.004506
3734.000000	0.004478
3733.000000	0.004436
3732.000000	0.004402
3731.000000	0.004388
3730.000000	0.004393
3729.000000	0.004416
3728.000000	0.004446
3727.000000	0.004471
3726.000000	0.004479
3725.000000	0.004474
3724.000000	0.004468
3723.000000	0.004466
3722.000000	0.004466
3721.000000	0.004465
3720.000000	0.004462
3719.000000	0.004453
3718.000000	0.004436
3717.000000	0.004419
3716.000000	0.004410
3715.000000	0.004417
3714.000000	0.004439
3713.000000	0.004468
3712.000000	0.004482
3711.000000	0.004466
3710.000000	0.004426
3709.000000	0.004380
3708.000000	0.004347
3707.000000	0.004329
3706.000000	0.004323
3705.000000	0.004324
3704.000000	0.004328
3703.000000	0.004333
3702.000000	0.004332
3701.000000	0.004319
3700.000000	0.004297
3699.000000	0.004276
3698.000000	0.004267
3697.000000	0.004280
3696.000000	0.004313
3695.000000	0.004351
3694.000000	0.004375
3693.000000	0.004370
3692.000000	0.004340
3691.000000	0.004305
3690.000000	0.004288
3689.000000	0.004287
3688.000000	0.004290
3687.000000	0.004286
3686.000000	0.004278
3685.000000	0.004273
3684.000000	0.004276
3683.000000	0.004283
3682.000000	0.004293
3681.000000	0.004305
3680.000000	0.004316
3679.000000	0.004323
3678.000000	0.004332
3677.000000	0.004359
3676.000000	0.004404
3675.000000	0.004440
3674.000000	0.004449
3673.000000	0.004434
3672.000000	0.004410
3671.000000	0.004389
3670.000000	0.004362
3669.000000	0.004325
3668.000000	0.004295
3667.000000	0.004284
3666.000000	0.004296
3665.000000	0.004322
3664.000000	0.004355
3663.000000	0.004386
3662.000000	0.004412
3661.000000	0.004427
3660.000000	0.004429
3659.000000	0.004428
3658.000000	0.004441
3657.000000	0.004475
3656.000000	0.004519
3655.000000	0.004553
3654.000000	0.004569
3653.000000	0.004574
3652.000000	0.004582
3651.000000	0.004606
3650.000000	0.004645
3649.000000	0.004682
3648.000000	0.004700
3647.000000	0.004699
3646.000000	0.004693
3645.000000	0.004694
3644.000000	0.004704
3643.000000	0.004717
3642.000000	0.004725
3641.000000	0.004728
3640.000000	0.004739
3639.000000	0.004770
3638.000000	0.004820
3637.000000	0.004881
3636.000000	0.004937
3635.000000	0.004975
3634.000000	0.004985
3633.000000	0.004965
3632.000000	0.004923
3631.000000	0.004885
3630.000000	0.004881
3629.000000	0.004914
3628.000000	0.004963
3627.000000	0.005017
3626.000000	0.005072
3625.000000	0.005123
3624.000000	0.005157
3623.000000	0.005161
3622.000000	0.005141
3621.000000	0.005120
3620.000000	0.005129
3619.000000	0.005170
3618.000000	0.005219
3617.000000	0.005250
3616.000000	0.005261
3615.000000	0.005268
3614.000000	0.005290
3613.000000	0.005328
3612.000000	0.005360
3611.000000	0.005367
3610.000000	0.005356
3609.000000	0.005344
3608.000000	0.005349
3607.000000	0.005369
3606.000000	0.005397
3605.000000	0.005429
3604.000000	0.005465
3603.000000	0.005505
3602.000000	0.005547
3601.000000	0.005585
3600.000000	0.005612
3599.000000	0.005629
3598.000000	0.005639
3597.000000	0.005653
3596.000000	0.005675
3595.000000	0.005703
3594.000000	0.005731
3593.000000	0.005758
3592.000000	0.005785
3591.000000	0.005814
3590.000000	0.005849
3589.000000	0.005889
3588.000000	0.005924
3587.000000	0.005942
3586.000000	0.005950
3585.000000	0.005971
3584.000000	0.006012
3583.000000	0.006064
3582.000000	0.006107
3581.000000	0.006133
3580.000000	0.006147
3579.000000	0.006166
3578.000000	0.006198
3577.000000	0.006240
3576.000000	0.006283
3575.000000	0.006319
3574.000000	0.006344
3573.000000	0.006362
3572.000000	0.006379
3571.000000	0.006397
3570.000000	0.006424
3569.000000	0.006466
3568.000000	0.006524
3567.000000	0.006584
3566.000000	0.006630
3565.000000	0.006659
3564.000000	0.006675
3563.000000	0.006685
3562.000000	0.006695
3561.000000	0.006716
3560.000000	0.006753
3559.000000	0.006803
3558.000000	0.006850
3557.000000	0.006888
3556.000000	0.006919
3555.000000	0.006955
3554.000000	0.007001
3553.000000	0.007050
3552.000000	0.007085
3551.000000	0.007103
3550.000000	0.007112
3549.000000	0.007126
3548.000000	0.007152
3547.000000	0.007186
3546.000000	0.007218
3545.000000	0.007243
3544.000000	0.007262
3543.000000	0.007278
3542.000000	0.007296
3541.000000	0.007320
3540.000000	0.007353
3539.000000	0.007392
3538.000000	0.007435
3537.000000	0.007478
3536.000000	0.007518
3535.000000	0.007554
3534.000000	0.007580
3533.000000	0.007596
3532.000000	0.007607
3531.000000	0.007622
3530.000000	0.007653
3529.000000	0.007699
3528.000000	0.007754
3527.000000	0.007808
3526.000000	0.007857
3525.000000	0.007901
3524.000000	0.007944
3523.000000	0.007985
3522.000000	0.008020
3521.000000	0.008047
3520.000000	0.008065
3519.000000	0.008076
3518.000000	0.008088
3517.000000	0.008106
3516.000000	0.008132
3515.000000	0.008161
3514.000000	0.008187
3513.000000	0.008210
3512.000000	0.008232
3511.000000	0.008258
3510.000000	0.008288
3509.000000	0.008319
3508.000000	0.008349
3507.000000	0.008375
3506.000000	0.008398
3505.000000	0.008426
3504.000000	0.008466
3503.000000	0.008518
3502.000000	0.008569
3501.000000	0.008603
3500.000000	0.008614
3499.000000	0.008612
3498.000000	0.008612
3497.000000	0.008623
3496.000000	0.008647
3495.000000	0.008681
3494.000000	0.008717
3493.000000	0.008748
3492.000000	0.008767
3491.000000	0.008780
3490.000000	0.008798
3489.000000	0.008834
3488.000000	0.008889
3487.000000	0.008951
3486.000000	0.009004
3485.000000	0.009041
3484.000000	0.009066
3483.000000	0.009091
3482.000000	0.009123
3481.000000	0.009161
3480.000000	0.009202
3479.000000	0.009244
3478.000000	0.009283
3477.000000	0.009313
3476.000000	0.009334
3475.000000	0.009349
3474.000000	0.009367
3473.000000	0.009394
3472.000000	0.009428
3471.000000	0.009467
3470.000000	0.009511
3469.000000	0.009561
3468.000000	0.009610
3467.000000	0.009650
3466.000000	0.009677
3465.000000	0.009691
3464.000000	0.009696
3463.000000	0.009697
3462.000000	0.009696
3461.000000	0.009692
3460.000000	0.009686
3459.000000	0.009686
3458.000000	0.009700
3457.000000	0.009732
3456.000000	0.009772
3455.000000	0.009808
3454.000000	0.009835
3453.000000	0.009856
3452.000000	0.009878
3451.000000	0.009903
3450.000000	0.009929
3449.000000	0.009955
3448.000000	0.009981
3447.000000	0.010005
3446.000000	0.010026
3445.000000	0.010042
3444.000000	0.010056
3443.000000	0.010075
3442.000000	0.010103
3441.000000	0.010143
3440.000000	0.010192
3439.000000	0.010244
3438.000000	0.010292
3437.000000	0.010332
3436.000000	0.010361
3435.000000	0.010376
3434.000000	0.010380
3433.000000	0.010381
3432.000000	0.010391
3431.000000	0.010414
3430.000000	0.010449
3429.000000	0.010486
3428.000000	0.010520
3427.000000	0.010554
3426.000000	0.010595
3425.000000	0.010643
3424.000000	0.010685
3423.000000	0.010710
3422.000000	0.010722
3421.000000	0.010734
3420.000000	0.010756
3419.000000	0.010785
3418.000000	0.010815
3417.000000	0.010845
3416.000000	0.010873
3415.000000	0.010899
3414.000000	0.010921
3413.000000	0.010937
3412.000000	0.010951
3411.000000	0.010966
3410.000000	0.010987
3409.000000	0.011019
3408.000000	0.011068
3407.000000	0.011129
3406.000000	0.011192
3405.000000	0.011242
3404.000000	0.011271
3403.000000	0.011282
3402.000000	0.011289
3401.000000	0.011305
3400.000000	0.011331
3399.000000	0.011362
3398.000000	0.011392
3397.000000	0.011421
3396.000000	0.011451
3395.000000	0.011480
3394.000000	0.011510
3393.000000	0.011541
3392.000000	0.011570
3391.000000	0.011587
3390.000000	0.011590
3389.000000	0.011595
3388.000000	0.011620
3387.000000	0.011675
3386.000000	0.011749
3385.000000	0.011822
3384.000000	0.011877
3383.000000	0.011906
3382.000000	0.011910
3381.000000	0.011904
3380.000000	0.011906
3379.000000	0.011937
3378.000000	0.012003
3377.000000	0.012092
3376.000000	0.012182
3375.000000	0.012255
3374.000000	0.012304
3373.000000	0.012337
3372.000000	0.012367
3371.000000	0.012404
3370.000000	0.012447
3369.000000	0.012492
3368.000000	0.012533
3367.000000	0.012574
3366.000000	0.012615
3365.000000	0.012655
3364.000000	0.012694
3363.000000	0.012737
3362.000000	0.012790
3361.000000	0.012851
3360.000000	0.012915
3359.000000	0.012979
3358.000000	0.013043
3357.000000	0.013107
3356.000000	0.013168
3355.000000	0.013220
3354.000000	0.013262
3353.000000	0.013294
3352.000000	0.013320
3351.000000	0.013351
3350.000000	0.013399
3349.000000	0.013470
3348.000000	0.013553
3347.000000	0.013636
3346.000000	0.013707
3345.000000	0.013769
3344.000000	0.013823
3343.000000	0.013869
3342.000000	0.013904
3341.000000	0.013933
3340.000000	0.013968
3339.000000	0.014020
3338.000000	0.014088
3337.000000	0.014162
3336.000000	0.014224
3335.000000	0.014266
3334.000000	0.014300
3333.000000	0.014347
3332.000000	0.014419
3331.000000	0.014506
3330.000000	0.014585
3329.000000	0.014642
3328.000000	0.014680
3327.000000	0.014711
3326.000000	0.014740
3325.000000	0.014766
3324.000000	0.014786
3323.000000	0.014810
3322.000000	0.014846
3321.000000	0.014892
3320.000000	0.014940
3319.000000	0.014982
3318.000000	0.015022
3317.000000	0.015062
3316.000000	0.015102
3315.000000	0.015143
3314.000000	0.015185
3313.000000	0.015228
3312.000000	0.015265
3311.000000	0.015288
3310.000000	0.015292
3309.000000	0.015279
3308.000000	0.015253
3307.000000	0.015226
3306.000000	0.015211
3305.000000	0.015222
3304.000000	0.015261
3303.000000	0.015315
3302.000000	0.015374
3301.000000	0.015427
3300.000000	0.015473
3299.000000	0.015510
3298.000000	0.015535
3297.000000	0.015551
3296.000000	0.015562
3295.000000	0.015577
3294.000000	0.015599
3293.000000	0.015628
3292.000000	0.015653
3291.000000	0.015664
3290.000000	0.015662
3289.000000	0.015661
3288.000000	0.015673
3287.000000	0.015698
3286.000000	0.015724
3285.000000	0.015734
3284.000000	0.015720
3283.000000	0.015690
3282.000000	0.015662
3281.000000	0.015645
3280.000000	0.015637
3279.000000	0.015627
3278.000000	0.015605
3277.000000	0.015569
3276.000000	0.015521
3275.000000	0.015470
3274.000000	0.015432
3273.000000	0.015418
3272.000000	0.015425
3271.000000	0.015440
3270.000000	0.015446
3269.000000	0.015437
3268.000000	0.015419
3267.000000	0.015400
3266.000000	0.015386
3265.000000	0.015376
3264.000000	0.015360
3263.000000	0.015329
3262.000000	0.015278
3261.000000	0.015218
3260.000000	0.015168
3259.000000	0.015139
3258.000000	0.015131
3257.000000	0.015130
3256.000000	0.015120
3255.000000	0.015086
3254.000000	0.015024
3253.000000	0.014946
3252.000000	0.014876
3251.000000	0.014832
3250.000000	0.014812
3249.000000	0.014800
3248.000000	0.014789
3247.000000	0.014782
3246.000000	0.014779
3245.000000	0.014770
3244.000000	0.014744
3243.000000	0.014702
3242.000000	0.014662
3241.000000	0.014634
3240.000000	0.014618
3239.000000	0.014606
3238.000000	0.014591
3237.000000	0.014570
3236.000000	0.014543
3235.000000	0.014507
3234.000000	0.014461
3233.000000	0.014409
3232.000000	0.014355
3231.000000	0.014300
3230.000000	0.014251
3229.000000	0.014215
3228.000000	0.014198
3227.000000	0.014202
3226.000000	0.014221
3225.000000	0.014243
3224.000000	0.014257
3223.000000	0.014254
3222.000000	0.014234
3221.000000	0.014201
3220.000000	0.014162
3219.000000	0.014125
3218.000000	0.014098
3217.000000	0.014080
3216.000000	0.014067
3215.000000	0.014054
3214.000000	0.014041
3213.000000	0.014031
3212.000000	0.014019
3211.000000	0.014000
3210.000000	0.013974
3209.000000	0.013942
3208.000000	0.013907
3207.000000	0.013870
3206.000000	0.013837
3205.000000	0.013816
3204.000000	0.013811
3203.000000	0.013811
3202.000000	0.013798
3201.000000	0.013762
3200.000000	0.013706
3199.000000	0.013642
3198.000000	0.013586
3197.000000	0.013551
3196.000000	0.013542
3195.000000	0.013551
3194.000000	0.013561
3193.000000	0.013556
3192.000000	0.013532
3191.000000	0.013496
3190.000000	0.013461
3189.000000	0.013433
3188.000000	0.013406
3187.000000	0.013372
3186.000000	0.013330
3185.000000	0.013284
3184.000000	0.013235
3183.000000	0.013183
3182.000000	0.013131
3181.000000	0.013087
3180.000000	0.013060
3179.000000	0.013045
3178.000000	0.013031
3177.000000	0.013007
3176.000000	0.012970
3175.000000	0.012925
3174.000000	0.012876
3173.000000	0.012826
3172.000000	0.012774
3171.000000	0.012724
3170.000000	0.012678
3169.000000	0.012639
3168.000000	0.012601
3167.000000	0.012561
3166.000000	0.012522
3165.000000	0.012494
3164.000000	0.012480
3163.000000	0.012475
3162.000000	0.012469
3161.000000	0.012448
3160.000000	0.012404
3159.000000	0.012340
3158.000000	0.012269
3157.000000	0.012210
3156.000000	0.012171
3155.000000	0.012150
3154.000000	0.012134
3153.000000	0.012114
3152.000000	0.012088
3151.000000	0.012056
3150.000000	0.012020
3149.000000	0.011985
3148.000000	0.011951
3147.000000	0.011914
3146.000000	0.011876
3145.000000	0.011838
3144.000000	0.011801
3143.000000	0.011763
3142.000000	0.011726
3141.000000	0.011693
3140.000000	0.011667
3139.000000	0.011645
3138.000000	0.011627
3137.000000	0.011610
3136.000000	0.011592
3135.000000	0.011576
3134.000000	0.011564
3133.000000	0.011559
3132.000000	0.011560
3131.000000	0.011556
3130.000000	0.011541
3129.000000	0.011513
3128.000000	0.011477
3127.000000	0.011436
3126.000000	0.011395
3125.000000	0.011361
3124.000000	0.011339
3123.000000	0.011331
3122.000000	0.011335
3121.000000	0.011344
3120.000000	0.011348
3119.000000	0.011338
3118.000000	0.011312
3117.000000	0.011286
3116.000000	0.011275
3115.000000	0.011283
3114.000000	0.011298
3113.000000	0.011309
3112.000000	0.011313
3111.000000	0.011315
3110.000000	0.011313
3109.000000	0.011308
3108.000000	0.011306
3107.000000	0.011315
3106.000000	0.011338
3105.000000	0.011372
3104.000000	0.011413
3103.000000	0.011454
3102.000000	0.011487
3101.000000	0.011501
3100.000000	0.011497
3099.000000	0.011486
3098.000000	0.011482
3097.000000	0.011488
3096.000000	0.011499
3095.000000	0.011514
3094.000000	0.011532
3093.000000	0.011555
3092.000000	0.011583
3091.000000	0.011612
3090.000000	0.011640
3089.000000	0.011660
3088.000000	0.011666
3087.000000	0.011662
3086.000000	0.011659
3085.000000	0.011671
3084.000000	0.011699
3083.000000	0.011734
3082.000000	0.011761
3081.000000	0.011772
3080.000000	0.011772
3079.000000	0.011771
3078.000000	0.011783
3077.000000	0.011813
3076.000000	0.011852
3075.000000	0.011884
3074.000000	0.011898
3073.000000	0.011892
3072.000000	0.011873
3071.000000	0.011846
3070.000000	0.011809
3069.000000	0.011768
3068.000000	0.011730
3067.000000	0.011704
3066.000000	0.011695
3065.000000	0.011704
3064.000000	0.011725
3063.000000	0.011751
3062.000000	0.011773
3061.000000	0.011779
3060.000000	0.011763
3059.000000	0.011727
3058.000000	0.011683
3057.000000	0.011641
3056.000000	0.011601
3055.000000	0.011557
3054.000000	0.011505
3053.000000	0.011451
3052.000000	0.011408
3051.000000	0.011383
3050.000000	0.011371
3049.000000	0.011359
3048.000000	0.011335
3047.000000	0.011301
3046.000000	0.011265
3045.000000	0.011238
3044.000000	0.011220
3043.000000	0.011205
3042.000000	0.011188
3041.000000	0.011165
3040.000000	0.011135
3039.000000	0.011094
3038.000000	0.011046
3037.000000	0.010996
3036.000000	0.010948
3035.000000	0.010908
3034.000000	0.010878
3033.000000	0.010853
3032.000000	0.010819
3031.000000	0.010766
3030.000000	0.010701
3029.000000	0.010642
3028.000000	0.010599
3027.000000	0.010572
3026.000000	0.010553
3025.000000	0.010533
3024.000000	0.010506
3023.000000	0.010467
3022.000000	0.010417
3021.000000	0.010361
3020.000000	0.010307
3019.000000	0.010257
3018.000000	0.010214
3017.000000	0.010179
3016.000000	0.010157
3015.000000	0.010145
3014.000000	0.010138
3013.000000	0.010128
3012.000000	0.010108
3011.000000	0.010084
3010.000000	0.010068
3009.000000	0.010063
3008.000000	0.010059
3007.000000	0.010039
3006.000000	0.009998
3005.000000	0.009951
3004.000000	0.009916
3003.000000	0.009902
3002.000000	0.009907
3001.000000	0.009922
3000.000000	0.009935
2999.000000	0.009939
2998.000000	0.009941
2997.000000	0.009953
2996.000000	0.009984
2995.000000	0.010029
2994.000000	0.010081
2993.000000	0.010130
2992.000000	0.010173
2991.000000	0.010204
2990.000000	0.010227
2989.000000	0.010257
2988.000000	0.010310
2987.000000	0.010393
2986.000000	0.010496
2985.000000	0.010607
2984.000000	0.010715
2983.000000	0.010820
2982.000000	0.010923
2981.000000	0.011032
2980.000000	0.011149
2979.000000	0.011272
2978.000000	0.011396
2977.000000	0.011522
2976.000000	0.011652
2975.000000	0.011789
2974.000000	0.011936
2973.000000	0.012092
2972.000000	0.012257
2971.000000	0.012435
2970.000000	0.012632
2969.000000	0.012854
2968.000000	0.013098
2967.000000	0.013351
2966.000000	0.013593
2965.000000	0.013806
2964.000000	0.013981
2963.000000	0.014118
2962.000000	0.014226
2961.000000	0.014316
2960.000000	0.014397
2959.000000	0.014470
2958.000000	0.014537
2957.000000	0.014597
2956.000000	0.014648
2955.000000	0.014681
2954.000000	0.014691
2953.000000	0.014682
2952.000000	0.014663
2951.000000	0.014640
2950.000000	0.014621
2949.000000	0.014613
2948.000000	0.014628
2947.000000	0.014669
2946.000000	0.014739
2945.000000	0.014835
2944.000000	0.014954
2943.000000	0.015099
2942.000000	0.015275
2941.000000	0.015486
2940.000000	0.015727
2939.000000	0.015989
2938.000000	0.016263
2937.000000	0.016544
2936.000000	0.016825
2935.000000	0.017098
2934.000000	0.017357
2933.000000	0.017601
2932.000000	0.017827
2931.000000	0.018036
2930.000000	0.018236
2929.000000	0.018430
2928.000000	0.018616
2927.000000	0.018779
2926.000000	0.018917
2925.000000	0.019034
2924.000000	0.019131
2923.000000	0.019200
2922.000000	0.019226
2921.000000	0.019205
2920.000000	0.019137
2919.000000	0.019014
2918.000000	0.018828
2917.000000	0.018579
2916.000000	0.018277
2915.000000	0.017930
2914.000000	0.017549
2913.000000	0.017147
2912.000000	0.016746
2911.000000	0.016370
2910.000000	0.016035
2909.000000	0.015747
2908.000000	0.015499
2907.000000	0.015277
2906.000000	0.015066
2905.000000	0.014855
2904.000000	0.014641
2903.000000	0.014426
2902.000000	0.014219
2901.000000	0.014032
2900.000000	0.013868
2899.000000	0.013722
2898.000000	0.013580
2897.000000	0.013438
2896.000000	0.013295
2895.000000	0.013152
2894.000000	0.013010
2893.000000	0.012878
2892.000000	0.012762
2891.000000	0.012660
2890.000000	0.012569
2889.000000	0.012494
2888.000000	0.012439
2887.000000	0.012404
2886.000000	0.012380
2885.000000	0.012356
2884.000000	0.012330
2883.000000	0.012312
2882.000000	0.012313
2881.000000	0.012342
2880.000000	0.012398
2879.000000	0.012476
2878.000000	0.012575
2877.000000	0.012694
2876.000000	0.012826
2875.000000	0.012948
2874.000000	0.013034
2873.000000	0.013076
2872.000000	0.013092
2871.000000	0.013109
2870.000000	0.013138
2869.000000	0.013170
2868.000000	0.013195
2867.000000	0.013213
2866.000000	0.013241
2865.000000	0.013295
2864.000000	0.013386
2863.000000	0.013511
2862.000000	0.013661
2861.000000	0.013830
2860.000000	0.014012
2859.000000	0.014200
2858.000000	0.014387
2857.000000	0.014569
2856.000000	0.014736
2855.000000	0.014875
2854.000000	0.014975
2853.000000	0.015030
2852.000000	0.015033
2851.000000	0.014975
2850.000000	0.014839
2849.000000	0.014616
2848.000000	0.014303
2847.000000	0.013915
2846.000000	0.013480
2845.000000	0.013039
2844.000000	0.012637
2843.000000	0.012293
2842.000000	0.012003
2841.000000	0.011752
2840.000000	0.011529
2839.000000	0.011334
2838.000000	0.011168
2837.000000	0.011034
2836.000000	0.010929
2835.000000	0.010845
2834.000000	0.010771
2833.000000	0.010702
2832.000000	0.010641
2831.000000	0.010592
2830.000000	0.010551
2829.000000	0.010514
2828.000000	0.010473
2827.000000	0.010427
2826.000000	0.010374
2825.000000	0.010318
2824.000000	0.010263
2823.000000	0.010217
2822.000000	0.010187
2821.000000	0.010173
2820.000000	0.010165
2819.000000	0.010151
2818.000000	0.010128
2817.000000	0.010103
2816.000000	0.010083
2815.000000	0.010068
2814.000000	0.010051
2813.000000	0.010031
2812.000000	0.010006
2811.000000	0.009974
2810.000000	0.009932
2809.000000	0.009882
2808.000000	0.009836
2807.000000	0.009805
2806.000000	0.009787
2805.000000	0.009772
2804.000000	0.009748
2803.000000	0.009712
2802.000000	0.009667
2801.000000	0.009626
2800.000000	0.009595
2799.000000	0.009576
2798.000000	0.009564
2797.000000	0.009560
2796.000000	0.009561
2795.000000	0.009564
2794.000000	0.009563
2793.000000	0.009552
2792.000000	0.009532
2791.000000	0.009504
2790.000000	0.009472
2789.000000	0.009444
2788.000000	0.009428
2787.000000	0.009420
2786.000000	0.009412
2785.000000	0.009396
2784.000000	0.009378
2783.000000	0.009363
2782.000000	0.009348
2781.000000	0.009331
2780.000000	0.009310
2779.000000	0.009294
2778.000000	0.009285
2777.000000	0.009282
2776.000000	0.009275
2775.000000	0.009258
2774.000000	0.009233
2773.000000	0.009208
2772.000000	0.009194
2771.000000	0.009188
2770.000000	0.009181
2769.000000	0.009164
2768.000000	0.009144
2767.000000	0.009133
2766.000000	0.009132
2765.000000	0.009130
2764.000000	0.009117
2763.000000	0.009096
2762.000000	0.009080
2761.000000	0.009075
2760.000000	0.009084
2759.000000	0.009098
2758.000000	0.009109
2757.000000	0.009107
2756.000000	0.009090
2755.000000	0.009059
2754.000000	0.009020
2753.000000	0.008977
2752.000000	0.008934
2751.000000	0.008899
2750.000000	0.008874
2749.000000	0.008859
2748.000000	0.008851
2747.000000	0.008848
2746.000000	0.008850
2745.000000	0.008855
2744.000000	0.008861
2743.000000	0.008865
2742.000000	0.008866
2741.000000	0.008867
2740.000000	0.008872
2739.000000	0.008881
2738.000000	0.008888
2737.000000	0.008884
2736.000000	0.008863
2735.000000	0.008824
2734.000000	0.008778
2733.000000	0.008739
2732.000000	0.008724
2731.000000	0.008741
2730.000000	0.008780
2729.000000	0.008817
2728.000000	0.008833
2727.000000	0.008824
2726.000000	0.008802
2725.000000	0.008783
2724.000000	0.008777
2723.000000	0.008782
2722.000000	0.008789
2721.000000	0.008786
2720.000000	0.008770
2719.000000	0.008747
2718.000000	0.008726
2717.000000	0.008708
2716.000000	0.008687
2715.000000	0.008663
2714.000000	0.008640
2713.000000	0.008624
2712.000000	0.008617
2711.000000	0.008617
2710.000000	0.008619
2709.000000	0.008620
2708.000000	0.008611
2707.000000	0.008594
2706.000000	0.008575
2705.000000	0.008564
2704.000000	0.008563
2703.000000	0.008564
2702.000000	0.008563
2701.000000	0.008556
2700.000000	0.008545
2699.000000	0.008532
2698.000000	0.008523
2697.000000	0.008525
2696.000000	0.008538
2695.000000	0.008560
2694.000000	0.008579
2693.000000	0.008588
2692.000000	0.008579
2691.000000	0.008556
2690.000000	0.008529
2689.000000	0.008509
2688.000000	0.008497
2687.000000	0.008486
2686.000000	0.008474
2685.000000	0.008468
2684.000000	0.008473
2683.000000	0.008481
2682.000000	0.008479
2681.000000	0.008463
2680.000000	0.008445
2679.000000	0.008438
2678.000000	0.008444
2677.000000	0.008455
2676.000000	0.008464
2675.000000	0.008474
2674.000000	0.008490
2673.000000	0.008510
2672.000000	0.008527
2671.000000	0.008531
2670.000000	0.008521
2669.000000	0.008501
2668.000000	0.008481
2667.000000	0.008466
2666.000000	0.008459
2665.000000	0.008459
2664.000000	0.008464
2663.000000	0.008472
2662.000000	0.008481
2661.000000	0.008485
2660.000000	0.008478
2659.000000	0.008457
2658.000000	0.008426
2657.000000	0.008402
2656.000000	0.008399
2655.000000	0.008415
2654.000000	0.008433
2653.000000	0.008430
2652.000000	0.008401
2651.000000	0.008357
2650.000000	0.008316
2649.000000	0.008289
2648.000000	0.008275
2647.000000	0.008268
2646.000000	0.008258
2645.000000	0.008240
2644.000000	0.008216
2643.000000	0.008189
2642.000000	0.008162
2641.000000	0.008137
2640.000000	0.008116
2639.000000	0.008105
2638.000000	0.008108
2637.000000	0.008113
2636.000000	0.008106
2635.000000	0.008078
2634.000000	0.008032
2633.000000	0.007978
2632.000000	0.007930
2631.000000	0.007898
2630.000000	0.007887
2629.000000	0.007890
2628.000000	0.007890
2627.000000	0.007875
2626.000000	0.007847
2625.000000	0.007820
2624.000000	0.007807
2623.000000	0.007811
2622.000000	0.007828
2621.000000	0.007849
2620.000000	0.007862
2619.000000	0.007861
2618.000000	0.007841
2617.000000	0.007803
2616.000000	0.007754
2615.000000	0.007709
2614.000000	0.007682
2613.000000	0.007677
2612.000000	0.007683
2611.000000	0.007679
2610.000000	0.007656
2609.000000	0.007617
2608.000000	0.007576
2607.000000	0.007549
2606.000000	0.007545
2605.000000	0.007562
2604.000000	0.007587
2603.000000	0.007603
2602.000000	0.007607
2601.000000	0.007599
2600.000000	0.007580
2599.000000	0.007550
2598.000000	0.007515
2597.000000	0.007484
2596.000000	0.007466
2595.000000	0.007466
2594.000000	0.007481
2593.000000	0.007500
2592.000000	0.007508
2591.000000	0.007499
2590.000000	0.007482
2589.000000	0.007468
2588.000000	0.007453
2587.000000	0.007432
2586.000000	0.007415
2585.000000	0.007416
2584.000000	0.007423
2583.000000	0.007410
2582.000000	0.007371
2581.000000	0.007343
2580.000000	0.007365
2579.000000	0.007430
2578.000000	0.007487
2577.000000	0.007488
2576.000000	0.007431
2575.000000	0.007351
2574.000000	0.007288
2573.000000	0.007259
2572.000000	0.007260
2571.000000	0.007277
2570.000000	0.007296
2569.000000	0.007311
2568.000000	0.007319
2567.000000	0.007320
2566.000000	0.007309
2565.000000	0.007279
2564.000000	0.007233
2563.000000	0.007187
2562.000000	0.007168
2561.000000	0.007191
2560.000000	0.007236
2559.000000	0.007264
2558.000000	0.007252
2557.000000	0.007219
2556.000000	0.007201
2555.000000	0.007212
2554.000000	0.007232
2553.000000	0.007230
2552.000000	0.007191
2551.000000	0.007130
2550.000000	0.007072
2549.000000	0.007039
2548.000000	0.007040
2547.000000	0.007068
2546.000000	0.007095
2545.000000	0.007094
2544.000000	0.007061
2543.000000	0.007020
2542.000000	0.007006
2541.000000	0.007029
2540.000000	0.007074
2539.000000	0.007114
2538.000000	0.007142
2537.000000	0.007161
2536.000000	0.007174
2535.000000	0.007179
2534.000000	0.007178
2533.000000	0.007181
2532.000000	0.007192
2531.000000	0.007211
2530.000000	0.007226
2529.000000	0.007226
2528.000000	0.007204
2527.000000	0.007173
2526.000000	0.007159
2525.000000	0.007180
2524.000000	0.007227
2523.000000	0.007271
2522.000000	0.007287
2521.000000	0.007280
2520.000000	0.007264
2519.000000	0.007254
2518.000000	0.007249
2517.000000	0.007246
2516.000000	0.007239
2515.000000	0.007231
2514.000000	0.007228
2513.000000	0.007232
2512.000000	0.007228
2511.000000	0.007204
2510.000000	0.007166
2509.000000	0.007138
2508.000000	0.007139
2507.000000	0.007159
2506.000000	0.007166
2505.000000	0.007129
2504.000000	0.007046
2503.000000	0.006949
2502.000000	0.006885
2501.000000	0.006882
2500.000000	0.006921
2499.000000	0.006964
2498.000000	0.006989
2497.000000	0.007008
2496.000000	0.007032
2495.000000	0.007048
2494.000000	0.007029
2493.000000	0.006967
2492.000000	0.006888
2491.000000	0.006830
2490.000000	0.006815
2489.000000	0.006828
2488.000000	0.006840
2487.000000	0.006834
2486.000000	0.006822
2485.000000	0.006827
2484.000000	0.006850
2483.000000	0.006866
2482.000000	0.006857
2481.000000	0.006832
2480.000000	0.006810
2479.000000	0.006797
2478.000000	0.006782
2477.000000	0.006759
2476.000000	0.006732
2475.000000	0.006713
2474.000000	0.006705
2473.000000	0.006702
2472.000000	0.006690
2471.000000	0.006662
2470.000000	0.006625
2469.000000	0.006599
2468.000000	0.006607
2467.000000	0.006658
2466.000000	0.006739
2465.000000	0.006819
2464.000000	0.006861
2463.000000	0.006849
2462.000000	0.006796
2461.000000	0.006739
2460.000000	0.006709
2459.000000	0.006710
2458.000000	0.006727
2457.000000	0.006745
2456.000000	0.006751
2455.000000	0.006731
2454.000000	0.006687
2453.000000	0.006644
2452.000000	0.006638
2451.000000	0.006685
2450.000000	0.006757
2449.000000	0.006805
2448.000000	0.006799
2447.000000	0.006747
2446.000000	0.006678
2445.000000	0.006620
2444.000000	0.006585
2443.000000	0.006567
2442.000000	0.006558
2441.000000	0.006549
2440.000000	0.006540
2439.000000	0.006531
2438.000000	0.006528
2437.000000	0.006539
2436.000000	0.006564
2435.000000	0.006587
2434.000000	0.006584
2433.000000	0.006541
2432.000000	0.006479
2431.000000	0.006437
2430.000000	0.006435
2429.000000	0.006460
2428.000000	0.006484
2427.000000	0.006496
2426.000000	0.006503
2425.000000	0.006513
2424.000000	0.006533
2423.000000	0.006567
2422.000000	0.006616
2421.000000	0.006662
2420.000000	0.006679
2419.000000	0.006663
2418.000000	0.006638
2417.000000	0.006626
2416.000000	0.006627
2415.000000	0.006629
2414.000000	0.006631
2413.000000	0.006633
2412.000000	0.006628
2411.000000	0.006609
2410.000000	0.006585
2409.000000	0.006571
2408.000000	0.006568
2407.000000	0.006561
2406.000000	0.006542
2405.000000	0.006521
2404.000000	0.006508
2403.000000	0.006507
2402.000000	0.006519
2401.000000	0.006542
2400.000000	0.006561
2399.000000	0.006562
2398.000000	0.006549
2397.000000	0.006543
2396.000000	0.006559
2395.000000	0.006584
2394.000000	0.006591
2393.000000	0.006571
2392.000000	0.006534
2391.000000	0.006498
2390.000000	0.006478
2389.000000	0.006479
2388.000000	0.006495
2387.000000	0.006512
2386.000000	0.006519
2385.000000	0.006507
2384.000000	0.006470
2383.000000	0.006413
2382.000000	0.006351
2381.000000	0.006304
2380.000000	0.006273
2379.000000	0.006246
2378.000000	0.006219
2377.000000	0.006209
2376.000000	0.006239
2375.000000	0.006308
2374.000000	0.006379
2373.000000	0.006412
2372.000000	0.006400
2371.000000	0.006378
2370.000000	0.006380
2369.000000	0.006401
2368.000000	0.006408
2367.000000	0.006390
2366.000000	0.006378
2365.000000	0.006409
2364.000000	0.006482
2363.000000	0.006560
2362.000000	0.006602
2361.000000	0.006579
2360.000000	0.006499
2359.000000	0.006401
2358.000000	0.006328
2357.000000	0.006298
2356.000000	0.006320
2355.000000	0.006392
2354.000000	0.006470
2353.000000	0.006494
2352.000000	0.006461
2351.000000	0.006425
2350.000000	0.006426
2349.000000	0.006463
2348.000000	0.006504
2347.000000	0.006510
2346.000000	0.006486
2345.000000	0.006478
2344.000000	0.006508
2343.000000	0.006546
2342.000000	0.006552
2341.000000	0.006521
2340.000000	0.006480
2339.000000	0.006470
2338.000000	0.006498
2337.000000	0.006539
2336.000000	0.006560
2335.000000	0.006544
2334.000000	0.006493
2333.000000	0.006428
2332.000000	0.006390
2331.000000	0.006412
2330.000000	0.006488
2329.000000	0.006580
2328.000000	0.006664
2327.000000	0.006744
2326.000000	0.006827
2325.000000	0.006902
2324.000000	0.006940
2323.000000	0.006928
2322.000000	0.006890
2321.000000	0.006872
2320.000000	0.006897
2319.000000	0.006934
2318.000000	0.006934
2317.000000	0.006876
2316.000000	0.006782
2315.000000	0.006693
2314.000000	0.006632
2313.000000	0.006597
2312.000000	0.006577
2311.000000	0.006563
2310.000000	0.006563
2309.000000	0.006579
2308.000000	0.006605
2307.000000	0.006629
2306.000000	0.006654
2305.000000	0.006683
2304.000000	0.006703
2303.000000	0.006693
2302.000000	0.006657
2301.000000	0.006627
2300.000000	0.006620
2299.000000	0.006620
2298.000000	0.006603
2297.000000	0.006575
2296.000000	0.006563
2295.000000	0.006584
2294.000000	0.006630
2293.000000	0.006682
2292.000000	0.006725
2291.000000	0.006745
2290.000000	0.006743
2289.000000	0.006734
2288.000000	0.006736
2287.000000	0.006751
2286.000000	0.006774
2285.000000	0.006798
2284.000000	0.006809
2283.000000	0.006797
2282.000000	0.006762
2281.000000	0.006714
2280.000000	0.006654
2279.000000	0.006576
2278.000000	0.006495
2277.000000	0.006449
2276.000000	0.006463
2275.000000	0.006517
2274.000000	0.006572
2273.000000	0.006616
2272.000000	0.006656
2271.000000	0.006672
2270.000000	0.006629
2269.000000	0.006521
2268.000000	0.006397
2267.000000	0.006316
2266.000000	0.006303
2265.000000	0.006332
2264.000000	0.006360
2263.000000	0.006362
2262.000000	0.006345
2261.000000	0.006335
2260.000000	0.006348
2259.000000	0.006369
2258.000000	0.006376
2257.000000	0.006351
2256.000000	0.006276
2255.000000	0.006143
2254.000000	0.005988
2253.000000	0.005893
2252.000000	0.005918
2251.000000	0.006036
2250.000000	0.006156
2249.000000	0.006214
2248.000000	0.006225
2247.000000	0.006238
2246.000000	0.006271
2245.000000	0.006299
2244.000000	0.006302
2243.000000	0.006289
2242.000000	0.006288
2241.000000	0.006305
2240.000000	0.006313
2239.000000	0.006269
2238.000000	0.006153
2237.000000	0.005979
2236.000000	0.005783
2235.000000	0.005600
2234.000000	0.005473
2233.000000	0.005455
2232.000000	0.005581
2231.000000	0.005836
2230.000000	0.006138
2229.000000	0.006376
2228.000000	0.006470
2227.000000	0.006421
2226.000000	0.006295
2225.000000	0.006171
2224.000000	0.006097
2223.000000	0.006077
2222.000000	0.006084
2221.000000	0.006068
2220.000000	0.005983
2219.000000	0.005846
2218.000000	0.005742
2217.000000	0.005764
2216.000000	0.005911
2215.000000	0.006092
2214.000000	0.006210
2213.000000	0.006229
2212.000000	0.006174
2211.000000	0.006091
2210.000000	0.006033
2209.000000	0.006034
2208.000000	0.006071
2207.000000	0.006089
2206.000000	0.006060
2205.000000	0.006016
2204.000000	0.005992
2203.000000	0.005988
2202.000000	0.005984
2201.000000	0.005986
2200.000000	0.006012
2199.000000	0.006057
2198.000000	0.006106
2197.000000	0.006165
2196.000000	0.006252
2195.000000	0.006356
2194.000000	0.006426
2193.000000	0.006419
2192.000000	0.006334
2191.000000	0.006215
2190.000000	0.006095
2189.000000	0.005974
2188.000000	0.005836
2187.000000	0.005681
2186.000000	0.005543
2185.000000	0.005462
2184.000000	0.005459
2183.000000	0.005528
2182.000000	0.005643
2181.000000	0.005751
2180.000000	0.005777
2179.000000	0.005684
2178.000000	0.005511
2177.000000	0.005332
2176.000000	0.005212
2175.000000	0.005201
2174.000000	0.005343
2173.000000	0.005626
2172.000000	0.005939
2171.000000	0.006144
2170.000000	0.006195
2169.000000	0.006163
2168.000000	0.006133
2167.000000	0.006118
2166.000000	0.006090
2165.000000	0.006043
2164.000000	0.006007
2163.000000	0.006002
2162.000000	0.005998
2161.000000	0.005907
2160.000000	0.005644
2159.000000	0.005225
2158.000000	0.004804
2157.000000	0.004527
2156.000000	0.004378
2155.000000	0.004260
2154.000000	0.004148
2153.000000	0.004103
2152.000000	0.004154
2151.000000	0.004252
2150.000000	0.004332
2149.000000	0.004384
2148.000000	0.004440
2147.000000	0.004522
2146.000000	0.004629
2145.000000	0.004739
2144.000000	0.004834
2143.000000	0.004913
2142.000000	0.004989
2141.000000	0.005070
2140.000000	0.005145
2139.000000	0.005200
2138.000000	0.005212
2137.000000	0.005152
2136.000000	0.005026
2135.000000	0.004929
2134.000000	0.004984
2133.000000	0.005209
2132.000000	0.005477
2131.000000	0.005642
2130.000000	0.005675
2129.000000	0.005628
2128.000000	0.005550
2127.000000	0.005466
2126.000000	0.005424
2125.000000	0.005471
2124.000000	0.005593
2123.000000	0.005719
2122.000000	0.005801
2121.000000	0.005843
2120.000000	0.005859
2119.000000	0.005855
2118.000000	0.005846
2117.000000	0.005855
2116.000000	0.005887
2115.000000	0.005934
2114.000000	0.006006
2113.000000	0.006111
2112.000000	0.006211
2111.000000	0.006230
2110.000000	0.006149
2109.000000	0.006033
2108.000000	0.005958
2107.000000	0.005930
2106.000000	0.005913
2105.000000	0.005891
2104.000000	0.005874
2103.000000	0.005864
2102.000000	0.005852
2101.000000	0.005831
2100.000000	0.005794
2099.000000	0.005743
2098.000000	0.005714
2097.000000	0.005747
2096.000000	0.005827
2095.000000	0.005881
2094.000000	0.005871
2093.000000	0.005846
2092.000000	0.005873
2091.000000	0.005952
2090.000000	0.006016
2089.000000	0.006009
2088.000000	0.005933
2087.000000	0.005838
2086.000000	0.005778
2085.000000	0.005767
2084.000000	0.005759
2083.000000	0.005690
2082.000000	0.005567
2081.000000	0.005487
2080.000000	0.005527
2079.000000	0.005658
2078.000000	0.005777
2077.000000	0.005821
2076.000000	0.005810
2075.000000	0.005782
2074.000000	0.005740
2073.000000	0.005664
2072.000000	0.005563
2071.000000	0.005487
2070.000000	0.005487
2069.000000	0.005569
2068.000000	0.005682
2067.000000	0.005758
2066.000000	0.005766
2065.000000	0.005715
2064.000000	0.005622
2063.000000	0.005506
2062.000000	0.005407
2061.000000	0.005364
2060.000000	0.005372
2059.000000	0.005382
2058.000000	0.005361
2057.000000	0.005332
2056.000000	0.005340
2055.000000	0.005413
2054.000000	0.005555
2053.000000	0.005747
2052.000000	0.005917
2051.000000	0.005968
2050.000000	0.005854
2049.000000	0.005635
2048.000000	0.005413
2047.000000	0.005241
2046.000000	0.005132
2045.000000	0.005100
2044.000000	0.005133
2043.000000	0.005149
2042.000000	0.005073
2041.000000	0.004944
2040.000000	0.004907
2039.000000	0.005070
2038.000000	0.005390
2037.000000	0.005697
2036.000000	0.005801
2035.000000	0.005623
2034.000000	0.005237
2033.000000	0.004817
2032.000000	0.004512
2031.000000	0.004379
2030.000000	0.004403
2029.000000	0.004520
2028.000000	0.004622
2027.000000	0.004624
2026.000000	0.004548
2025.000000	0.004517
2024.000000	0.004621
2023.000000	0.004807
2022.000000	0.004914
2021.000000	0.004808
2020.000000	0.004501
2019.000000	0.004182
2018.000000	0.004084
2017.000000	0.004272
2016.000000	0.004563
2015.000000	0.004723
2014.000000	0.004697
2013.000000	0.004591
2012.000000	0.004493
2011.000000	0.004421
2010.000000	0.004405
2009.000000	0.004509
2008.000000	0.004724
2007.000000	0.004935
2006.000000	0.005027
2005.000000	0.004967
2004.000000	0.004796
2003.000000	0.004604
2002.000000	0.004514
2001.000000	0.004600
2000.000000	0.004804
1999.000000	0.004995
1998.000000	0.005122
1997.000000	0.005225
1996.000000	0.005321
1995.000000	0.005369
1994.000000	0.005367
1993.000000	0.005382
1992.000000	0.005440
1991.000000	0.005462
1990.000000	0.005378
1989.000000	0.005232
1988.000000	0.005117
1987.000000	0.005072
1986.000000	0.005091
1985.000000	0.005180
1984.000000	0.005332
1983.000000	0.005508
1982.000000	0.005681
1981.000000	0.005855
1980.000000	0.005994
1979.000000	0.005964
1978.000000	0.005660
1977.000000	0.005182
1976.000000	0.004767
1975.000000	0.004538
1974.000000	0.004420
1973.000000	0.004319
1972.000000	0.004244
1971.000000	0.004254
1970.000000	0.004345
1969.000000	0.004425
1968.000000	0.004405
1967.000000	0.004290
1966.000000	0.004180
1965.000000	0.004174
1964.000000	0.004271
1963.000000	0.004380
1962.000000	0.004407
1961.000000	0.004329
1960.000000	0.004211
1959.000000	0.004154
1958.000000	0.004204
1957.000000	0.004305
1956.000000	0.004363
1955.000000	0.004366
1954.000000	0.004398
1953.000000	0.004522
1952.000000	0.004700
1951.000000	0.004862
1950.000000	0.004990
1949.000000	0.005078
1948.000000	0.005069
1947.000000	0.004919
1946.000000	0.004704
1945.000000	0.004573
1944.000000	0.004599
1943.000000	0.004713
1942.000000	0.004797
1941.000000	0.004808
1940.000000	0.004787
1939.000000	0.004794
1938.000000	0.004846
1937.000000	0.004896
1936.000000	0.004870
1935.000000	0.004768
1934.000000	0.004691
1933.000000	0.004739
1932.000000	0.004881
1931.000000	0.004986
1930.000000	0.004969
1929.000000	0.004831
1928.000000	0.004619
1927.000000	0.004410
1926.000000	0.004321
1925.000000	0.004428
1924.000000	0.004652
1923.000000	0.004804
1922.000000	0.004797
1921.000000	0.004728
1920.000000	0.004733
1919.000000	0.004830
1918.000000	0.004959
1917.000000	0.005068
1916.000000	0.005142
1915.000000	0.005166
1914.000000	0.005142
1913.000000	0.005103
1912.000000	0.005082
1911.000000	0.005075
1910.000000	0.005061
1909.000000	0.005035
1908.000000	0.004996
1907.000000	0.004936
1906.000000	0.004872
1905.000000	0.004855
1904.000000	0.004907
1903.000000	0.004990
1902.000000	0.005055
1901.000000	0.005079
1900.000000	0.005066
1899.000000	0.005020
1898.000000	0.004961
1897.000000	0.004936
1896.000000	0.004957
1895.000000	0.004977
1894.000000	0.004946
1893.000000	0.004876
1892.000000	0.004817
1891.000000	0.004793
1890.000000	0.004788
1889.000000	0.004783
1888.000000	0.004775
1887.000000	0.004769
1886.000000	0.004763
1885.000000	0.004754
1884.000000	0.004740
1883.000000	0.004733
1882.000000	0.004752
1881.000000	0.004798
1880.000000	0.004839
1879.000000	0.004833
1878.000000	0.004779
1877.000000	0.004732
1876.000000	0.004736
1875.000000	0.004769
1874.000000	0.004778
1873.000000	0.004746
1872.000000	0.004709
1871.000000	0.004703
1870.000000	0.004727
1869.000000	0.004743
1868.000000	0.004725
1867.000000	0.004691
1866.000000	0.004669
1865.000000	0.004663
1864.000000	0.004654
1863.000000	0.004632
1862.000000	0.004615
1861.000000	0.004620
1860.000000	0.004637
1859.000000	0.004645
1858.000000	0.004642
1857.000000	0.004643
1856.000000	0.004649
1855.000000	0.004643
1854.000000	0.004631
1853.000000	0.004621
1852.000000	0.004618
1851.000000	0.004613
1850.000000	0.004595
1849.000000	0.004548
1848.000000	0.004470
1847.000000	0.004386
1846.000000	0.004341
1845.000000	0.004348
1844.000000	0.004369
1843.000000	0.004377
1842.000000	0.004395
1841.000000	0.004440
1840.000000	0.004499
1839.000000	0.004530
1838.000000	0.004526
1837.000000	0.004515
1836.000000	0.004502
1835.000000	0.004468
1834.000000	0.004414
1833.000000	0.004369
1832.000000	0.004357
1831.000000	0.004347
1830.000000	0.004291
1829.000000	0.004219
1828.000000	0.004207
1827.000000	0.004273
1826.000000	0.004360
1825.000000	0.004402
1824.000000	0.004394
1823.000000	0.004383
1822.000000	0.004398
1821.000000	0.004424
1820.000000	0.004431
1819.000000	0.004403
1818.000000	0.004368
1817.000000	0.004358
1816.000000	0.004365
1815.000000	0.004359
1814.000000	0.004336
1813.000000	0.004321
1812.000000	0.004330
1811.000000	0.004338
1810.000000	0.004339
1809.000000	0.004355
1808.000000	0.004396
1807.000000	0.004446
1806.000000	0.004490
1805.000000	0.004541
1804.000000	0.004602
1803.000000	0.004666
1802.000000	0.004718
1801.000000	0.004757
1800.000000	0.004791
1799.000000	0.004816
1798.000000	0.004821
1797.000000	0.004798
1796.000000	0.004748
1795.000000	0.004695
1794.000000	0.004673
1793.000000	0.004688
1792.000000	0.004705
1791.000000	0.004686
1790.000000	0.004637
1789.000000	0.004588
1788.000000	0.004559
1787.000000	0.004544
1786.000000	0.004534
1785.000000	0.004521
1784.000000	0.004502
1783.000000	0.004496
1782.000000	0.004504
1781.000000	0.004510
1780.000000	0.004501
1779.000000	0.004474
1778.000000	0.004433
1777.000000	0.004361
1776.000000	0.004259
1775.000000	0.004176
1774.000000	0.004166
1773.000000	0.004207
1772.000000	0.004239
1771.000000	0.004258
1770.000000	0.004313
1769.000000	0.004427
1768.000000	0.004543
1767.000000	0.004601
1766.000000	0.004616
1765.000000	0.004658
1764.000000	0.004768
1763.000000	0.004917
1762.000000	0.005042
1761.000000	0.005149
1760.000000	0.005297
1759.000000	0.005533
1758.000000	0.005860
1757.000000	0.006220
1756.000000	0.006537
1755.000000	0.006800
1754.000000	0.007073
1753.000000	0.007438
1752.000000	0.007927
1751.000000	0.008477
1750.000000	0.009026
1749.000000	0.009551
1748.000000	0.010027
1747.000000	0.010445
1746.000000	0.010825
1745.000000	0.011189
1744.000000	0.011504
1743.000000	0.011730
1742.000000	0.011896
1741.000000	0.012054
1740.000000	0.012131
1739.000000	0.012027
1738.000000	0.011807
1737.000000	0.011622
1736.000000	0.011529
1735.000000	0.011364
1734.000000	0.010963
1733.000000	0.010554
1732.000000	0.010370
1731.000000	0.010294
1730.000000	0.010152
1729.000000	0.009897
1728.000000	0.009575
1727.000000	0.009240
1726.000000	0.008909
1725.000000	0.008602
1724.000000	0.008305
1723.000000	0.007964
1722.000000	0.007580
1721.000000	0.007226
1720.000000	0.006972
1719.000000	0.006804
1718.000000	0.006678
1717.000000	0.006643
1716.000000	0.006733
1715.000000	0.006851
1714.000000	0.006920
1713.000000	0.006963
1712.000000	0.007014
1711.000000	0.007065
1710.000000	0.007108
1709.000000	0.007182
1708.000000	0.007349
1707.000000	0.007594
1706.000000	0.007822
1705.000000	0.007942
1704.000000	0.007966
1703.000000	0.008021
1702.000000	0.008288
1701.000000	0.008768
1700.000000	0.009204
1699.000000	0.009452
1698.000000	0.009699
1697.000000	0.010193
1696.000000	0.010893
1695.000000	0.011531
1694.000000	0.011989
1693.000000	0.012364
1692.000000	0.012750
1691.000000	0.013165
1690.000000	0.013564
1689.000000	0.013859
1688.000000	0.014013
1687.000000	0.014115
1686.000000	0.014407
1685.000000	0.015077
1684.000000	0.015968
1683.000000	0.016736
1682.000000	0.017332
1681.000000	0.017882
1680.000000	0.018397
1679.000000	0.018833
1678.000000	0.019244
1677.000000	0.019791
1676.000000	0.020524
1675.000000	0.021267
1674.000000	0.021836
1673.000000	0.022303
1672.000000	0.022844
1671.000000	0.023553
1670.000000	0.024411
1669.000000	0.025300
1668.000000	0.026076
1667.000000	0.026671
1666.000000	0.027151
1665.000000	0.027676
1664.000000	0.028348
1663.000000	0.029109
1662.000000	0.029820
1661.000000	0.030425
1660.000000	0.030957
1659.000000	0.031393
1658.000000	0.031657
1657.000000	0.031729
1656.000000	0.031744
1655.000000	0.031962
1654.000000	0.032570
1653.000000	0.033348
1652.000000	0.033904
1651.000000	0.034198
1650.000000	0.034365
1649.000000	0.034540
1648.000000	0.034848
1647.000000	0.035256
1646.000000	0.035588
1645.000000	0.035789
1644.000000	0.035924
1643.000000	0.036032
1642.000000	0.036115
1641.000000	0.036150
1640.000000	0.036122
1639.000000	0.036041
1638.000000	0.036009
1637.000000	0.036154
1636.000000	0.036463
1635.000000	0.036737
1634.000000	0.036867
1633.000000	0.036910
1632.000000	0.036894
1631.000000	0.036815
1630.000000	0.036678
1629.000000	0.036497
1628.000000	0.036255
1627.000000	0.035933
1626.000000	0.035563
1625.000000	0.035196
1624.000000	0.034823
1623.000000	0.034370
1622.000000	0.033813
1621.000000	0.033207
1620.000000	0.032598
1619.000000	0.032009
1618.000000	0.031433
1617.000000	0.030818
1616.000000	0.030165
1615.000000	0.029562
1614.000000	0.029038
1613.000000	0.028547
1612.000000	0.028036
1611.000000	0.027496
1610.000000	0.026948
1609.000000	0.026407
1608.000000	0.025870
1607.000000	0.025349
1606.000000	0.024860
1605.000000	0.024398
1604.000000	0.023954
1603.000000	0.023535
1602.000000	0.023149
1601.000000	0.022786
1600.000000	0.022431
1599.000000	0.022093
1598.000000	0.021790
1597.000000	0.021529
1596.000000	0.021304
1595.000000	0.021113
1594.000000	0.020951
1593.000000	0.020801
1592.000000	0.020650
1591.000000	0.020515
1590.000000	0.020423
1589.000000	0.020373
1588.000000	0.020348
1587.000000	0.020344
1586.000000	0.020379
1585.000000	0.020446
1584.000000	0.020533
1583.000000	0.020649
1582.000000	0.020784
1581.000000	0.020877
1580.000000	0.020890
1579.000000	0.020880
1578.000000	0.020978
1577.000000	0.021258
1576.000000	0.021617
1575.000000	0.021911
1574.000000	0.022113
1573.000000	0.022261
1572.000000	0.022426
1571.000000	0.022692
1570.000000	0.023078
1569.000000	0.023487
1568.000000	0.023841
1567.000000	0.024180
1566.000000	0.024563
1565.000000	0.024934
1564.000000	0.025167
1563.000000	0.025207
1562.000000	0.025167
1561.000000	0.025296
1560.000000	0.025835
1559.000000	0.026725
1558.000000	0.027530
1557.000000	0.028093
1556.000000	0.028593
1555.000000	0.029118
1554.000000	0.029635
1553.000000	0.030096
1552.000000	0.030530
1551.000000	0.030972
1550.000000	0.031401
1549.000000	0.031751
1548.000000	0.032003
1547.000000	0.032210
1546.000000	0.032412
1545.000000	0.032585
1544.000000	0.032678
1543.000000	0.032688
1542.000000	0.032716
1541.000000	0.032910
1540.000000	0.033247
1539.000000	0.033524
1538.000000	0.033659
1537.000000	0.033700
1536.000000	0.033693
1535.000000	0.033675
1534.000000	0.033619
1533.000000	0.033492
1532.000000	0.033333
1531.000000	0.033171
1530.000000	0.033002
1529.000000	0.032824
1528.000000	0.032632
1527.000000	0.032403
1526.000000	0.032107
1525.000000	0.031767
1524.000000	0.031457
1523.000000	0.031225
1522.000000	0.031024
1521.000000	0.030791
1520.000000	0.030578
1519.000000	0.030455
1518.000000	0.030387
1517.000000	0.030290
1516.000000	0.030106
1515.000000	0.029860
1514.000000	0.029591
1513.000000	0.029294
1512.000000	0.028924
1511.000000	0.028447
1510.000000	0.027891
1509.000000	0.027346
1508.000000	0.026895
1507.000000	0.026501
1506.000000	0.026120
1505.000000	0.025862
1504.000000	0.025738
1503.000000	0.025615
1502.000000	0.025395
1501.000000	0.025049
1500.000000	0.024606
1499.000000	0.024128
1498.000000	0.023679
1497.000000	0.023313
1496.000000	0.023025
1495.000000	0.022765
1494.000000	0.022499
1493.000000	0.022242
1492.000000	0.022009
1491.000000	0.021785
1490.000000	0.021566
1489.000000	0.021418
1488.000000	0.021373
1487.000000	0.021370
1486.000000	0.021371
1485.000000	0.021389
1484.000000	0.021450
1483.000000	0.021551
1482.000000	0.021670
1481.000000	0.021808
1480.000000	0.021971
1479.000000	0.022161
1478.000000	0.022372
1477.000000	0.022612
1476.000000	0.022882
1475.000000	0.023200
1474.000000	0.023627
1473.000000	0.024204
1472.000000	0.024858
1471.000000	0.025472
1470.000000	0.026002
1469.000000	0.026478
1468.000000	0.026897
1467.000000	0.027313
1466.000000	0.027696
1465.000000	0.028312
1464.000000	0.028745
1463.000000	0.029089
1462.000000	0.029393
1461.000000	0.029856
1460.000000	0.029617
1459.000000	0.029641
1458.000000	0.030116
1457.000000	0.030638
1456.000000	0.031206
1455.000000	0.031653
1454.000000	0.032064
1453.000000	0.032418
1452.000000	0.032694
1451.000000	0.032870
1450.000000	0.032993
1449.000000	0.033124
1448.000000	0.033254
1447.000000	0.033353
1446.000000	0.033424
1445.000000	0.033484
1444.000000	0.033532
1443.000000	0.033547
1442.000000	0.033522
1441.000000	0.033468
1440.000000	0.033413
1439.000000	0.033389
1438.000000	0.033411
1437.000000	0.033431
1436.000000	0.033394
1435.000000	0.033340
1434.000000	0.033316
1433.000000	0.033302
1432.000000	0.033259
1431.000000	0.033180
1430.000000	0.033106
1429.000000	0.033085
1428.000000	0.033108
1427.000000	0.033158
1426.000000	0.033225
1425.000000	0.033274
1424.000000	0.033262
1423.000000	0.033197
1422.000000	0.033141
1421.000000	0.033150
1420.000000	0.033213
1419.000000	0.033260
1418.000000	0.033283
1417.000000	0.033315
1416.000000	0.033341
1415.000000	0.033336
1414.000000	0.033309
1413.000000	0.033281
1412.000000	0.033249
1411.000000	0.033198
1410.000000	0.033127
1409.000000	0.033052
1408.000000	0.032973
1407.000000	0.032884
1406.000000	0.032795
1405.000000	0.032702
1404.000000	0.032589
1403.000000	0.032460
1402.000000	0.032349
1401.000000	0.032270
1400.000000	0.032191
1399.000000	0.032077
1398.000000	0.031943
1397.000000	0.031814
1396.000000	0.031668
1395.000000	0.031482
1394.000000	0.031300
1393.000000	0.031177
1392.000000	0.031108
1391.000000	0.031049
1390.000000	0.030974
1389.000000	0.030880
1388.000000	0.030746
1387.000000	0.030561
1386.000000	0.030371
1385.000000	0.030216
1384.000000	0.030077
1383.000000	0.029911
1382.000000	0.029716
1381.000000	0.029523
1380.000000	0.029340
1379.000000	0.029143
1378.000000	0.028925
1377.000000	0.028700
1376.000000	0.028463
1375.000000	0.028194
1374.000000	0.027897
1373.000000	0.027604
1372.000000	0.027334
1371.000000	0.027083
1370.000000	0.026836
1369.000000	0.026578
1368.000000	0.026293
1367.000000	0.025981
1366.000000	0.025666
1365.000000	0.025366
1364.000000	0.025084
1363.000000	0.024816
1362.000000	0.024580
1361.000000	0.024391
1360.000000	0.024242
1359.000000	0.024112
1358.000000	0.023991
1357.000000	0.023880
1356.000000	0.023782
1355.000000	0.023706
1354.000000	0.023667
1353.000000	0.023674
1352.000000	0.023716
1351.000000	0.023776
1350.000000	0.023846
1349.000000	0.023916
1348.000000	0.023982
1347.000000	0.024051
1346.000000	0.024141
1345.000000	0.024260
1344.000000	0.024396
1343.000000	0.024531
1342.000000	0.024666
1341.000000	0.024810
1340.000000	0.024966
1339.000000	0.025132
1338.000000	0.025302
1337.000000	0.025458
1336.000000	0.025560
1335.000000	0.025583
1334.000000	0.025536
1333.000000	0.025447
1332.000000	0.025331
1331.000000	0.025187
1330.000000	0.025021
1329.000000	0.024845
1328.000000	0.024666
1327.000000	0.024488
1326.000000	0.024319
1325.000000	0.024162
1324.000000	0.024012
1323.000000	0.023862
1322.000000	0.023720
1321.000000	0.023598
1320.000000	0.023495
1319.000000	0.023401
1318.000000	0.023309
1317.000000	0.023220
1316.000000	0.023122
1315.000000	0.022997
1314.000000	0.022837
1313.000000	0.022651
1312.000000	0.022458
1311.000000	0.022271
1310.000000	0.022092
1309.000000	0.021912
1308.000000	0.021724
1307.000000	0.021529
1306.000000	0.021341
1305.000000	0.021166
1304.000000	0.021005
1303.000000	0.020860
1302.000000	0.020737
1301.000000	0.020632
1300.000000	0.020526
1299.000000	0.020402
1298.000000	0.020263
1297.000000	0.020127
1296.000000	0.020012
1295.000000	0.019930
1294.000000	0.019890
1293.000000	0.019889
1292.000000	0.019916
1291.000000	0.019968
1290.000000	0.020045
1289.000000	0.020142
1288.000000	0.020240
1287.000000	0.020323
1286.000000	0.020394
1285.000000	0.020460
1284.000000	0.020518
1283.000000	0.020562
1282.000000	0.020603
1281.000000	0.020660
1280.000000	0.020731
1279.000000	0.020796
1278.000000	0.020835
1277.000000	0.020843
1276.000000	0.020830
1275.000000	0.020816
1274.000000	0.020831
1273.000000	0.020893
1272.000000	0.020997
1271.000000	0.021120
1270.000000	0.021247
1269.000000	0.021383
1268.000000	0.021539
1267.000000	0.021714
1266.000000	0.021901
1265.000000	0.022097
1264.000000	0.022304
1263.000000	0.022520
1262.000000	0.022750
1261.000000	0.022993
1260.000000	0.023242
1259.000000	0.023487
1258.000000	0.023734
1257.000000	0.023994
1256.000000	0.024256
1255.000000	0.024490
1254.000000	0.024680
1253.000000	0.024844
1252.000000	0.025011
1251.000000	0.025200
1250.000000	0.025415
1249.000000	0.025656
1248.000000	0.025915
1247.000000	0.026179
1246.000000	0.026433
1245.000000	0.026667
1244.000000	0.026877
1243.000000	0.027073
1242.000000	0.027279
1241.000000	0.027509
1240.000000	0.027744
1239.000000	0.027939
1238.000000	0.028077
1237.000000	0.028168
1236.000000	0.028222
1235.000000	0.028224
1234.000000	0.028159
1233.000000	0.028043
1232.000000	0.027901
1231.000000	0.027732
1230.000000	0.027518
1229.000000	0.027246
1228.000000	0.026921
1227.000000	0.026547
1226.000000	0.026124
1225.000000	0.025655
1224.000000	0.025153
1223.000000	0.024640
1222.000000	0.024143
1221.000000	0.023680
1220.000000	0.023258
1219.000000	0.022878
1218.000000	0.022543
1217.000000	0.022254
1216.000000	0.022010
1215.000000	0.021812
1214.000000	0.021663
1213.000000	0.021561
1212.000000	0.021492
1211.000000	0.021450
1210.000000	0.021438
1209.000000	0.021471
1208.000000	0.021551
1207.000000	0.021669
1206.000000	0.021807
1205.000000	0.021941
1204.000000	0.022042
1203.000000	0.022085
1202.000000	0.022070
1201.000000	0.022019
1200.000000	0.021946
1199.000000	0.021841
1198.000000	0.021699
1197.000000	0.021535
1196.000000	0.021371
1195.000000	0.021214
1194.000000	0.021054
1193.000000	0.020882
1192.000000	0.020704
1191.000000	0.020538
1190.000000	0.020402
1189.000000	0.020301
1188.000000	0.020222
1187.000000	0.020149
1186.000000	0.020078
1185.000000	0.020020
1184.000000	0.019986
1183.000000	0.019980
1182.000000	0.019993
1181.000000	0.020014
1180.000000	0.020032
1179.000000	0.020053
1178.000000	0.020096
1177.000000	0.020177
1176.000000	0.020286
1175.000000	0.020400
1174.000000	0.020510
1173.000000	0.020630
1172.000000	0.020773
1171.000000	0.020926
1170.000000	0.021057
1169.000000	0.021162
1168.000000	0.021263
1167.000000	0.021383
1166.000000	0.021518
1165.000000	0.021643
1164.000000	0.021737
1163.000000	0.021791
1162.000000	0.021803
1161.000000	0.021779
1160.000000	0.021721
1159.000000	0.021623
1158.000000	0.021473
1157.000000	0.021268
1156.000000	0.021022
1155.000000	0.020753
1154.000000	0.020459
1153.000000	0.020122
1152.000000	0.019730
1151.000000	0.019310
1150.000000	0.018902
1149.000000	0.018518
1148.000000	0.018136
1147.000000	0.017739
1146.000000	0.017336
1145.000000	0.016948
1144.000000	0.016579
1143.000000	0.016227
1142.000000	0.015897
1141.000000	0.015597
1140.000000	0.015322
1139.000000	0.015058
1138.000000	0.014802
1137.000000	0.014559
1136.000000	0.014342
1135.000000	0.014163
1134.000000	0.014033
1133.000000	0.013948
1132.000000	0.013888
1131.000000	0.013827
1130.000000	0.013763
1129.000000	0.013714
1128.000000	0.013702
1127.000000	0.013723
1126.000000	0.013764
1125.000000	0.013813
1124.000000	0.013860
1123.000000	0.013901
1122.000000	0.013933
1121.000000	0.013968
1120.000000	0.014026
1119.000000	0.014118
1118.000000	0.014240
1117.000000	0.014383
1116.000000	0.014541
1115.000000	0.014721
1114.000000	0.014929
1113.000000	0.015160
1112.000000	0.015396
1111.000000	0.015608
1110.000000	0.015769
1109.000000	0.015877
1108.000000	0.015948
1107.000000	0.016003
1106.000000	0.016052
1105.000000	0.016094
1104.000000	0.016125
1103.000000	0.016146
1102.000000	0.016166
1101.000000	0.016192
1100.000000	0.016225
1099.000000	0.016274
1098.000000	0.016350
1097.000000	0.016461
1096.000000	0.016597
1095.000000	0.016733
1094.000000	0.016853
1093.000000	0.016955
1092.000000	0.017037
1091.000000	0.017098
1090.000000	0.017140
1089.000000	0.017179
1088.000000	0.017225
1087.000000	0.017274
1086.000000	0.017304
1085.000000	0.017304
1084.000000	0.017275
1083.000000	0.017221
1082.000000	0.017141
1081.000000	0.017032
1080.000000	0.016898
1079.000000	0.016742
1078.000000	0.016556
1077.000000	0.016323
1076.000000	0.016040
1075.000000	0.015732
1074.000000	0.015450
1073.000000	0.015234
1072.000000	0.015091
1071.000000	0.014990
1070.000000	0.014895
1069.000000	0.014789
1068.000000	0.014694
1067.000000	0.014659
1066.000000	0.014717
1065.000000	0.014849
1064.000000	0.014999
1063.000000	0.015111
1062.000000	0.015164
1061.000000	0.015159
1060.000000	0.015103
1059.000000	0.015009
1058.000000	0.014900
1057.000000	0.014801
1056.000000	0.014716
1055.000000	0.014631
1054.000000	0.014538
1053.000000	0.014440
1052.000000	0.014339
1051.000000	0.014236
1050.000000	0.014141
1049.000000	0.014076
1048.000000	0.014052
1047.000000	0.014067
1046.000000	0.014116
1045.000000	0.014190
1044.000000	0.014276
1043.000000	0.014358
1042.000000	0.014448
1041.000000	0.014589
1040.000000	0.014807
1039.000000	0.015084
1038.000000	0.015381
1037.000000	0.015685
1036.000000	0.016000
1035.000000	0.016322
1034.000000	0.016624
1033.000000	0.016880
1032.000000	0.017072
1031.000000	0.017174
1030.000000	0.017162
1029.000000	0.017046
1028.000000	0.016885
1027.000000	0.016739
1026.000000	0.016628
1025.000000	0.016531
1024.000000	0.016419
1023.000000	0.016280
1022.000000	0.016113
1021.000000	0.015919
1020.000000	0.015713
1019.000000	0.015526
1018.000000	0.015385
1017.000000	0.015285
1016.000000	0.015195
1015.000000	0.015084
1014.000000	0.014949
1013.000000	0.014812
1012.000000	0.014689
1011.000000	0.014569
1010.000000	0.014428
1009.000000	0.014252
1008.000000	0.014044
1007.000000	0.013819
1006.000000	0.013599
1005.000000	0.013410
1004.000000	0.013277
1003.000000	0.013196
1002.000000	0.013117
1001.000000	0.012964
1000.000000	0.012700
999.000000	0.012372
998.000000	0.012072
997.000000	0.011859
996.000000	0.011711
995.000000	0.011570
994.000000	0.011408
993.000000	0.011244
992.000000	0.011103
991.000000	0.010985
990.000000	0.010869
989.000000	0.010747
988.000000	0.010625
987.000000	0.010515
986.000000	0.010427
985.000000	0.010367
984.000000	0.010330
983.000000	0.010299
982.000000	0.010266
981.000000	0.010238
980.000000	0.010235
979.000000	0.010266
978.000000	0.010321
977.000000	0.010386
976.000000	0.010446
975.000000	0.010493
974.000000	0.010514
973.000000	0.010509
972.000000	0.010482
971.000000	0.010445
970.000000	0.010406
969.000000	0.010362
968.000000	0.010302
967.000000	0.010209
966.000000	0.010078
965.000000	0.009934
964.000000	0.009820
963.000000	0.009761
962.000000	0.009737
961.000000	0.009707
960.000000	0.009644
959.000000	0.009549
958.000000	0.009430
957.000000	0.009288
956.000000	0.009127
955.000000	0.008968
954.000000	0.008833
953.000000	0.008727
952.000000	0.008628
951.000000	0.008514
950.000000	0.008388
949.000000	0.008273
948.000000	0.008185
947.000000	0.008115
946.000000	0.008044
945.000000	0.007965
944.000000	0.007887
943.000000	0.007829
942.000000	0.007795
941.000000	0.007771
940.000000	0.007733
939.000000	0.007665
938.000000	0.007574
937.000000	0.007489
936.000000	0.007422
935.000000	0.007360
934.000000	0.007274
933.000000	0.007153
932.000000	0.007022
931.000000	0.006917
930.000000	0.006858
929.000000	0.006836
928.000000	0.006815
927.000000	0.006758
926.000000	0.006650
925.000000	0.006519
924.000000	0.006417
923.000000	0.006374
922.000000	0.006375
921.000000	0.006379
920.000000	0.006359
919.000000	0.006311
918.000000	0.006238
917.000000	0.006133
916.000000	0.005997
915.000000	0.005842
914.000000	0.005688
913.000000	0.005553
912.000000	0.005444
911.000000	0.005355
910.000000	0.005274
909.000000	0.005191
908.000000	0.005100
907.000000	0.005006
906.000000	0.004915
905.000000	0.004831
904.000000	0.004754
903.000000	0.004677
902.000000	0.004602
901.000000	0.004534
900.000000	0.004482
899.000000	0.004441
898.000000	0.004400
897.000000	0.004359
896.000000	0.004321
895.000000	0.004280
894.000000	0.004226
893.000000	0.004166
892.000000	0.004135
891.000000	0.004155
890.000000	0.004220
889.000000	0.004326
888.000000	0.004519
887.000000	0.004877
886.000000	0.005439
885.000000	0.006159
884.000000	0.006936
883.000000	0.007686
882.000000	0.008401
881.000000	0.009157
880.000000	0.010044
879.000000	0.011085
878.000000	0.012200
877.000000	0.013252
876.000000	0.014117
875.000000	0.014715
874.000000	0.014986
873.000000	0.014895
872.000000	0.014439
871.000000	0.013675
870.000000	0.012715
869.000000	0.011694
868.000000	0.010733
867.000000	0.009908
866.000000	0.009229
865.000000	0.008653
864.000000	0.008137
863.000000	0.007681
862.000000	0.007319
861.000000	0.007065
860.000000	0.006884
859.000000	0.006721
858.000000	0.006545
857.000000	0.006359
856.000000	0.006183
855.000000	0.006031
854.000000	0.005909
853.000000	0.005819
852.000000	0.005763
851.000000	0.005742
850.000000	0.005751
849.000000	0.005770
848.000000	0.005757
847.000000	0.005672
846.000000	0.005513
845.000000	0.005320
844.000000	0.005139
843.000000	0.004998
842.000000	0.004903
841.000000	0.004853
840.000000	0.004834
839.000000	0.004816
838.000000	0.004769
837.000000	0.004693
836.000000	0.004614
835.000000	0.004557
834.000000	0.004525
833.000000	0.004513
832.000000	0.004517
831.000000	0.004528
830.000000	0.004520
829.000000	0.004473
828.000000	0.004396
827.000000	0.004322
826.000000	0.004280
825.000000	0.004264
824.000000	0.004247
823.000000	0.004221
822.000000	0.004201
821.000000	0.004209
820.000000	0.004235
819.000000	0.004254
818.000000	0.004254
817.000000	0.004252
816.000000	0.004272
815.000000	0.004324
814.000000	0.004399
813.000000	0.004466
812.000000	0.004485
811.000000	0.004436
810.000000	0.004342
809.000000	0.004254
808.000000	0.004200
807.000000	0.004170
806.000000	0.004158
805.000000	0.004190
804.000000	0.004272
803.000000	0.004353
802.000000	0.004365
801.000000	0.004307
800.000000	0.004245
799.000000	0.004232
798.000000	0.004257
797.000000	0.004286
796.000000	0.004301
795.000000	0.004304
794.000000	0.004298
793.000000	0.004284
792.000000	0.004271
791.000000	0.004261
790.000000	0.004253
789.000000	0.004258
788.000000	0.004288
787.000000	0.004332
786.000000	0.004360
785.000000	0.004362
784.000000	0.004364
783.000000	0.004389
782.000000	0.004425
781.000000	0.004441
780.000000	0.004421
779.000000	0.004380
778.000000	0.004348
777.000000	0.004354
776.000000	0.004407
775.000000	0.004481
774.000000	0.004542
773.000000	0.004575
772.000000	0.004581
771.000000	0.004557
770.000000	0.004494
769.000000	0.004400
768.000000	0.004303
767.000000	0.004230
766.000000	0.004194
765.000000	0.004212
764.000000	0.004299
763.000000	0.004434
762.000000	0.004553
761.000000	0.004612
760.000000	0.004619
759.000000	0.004612
758.000000	0.004608
757.000000	0.004603
756.000000	0.004593
755.000000	0.004581
754.000000	0.004572
753.000000	0.004586
752.000000	0.004644
751.000000	0.004730
750.000000	0.004783
749.000000	0.004761
748.000000	0.004696
747.000000	0.004652
746.000000	0.004643
745.000000	0.004633
744.000000	0.004608
743.000000	0.004609
742.000000	0.004682
741.000000	0.004813
740.000000	0.004939
739.000000	0.005013
738.000000	0.005042
737.000000	0.005080
736.000000	0.005163
735.000000	0.005278
734.000000	0.005376
733.000000	0.005430
732.000000	0.005465
731.000000	0.005531
730.000000	0.005652
729.000000	0.005822
728.000000	0.006014
727.000000	0.006186
726.000000	0.006298
725.000000	0.006348
724.000000	0.006379
723.000000	0.006433
722.000000	0.006521
721.000000	0.006633
720.000000	0.006775
719.000000	0.006969
718.000000	0.007246
717.000000	0.007651
716.000000	0.008246
715.000000	0.009036
714.000000	0.009880
713.000000	0.010524
712.000000	0.010766
711.000000	0.010601
710.000000	0.010197
709.000000	0.009758
708.000000	0.009414
707.000000	0.009204
706.000000	0.009117
705.000000	0.009125
704.000000	0.009191
703.000000	0.009272
702.000000	0.009333
701.000000	0.009355
700.000000	0.009341
699.000000	0.009312
698.000000	0.009295
697.000000	0.009314
696.000000	0.009377
695.000000	0.009465
694.000000	0.009535
693.000000	0.009544
692.000000	0.009491
691.000000	0.009406
690.000000	0.009328
689.000000	0.009280
688.000000	0.009273
687.000000	0.009322
686.000000	0.009419
685.000000	0.009526
684.000000	0.009608
683.000000	0.009667
682.000000	0.009719
681.000000	0.009773
680.000000	0.009824
679.000000	0.009876
678.000000	0.009931
677.000000	0.009997
676.000000	0.010077
675.000000	0.010160
674.000000	0.010227
673.000000	0.010250
672.000000	0.010216
671.000000	0.010113
670.000000	0.009950
669.000000	0.009771
668.000000	0.009829
667.000000	0.010176
666.000000	0.010402
665.000000	0.010460
664.000000	0.010486
663.000000	0.010460
662.000000	0.010362
661.000000	0.010250
660.000000	0.010206
659.000000	0.010224
658.000000	0.010251
657.000000	0.010280
656.000000	0.010337
655.000000	0.010423
654.000000	0.010532
653.000000	0.010671
652.000000	0.010821
651.000000	0.010931
650.000000	0.010994
649.000000	0.011073
648.000000	0.011212
647.000000	0.011374
646.000000	0.011511
645.000000	0.011626
644.000000	0.011729
643.000000	0.011805
642.000000	0.011850
641.000000	0.011897
640.000000	0.011974
639.000000	0.012073
638.000000	0.012189
637.000000	0.012335
636.000000	0.012483
635.000000	0.012576
634.000000	0.012590
633.000000	0.012551
632.000000	0.012468
631.000000	0.012322
630.000000	0.012163
629.000000	0.012113
628.000000	0.012229
627.000000	0.012430
626.000000	0.012603
625.000000	0.012719
624.000000	0.012807
623.000000	0.012869
622.000000	0.012898
621.000000	0.012912
620.000000	0.012932
619.000000	0.012952
618.000000	0.012989
617.000000	0.013100
616.000000	0.013291
615.000000	0.013462
614.000000	0.013508
613.000000	0.013439
612.000000	0.013338
611.000000	0.013249
610.000000	0.013164
609.000000	0.013082
608.000000	0.013031
607.000000	0.013030
606.000000	0.013094
605.000000	0.013209
604.000000	0.013299
603.000000	0.013252
602.000000	0.013036
601.000000	0.012742
600.000000	0.012473
599.000000	0.012235
598.000000	0.011989
597.000000	0.011756
596.000000	0.011596
595.000000	0.011512
594.000000	0.011457
593.000000	0.011404
592.000000	0.011359
591.000000	0.011313
590.000000	0.011250
589.000000	0.011184
588.000000	0.011145
587.000000	0.011132
586.000000	0.011122
585.000000	0.011110
584.000000	0.011103
583.000000	0.011085
582.000000	0.011057
581.000000	0.011078
580.000000	0.011195
579.000000	0.011360
578.000000	0.011458
577.000000	0.011425
576.000000	0.011293
575.000000	0.011136
574.000000	0.011019
573.000000	0.010980
572.000000	0.011034
571.000000	0.011174
570.000000	0.011399
569.000000	0.011705
568.000000	0.012037
567.000000	0.012284
566.000000	0.012390
565.000000	0.012422
564.000000	0.012464
563.000000	0.012501
562.000000	0.012479
561.000000	0.012428
560.000000	0.012424
559.000000	0.012471
558.000000	0.012485
557.000000	0.012413
556.000000	0.012280
555.000000	0.012165
554.000000	0.012151
553.000000	0.012288
552.000000	0.012514
551.000000	0.012669
550.000000	0.012636
549.000000	0.012473
548.000000	0.012317
547.000000	0.012221
546.000000	0.012153
545.000000	0.012113
544.000000	0.012130
543.000000	0.012176
542.000000	0.012175
541.000000	0.012122
540.000000	0.012101
539.000000	0.012180
538.000000	0.012335
537.000000	0.012502
536.000000	0.012638
535.000000	0.012750
534.000000	0.012886
533.000000	0.013089
532.000000	0.013319
531.000000	0.013468
530.000000	0.013486
529.000000	0.013440
528.000000	0.013394
527.000000	0.013308
526.000000	0.013145
525.000000	0.012990
524.000000	0.012946
523.000000	0.012967
522.000000	0.012920
521.000000	0.012752
520.000000	0.012512
519.000000	0.012266
518.000000	0.012072
517.000000	0.011976
516.000000	0.011936
515.000000	0.011800
514.000000	0.011474
513.000000	0.011071
512.000000	0.010792
511.000000	0.010702
510.000000	0.010695
509.000000	0.010665
508.000000	0.010598
507.000000	0.010519
506.000000	0.010452
505.000000	0.010419
504.000000	0.010384
503.000000	0.010224
502.000000	0.009855
501.000000	0.009385
500.000000	0.009009
499.000000	0.008800
498.000000	0.008717
497.000000	0.008755
496.000000	0.008943
495.000000	0.009220
494.000000	0.009418
493.000000	0.009393
492.000000	0.009119
491.000000	0.008685
490.000000	0.008267
489.000000	0.008067
488.000000	0.008158
487.000000	0.008384
486.000000	0.008503
485.000000	0.008426
484.000000	0.008268
483.000000	0.008153
482.000000	0.008094
481.000000	0.008073
480.000000	0.008100
479.000000	0.008153
478.000000	0.008153
477.000000	0.008042
476.000000	0.007839
475.000000	0.007625
474.000000	0.007505
473.000000	0.007573
472.000000	0.007814
471.000000	0.008065
470.000000	0.008168
469.000000	0.008125
468.000000	0.008034
467.000000	0.007953
466.000000	0.007874
465.000000	0.007759
464.000000	0.007555
463.000000	0.007229
462.000000	0.006850
461.000000	0.006521
460.000000	0.006208
459.000000	0.005767
458.000000	0.005259
457.000000	0.004972
456.000000	0.005103
455.000000	0.005407
454.000000	0.005455
453.000000	0.005344
452.000000	0.005050
451.000000	0.004564
450.000000	0.003983
