PE IR       SUBTECH     SPECTRUM    ASCII       PEDS        4.00        
   -1
Peau014_1.ASC
23/06/14
14:53:36.00
23/06/14
15:01:00.00
uco
Sample 014 By uco Date Wednesday, June 14 2023
450.000000
#HDR
-1
-1
#GR
cm-1
A
1.0
0.0
4000.000000
-1.000000
3551
8
0.037201
0.003327
#DATA
4000.000000	0.003621
3999.000000	0.003619
3998.000000	0.003606
3997.000000	0.003590
3996.000000	0.003578
3995.000000	0.003565
3994.000000	0.003575
3993.000000	0.003598
3992.000000	0.003628
3991.000000	0.003657
3990.000000	0.003680
3989.000000	0.003697
3988.000000	0.003710
3987.000000	0.003722
3986.000000	0.003730
3985.000000	0.003732
3984.000000	0.003728
3983.000000	0.003717
3982.000000	0.003700
3981.000000	0.003680
3980.000000	0.003657
3979.000000	0.003637
3978.000000	0.003626
3977.000000	0.003629
3976.000000	0.003645
3975.000000	0.003670
3974.000000	0.003697
3973.000000	0.003722
3972.000000	0.003742
3971.000000	0.003756
3970.000000	0.003763
3969.000000	0.003762
3968.000000	0.003752
3967.000000	0.003738
3966.000000	0.003723
3965.000000	0.003715
3964.000000	0.003716
3963.000000	0.003724
3962.000000	0.003736
3961.000000	0.003752
3960.000000	0.003773
3959.000000	0.003798
3958.000000	0.003821
3957.000000	0.003832
3956.000000	0.003823
3955.000000	0.003803
3954.000000	0.003786
3953.000000	0.003783
3952.000000	0.003790
3951.000000	0.003794
3950.000000	0.003787
3949.000000	0.003770
3948.000000	0.003750
3947.000000	0.003733
3946.000000	0.003725
3945.000000	0.003727
3944.000000	0.003743
3943.000000	0.003765
3942.000000	0.003783
3941.000000	0.003788
3940.000000	0.003781
3939.000000	0.003768
3938.000000	0.003758
3937.000000	0.003751
3936.000000	0.003748
3935.000000	0.003744
3934.000000	0.003740
3933.000000	0.003739
3932.000000	0.003745
3931.000000	0.003757
3930.000000	0.003774
3929.000000	0.003793
3928.000000	0.003812
3927.000000	0.003828
3926.000000	0.003840
3925.000000	0.003846
3924.000000	0.003849
3923.000000	0.003849
3922.000000	0.003846
3921.000000	0.003841
3920.000000	0.003835
3919.000000	0.003829
3918.000000	0.003824
3917.000000	0.003818
3916.000000	0.003816
3915.000000	0.003822
3914.000000	0.003837
3913.000000	0.003856
3912.000000	0.003870
3911.000000	0.003872
3910.000000	0.003863
3909.000000	0.003850
3908.000000	0.003838
3907.000000	0.003831
3906.000000	0.003832
3905.000000	0.003838
3904.000000	0.003845
3903.000000	0.003847
3902.000000	0.003844
3901.000000	0.003840
3900.000000	0.003840
3899.000000	0.003842
3898.000000	0.003842
3897.000000	0.003840
3896.000000	0.003838
3895.000000	0.003841
3894.000000	0.003848
3893.000000	0.003855
3892.000000	0.003859
3891.000000	0.003860
3890.000000	0.003858
3889.000000	0.003856
3888.000000	0.003852
3887.000000	0.003846
3886.000000	0.003840
3885.000000	0.003836
3884.000000	0.003834
3883.000000	0.003834
3882.000000	0.003841
3881.000000	0.003855
3880.000000	0.003874
3879.000000	0.003891
3878.000000	0.003906
3877.000000	0.003918
3876.000000	0.003925
3875.000000	0.003921
3874.000000	0.003910
3873.000000	0.003896
3872.000000	0.003885
3871.000000	0.003872
3870.000000	0.003852
3869.000000	0.003828
3868.000000	0.003813
3867.000000	0.003816
3866.000000	0.003833
3865.000000	0.003853
3864.000000	0.003865
3863.000000	0.003864
3862.000000	0.003856
3861.000000	0.003852
3860.000000	0.003854
3859.000000	0.003863
3858.000000	0.003876
3857.000000	0.003891
3856.000000	0.003902
3855.000000	0.003909
3854.000000	0.003914
3853.000000	0.003923
3852.000000	0.003931
3851.000000	0.003934
3850.000000	0.003931
3849.000000	0.003921
3848.000000	0.003906
3847.000000	0.003892
3846.000000	0.003883
3845.000000	0.003878
3844.000000	0.003872
3843.000000	0.003861
3842.000000	0.003847
3841.000000	0.003837
3840.000000	0.003833
3839.000000	0.003835
3838.000000	0.003837
3837.000000	0.003835
3836.000000	0.003830
3835.000000	0.003830
3834.000000	0.003841
3833.000000	0.003862
3832.000000	0.003887
3831.000000	0.003902
3830.000000	0.003901
3829.000000	0.003888
3828.000000	0.003876
3827.000000	0.003878
3826.000000	0.003900
3825.000000	0.003933
3824.000000	0.003960
3823.000000	0.003961
3822.000000	0.003932
3821.000000	0.003891
3820.000000	0.003866
3819.000000	0.003865
3818.000000	0.003879
3817.000000	0.003891
3816.000000	0.003887
3815.000000	0.003868
3814.000000	0.003843
3813.000000	0.003823
3812.000000	0.003817
3811.000000	0.003826
3810.000000	0.003846
3809.000000	0.003869
3808.000000	0.003886
3807.000000	0.003893
3806.000000	0.003888
3805.000000	0.003878
3804.000000	0.003865
3803.000000	0.003849
3802.000000	0.003831
3801.000000	0.003814
3800.000000	0.003803
3799.000000	0.003798
3798.000000	0.003800
3797.000000	0.003806
3796.000000	0.003809
3795.000000	0.003808
3794.000000	0.003804
3793.000000	0.003803
3792.000000	0.003812
3791.000000	0.003827
3790.000000	0.003844
3789.000000	0.003857
3788.000000	0.003869
3787.000000	0.003885
3786.000000	0.003904
3785.000000	0.003920
3784.000000	0.003922
3783.000000	0.003911
3782.000000	0.003897
3781.000000	0.003889
3780.000000	0.003892
3779.000000	0.003900
3778.000000	0.003905
3777.000000	0.003904
3776.000000	0.003898
3775.000000	0.003887
3774.000000	0.003874
3773.000000	0.003862
3772.000000	0.003856
3771.000000	0.003858
3770.000000	0.003860
3769.000000	0.003856
3768.000000	0.003844
3767.000000	0.003832
3766.000000	0.003826
3765.000000	0.003825
3764.000000	0.003824
3763.000000	0.003824
3762.000000	0.003826
3761.000000	0.003835
3760.000000	0.003850
3759.000000	0.003871
3758.000000	0.003891
3757.000000	0.003912
3756.000000	0.003935
3755.000000	0.003957
3754.000000	0.003972
3753.000000	0.003969
3752.000000	0.003940
3751.000000	0.003899
3750.000000	0.003864
3749.000000	0.003845
3748.000000	0.003834
3747.000000	0.003824
3746.000000	0.003818
3745.000000	0.003824
3744.000000	0.003832
3743.000000	0.003820
3742.000000	0.003786
3741.000000	0.003743
3740.000000	0.003703
3739.000000	0.003668
3738.000000	0.003634
3737.000000	0.003605
3736.000000	0.003591
3735.000000	0.003597
3734.000000	0.003618
3733.000000	0.003638
3732.000000	0.003653
3731.000000	0.003669
3730.000000	0.003698
3729.000000	0.003743
3728.000000	0.003789
3727.000000	0.003819
3726.000000	0.003821
3725.000000	0.003808
3724.000000	0.003796
3723.000000	0.003790
3722.000000	0.003789
3721.000000	0.003786
3720.000000	0.003782
3719.000000	0.003774
3718.000000	0.003757
3717.000000	0.003728
3716.000000	0.003689
3715.000000	0.003649
3714.000000	0.003621
3713.000000	0.003620
3712.000000	0.003654
3711.000000	0.003704
3710.000000	0.003740
3709.000000	0.003740
3708.000000	0.003706
3707.000000	0.003657
3706.000000	0.003612
3705.000000	0.003590
3704.000000	0.003596
3703.000000	0.003628
3702.000000	0.003671
3701.000000	0.003704
3700.000000	0.003714
3699.000000	0.003703
3698.000000	0.003685
3697.000000	0.003670
3696.000000	0.003664
3695.000000	0.003662
3694.000000	0.003656
3693.000000	0.003640
3692.000000	0.003615
3691.000000	0.003589
3690.000000	0.003573
3689.000000	0.003572
3688.000000	0.003579
3687.000000	0.003591
3686.000000	0.003603
3685.000000	0.003617
3684.000000	0.003634
3683.000000	0.003654
3682.000000	0.003679
3681.000000	0.003712
3680.000000	0.003748
3679.000000	0.003779
3678.000000	0.003792
3677.000000	0.003787
3676.000000	0.003766
3675.000000	0.003739
3674.000000	0.003713
3673.000000	0.003694
3672.000000	0.003686
3671.000000	0.003685
3670.000000	0.003683
3669.000000	0.003677
3668.000000	0.003675
3667.000000	0.003687
3666.000000	0.003713
3665.000000	0.003739
3664.000000	0.003754
3663.000000	0.003755
3662.000000	0.003748
3661.000000	0.003741
3660.000000	0.003736
3659.000000	0.003738
3658.000000	0.003753
3657.000000	0.003785
3656.000000	0.003828
3655.000000	0.003869
3654.000000	0.003909
3653.000000	0.003951
3652.000000	0.003995
3651.000000	0.004034
3650.000000	0.004057
3649.000000	0.004063
3648.000000	0.004066
3647.000000	0.004078
3646.000000	0.004102
3645.000000	0.004132
3644.000000	0.004158
3643.000000	0.004173
3642.000000	0.004181
3641.000000	0.004190
3640.000000	0.004204
3639.000000	0.004222
3638.000000	0.004238
3637.000000	0.004254
3636.000000	0.004279
3635.000000	0.004312
3634.000000	0.004338
3633.000000	0.004345
3632.000000	0.004334
3631.000000	0.004325
3630.000000	0.004341
3629.000000	0.004388
3628.000000	0.004437
3627.000000	0.004465
3626.000000	0.004474
3625.000000	0.004477
3624.000000	0.004478
3623.000000	0.004479
3622.000000	0.004482
3621.000000	0.004500
3620.000000	0.004543
3619.000000	0.004599
3618.000000	0.004646
3617.000000	0.004666
3616.000000	0.004666
3615.000000	0.004667
3614.000000	0.004687
3613.000000	0.004730
3612.000000	0.004780
3611.000000	0.004820
3610.000000	0.004849
3609.000000	0.004881
3608.000000	0.004917
3607.000000	0.004941
3606.000000	0.004934
3605.000000	0.004900
3604.000000	0.004865
3603.000000	0.004856
3602.000000	0.004884
3601.000000	0.004939
3600.000000	0.004999
3599.000000	0.005046
3598.000000	0.005080
3597.000000	0.005110
3596.000000	0.005146
3595.000000	0.005185
3594.000000	0.005218
3593.000000	0.005241
3592.000000	0.005255
3591.000000	0.005264
3590.000000	0.005273
3589.000000	0.005284
3588.000000	0.005302
3587.000000	0.005326
3586.000000	0.005348
3585.000000	0.005364
3584.000000	0.005381
3583.000000	0.005411
3582.000000	0.005461
3581.000000	0.005523
3580.000000	0.005577
3579.000000	0.005609
3578.000000	0.005625
3577.000000	0.005641
3576.000000	0.005667
3575.000000	0.005700
3574.000000	0.005731
3573.000000	0.005758
3572.000000	0.005779
3571.000000	0.005794
3570.000000	0.005803
3569.000000	0.005817
3568.000000	0.005857
3567.000000	0.005929
3566.000000	0.006013
3565.000000	0.006081
3564.000000	0.006118
3563.000000	0.006135
3562.000000	0.006151
3561.000000	0.006177
3560.000000	0.006209
3559.000000	0.006237
3558.000000	0.006257
3557.000000	0.006277
3556.000000	0.006309
3555.000000	0.006360
3554.000000	0.006425
3553.000000	0.006497
3552.000000	0.006567
3551.000000	0.006621
3550.000000	0.006651
3549.000000	0.006653
3548.000000	0.006639
3547.000000	0.006624
3546.000000	0.006624
3545.000000	0.006644
3544.000000	0.006681
3543.000000	0.006722
3542.000000	0.006760
3541.000000	0.006791
3540.000000	0.006819
3539.000000	0.006850
3538.000000	0.006887
3537.000000	0.006930
3536.000000	0.006978
3535.000000	0.007030
3534.000000	0.007084
3533.000000	0.007134
3532.000000	0.007173
3531.000000	0.007197
3530.000000	0.007213
3529.000000	0.007231
3528.000000	0.007253
3527.000000	0.007276
3526.000000	0.007294
3525.000000	0.007308
3524.000000	0.007323
3523.000000	0.007344
3522.000000	0.007375
3521.000000	0.007417
3520.000000	0.007469
3519.000000	0.007523
3518.000000	0.007573
3517.000000	0.007615
3516.000000	0.007648
3515.000000	0.007675
3514.000000	0.007699
3513.000000	0.007721
3512.000000	0.007747
3511.000000	0.007783
3510.000000	0.007829
3509.000000	0.007880
3508.000000	0.007925
3507.000000	0.007963
3506.000000	0.008003
3505.000000	0.008053
3504.000000	0.008099
3503.000000	0.008122
3502.000000	0.008117
3501.000000	0.008099
3500.000000	0.008086
3499.000000	0.008089
3498.000000	0.008107
3497.000000	0.008142
3496.000000	0.008190
3495.000000	0.008246
3494.000000	0.008297
3493.000000	0.008339
3492.000000	0.008372
3491.000000	0.008400
3490.000000	0.008426
3489.000000	0.008454
3488.000000	0.008481
3487.000000	0.008508
3486.000000	0.008535
3485.000000	0.008559
3484.000000	0.008579
3483.000000	0.008594
3482.000000	0.008604
3481.000000	0.008615
3480.000000	0.008633
3479.000000	0.008660
3478.000000	0.008693
3477.000000	0.008728
3476.000000	0.008764
3475.000000	0.008804
3474.000000	0.008850
3473.000000	0.008894
3472.000000	0.008928
3471.000000	0.008949
3470.000000	0.008963
3469.000000	0.008981
3468.000000	0.009008
3467.000000	0.009041
3466.000000	0.009074
3465.000000	0.009099
3464.000000	0.009118
3463.000000	0.009135
3462.000000	0.009155
3461.000000	0.009174
3460.000000	0.009184
3459.000000	0.009188
3458.000000	0.009199
3457.000000	0.009229
3456.000000	0.009278
3455.000000	0.009327
3454.000000	0.009363
3453.000000	0.009381
3452.000000	0.009385
3451.000000	0.009384
3450.000000	0.009386
3449.000000	0.009403
3448.000000	0.009445
3447.000000	0.009506
3446.000000	0.009567
3445.000000	0.009611
3444.000000	0.009633
3443.000000	0.009644
3442.000000	0.009661
3441.000000	0.009694
3440.000000	0.009739
3439.000000	0.009783
3438.000000	0.009819
3437.000000	0.009849
3436.000000	0.009882
3435.000000	0.009919
3434.000000	0.009954
3433.000000	0.009978
3432.000000	0.009988
3431.000000	0.009984
3430.000000	0.009971
3429.000000	0.009956
3428.000000	0.009950
3427.000000	0.009962
3426.000000	0.009998
3425.000000	0.010049
3424.000000	0.010103
3423.000000	0.010150
3422.000000	0.010190
3421.000000	0.010227
3420.000000	0.010264
3419.000000	0.010296
3418.000000	0.010322
3417.000000	0.010345
3416.000000	0.010370
3415.000000	0.010397
3414.000000	0.010423
3413.000000	0.010443
3412.000000	0.010459
3411.000000	0.010478
3410.000000	0.010505
3409.000000	0.010539
3408.000000	0.010574
3407.000000	0.010606
3406.000000	0.010632
3405.000000	0.010656
3404.000000	0.010680
3403.000000	0.010707
3402.000000	0.010742
3401.000000	0.010785
3400.000000	0.010832
3399.000000	0.010875
3398.000000	0.010909
3397.000000	0.010936
3396.000000	0.010958
3395.000000	0.010980
3394.000000	0.011009
3393.000000	0.011047
3392.000000	0.011092
3391.000000	0.011139
3390.000000	0.011186
3389.000000	0.011230
3388.000000	0.011268
3387.000000	0.011294
3386.000000	0.011310
3385.000000	0.011320
3384.000000	0.011332
3383.000000	0.011347
3382.000000	0.011360
3381.000000	0.011371
3380.000000	0.011384
3379.000000	0.011408
3378.000000	0.011449
3377.000000	0.011504
3376.000000	0.011563
3375.000000	0.011619
3374.000000	0.011673
3373.000000	0.011727
3372.000000	0.011781
3371.000000	0.011829
3370.000000	0.011871
3369.000000	0.011914
3368.000000	0.011961
3367.000000	0.012010
3366.000000	0.012055
3365.000000	0.012094
3364.000000	0.012130
3363.000000	0.012169
3362.000000	0.012213
3361.000000	0.012262
3360.000000	0.012313
3359.000000	0.012365
3358.000000	0.012425
3357.000000	0.012496
3356.000000	0.012572
3355.000000	0.012641
3354.000000	0.012695
3353.000000	0.012740
3352.000000	0.012787
3351.000000	0.012839
3350.000000	0.012894
3349.000000	0.012948
3348.000000	0.013006
3347.000000	0.013073
3346.000000	0.013151
3345.000000	0.013230
3344.000000	0.013301
3343.000000	0.013360
3342.000000	0.013412
3341.000000	0.013466
3340.000000	0.013530
3339.000000	0.013601
3338.000000	0.013666
3337.000000	0.013713
3336.000000	0.013747
3335.000000	0.013787
3334.000000	0.013846
3333.000000	0.013918
3332.000000	0.013982
3331.000000	0.014024
3330.000000	0.014053
3329.000000	0.014085
3328.000000	0.014126
3327.000000	0.014175
3326.000000	0.014225
3325.000000	0.014275
3324.000000	0.014326
3323.000000	0.014384
3322.000000	0.014447
3321.000000	0.014506
3320.000000	0.014546
3319.000000	0.014560
3318.000000	0.014558
3317.000000	0.014564
3316.000000	0.014592
3315.000000	0.014641
3314.000000	0.014697
3313.000000	0.014746
3312.000000	0.014776
3311.000000	0.014788
3310.000000	0.014791
3309.000000	0.014798
3308.000000	0.014813
3307.000000	0.014827
3306.000000	0.014838
3305.000000	0.014849
3304.000000	0.014871
3303.000000	0.014913
3302.000000	0.014970
3301.000000	0.015030
3300.000000	0.015077
3299.000000	0.015101
3298.000000	0.015101
3297.000000	0.015090
3296.000000	0.015080
3295.000000	0.015081
3294.000000	0.015096
3293.000000	0.015126
3292.000000	0.015170
3291.000000	0.015223
3290.000000	0.015277
3289.000000	0.015319
3288.000000	0.015339
3287.000000	0.015337
3286.000000	0.015325
3285.000000	0.015310
3284.000000	0.015294
3283.000000	0.015274
3282.000000	0.015254
3281.000000	0.015239
3280.000000	0.015227
3279.000000	0.015214
3278.000000	0.015199
3277.000000	0.015188
3276.000000	0.015184
3275.000000	0.015177
3274.000000	0.015155
3273.000000	0.015117
3272.000000	0.015074
3271.000000	0.015042
3270.000000	0.015032
3269.000000	0.015041
3268.000000	0.015050
3267.000000	0.015040
3266.000000	0.015007
3265.000000	0.014959
3264.000000	0.014910
3263.000000	0.014870
3262.000000	0.014838
3261.000000	0.014816
3260.000000	0.014807
3259.000000	0.014811
3258.000000	0.014821
3257.000000	0.014823
3256.000000	0.014805
3255.000000	0.014768
3254.000000	0.014725
3253.000000	0.014692
3252.000000	0.014671
3251.000000	0.014655
3250.000000	0.014640
3249.000000	0.014626
3248.000000	0.014616
3247.000000	0.014606
3246.000000	0.014587
3245.000000	0.014555
3244.000000	0.014513
3243.000000	0.014471
3242.000000	0.014443
3241.000000	0.014435
3240.000000	0.014435
3239.000000	0.014422
3238.000000	0.014380
3237.000000	0.014316
3236.000000	0.014252
3235.000000	0.014204
3234.000000	0.014177
3233.000000	0.014164
3232.000000	0.014154
3231.000000	0.014138
3230.000000	0.014113
3229.000000	0.014083
3228.000000	0.014058
3227.000000	0.014045
3226.000000	0.014045
3225.000000	0.014046
3224.000000	0.014034
3223.000000	0.014000
3222.000000	0.013948
3221.000000	0.013894
3220.000000	0.013858
3219.000000	0.013845
3218.000000	0.013848
3217.000000	0.013849
3216.000000	0.013840
3215.000000	0.013824
3214.000000	0.013809
3213.000000	0.013797
3212.000000	0.013781
3211.000000	0.013761
3210.000000	0.013739
3209.000000	0.013717
3208.000000	0.013693
3207.000000	0.013665
3206.000000	0.013633
3205.000000	0.013602
3204.000000	0.013574
3203.000000	0.013549
3202.000000	0.013521
3201.000000	0.013492
3200.000000	0.013463
3199.000000	0.013438
3198.000000	0.013419
3197.000000	0.013403
3196.000000	0.013386
3195.000000	0.013365
3194.000000	0.013344
3193.000000	0.013320
3192.000000	0.013287
3191.000000	0.013245
3190.000000	0.013205
3189.000000	0.013176
3188.000000	0.013157
3187.000000	0.013139
3186.000000	0.013110
3185.000000	0.013068
3184.000000	0.013016
3183.000000	0.012957
3182.000000	0.012900
3181.000000	0.012852
3180.000000	0.012812
3179.000000	0.012772
3178.000000	0.012725
3177.000000	0.012678
3176.000000	0.012641
3175.000000	0.012617
3174.000000	0.012599
3173.000000	0.012577
3172.000000	0.012551
3171.000000	0.012525
3170.000000	0.012501
3169.000000	0.012467
3168.000000	0.012413
3167.000000	0.012344
3166.000000	0.012275
3165.000000	0.012219
3164.000000	0.012179
3163.000000	0.012149
3162.000000	0.012122
3161.000000	0.012094
3160.000000	0.012060
3159.000000	0.012012
3158.000000	0.011952
3157.000000	0.011891
3156.000000	0.011843
3155.000000	0.011815
3154.000000	0.011802
3153.000000	0.011789
3152.000000	0.011761
3151.000000	0.011715
3150.000000	0.011664
3149.000000	0.011626
3148.000000	0.011606
3147.000000	0.011596
3146.000000	0.011585
3145.000000	0.011567
3144.000000	0.011538
3143.000000	0.011503
3142.000000	0.011471
3141.000000	0.011451
3140.000000	0.011434
3139.000000	0.011406
3138.000000	0.011361
3137.000000	0.011306
3136.000000	0.011254
3135.000000	0.011211
3134.000000	0.011180
3133.000000	0.011162
3132.000000	0.011156
3131.000000	0.011154
3130.000000	0.011152
3129.000000	0.011149
3128.000000	0.011147
3127.000000	0.011134
3126.000000	0.011099
3125.000000	0.011047
3124.000000	0.010995
3123.000000	0.010961
3122.000000	0.010948
3121.000000	0.010945
3120.000000	0.010938
3119.000000	0.010921
3118.000000	0.010903
3117.000000	0.010895
3116.000000	0.010906
3115.000000	0.010932
3114.000000	0.010962
3113.000000	0.010985
3112.000000	0.010996
3111.000000	0.011001
3110.000000	0.011008
3109.000000	0.011021
3108.000000	0.011035
3107.000000	0.011040
3106.000000	0.011035
3105.000000	0.011030
3104.000000	0.011037
3103.000000	0.011060
3102.000000	0.011095
3101.000000	0.011134
3100.000000	0.011167
3099.000000	0.011190
3098.000000	0.011202
3097.000000	0.011210
3096.000000	0.011220
3095.000000	0.011237
3094.000000	0.011258
3093.000000	0.011276
3092.000000	0.011287
3091.000000	0.011293
3090.000000	0.011300
3089.000000	0.011313
3088.000000	0.011327
3087.000000	0.011335
3086.000000	0.011334
3085.000000	0.011330
3084.000000	0.011331
3083.000000	0.011338
3082.000000	0.011346
3081.000000	0.011342
3080.000000	0.011322
3079.000000	0.011295
3078.000000	0.011286
3077.000000	0.011314
3076.000000	0.011371
3075.000000	0.011431
3074.000000	0.011478
3073.000000	0.011510
3072.000000	0.011530
3071.000000	0.011537
3070.000000	0.011528
3069.000000	0.011508
3068.000000	0.011487
3067.000000	0.011474
3066.000000	0.011472
3065.000000	0.011478
3064.000000	0.011488
3063.000000	0.011500
3062.000000	0.011512
3061.000000	0.011519
3060.000000	0.011516
3059.000000	0.011497
3058.000000	0.011461
3057.000000	0.011419
3056.000000	0.011382
3055.000000	0.011354
3054.000000	0.011328
3053.000000	0.011295
3052.000000	0.011251
3051.000000	0.011203
3050.000000	0.011158
3049.000000	0.011119
3048.000000	0.011075
3047.000000	0.011020
3046.000000	0.010955
3045.000000	0.010899
3044.000000	0.010864
3043.000000	0.010846
3042.000000	0.010832
3041.000000	0.010808
3040.000000	0.010772
3039.000000	0.010728
3038.000000	0.010682
3037.000000	0.010638
3036.000000	0.010592
3035.000000	0.010543
3034.000000	0.010496
3033.000000	0.010455
3032.000000	0.010421
3031.000000	0.010390
3030.000000	0.010361
3029.000000	0.010336
3028.000000	0.010315
3027.000000	0.010294
3026.000000	0.010265
3025.000000	0.010226
3024.000000	0.010176
3023.000000	0.010116
3022.000000	0.010047
3021.000000	0.009973
3020.000000	0.009911
3019.000000	0.009870
3018.000000	0.009848
3017.000000	0.009829
3016.000000	0.009806
3015.000000	0.009785
3014.000000	0.009775
3013.000000	0.009773
3012.000000	0.009761
3011.000000	0.009736
3010.000000	0.009715
3009.000000	0.009709
3008.000000	0.009709
3007.000000	0.009695
3006.000000	0.009667
3005.000000	0.009645
3004.000000	0.009647
3003.000000	0.009673
3002.000000	0.009709
3001.000000	0.009742
3000.000000	0.009761
2999.000000	0.009755
2998.000000	0.009726
2997.000000	0.009695
2996.000000	0.009687
2995.000000	0.009712
2994.000000	0.009760
2993.000000	0.009816
2992.000000	0.009867
2991.000000	0.009910
2990.000000	0.009947
2989.000000	0.009993
2988.000000	0.010059
2987.000000	0.010155
2986.000000	0.010276
2985.000000	0.010413
2984.000000	0.010548
2983.000000	0.010672
2982.000000	0.010783
2981.000000	0.010889
2980.000000	0.011000
2979.000000	0.011119
2978.000000	0.011247
2977.000000	0.011385
2976.000000	0.011535
2975.000000	0.011693
2974.000000	0.011855
2973.000000	0.012017
2972.000000	0.012179
2971.000000	0.012344
2970.000000	0.012514
2969.000000	0.012703
2968.000000	0.012921
2967.000000	0.013165
2966.000000	0.013419
2965.000000	0.013658
2964.000000	0.013871
2963.000000	0.014058
2962.000000	0.014221
2961.000000	0.014359
2960.000000	0.014472
2959.000000	0.014560
2958.000000	0.014629
2957.000000	0.014676
2956.000000	0.014700
2955.000000	0.014699
2954.000000	0.014678
2953.000000	0.014643
2952.000000	0.014603
2951.000000	0.014570
2950.000000	0.014552
2949.000000	0.014555
2948.000000	0.014576
2947.000000	0.014613
2946.000000	0.014675
2945.000000	0.014772
2944.000000	0.014908
2943.000000	0.015081
2942.000000	0.015285
2941.000000	0.015512
2940.000000	0.015755
2939.000000	0.016008
2938.000000	0.016275
2937.000000	0.016560
2936.000000	0.016857
2935.000000	0.017155
2934.000000	0.017443
2933.000000	0.017712
2932.000000	0.017960
2931.000000	0.018187
2930.000000	0.018393
2929.000000	0.018579
2928.000000	0.018739
2927.000000	0.018865
2926.000000	0.018958
2925.000000	0.019018
2924.000000	0.019044
2923.000000	0.019029
2922.000000	0.018969
2921.000000	0.018860
2920.000000	0.018703
2919.000000	0.018503
2918.000000	0.018267
2917.000000	0.018004
2916.000000	0.017712
2915.000000	0.017392
2914.000000	0.017051
2913.000000	0.016708
2912.000000	0.016377
2911.000000	0.016062
2910.000000	0.015760
2909.000000	0.015476
2908.000000	0.015213
2907.000000	0.014970
2906.000000	0.014740
2905.000000	0.014518
2904.000000	0.014299
2903.000000	0.014083
2902.000000	0.013874
2901.000000	0.013682
2900.000000	0.013513
2899.000000	0.013363
2898.000000	0.013218
2897.000000	0.013069
2896.000000	0.012916
2895.000000	0.012768
2894.000000	0.012636
2893.000000	0.012525
2892.000000	0.012434
2891.000000	0.012357
2890.000000	0.012283
2889.000000	0.012207
2888.000000	0.012129
2887.000000	0.012054
2886.000000	0.011990
2885.000000	0.011946
2884.000000	0.011928
2883.000000	0.011943
2882.000000	0.011993
2881.000000	0.012071
2880.000000	0.012158
2879.000000	0.012238
2878.000000	0.012318
2877.000000	0.012420
2876.000000	0.012544
2875.000000	0.012668
2874.000000	0.012761
2873.000000	0.012815
2872.000000	0.012841
2871.000000	0.012855
2870.000000	0.012867
2869.000000	0.012883
2868.000000	0.012909
2867.000000	0.012946
2866.000000	0.012998
2865.000000	0.013070
2864.000000	0.013166
2863.000000	0.013286
2862.000000	0.013419
2861.000000	0.013560
2860.000000	0.013709
2859.000000	0.013867
2858.000000	0.014029
2857.000000	0.014182
2856.000000	0.014311
2855.000000	0.014408
2854.000000	0.014471
2853.000000	0.014494
2852.000000	0.014459
2851.000000	0.014342
2850.000000	0.014132
2849.000000	0.013838
2848.000000	0.013487
2847.000000	0.013104
2846.000000	0.012715
2845.000000	0.012343
2844.000000	0.012013
2843.000000	0.011731
2842.000000	0.011489
2841.000000	0.011272
2840.000000	0.011073
2839.000000	0.010891
2838.000000	0.010728
2837.000000	0.010584
2836.000000	0.010456
2835.000000	0.010343
2834.000000	0.010244
2833.000000	0.010160
2832.000000	0.010089
2831.000000	0.010026
2830.000000	0.009970
2829.000000	0.009917
2828.000000	0.009865
2827.000000	0.009815
2826.000000	0.009769
2825.000000	0.009729
2824.000000	0.009697
2823.000000	0.009672
2822.000000	0.009657
2821.000000	0.009651
2820.000000	0.009647
2819.000000	0.009639
2818.000000	0.009623
2817.000000	0.009600
2816.000000	0.009571
2815.000000	0.009534
2814.000000	0.009492
2813.000000	0.009451
2812.000000	0.009411
2811.000000	0.009366
2810.000000	0.009316
2809.000000	0.009270
2808.000000	0.009236
2807.000000	0.009215
2806.000000	0.009197
2805.000000	0.009177
2804.000000	0.009154
2803.000000	0.009135
2802.000000	0.009124
2801.000000	0.009118
2800.000000	0.009111
2799.000000	0.009098
2798.000000	0.009078
2797.000000	0.009055
2796.000000	0.009030
2795.000000	0.009002
2794.000000	0.008968
2793.000000	0.008936
2792.000000	0.008915
2791.000000	0.008906
2790.000000	0.008901
2789.000000	0.008889
2788.000000	0.008866
2787.000000	0.008838
2786.000000	0.008815
2785.000000	0.008800
2784.000000	0.008786
2783.000000	0.008765
2782.000000	0.008737
2781.000000	0.008709
2780.000000	0.008689
2779.000000	0.008676
2778.000000	0.008666
2777.000000	0.008654
2776.000000	0.008637
2775.000000	0.008614
2774.000000	0.008588
2773.000000	0.008572
2772.000000	0.008573
2771.000000	0.008584
2770.000000	0.008593
2769.000000	0.008589
2768.000000	0.008574
2767.000000	0.008551
2766.000000	0.008527
2765.000000	0.008506
2764.000000	0.008491
2763.000000	0.008481
2762.000000	0.008473
2761.000000	0.008466
2760.000000	0.008459
2759.000000	0.008454
2758.000000	0.008448
2757.000000	0.008432
2756.000000	0.008399
2755.000000	0.008353
2754.000000	0.008305
2753.000000	0.008272
2752.000000	0.008264
2751.000000	0.008276
2750.000000	0.008303
2749.000000	0.008334
2748.000000	0.008357
2747.000000	0.008362
2746.000000	0.008347
2745.000000	0.008321
2744.000000	0.008292
2743.000000	0.008262
2742.000000	0.008234
2741.000000	0.008217
2740.000000	0.008216
2739.000000	0.008221
2738.000000	0.008220
2737.000000	0.008209
2736.000000	0.008193
2735.000000	0.008180
2734.000000	0.008169
2733.000000	0.008154
2732.000000	0.008134
2731.000000	0.008114
2730.000000	0.008102
2729.000000	0.008101
2728.000000	0.008105
2727.000000	0.008102
2726.000000	0.008088
2725.000000	0.008067
2724.000000	0.008052
2723.000000	0.008046
2722.000000	0.008048
2721.000000	0.008055
2720.000000	0.008068
2719.000000	0.008082
2718.000000	0.008090
2717.000000	0.008086
2716.000000	0.008069
2715.000000	0.008043
2714.000000	0.008018
2713.000000	0.007995
2712.000000	0.007979
2711.000000	0.007969
2710.000000	0.007966
2709.000000	0.007970
2708.000000	0.007973
2707.000000	0.007969
2706.000000	0.007955
2705.000000	0.007937
2704.000000	0.007919
2703.000000	0.007904
2702.000000	0.007893
2701.000000	0.007885
2700.000000	0.007875
2699.000000	0.007858
2698.000000	0.007833
2697.000000	0.007808
2696.000000	0.007795
2695.000000	0.007797
2694.000000	0.007812
2693.000000	0.007833
2692.000000	0.007852
2691.000000	0.007860
2690.000000	0.007858
2689.000000	0.007851
2688.000000	0.007847
2687.000000	0.007848
2686.000000	0.007851
2685.000000	0.007849
2684.000000	0.007838
2683.000000	0.007826
2682.000000	0.007823
2681.000000	0.007832
2680.000000	0.007840
2679.000000	0.007830
2678.000000	0.007805
2677.000000	0.007780
2676.000000	0.007769
2675.000000	0.007770
2674.000000	0.007775
2673.000000	0.007778
2672.000000	0.007777
2671.000000	0.007769
2670.000000	0.007757
2669.000000	0.007753
2668.000000	0.007766
2667.000000	0.007790
2666.000000	0.007811
2665.000000	0.007819
2664.000000	0.007814
2663.000000	0.007803
2662.000000	0.007789
2661.000000	0.007774
2660.000000	0.007763
2659.000000	0.007758
2658.000000	0.007750
2657.000000	0.007731
2656.000000	0.007704
2655.000000	0.007679
2654.000000	0.007668
2653.000000	0.007668
2652.000000	0.007668
2651.000000	0.007661
2650.000000	0.007645
2649.000000	0.007625
2648.000000	0.007604
2647.000000	0.007581
2646.000000	0.007557
2645.000000	0.007532
2644.000000	0.007506
2643.000000	0.007474
2642.000000	0.007439
2641.000000	0.007414
2640.000000	0.007405
2639.000000	0.007408
2638.000000	0.007408
2637.000000	0.007395
2636.000000	0.007371
2635.000000	0.007340
2634.000000	0.007311
2633.000000	0.007286
2632.000000	0.007265
2631.000000	0.007249
2630.000000	0.007240
2629.000000	0.007237
2628.000000	0.007233
2627.000000	0.007221
2626.000000	0.007206
2625.000000	0.007199
2624.000000	0.007201
2623.000000	0.007200
2622.000000	0.007182
2621.000000	0.007142
2620.000000	0.007089
2619.000000	0.007040
2618.000000	0.007010
2617.000000	0.007002
2616.000000	0.007002
2615.000000	0.006992
2614.000000	0.006977
2613.000000	0.006973
2612.000000	0.006986
2611.000000	0.007001
2610.000000	0.007001
2609.000000	0.006993
2608.000000	0.006993
2607.000000	0.006995
2606.000000	0.006980
2605.000000	0.006937
2604.000000	0.006881
2603.000000	0.006835
2602.000000	0.006812
2601.000000	0.006813
2600.000000	0.006826
2599.000000	0.006838
2598.000000	0.006836
2597.000000	0.006817
2596.000000	0.006781
2595.000000	0.006736
2594.000000	0.006697
2593.000000	0.006682
2592.000000	0.006692
2591.000000	0.006711
2590.000000	0.006722
2589.000000	0.006718
2588.000000	0.006705
2587.000000	0.006684
2586.000000	0.006656
2585.000000	0.006621
2584.000000	0.006588
2583.000000	0.006564
2582.000000	0.006558
2581.000000	0.006573
2580.000000	0.006598
2579.000000	0.006616
2578.000000	0.006619
2577.000000	0.006620
2576.000000	0.006630
2575.000000	0.006636
2574.000000	0.006619
2573.000000	0.006577
2572.000000	0.006530
2571.000000	0.006491
2570.000000	0.006460
2569.000000	0.006442
2568.000000	0.006442
2567.000000	0.006450
2566.000000	0.006441
2565.000000	0.006407
2564.000000	0.006378
2563.000000	0.006391
2562.000000	0.006451
2561.000000	0.006519
2560.000000	0.006555
2559.000000	0.006548
2558.000000	0.006519
2557.000000	0.006485
2556.000000	0.006449
2555.000000	0.006414
2554.000000	0.006388
2553.000000	0.006379
2552.000000	0.006376
2551.000000	0.006359
2550.000000	0.006325
2549.000000	0.006298
2548.000000	0.006300
2547.000000	0.006329
2546.000000	0.006357
2545.000000	0.006357
2544.000000	0.006326
2543.000000	0.006286
2542.000000	0.006260
2541.000000	0.006263
2540.000000	0.006290
2539.000000	0.006329
2538.000000	0.006370
2537.000000	0.006406
2536.000000	0.006422
2535.000000	0.006408
2534.000000	0.006372
2533.000000	0.006344
2532.000000	0.006338
2531.000000	0.006346
2530.000000	0.006356
2529.000000	0.006369
2528.000000	0.006393
2527.000000	0.006423
2526.000000	0.006449
2525.000000	0.006472
2524.000000	0.006498
2523.000000	0.006524
2522.000000	0.006539
2521.000000	0.006537
2520.000000	0.006523
2519.000000	0.006491
2518.000000	0.006433
2517.000000	0.006358
2516.000000	0.006295
2515.000000	0.006276
2514.000000	0.006304
2513.000000	0.006356
2512.000000	0.006405
2511.000000	0.006436
2510.000000	0.006453
2509.000000	0.006465
2508.000000	0.006474
2507.000000	0.006474
2506.000000	0.006458
2505.000000	0.006422
2504.000000	0.006361
2503.000000	0.006274
2502.000000	0.006179
2501.000000	0.006118
2500.000000	0.006116
2499.000000	0.006156
2498.000000	0.006190
2497.000000	0.006191
2496.000000	0.006175
2495.000000	0.006169
2494.000000	0.006174
2493.000000	0.006169
2492.000000	0.006141
2491.000000	0.006105
2490.000000	0.006084
2489.000000	0.006088
2488.000000	0.006108
2487.000000	0.006134
2486.000000	0.006164
2485.000000	0.006197
2484.000000	0.006220
2483.000000	0.006218
2482.000000	0.006190
2481.000000	0.006152
2480.000000	0.006114
2479.000000	0.006077
2478.000000	0.006038
2477.000000	0.006010
2476.000000	0.006005
2475.000000	0.006021
2474.000000	0.006033
2473.000000	0.006024
2472.000000	0.005993
2471.000000	0.005959
2470.000000	0.005938
2469.000000	0.005934
2468.000000	0.005938
2467.000000	0.005942
2466.000000	0.005954
2465.000000	0.005984
2464.000000	0.006030
2463.000000	0.006077
2462.000000	0.006106
2461.000000	0.006118
2460.000000	0.006121
2459.000000	0.006118
2458.000000	0.006108
2457.000000	0.006082
2456.000000	0.006035
2455.000000	0.005973
2454.000000	0.005916
2453.000000	0.005891
2452.000000	0.005909
2451.000000	0.005956
2450.000000	0.006001
2449.000000	0.006023
2448.000000	0.006015
2447.000000	0.005984
2446.000000	0.005943
2445.000000	0.005903
2444.000000	0.005880
2443.000000	0.005883
2442.000000	0.005909
2441.000000	0.005942
2440.000000	0.005960
2439.000000	0.005955
2438.000000	0.005944
2437.000000	0.005948
2436.000000	0.005968
2435.000000	0.005983
2434.000000	0.005971
2433.000000	0.005936
2432.000000	0.005897
2431.000000	0.005870
2430.000000	0.005859
2429.000000	0.005856
2428.000000	0.005854
2427.000000	0.005851
2426.000000	0.005856
2425.000000	0.005879
2424.000000	0.005908
2423.000000	0.005915
2422.000000	0.005881
2421.000000	0.005813
2420.000000	0.005747
2419.000000	0.005716
2418.000000	0.005726
2417.000000	0.005758
2416.000000	0.005785
2415.000000	0.005794
2414.000000	0.005788
2413.000000	0.005779
2412.000000	0.005774
2411.000000	0.005779
2410.000000	0.005801
2409.000000	0.005839
2408.000000	0.005871
2407.000000	0.005869
2406.000000	0.005821
2405.000000	0.005746
2404.000000	0.005676
2403.000000	0.005635
2402.000000	0.005633
2401.000000	0.005660
2400.000000	0.005688
2399.000000	0.005696
2398.000000	0.005690
2397.000000	0.005695
2396.000000	0.005731
2395.000000	0.005786
2394.000000	0.005828
2393.000000	0.005836
2392.000000	0.005815
2391.000000	0.005787
2390.000000	0.005763
2389.000000	0.005746
2388.000000	0.005730
2387.000000	0.005712
2386.000000	0.005693
2385.000000	0.005663
2384.000000	0.005607
2383.000000	0.005526
2382.000000	0.005446
2381.000000	0.005398
2380.000000	0.005384
2379.000000	0.005388
2378.000000	0.005402
2377.000000	0.005438
2376.000000	0.005503
2375.000000	0.005581
2374.000000	0.005644
2373.000000	0.005676
2372.000000	0.005673
2371.000000	0.005639
2370.000000	0.005594
2369.000000	0.005567
2368.000000	0.005567
2367.000000	0.005577
2366.000000	0.005581
2365.000000	0.005595
2364.000000	0.005652
2363.000000	0.005749
2362.000000	0.005835
2361.000000	0.005858
2360.000000	0.005816
2359.000000	0.005756
2358.000000	0.005710
2357.000000	0.005680
2356.000000	0.005666
2355.000000	0.005687
2354.000000	0.005733
2353.000000	0.005769
2352.000000	0.005778
2351.000000	0.005773
2350.000000	0.005773
2349.000000	0.005783
2348.000000	0.005797
2347.000000	0.005803
2346.000000	0.005809
2345.000000	0.005843
2344.000000	0.005911
2343.000000	0.005975
2342.000000	0.005999
2341.000000	0.005977
2340.000000	0.005926
2339.000000	0.005875
2338.000000	0.005847
2337.000000	0.005852
2336.000000	0.005881
2335.000000	0.005907
2334.000000	0.005902
2333.000000	0.005861
2332.000000	0.005804
2331.000000	0.005756
2330.000000	0.005730
2329.000000	0.005737
2328.000000	0.005802
2327.000000	0.005930
2326.000000	0.006091
2325.000000	0.006229
2324.000000	0.006296
2323.000000	0.006281
2322.000000	0.006213
2321.000000	0.006142
2320.000000	0.006098
2319.000000	0.006076
2318.000000	0.006054
2317.000000	0.006021
2316.000000	0.005979
2315.000000	0.005928
2314.000000	0.005867
2313.000000	0.005811
2312.000000	0.005779
2311.000000	0.005770
2310.000000	0.005772
2309.000000	0.005776
2308.000000	0.005788
2307.000000	0.005809
2306.000000	0.005825
2305.000000	0.005813
2304.000000	0.005768
2303.000000	0.005709
2302.000000	0.005666
2301.000000	0.005659
2300.000000	0.005685
2299.000000	0.005725
2298.000000	0.005766
2297.000000	0.005799
2296.000000	0.005819
2295.000000	0.005827
2294.000000	0.005831
2293.000000	0.005839
2292.000000	0.005850
2291.000000	0.005854
2290.000000	0.005854
2289.000000	0.005865
2288.000000	0.005895
2287.000000	0.005927
2286.000000	0.005942
2285.000000	0.005942
2284.000000	0.005941
2283.000000	0.005942
2282.000000	0.005934
2281.000000	0.005895
2280.000000	0.005809
2279.000000	0.005683
2278.000000	0.005562
2277.000000	0.005500
2276.000000	0.005516
2275.000000	0.005577
2274.000000	0.005632
2273.000000	0.005656
2272.000000	0.005662
2271.000000	0.005673
2270.000000	0.005707
2269.000000	0.005760
2268.000000	0.005808
2267.000000	0.005816
2266.000000	0.005783
2265.000000	0.005742
2264.000000	0.005718
2263.000000	0.005704
2262.000000	0.005683
2261.000000	0.005652
2260.000000	0.005615
2259.000000	0.005564
2258.000000	0.005493
2257.000000	0.005415
2256.000000	0.005347
2255.000000	0.005292
2254.000000	0.005260
2253.000000	0.005281
2252.000000	0.005367
2251.000000	0.005467
2250.000000	0.005511
2249.000000	0.005479
2248.000000	0.005432
2247.000000	0.005446
2246.000000	0.005535
2245.000000	0.005649
2244.000000	0.005716
2243.000000	0.005701
2242.000000	0.005618
2241.000000	0.005498
2240.000000	0.005356
2239.000000	0.005197
2238.000000	0.005046
2237.000000	0.004963
2236.000000	0.004984
2235.000000	0.005079
2234.000000	0.005182
2233.000000	0.005255
2232.000000	0.005310
2231.000000	0.005364
2230.000000	0.005409
2229.000000	0.005416
2228.000000	0.005368
2227.000000	0.005286
2226.000000	0.005224
2225.000000	0.005216
2224.000000	0.005247
2223.000000	0.005268
2222.000000	0.005252
2221.000000	0.005220
2220.000000	0.005209
2219.000000	0.005226
2218.000000	0.005240
2217.000000	0.005217
2216.000000	0.005150
2215.000000	0.005076
2214.000000	0.005057
2213.000000	0.005118
2212.000000	0.005216
2211.000000	0.005277
2210.000000	0.005272
2209.000000	0.005229
2208.000000	0.005181
2207.000000	0.005135
2206.000000	0.005086
2205.000000	0.005034
2204.000000	0.004989
2203.000000	0.004963
2202.000000	0.004978
2201.000000	0.005038
2200.000000	0.005102
2199.000000	0.005119
2198.000000	0.005090
2197.000000	0.005060
2196.000000	0.005048
2195.000000	0.005030
2194.000000	0.004998
2193.000000	0.004975
2192.000000	0.004970
2191.000000	0.004966
2190.000000	0.004968
2189.000000	0.005010
2188.000000	0.005072
2187.000000	0.005068
2186.000000	0.004951
2185.000000	0.004780
2184.000000	0.004654
2183.000000	0.004601
2182.000000	0.004597
2181.000000	0.004641
2180.000000	0.004751
2179.000000	0.004912
2178.000000	0.005061
2177.000000	0.005128
2176.000000	0.005062
2175.000000	0.004871
2174.000000	0.004642
2173.000000	0.004489
2172.000000	0.004451
2171.000000	0.004479
2170.000000	0.004540
2169.000000	0.004678
2168.000000	0.004934
2167.000000	0.005228
2166.000000	0.005396
2165.000000	0.005330
2164.000000	0.005074
2163.000000	0.004784
2162.000000	0.004588
2161.000000	0.004471
2160.000000	0.004292
2159.000000	0.003957
2158.000000	0.003592
2157.000000	0.003426
2156.000000	0.003508
2155.000000	0.003702
2154.000000	0.003890
2153.000000	0.004056
2152.000000	0.004191
2151.000000	0.004249
2150.000000	0.004231
2149.000000	0.004220
2148.000000	0.004280
2147.000000	0.004369
2146.000000	0.004414
2145.000000	0.004421
2144.000000	0.004453
2143.000000	0.004535
2142.000000	0.004629
2141.000000	0.004683
2140.000000	0.004676
2139.000000	0.004625
2138.000000	0.004561
2137.000000	0.004498
2136.000000	0.004414
2135.000000	0.004302
2134.000000	0.004214
2133.000000	0.004218
2132.000000	0.004303
2131.000000	0.004389
2130.000000	0.004447
2129.000000	0.004536
2128.000000	0.004711
2127.000000	0.004922
2126.000000	0.005060
2125.000000	0.005085
2124.000000	0.005059
2123.000000	0.005067
2122.000000	0.005130
2121.000000	0.005209
2120.000000	0.005262
2119.000000	0.005279
2118.000000	0.005274
2117.000000	0.005259
2116.000000	0.005231
2115.000000	0.005187
2114.000000	0.005148
2113.000000	0.005137
2112.000000	0.005142
2111.000000	0.005132
2110.000000	0.005105
2109.000000	0.005099
2108.000000	0.005135
2107.000000	0.005180
2106.000000	0.005199
2105.000000	0.005205
2104.000000	0.005244
2103.000000	0.005322
2102.000000	0.005386
2101.000000	0.005370
2100.000000	0.005246
2099.000000	0.005057
2098.000000	0.004895
2097.000000	0.004834
2096.000000	0.004874
2095.000000	0.004947
2094.000000	0.005004
2093.000000	0.005056
2092.000000	0.005134
2091.000000	0.005227
2090.000000	0.005297
2089.000000	0.005332
2088.000000	0.005349
2087.000000	0.005361
2086.000000	0.005355
2085.000000	0.005308
2084.000000	0.005209
2083.000000	0.005078
2082.000000	0.004962
2081.000000	0.004914
2080.000000	0.004958
2079.000000	0.005069
2078.000000	0.005197
2077.000000	0.005288
2076.000000	0.005304
2075.000000	0.005233
2074.000000	0.005120
2073.000000	0.005044
2072.000000	0.005054
2071.000000	0.005124
2070.000000	0.005180
2069.000000	0.005170
2068.000000	0.005097
2067.000000	0.005006
2066.000000	0.004940
2065.000000	0.004898
2064.000000	0.004843
2063.000000	0.004767
2062.000000	0.004725
2061.000000	0.004773
2060.000000	0.004876
2059.000000	0.004927
2058.000000	0.004871
2057.000000	0.004751
2056.000000	0.004645
2055.000000	0.004597
2054.000000	0.004619
2053.000000	0.004702
2052.000000	0.004793
2051.000000	0.004804
2050.000000	0.004704
2049.000000	0.004555
2048.000000	0.004455
2047.000000	0.004427
2046.000000	0.004436
2045.000000	0.004456
2044.000000	0.004470
2043.000000	0.004439
2042.000000	0.004347
2041.000000	0.004257
2040.000000	0.004281
2039.000000	0.004458
2038.000000	0.004704
2037.000000	0.004862
2036.000000	0.004813
2035.000000	0.004586
2034.000000	0.004329
2033.000000	0.004146
2032.000000	0.003989
2031.000000	0.003779
2030.000000	0.003597
2029.000000	0.003612
2028.000000	0.003822
2027.000000	0.004014
2026.000000	0.004036
2025.000000	0.003981
2024.000000	0.004022
2023.000000	0.004167
2022.000000	0.004280
2021.000000	0.004273
2020.000000	0.004199
2019.000000	0.004172
2018.000000	0.004263
2017.000000	0.004449
2016.000000	0.004612
2015.000000	0.004638
2014.000000	0.004530
2013.000000	0.004388
2012.000000	0.004296
2011.000000	0.004265
2010.000000	0.004295
2009.000000	0.004391
2008.000000	0.004489
2007.000000	0.004484
2006.000000	0.004390
2005.000000	0.004370
2004.000000	0.004515
2003.000000	0.004685
2002.000000	0.004677
2001.000000	0.004494
2000.000000	0.004347
1999.000000	0.004398
1998.000000	0.004563
1997.000000	0.004609
1996.000000	0.004427
1995.000000	0.004164
1994.000000	0.004076
1993.000000	0.004282
1992.000000	0.004640
1991.000000	0.004890
1990.000000	0.004889
1989.000000	0.004684
1988.000000	0.004406
1987.000000	0.004184
1986.000000	0.004113
1985.000000	0.004214
1984.000000	0.004423
1983.000000	0.004653
1982.000000	0.004875
1981.000000	0.005062
1980.000000	0.005098
1979.000000	0.004846
1978.000000	0.004349
1977.000000	0.003856
1976.000000	0.003590
1975.000000	0.003547
1974.000000	0.003590
1973.000000	0.003606
1972.000000	0.003547
1971.000000	0.003437
1970.000000	0.003384
1969.000000	0.003495
1968.000000	0.003729
1967.000000	0.003932
1966.000000	0.004027
1965.000000	0.004081
1964.000000	0.004161
1963.000000	0.004219
1962.000000	0.004189
1961.000000	0.004086
1960.000000	0.003973
1959.000000	0.003881
1958.000000	0.003808
1957.000000	0.003757
1956.000000	0.003713
1955.000000	0.003658
1954.000000	0.003608
1953.000000	0.003623
1952.000000	0.003727
1951.000000	0.003875
1950.000000	0.004005
1949.000000	0.004093
1948.000000	0.004136
1947.000000	0.004140
1946.000000	0.004135
1945.000000	0.004158
1944.000000	0.004206
1943.000000	0.004243
1942.000000	0.004256
1941.000000	0.004255
1940.000000	0.004221
1939.000000	0.004124
1938.000000	0.004005
1937.000000	0.003970
1936.000000	0.004066
1935.000000	0.004210
1934.000000	0.004284
1933.000000	0.004257
1932.000000	0.004184
1931.000000	0.004109
1930.000000	0.004044
1929.000000	0.003991
1928.000000	0.003953
1927.000000	0.003940
1926.000000	0.003970
1925.000000	0.004058
1924.000000	0.004160
1923.000000	0.004188
1922.000000	0.004115
1921.000000	0.004017
1920.000000	0.003985
1919.000000	0.004035
1918.000000	0.004125
1917.000000	0.004234
1916.000000	0.004360
1915.000000	0.004472
1914.000000	0.004510
1913.000000	0.004440
1912.000000	0.004295
1911.000000	0.004154
1910.000000	0.004096
1909.000000	0.004142
1908.000000	0.004225
1907.000000	0.004254
1906.000000	0.004203
1905.000000	0.004138
1904.000000	0.004130
1903.000000	0.004164
1902.000000	0.004172
1901.000000	0.004115
1900.000000	0.004007
1899.000000	0.003889
1898.000000	0.003803
1897.000000	0.003791
1896.000000	0.003860
1895.000000	0.003951
1894.000000	0.003985
1893.000000	0.003943
1892.000000	0.003888
1891.000000	0.003900
1890.000000	0.004001
1889.000000	0.004132
1888.000000	0.004211
1887.000000	0.004214
1886.000000	0.004179
1885.000000	0.004150
1884.000000	0.004139
1883.000000	0.004136
1882.000000	0.004138
1881.000000	0.004147
1880.000000	0.004138
1879.000000	0.004088
1878.000000	0.004009
1877.000000	0.003950
1876.000000	0.003950
1875.000000	0.003989
1874.000000	0.004017
1873.000000	0.004011
1872.000000	0.003988
1871.000000	0.003974
1870.000000	0.003962
1869.000000	0.003926
1868.000000	0.003863
1867.000000	0.003806
1866.000000	0.003796
1865.000000	0.003844
1864.000000	0.003912
1863.000000	0.003956
1862.000000	0.003968
1861.000000	0.003971
1860.000000	0.003980
1859.000000	0.003987
1858.000000	0.003986
1857.000000	0.003979
1856.000000	0.003963
1855.000000	0.003933
1854.000000	0.003899
1853.000000	0.003885
1852.000000	0.003892
1851.000000	0.003913
1850.000000	0.003926
1849.000000	0.003891
1848.000000	0.003784
1847.000000	0.003644
1846.000000	0.003559
1845.000000	0.003571
1844.000000	0.003609
1843.000000	0.003590
1842.000000	0.003547
1841.000000	0.003550
1840.000000	0.003602
1839.000000	0.003655
1838.000000	0.003678
1837.000000	0.003693
1836.000000	0.003710
1835.000000	0.003696
1834.000000	0.003637
1833.000000	0.003572
1832.000000	0.003554
1831.000000	0.003585
1830.000000	0.003610
1829.000000	0.003597
1828.000000	0.003574
1827.000000	0.003583
1826.000000	0.003621
1825.000000	0.003654
1824.000000	0.003667
1823.000000	0.003680
1822.000000	0.003704
1821.000000	0.003719
1820.000000	0.003701
1819.000000	0.003655
1818.000000	0.003613
1817.000000	0.003606
1816.000000	0.003625
1815.000000	0.003643
1814.000000	0.003654
1813.000000	0.003666
1812.000000	0.003675
1811.000000	0.003660
1810.000000	0.003622
1809.000000	0.003597
1808.000000	0.003610
1807.000000	0.003646
1806.000000	0.003679
1805.000000	0.003701
1804.000000	0.003712
1803.000000	0.003721
1802.000000	0.003748
1801.000000	0.003802
1800.000000	0.003871
1799.000000	0.003917
1798.000000	0.003919
1797.000000	0.003890
1796.000000	0.003844
1795.000000	0.003811
1794.000000	0.003824
1793.000000	0.003870
1792.000000	0.003886
1791.000000	0.003842
1790.000000	0.003775
1789.000000	0.003729
1788.000000	0.003705
1787.000000	0.003681
1786.000000	0.003650
1785.000000	0.003620
1784.000000	0.003597
1783.000000	0.003568
1782.000000	0.003575
1781.000000	0.003569
1780.000000	0.003643
1779.000000	0.003736
1778.000000	0.003710
1777.000000	0.003758
1776.000000	0.003729
1775.000000	0.003848
1774.000000	0.003603
1773.000000	0.003348
1772.000000	0.003521
1771.000000	0.003502
1770.000000	0.003537
1769.000000	0.003585
1768.000000	0.003709
1767.000000	0.003807
1766.000000	0.003860
1765.000000	0.003911
1764.000000	0.004017
1763.000000	0.004178
1762.000000	0.004343
1761.000000	0.004483
1760.000000	0.004637
1759.000000	0.004859
1758.000000	0.005193
1757.000000	0.005622
1756.000000	0.006051
1755.000000	0.006413
1754.000000	0.006739
1753.000000	0.007129
1752.000000	0.007656
1751.000000	0.008291
1750.000000	0.008952
1749.000000	0.009597
1748.000000	0.010178
1747.000000	0.010662
1746.000000	0.011083
1745.000000	0.011477
1744.000000	0.011826
1743.000000	0.012087
1742.000000	0.012286
1741.000000	0.012477
1740.000000	0.012588
1739.000000	0.012474
1738.000000	0.012181
1737.000000	0.011881
1736.000000	0.011669
1735.000000	0.011430
1734.000000	0.010946
1733.000000	0.010375
1732.000000	0.010044
1731.000000	0.009911
1730.000000	0.009761
1729.000000	0.009505
1728.000000	0.009168
1727.000000	0.008807
1726.000000	0.008457
1725.000000	0.008135
1724.000000	0.007844
1723.000000	0.007547
1722.000000	0.007230
1721.000000	0.006921
1720.000000	0.006638
1719.000000	0.006350
1718.000000	0.006038
1717.000000	0.005822
1716.000000	0.005824
1715.000000	0.005971
1714.000000	0.006120
1713.000000	0.006230
1712.000000	0.006323
1711.000000	0.006409
1710.000000	0.006489
1709.000000	0.006590
1708.000000	0.006755
1707.000000	0.006997
1706.000000	0.007265
1705.000000	0.007463
1704.000000	0.007529
1703.000000	0.007551
1702.000000	0.007786
1701.000000	0.008346
1700.000000	0.008815
1699.000000	0.008890
1698.000000	0.008892
1697.000000	0.009206
1696.000000	0.009863
1695.000000	0.010544
1694.000000	0.011073
1693.000000	0.011562
1692.000000	0.012054
1691.000000	0.012505
1690.000000	0.012887
1689.000000	0.013151
1688.000000	0.013248
1687.000000	0.013253
1686.000000	0.013452
1685.000000	0.014138
1684.000000	0.015135
1683.000000	0.015967
1682.000000	0.016567
1681.000000	0.017143
1680.000000	0.017729
1679.000000	0.018243
1678.000000	0.018703
1677.000000	0.019283
1676.000000	0.020085
1675.000000	0.020907
1674.000000	0.021510
1673.000000	0.021969
1672.000000	0.022499
1671.000000	0.023196
1670.000000	0.024039
1669.000000	0.024918
1668.000000	0.025682
1667.000000	0.026277
1666.000000	0.026780
1665.000000	0.027342
1664.000000	0.028063
1663.000000	0.028861
1662.000000	0.029577
1661.000000	0.030169
1660.000000	0.030703
1659.000000	0.031191
1658.000000	0.031560
1657.000000	0.031722
1656.000000	0.031715
1655.000000	0.031793
1654.000000	0.032300
1653.000000	0.033097
1652.000000	0.033617
1651.000000	0.033890
1650.000000	0.034191
1649.000000	0.034495
1648.000000	0.034827
1647.000000	0.035189
1646.000000	0.035448
1645.000000	0.035589
1644.000000	0.035742
1643.000000	0.035928
1642.000000	0.036090
1641.000000	0.036196
1640.000000	0.036231
1639.000000	0.036191
1638.000000	0.036152
1637.000000	0.036290
1636.000000	0.036660
1635.000000	0.037020
1634.000000	0.037158
1633.000000	0.037182
1632.000000	0.037199
1631.000000	0.037201
1630.000000	0.037178
1629.000000	0.037123
1628.000000	0.037000
1627.000000	0.036772
1626.000000	0.036467
1625.000000	0.036151
1624.000000	0.035822
1623.000000	0.035391
1622.000000	0.034823
1621.000000	0.034177
1620.000000	0.033504
1619.000000	0.032819
1618.000000	0.032148
1617.000000	0.031507
1616.000000	0.030904
1615.000000	0.030387
1614.000000	0.029954
1613.000000	0.029525
1612.000000	0.029036
1611.000000	0.028483
1610.000000	0.027909
1609.000000	0.027349
1608.000000	0.026805
1607.000000	0.026274
1606.000000	0.025765
1605.000000	0.025285
1604.000000	0.024835
1603.000000	0.024423
1602.000000	0.024046
1601.000000	0.023681
1600.000000	0.023316
1599.000000	0.022964
1598.000000	0.022647
1597.000000	0.022369
1596.000000	0.022123
1595.000000	0.021914
1594.000000	0.021747
1593.000000	0.021608
1592.000000	0.021473
1591.000000	0.021346
1590.000000	0.021241
1589.000000	0.021157
1588.000000	0.021088
1587.000000	0.021044
1586.000000	0.021043
1585.000000	0.021073
1584.000000	0.021111
1583.000000	0.021169
1582.000000	0.021264
1581.000000	0.021347
1580.000000	0.021343
1579.000000	0.021256
1578.000000	0.021204
1577.000000	0.021337
1576.000000	0.021647
1575.000000	0.021986
1574.000000	0.022283
1573.000000	0.022523
1572.000000	0.022744
1571.000000	0.023042
1570.000000	0.023455
1569.000000	0.023876
1568.000000	0.024206
1567.000000	0.024516
1566.000000	0.024905
1565.000000	0.025330
1564.000000	0.025621
1563.000000	0.025670
1562.000000	0.025580
1561.000000	0.025698
1560.000000	0.026337
1559.000000	0.027387
1558.000000	0.028270
1557.000000	0.028725
1556.000000	0.029092
1555.000000	0.029553
1554.000000	0.030056
1553.000000	0.030507
1552.000000	0.030897
1551.000000	0.031292
1550.000000	0.031696
1549.000000	0.032054
1548.000000	0.032314
1547.000000	0.032517
1546.000000	0.032715
1545.000000	0.032887
1544.000000	0.032981
1543.000000	0.032999
1542.000000	0.033015
1541.000000	0.033152
1540.000000	0.033445
1539.000000	0.033703
1538.000000	0.033817
1537.000000	0.033895
1536.000000	0.033965
1535.000000	0.034011
1534.000000	0.034013
1533.000000	0.033912
1532.000000	0.033724
1531.000000	0.033515
1530.000000	0.033324
1529.000000	0.033150
1528.000000	0.032961
1527.000000	0.032739
1526.000000	0.032477
1525.000000	0.032163
1524.000000	0.031818
1523.000000	0.031484
1522.000000	0.031193
1521.000000	0.030946
1520.000000	0.030757
1519.000000	0.030653
1518.000000	0.030586
1517.000000	0.030467
1516.000000	0.030244
1515.000000	0.029929
1514.000000	0.029582
1513.000000	0.029233
1512.000000	0.028859
1511.000000	0.028408
1510.000000	0.027859
1509.000000	0.027261
1508.000000	0.026693
1507.000000	0.026213
1506.000000	0.025807
1505.000000	0.025467
1504.000000	0.025274
1503.000000	0.025154
1502.000000	0.024955
1501.000000	0.024649
1500.000000	0.024268
1499.000000	0.023835
1498.000000	0.023364
1497.000000	0.022909
1496.000000	0.022531
1495.000000	0.022236
1494.000000	0.022010
1493.000000	0.021834
1492.000000	0.021675
1491.000000	0.021477
1490.000000	0.021229
1489.000000	0.021028
1488.000000	0.020939
1487.000000	0.020893
1486.000000	0.020843
1485.000000	0.020822
1484.000000	0.020859
1483.000000	0.020950
1482.000000	0.021068
1481.000000	0.021209
1480.000000	0.021388
1479.000000	0.021619
1478.000000	0.021897
1477.000000	0.022191
1476.000000	0.022448
1475.000000	0.022683
1474.000000	0.023036
1473.000000	0.023620
1472.000000	0.024344
1471.000000	0.025006
1470.000000	0.025561
1469.000000	0.026078
1468.000000	0.026584
1467.000000	0.027068
1466.000000	0.027544
1465.000000	0.028002
1464.000000	0.028388
1463.000000	0.028673
1462.000000	0.028904
1461.000000	0.029118
1460.000000	0.029299
1459.000000	0.029470
1458.000000	0.029778
1457.000000	0.030317
1456.000000	0.030909
1455.000000	0.031409
1454.000000	0.031857
1453.000000	0.032241
1452.000000	0.032529
1451.000000	0.032723
1450.000000	0.032864
1449.000000	0.033005
1448.000000	0.033139
1447.000000	0.033225
1446.000000	0.033280
1445.000000	0.033332
1444.000000	0.033388
1443.000000	0.033421
1442.000000	0.033407
1441.000000	0.033334
1440.000000	0.033212
1439.000000	0.033079
1438.000000	0.032991
1437.000000	0.032950
1436.000000	0.032895
1435.000000	0.032828
1434.000000	0.032790
1433.000000	0.032775
1432.000000	0.032743
1431.000000	0.032676
1430.000000	0.032605
1429.000000	0.032583
1428.000000	0.032621
1427.000000	0.032691
1426.000000	0.032782
1425.000000	0.032865
1424.000000	0.032897
1423.000000	0.032858
1422.000000	0.032788
1421.000000	0.032758
1420.000000	0.032788
1419.000000	0.032815
1418.000000	0.032829
1417.000000	0.032883
1416.000000	0.032958
1415.000000	0.032991
1414.000000	0.032964
1413.000000	0.032905
1412.000000	0.032851
1411.000000	0.032810
1410.000000	0.032771
1409.000000	0.032725
1408.000000	0.032666
1407.000000	0.032589
1406.000000	0.032510
1405.000000	0.032440
1404.000000	0.032372
1403.000000	0.032301
1402.000000	0.032242
1401.000000	0.032204
1400.000000	0.032148
1399.000000	0.032031
1398.000000	0.031873
1397.000000	0.031728
1396.000000	0.031607
1395.000000	0.031487
1394.000000	0.031376
1393.000000	0.031303
1392.000000	0.031268
1391.000000	0.031226
1390.000000	0.031136
1389.000000	0.030992
1388.000000	0.030812
1387.000000	0.030632
1386.000000	0.030505
1385.000000	0.030445
1384.000000	0.030396
1383.000000	0.030297
1382.000000	0.030134
1381.000000	0.029948
1380.000000	0.029770
1379.000000	0.029592
1378.000000	0.029392
1377.000000	0.029165
1376.000000	0.028905
1375.000000	0.028611
1374.000000	0.028306
1373.000000	0.028018
1372.000000	0.027747
1371.000000	0.027480
1370.000000	0.027219
1369.000000	0.026968
1368.000000	0.026707
1367.000000	0.026412
1366.000000	0.026078
1365.000000	0.025728
1364.000000	0.025387
1363.000000	0.025076
1362.000000	0.024819
1361.000000	0.024628
1360.000000	0.024490
1359.000000	0.024381
1358.000000	0.024284
1357.000000	0.024186
1356.000000	0.024088
1355.000000	0.024002
1354.000000	0.023940
1353.000000	0.023911
1352.000000	0.023918
1351.000000	0.023961
1350.000000	0.024043
1349.000000	0.024150
1348.000000	0.024265
1347.000000	0.024384
1346.000000	0.024517
1345.000000	0.024662
1344.000000	0.024797
1343.000000	0.024906
1342.000000	0.025001
1341.000000	0.025106
1340.000000	0.025239
1339.000000	0.025405
1338.000000	0.025594
1337.000000	0.025782
1336.000000	0.025925
1335.000000	0.025986
1334.000000	0.025958
1333.000000	0.025861
1332.000000	0.025717
1331.000000	0.025529
1330.000000	0.025302
1329.000000	0.025055
1328.000000	0.024813
1327.000000	0.024597
1326.000000	0.024419
1325.000000	0.024273
1324.000000	0.024143
1323.000000	0.024013
1322.000000	0.023884
1321.000000	0.023769
1320.000000	0.023671
1319.000000	0.023588
1318.000000	0.023515
1317.000000	0.023444
1316.000000	0.023358
1315.000000	0.023244
1314.000000	0.023101
1313.000000	0.022943
1312.000000	0.022778
1311.000000	0.022599
1310.000000	0.022403
1309.000000	0.022196
1308.000000	0.021990
1307.000000	0.021798
1306.000000	0.021629
1305.000000	0.021480
1304.000000	0.021334
1303.000000	0.021174
1302.000000	0.020999
1301.000000	0.020828
1300.000000	0.020675
1299.000000	0.020537
1298.000000	0.020404
1297.000000	0.020277
1296.000000	0.020171
1295.000000	0.020099
1294.000000	0.020065
1293.000000	0.020065
1292.000000	0.020094
1291.000000	0.020151
1290.000000	0.020236
1289.000000	0.020340
1288.000000	0.020453
1287.000000	0.020562
1286.000000	0.020663
1285.000000	0.020752
1284.000000	0.020827
1283.000000	0.020884
1282.000000	0.020930
1281.000000	0.020972
1280.000000	0.021009
1279.000000	0.021029
1278.000000	0.021032
1277.000000	0.021034
1276.000000	0.021052
1275.000000	0.021095
1274.000000	0.021154
1273.000000	0.021224
1272.000000	0.021311
1271.000000	0.021420
1270.000000	0.021556
1269.000000	0.021711
1268.000000	0.021883
1267.000000	0.022073
1266.000000	0.022283
1265.000000	0.022510
1264.000000	0.022739
1263.000000	0.022956
1262.000000	0.023164
1261.000000	0.023387
1260.000000	0.023636
1259.000000	0.023895
1258.000000	0.024138
1257.000000	0.024367
1256.000000	0.024598
1255.000000	0.024834
1254.000000	0.025046
1253.000000	0.025215
1252.000000	0.025369
1251.000000	0.025567
1250.000000	0.025840
1249.000000	0.026157
1248.000000	0.026466
1247.000000	0.026750
1246.000000	0.027031
1245.000000	0.027317
1244.000000	0.027582
1243.000000	0.027806
1242.000000	0.028001
1241.000000	0.028194
1240.000000	0.028380
1239.000000	0.028538
1238.000000	0.028664
1237.000000	0.028769
1236.000000	0.028839
1235.000000	0.028837
1234.000000	0.028752
1233.000000	0.028615
1232.000000	0.028457
1231.000000	0.028278
1230.000000	0.028050
1229.000000	0.027754
1228.000000	0.027385
1227.000000	0.026955
1226.000000	0.026486
1225.000000	0.026001
1224.000000	0.025512
1223.000000	0.025022
1222.000000	0.024536
1221.000000	0.024063
1220.000000	0.023610
1219.000000	0.023186
1218.000000	0.022803
1217.000000	0.022477
1216.000000	0.022207
1215.000000	0.021987
1214.000000	0.021816
1213.000000	0.021694
1212.000000	0.021618
1211.000000	0.021581
1210.000000	0.021583
1209.000000	0.021624
1208.000000	0.021690
1207.000000	0.021765
1206.000000	0.021846
1205.000000	0.021936
1204.000000	0.022029
1203.000000	0.022104
1202.000000	0.022143
1201.000000	0.022136
1200.000000	0.022071
1199.000000	0.021942
1198.000000	0.021762
1197.000000	0.021563
1196.000000	0.021367
1195.000000	0.021181
1194.000000	0.021001
1193.000000	0.020831
1192.000000	0.020674
1191.000000	0.020530
1190.000000	0.020409
1189.000000	0.020318
1188.000000	0.020256
1187.000000	0.020207
1186.000000	0.020156
1185.000000	0.020104
1184.000000	0.020053
1183.000000	0.020007
1182.000000	0.019979
1181.000000	0.019995
1180.000000	0.020068
1179.000000	0.020178
1178.000000	0.020295
1177.000000	0.020411
1176.000000	0.020537
1175.000000	0.020676
1174.000000	0.020818
1173.000000	0.020956
1172.000000	0.021088
1171.000000	0.021216
1170.000000	0.021336
1169.000000	0.021448
1168.000000	0.021557
1167.000000	0.021672
1166.000000	0.021791
1165.000000	0.021904
1164.000000	0.021992
1163.000000	0.022039
1162.000000	0.022043
1161.000000	0.022014
1160.000000	0.021958
1159.000000	0.021870
1158.000000	0.021738
1157.000000	0.021552
1156.000000	0.021313
1155.000000	0.021030
1154.000000	0.020715
1153.000000	0.020372
1152.000000	0.019996
1151.000000	0.019589
1150.000000	0.019169
1149.000000	0.018758
1148.000000	0.018357
1147.000000	0.017946
1146.000000	0.017519
1145.000000	0.017094
1144.000000	0.016698
1143.000000	0.016335
1142.000000	0.015992
1141.000000	0.015657
1140.000000	0.015343
1139.000000	0.015073
1138.000000	0.014854
1137.000000	0.014670
1136.000000	0.014500
1135.000000	0.014339
1134.000000	0.014205
1133.000000	0.014121
1132.000000	0.014093
1131.000000	0.014099
1130.000000	0.014112
1129.000000	0.014127
1128.000000	0.014161
1127.000000	0.014217
1126.000000	0.014270
1125.000000	0.014303
1124.000000	0.014331
1123.000000	0.014388
1122.000000	0.014481
1121.000000	0.014581
1120.000000	0.014660
1119.000000	0.014720
1118.000000	0.014782
1117.000000	0.014862
1116.000000	0.014968
1115.000000	0.015112
1114.000000	0.015306
1113.000000	0.015537
1112.000000	0.015774
1111.000000	0.015980
1110.000000	0.016135
1109.000000	0.016233
1108.000000	0.016284
1107.000000	0.016304
1106.000000	0.016316
1105.000000	0.016334
1104.000000	0.016354
1103.000000	0.016366
1102.000000	0.016374
1101.000000	0.016394
1100.000000	0.016439
1099.000000	0.016516
1098.000000	0.016624
1097.000000	0.016759
1096.000000	0.016912
1095.000000	0.017073
1094.000000	0.017229
1093.000000	0.017367
1092.000000	0.017481
1091.000000	0.017574
1090.000000	0.017662
1089.000000	0.017759
1088.000000	0.017853
1087.000000	0.017920
1086.000000	0.017949
1085.000000	0.017954
1084.000000	0.017944
1083.000000	0.017904
1082.000000	0.017809
1081.000000	0.017651
1080.000000	0.017443
1079.000000	0.017200
1078.000000	0.016931
1077.000000	0.016644
1076.000000	0.016353
1075.000000	0.016079
1074.000000	0.015832
1073.000000	0.015603
1072.000000	0.015379
1071.000000	0.015172
1070.000000	0.015005
1069.000000	0.014892
1068.000000	0.014823
1067.000000	0.014795
1066.000000	0.014820
1065.000000	0.014904
1064.000000	0.015017
1063.000000	0.015107
1062.000000	0.015137
1061.000000	0.015104
1060.000000	0.015028
1059.000000	0.014934
1058.000000	0.014847
1057.000000	0.014779
1056.000000	0.014720
1055.000000	0.014651
1054.000000	0.014558
1053.000000	0.014447
1052.000000	0.014331
1051.000000	0.014227
1050.000000	0.014164
1049.000000	0.014167
1048.000000	0.014240
1047.000000	0.014354
1046.000000	0.014473
1045.000000	0.014579
1044.000000	0.014666
1043.000000	0.014735
1042.000000	0.014800
1041.000000	0.014895
1040.000000	0.015053
1039.000000	0.015278
1038.000000	0.015553
1037.000000	0.015852
1036.000000	0.016163
1035.000000	0.016472
1034.000000	0.016763
1033.000000	0.017022
1032.000000	0.017226
1031.000000	0.017348
1030.000000	0.017366
1029.000000	0.017285
1028.000000	0.017145
1027.000000	0.016999
1026.000000	0.016873
1025.000000	0.016749
1024.000000	0.016590
1023.000000	0.016387
1022.000000	0.016178
1021.000000	0.015999
1020.000000	0.015850
1019.000000	0.015709
1018.000000	0.015568
1017.000000	0.015438
1016.000000	0.015317
1015.000000	0.015187
1014.000000	0.015043
1013.000000	0.014902
1012.000000	0.014774
1011.000000	0.014632
1010.000000	0.014455
1009.000000	0.014248
1008.000000	0.014035
1007.000000	0.013819
1006.000000	0.013590
1005.000000	0.013352
1004.000000	0.013127
1003.000000	0.012922
1002.000000	0.012720
1001.000000	0.012502
1000.000000	0.012278
999.000000	0.012068
998.000000	0.011884
997.000000	0.011718
996.000000	0.011557
995.000000	0.011391
994.000000	0.011219
993.000000	0.011056
992.000000	0.010919
991.000000	0.010805
990.000000	0.010684
989.000000	0.010526
988.000000	0.010342
987.000000	0.010168
986.000000	0.010037
985.000000	0.009950
984.000000	0.009898
983.000000	0.009878
982.000000	0.009888
981.000000	0.009917
980.000000	0.009951
979.000000	0.009988
978.000000	0.010036
977.000000	0.010104
976.000000	0.010188
975.000000	0.010275
974.000000	0.010340
973.000000	0.010360
972.000000	0.010321
971.000000	0.010230
970.000000	0.010123
969.000000	0.010034
968.000000	0.009975
967.000000	0.009932
966.000000	0.009878
965.000000	0.009800
964.000000	0.009694
963.000000	0.009567
962.000000	0.009427
961.000000	0.009287
960.000000	0.009158
959.000000	0.009047
958.000000	0.008941
957.000000	0.008825
956.000000	0.008696
955.000000	0.008569
954.000000	0.008460
953.000000	0.008369
952.000000	0.008277
951.000000	0.008171
950.000000	0.008059
949.000000	0.007962
948.000000	0.007887
947.000000	0.007824
946.000000	0.007760
945.000000	0.007698
944.000000	0.007653
943.000000	0.007635
942.000000	0.007634
941.000000	0.007619
940.000000	0.007563
939.000000	0.007468
938.000000	0.007366
937.000000	0.007294
936.000000	0.007253
935.000000	0.007208
934.000000	0.007124
933.000000	0.007005
932.000000	0.006875
931.000000	0.006751
930.000000	0.006630
929.000000	0.006510
928.000000	0.006405
927.000000	0.006324
926.000000	0.006259
925.000000	0.006188
924.000000	0.006104
923.000000	0.006022
922.000000	0.005957
921.000000	0.005902
920.000000	0.005841
919.000000	0.005765
918.000000	0.005677
917.000000	0.005580
916.000000	0.005467
915.000000	0.005330
914.000000	0.005171
913.000000	0.005008
912.000000	0.004860
911.000000	0.004735
910.000000	0.004629
909.000000	0.004538
908.000000	0.004461
907.000000	0.004394
906.000000	0.004333
905.000000	0.004275
904.000000	0.004217
903.000000	0.004153
902.000000	0.004073
901.000000	0.003976
900.000000	0.003881
899.000000	0.003804
898.000000	0.003742
897.000000	0.003680
896.000000	0.003613
895.000000	0.003556
894.000000	0.003517
893.000000	0.003491
892.000000	0.003468
891.000000	0.003455
890.000000	0.003477
889.000000	0.003575
888.000000	0.003799
887.000000	0.004189
886.000000	0.004749
885.000000	0.005430
884.000000	0.006152
883.000000	0.006860
882.000000	0.007572
881.000000	0.008373
880.000000	0.009339
879.000000	0.010469
878.000000	0.011667
877.000000	0.012786
876.000000	0.013693
875.000000	0.014300
874.000000	0.014569
873.000000	0.014485
872.000000	0.014052
871.000000	0.013316
870.000000	0.012382
869.000000	0.011388
868.000000	0.010449
867.000000	0.009631
866.000000	0.008956
865.000000	0.008408
864.000000	0.007949
863.000000	0.007537
862.000000	0.007159
861.000000	0.006830
860.000000	0.006560
859.000000	0.006338
858.000000	0.006147
857.000000	0.005978
856.000000	0.005831
855.000000	0.005702
854.000000	0.005592
853.000000	0.005505
852.000000	0.005453
851.000000	0.005442
850.000000	0.005468
849.000000	0.005503
848.000000	0.005491
847.000000	0.005385
846.000000	0.005196
845.000000	0.004981
844.000000	0.004785
843.000000	0.004607
842.000000	0.004432
841.000000	0.004280
840.000000	0.004178
839.000000	0.004110
838.000000	0.004030
837.000000	0.003920
836.000000	0.003816
835.000000	0.003762
834.000000	0.003761
833.000000	0.003781
832.000000	0.003781
831.000000	0.003744
830.000000	0.003683
829.000000	0.003632
828.000000	0.003609
827.000000	0.003605
826.000000	0.003602
825.000000	0.003597
824.000000	0.003605
823.000000	0.003626
822.000000	0.003637
821.000000	0.003621
820.000000	0.003578
819.000000	0.003519
818.000000	0.003465
817.000000	0.003446
816.000000	0.003486
815.000000	0.003578
814.000000	0.003684
813.000000	0.003758
812.000000	0.003772
811.000000	0.003721
810.000000	0.003626
809.000000	0.003538
808.000000	0.003501
807.000000	0.003515
806.000000	0.003547
805.000000	0.003571
804.000000	0.003580
803.000000	0.003580
802.000000	0.003574
801.000000	0.003565
800.000000	0.003564
799.000000	0.003571
798.000000	0.003579
797.000000	0.003592
796.000000	0.003619
795.000000	0.003649
794.000000	0.003666
793.000000	0.003668
792.000000	0.003671
791.000000	0.003681
790.000000	0.003692
789.000000	0.003708
788.000000	0.003733
787.000000	0.003755
786.000000	0.003746
785.000000	0.003707
784.000000	0.003672
783.000000	0.003662
782.000000	0.003669
781.000000	0.003682
780.000000	0.003716
779.000000	0.003783
778.000000	0.003858
777.000000	0.003903
776.000000	0.003916
775.000000	0.003922
774.000000	0.003930
773.000000	0.003918
772.000000	0.003866
771.000000	0.003783
770.000000	0.003705
769.000000	0.003665
768.000000	0.003668
767.000000	0.003685
766.000000	0.003675
765.000000	0.003631
764.000000	0.003584
763.000000	0.003563
762.000000	0.003562
761.000000	0.003564
760.000000	0.003565
759.000000	0.003581
758.000000	0.003618
757.000000	0.003678
756.000000	0.003757
755.000000	0.003844
754.000000	0.003913
753.000000	0.003948
752.000000	0.003956
751.000000	0.003961
750.000000	0.003964
749.000000	0.003954
748.000000	0.003932
747.000000	0.003918
746.000000	0.003928
745.000000	0.003961
744.000000	0.004009
743.000000	0.004067
742.000000	0.004117
741.000000	0.004139
740.000000	0.004131
739.000000	0.004120
738.000000	0.004140
737.000000	0.004208
736.000000	0.004320
735.000000	0.004459
734.000000	0.004595
733.000000	0.004700
732.000000	0.004769
731.000000	0.004830
730.000000	0.004915
729.000000	0.005033
728.000000	0.005159
727.000000	0.005265
726.000000	0.005349
725.000000	0.005435
724.000000	0.005538
723.000000	0.005649
722.000000	0.005754
721.000000	0.005864
720.000000	0.006008
719.000000	0.006207
718.000000	0.006472
717.000000	0.006842
716.000000	0.007382
715.000000	0.008112
714.000000	0.008916
713.000000	0.009566
712.000000	0.009860
711.000000	0.009768
710.000000	0.009439
709.000000	0.009074
708.000000	0.008809
707.000000	0.008674
706.000000	0.008633
705.000000	0.008640
704.000000	0.008669
703.000000	0.008722
702.000000	0.008806
701.000000	0.008895
700.000000	0.008940
699.000000	0.008910
698.000000	0.008827
697.000000	0.008736
696.000000	0.008662
695.000000	0.008611
694.000000	0.008590
693.000000	0.008607
692.000000	0.008649
691.000000	0.008678
690.000000	0.008671
689.000000	0.008645
688.000000	0.008650
687.000000	0.008729
686.000000	0.008866
685.000000	0.008996
684.000000	0.009072
683.000000	0.009116
682.000000	0.009189
681.000000	0.009308
680.000000	0.009437
679.000000	0.009523
678.000000	0.009546
677.000000	0.009534
676.000000	0.009532
675.000000	0.009575
674.000000	0.009652
673.000000	0.009697
672.000000	0.009632
671.000000	0.009451
670.000000	0.009248
669.000000	0.009217
668.000000	0.009550
667.000000	0.009968
666.000000	0.010065
665.000000	0.010047
664.000000	0.010094
663.000000	0.010153
662.000000	0.010147
661.000000	0.010119
660.000000	0.010163
659.000000	0.010278
658.000000	0.010383
657.000000	0.010445
656.000000	0.010487
655.000000	0.010515
654.000000	0.010543
653.000000	0.010609
652.000000	0.010722
651.000000	0.010830
650.000000	0.010904
649.000000	0.010977
648.000000	0.011073
647.000000	0.011156
646.000000	0.011209
645.000000	0.011271
644.000000	0.011370
643.000000	0.011479
642.000000	0.011575
641.000000	0.011666
640.000000	0.011742
639.000000	0.011756
638.000000	0.011722
637.000000	0.011723
636.000000	0.011803
635.000000	0.011905
634.000000	0.011976
633.000000	0.012029
632.000000	0.012070
631.000000	0.012057
630.000000	0.011989
629.000000	0.011954
628.000000	0.012015
627.000000	0.012119
626.000000	0.012193
625.000000	0.012233
624.000000	0.012265
623.000000	0.012285
622.000000	0.012305
621.000000	0.012368
620.000000	0.012462
619.000000	0.012507
618.000000	0.012494
617.000000	0.012541
616.000000	0.012728
615.000000	0.012941
614.000000	0.013009
613.000000	0.012920
612.000000	0.012808
611.000000	0.012765
610.000000	0.012779
609.000000	0.012822
608.000000	0.012884
607.000000	0.012944
606.000000	0.012978
605.000000	0.012985
604.000000	0.012952
603.000000	0.012827
602.000000	0.012585
601.000000	0.012296
600.000000	0.012046
599.000000	0.011835
598.000000	0.011614
597.000000	0.011392
596.000000	0.011217
595.000000	0.011084
594.000000	0.010956
593.000000	0.010861
592.000000	0.010887
591.000000	0.011054
590.000000	0.011257
589.000000	0.011364
588.000000	0.011343
587.000000	0.011271
586.000000	0.011260
585.000000	0.011340
584.000000	0.011415
583.000000	0.011360
582.000000	0.011177
581.000000	0.010991
580.000000	0.010888
579.000000	0.010832
578.000000	0.010786
577.000000	0.010806
576.000000	0.010941
575.000000	0.011126
574.000000	0.011260
573.000000	0.011349
572.000000	0.011451
571.000000	0.011559
570.000000	0.011617
569.000000	0.011619
568.000000	0.011596
567.000000	0.011570
566.000000	0.011573
565.000000	0.011668
564.000000	0.011866
563.000000	0.012080
562.000000	0.012261
561.000000	0.012488
560.000000	0.012815
559.000000	0.013113
558.000000	0.013198
557.000000	0.013075
556.000000	0.012915
555.000000	0.012832
554.000000	0.012803
553.000000	0.012787
552.000000	0.012776
551.000000	0.012741
550.000000	0.012649
549.000000	0.012537
548.000000	0.012482
547.000000	0.012508
546.000000	0.012582
545.000000	0.012656
544.000000	0.012664
543.000000	0.012553
542.000000	0.012400
541.000000	0.012411
540.000000	0.012688
539.000000	0.013053
538.000000	0.013239
537.000000	0.013194
536.000000	0.013085
535.000000	0.013048
534.000000	0.013093
533.000000	0.013212
532.000000	0.013419
531.000000	0.013686
530.000000	0.013954
529.000000	0.014209
528.000000	0.014440
527.000000	0.014571
526.000000	0.014542
525.000000	0.014434
524.000000	0.014351
523.000000	0.014248
522.000000	0.014028
521.000000	0.013731
520.000000	0.013488
519.000000	0.013335
518.000000	0.013204
517.000000	0.013062
516.000000	0.012910
515.000000	0.012671
514.000000	0.012271
513.000000	0.011798
512.000000	0.011436
511.000000	0.011259
510.000000	0.011203
509.000000	0.011209
508.000000	0.011268
507.000000	0.011304
506.000000	0.011203
505.000000	0.010982
504.000000	0.010765
503.000000	0.010596
502.000000	0.010404
501.000000	0.010153
500.000000	0.009912
499.000000	0.009739
498.000000	0.009642
497.000000	0.009636
496.000000	0.009718
495.000000	0.009809
494.000000	0.009809
493.000000	0.009726
492.000000	0.009639
491.000000	0.009552
490.000000	0.009407
489.000000	0.009226
488.000000	0.009081
487.000000	0.008936
486.000000	0.008686
485.000000	0.008381
484.000000	0.008230
483.000000	0.008323
482.000000	0.008481
481.000000	0.008489
480.000000	0.008338
479.000000	0.008185
478.000000	0.008168
477.000000	0.008311
476.000000	0.008537
475.000000	0.008719
474.000000	0.008767
473.000000	0.008704
472.000000	0.008624
471.000000	0.008565
470.000000	0.008512
469.000000	0.008482
468.000000	0.008490
467.000000	0.008489
466.000000	0.008412
465.000000	0.008232
464.000000	0.007917
463.000000	0.007436
462.000000	0.006896
461.000000	0.006541
460.000000	0.006465
459.000000	0.006456
458.000000	0.006221
457.000000	0.005769
456.000000	0.005342
455.000000	0.005022
454.000000	0.004732
453.000000	0.004447
452.000000	0.004177
451.000000	0.003825
450.000000	0.003327
