PE UV       SUBTECH     SPECTRUM    ASCII       PEDS        4.00        
   -1
TTAgneauUK 322.Sample.asc
18/03/08
13:56:19.00
18/03/08
13:56:19.00
Administrator

200.000000
1
Lambda 750
750N8071901
PerkinElmer UV WinLab 6.0.4.0738 / 1.61.00 Lambda 900

0
0
3350/servo 860.8/2
0
0
UV/VIS
1
1
1
CommonBeamDepol,150mm sphere / downward view
0
0
0
0
Program
Program
3350/servo 860.8/2
3350/0.2 860.8/0.2
3350/0.2 860.8/0.2
0
1
 
 
 
0
 
860.8
319.2
860.8
Front
100
on
 
 
0
0
0
 
0
 
 
 
0
 
 
0
0
0
0
0
 
 
 
 
0
0


0
0
#HDR
-1
-1
#GR
nm
%T
1.0
0.0
2350.000000
-1.000000
2151
8
28.590723
0.043979
#DATA
2350.000000	6.661726
2349.000000	6.732311
2348.000000	6.125741
2347.000000	6.793755
2346.000000	6.614704
2345.000000	6.532651
2344.000000	6.512240
2343.000000	6.015493
2342.000000	6.454568
2341.000000	6.276279
2340.000000	6.560902
2339.000000	7.159141
2338.000000	6.923941
2337.000000	7.106110
2336.000000	7.235782
2335.000000	6.946228
2334.000000	7.311759
2333.000000	7.496990
2332.000000	7.528212
2331.000000	7.259849
2330.000000	7.278614
2329.000000	7.263570
2328.000000	7.158095
2327.000000	7.067051
2326.000000	7.063362
2325.000000	6.851946
2324.000000	7.019107
2323.000000	7.091970
2322.000000	7.128870
2321.000000	6.949034
2320.000000	7.031839
2319.000000	6.984214
2318.000000	6.974343
2317.000000	7.171164
2316.000000	6.970930
2315.000000	6.602113
2314.000000	6.835215
2313.000000	7.043661
2312.000000	6.894576
2311.000000	6.733944
2310.000000	6.421798
2309.000000	6.772294
2308.000000	6.849779
2307.000000	6.585692
2306.000000	6.660469
2305.000000	6.615699
2304.000000	6.364599
2303.000000	6.396321
2302.000000	6.510952
2301.000000	6.484860
2300.000000	6.326950
2299.000000	6.180399
2298.000000	6.068390
2297.000000	6.060108
2296.000000	6.054092
2295.000000	6.109145
2294.000000	6.274400
2293.000000	6.213180
2292.000000	6.018896
2291.000000	5.908617
2290.000000	6.102353
2289.000000	6.084281
2288.000000	6.058006
2287.000000	6.068899
2286.000000	6.025165
2285.000000	5.931302
2284.000000	5.864110
2283.000000	5.832182
2282.000000	5.826664
2281.000000	5.791340
2280.000000	5.781997
2279.000000	5.756207
2278.000000	5.776455
2277.000000	5.852387
2276.000000	5.852887
2275.000000	5.931189
2274.000000	5.989202
2273.000000	5.999716
2272.000000	5.890787
2271.000000	6.027520
2270.000000	6.090314
2269.000000	6.073610
2268.000000	6.109202
2267.000000	6.014574
2266.000000	5.985627
2265.000000	6.161138
2264.000000	6.249563
2263.000000	6.232175
2262.000000	6.458042
2261.000000	6.447773
2260.000000	6.352336
2259.000000	6.449547
2258.000000	6.567079
2257.000000	6.751360
2256.000000	6.824829
2255.000000	6.840532
2254.000000	7.046187
2253.000000	7.123932
2252.000000	7.128243
2251.000000	7.268966
2250.000000	7.353313
2249.000000	7.390279
2248.000000	7.531400
2247.000000	7.655864
2246.000000	7.653911
2245.000000	7.770770
2244.000000	7.932251
2243.000000	8.025998
2242.000000	8.165922
2241.000000	8.247043
2240.000000	8.271938
2239.000000	8.431071
2238.000000	8.479873
2237.000000	8.465550
2236.000000	8.445725
2235.000000	8.539291
2234.000000	8.669867
2233.000000	8.673065
2232.000000	8.727140
2231.000000	8.745122
2230.000000	8.671722
2229.000000	8.801466
2228.000000	8.926789
2227.000000	8.894644
2226.000000	8.770256
2225.000000	8.662993
2224.000000	8.662328
2223.000000	8.665330
2222.000000	8.717449
2221.000000	8.680315
2220.000000	8.651954
2219.000000	8.662117
2218.000000	8.635133
2217.000000	8.594353
2216.000000	8.716265
2215.000000	8.730674
2214.000000	8.715516
2213.000000	8.693058
2212.000000	8.625487
2211.000000	8.427632
2210.000000	8.462611
2209.000000	8.510069
2208.000000	8.403377
2207.000000	8.439484
2206.000000	8.384498
2205.000000	8.227367
2204.000000	8.308579
2203.000000	8.185779
2202.000000	8.111212
2201.000000	8.242671
2200.000000	8.106983
2199.000000	8.023179
2198.000000	7.979227
2197.000000	8.010971
2196.000000	7.947479
2195.000000	7.809916
2194.000000	7.797300
2193.000000	7.767347
2192.000000	7.860668
2191.000000	7.563230
2190.000000	7.589077
2189.000000	7.659149
2188.000000	7.574218
2187.000000	7.443775
2186.000000	7.581139
2185.000000	7.427516
2184.000000	7.424194
2183.000000	7.517082
2182.000000	7.523629
2181.000000	7.436522
2180.000000	7.477985
2179.000000	7.351207
2178.000000	7.401130
2177.000000	7.556202
2176.000000	7.313799
2175.000000	7.442918
2174.000000	7.501022
2173.000000	7.281003
2172.000000	7.374963
2171.000000	7.526610
2170.000000	7.494080
2169.000000	7.615972
2168.000000	7.717032
2167.000000	7.656914
2166.000000	7.699570
2165.000000	7.660733
2164.000000	7.722916
2163.000000	7.677758
2162.000000	7.661791
2161.000000	7.735026
2160.000000	7.809539
2159.000000	7.996851
2158.000000	8.149362
2157.000000	8.116545
2156.000000	8.105007
2155.000000	8.224537
2154.000000	8.348160
2153.000000	8.305764
2152.000000	8.492845
2151.000000	8.430037
2150.000000	8.365877
2149.000000	8.524020
2148.000000	8.556650
2147.000000	8.534201
2146.000000	8.669348
2145.000000	8.800469
2144.000000	8.972834
2143.000000	9.016543
2142.000000	9.134993
2141.000000	9.241791
2140.000000	9.178216
2139.000000	9.187014
2138.000000	9.359248
2137.000000	9.342033
2136.000000	9.458709
2135.000000	9.472976
2134.000000	9.742920
2133.000000	9.529105
2132.000000	9.605483
2131.000000	9.637866
2130.000000	9.773575
2129.000000	9.653349
2128.000000	9.768512
2127.000000	9.692865
2126.000000	9.704811
2125.000000	9.750257
2124.000000	9.816122
2123.000000	9.720105
2122.000000	9.851541
2121.000000	9.811514
2120.000000	9.937012
2119.000000	9.965648
2118.000000	10.033303
2117.000000	9.998496
2116.000000	10.074061
2115.000000	10.094293
2114.000000	10.073582
2113.000000	10.026942
2112.000000	10.123099
2111.000000	10.113917
2110.000000	10.075869
2109.000000	10.015282
2108.000000	9.959921
2107.000000	10.010777
2106.000000	10.109916
2105.000000	10.075315
2104.000000	10.179563
2103.000000	10.079660
2102.000000	10.148854
2101.000000	10.196489
2100.000000	10.286333
2099.000000	10.219501
2098.000000	10.131097
2097.000000	10.213978
2096.000000	10.162018
2095.000000	10.162327
2094.000000	10.150848
2093.000000	10.162940
2092.000000	10.189509
2091.000000	10.139927
2090.000000	10.084910
2089.000000	10.165634
2088.000000	10.132179
2087.000000	10.127760
2086.000000	10.112178
2085.000000	10.065276
2084.000000	10.013471
2083.000000	9.955190
2082.000000	9.923414
2081.000000	9.852928
2080.000000	9.836268
2079.000000	9.857098
2078.000000	9.786901
2077.000000	9.804614
2076.000000	9.698489
2075.000000	9.631600
2074.000000	9.565582
2073.000000	9.554307
2072.000000	9.490592
2071.000000	9.426197
2070.000000	9.393578
2069.000000	9.311922
2068.000000	9.250901
2067.000000	9.119897
2066.000000	8.928944
2065.000000	8.807874
2064.000000	8.800486
2063.000000	8.779904
2062.000000	8.714400
2061.000000	8.639229
2060.000000	8.550021
2059.000000	8.435199
2058.000000	8.415561
2057.000000	8.322716
2056.000000	8.219006
2055.000000	8.183441
2054.000000	8.079039
2053.000000	7.980014
2052.000000	7.868194
2051.000000	7.825094
2050.000000	7.797807
2049.000000	7.723368
2048.000000	7.711878
2047.000000	7.704081
2046.000000	7.646114
2045.000000	7.626410
2044.000000	7.623712
2043.000000	7.668333
2042.000000	7.633431
2041.000000	7.618502
2040.000000	7.649538
2039.000000	7.655758
2038.000000	7.633483
2037.000000	7.637148
2036.000000	7.719223
2035.000000	7.779530
2034.000000	7.788600
2033.000000	7.841226
2032.000000	7.928106
2031.000000	7.974083
2030.000000	8.014959
2029.000000	8.066477
2028.000000	8.130113
2027.000000	8.203917
2026.000000	8.284408
2025.000000	8.333367
2024.000000	8.347745
2023.000000	8.433123
2022.000000	8.502304
2021.000000	8.499896
2020.000000	8.496861
2019.000000	8.512247
2018.000000	8.520778
2017.000000	8.534029
2016.000000	8.582956
2015.000000	8.602508
2014.000000	8.598578
2013.000000	8.578863
2012.000000	8.567287
2011.000000	8.605024
2010.000000	8.565685
2009.000000	8.497021
2008.000000	8.477539
2007.000000	8.423915
2006.000000	8.394659
2005.000000	8.379982
2004.000000	8.296229
2003.000000	8.259774
2002.000000	8.253571
2001.000000	8.188897
2000.000000	8.133586
1999.000000	8.082405
1998.000000	8.002267
1997.000000	7.955317
1996.000000	7.944926
1995.000000	7.903230
1994.000000	7.836207
1993.000000	7.808298
1992.000000	7.738540
1991.000000	7.698084
1990.000000	7.637759
1989.000000	7.559347
1988.000000	7.554086
1987.000000	7.500221
1986.000000	7.430037
1985.000000	7.354079
1984.000000	7.346799
1983.000000	7.326782
1982.000000	7.284241
1981.000000	7.206476
1980.000000	7.128066
1979.000000	7.069659
1978.000000	7.045357
1977.000000	7.014591
1976.000000	6.947951
1975.000000	6.883463
1974.000000	6.847289
1973.000000	6.780595
1972.000000	6.723413
1971.000000	6.716677
1970.000000	6.637752
1969.000000	6.600493
1968.000000	6.609920
1967.000000	6.556340
1966.000000	6.565438
1965.000000	6.515790
1964.000000	6.420655
1963.000000	6.352842
1962.000000	6.274515
1961.000000	6.261568
1960.000000	6.229268
1959.000000	6.188134
1958.000000	6.179307
1957.000000	6.104981
1956.000000	6.113452
1955.000000	6.069087
1954.000000	6.055590
1953.000000	6.048281
1952.000000	6.003929
1951.000000	6.003008
1950.000000	5.989194
1949.000000	5.902847
1948.000000	5.927457
1947.000000	5.895832
1946.000000	5.887987
1945.000000	5.912719
1944.000000	5.870908
1943.000000	5.933630
1942.000000	5.903865
1941.000000	5.969837
1940.000000	6.000778
1939.000000	6.042554
1938.000000	6.008798
1937.000000	6.052645
1936.000000	6.133976
1935.000000	6.186000
1934.000000	6.215045
1933.000000	6.286915
1932.000000	6.321920
1931.000000	6.441634
1930.000000	6.461556
1929.000000	6.515194
1928.000000	6.581934
1927.000000	6.728733
1926.000000	6.741872
1925.000000	6.878286
1924.000000	7.041372
1923.000000	7.102191
1922.000000	7.290938
1921.000000	7.400886
1920.000000	7.548132
1919.000000	7.690054
1918.000000	7.898046
1917.000000	8.037325
1916.000000	8.078551
1915.000000	8.270480
1914.000000	8.581648
1913.000000	8.775206
1912.000000	8.943201
1911.000000	9.077370
1910.000000	9.330971
1909.000000	9.546990
1908.000000	9.850981
1907.000000	10.062453
1906.000000	10.315161
1905.000000	10.616332
1904.000000	10.844791
1903.000000	11.234735
1902.000000	11.431626
1901.000000	11.729891
1900.000000	12.101674
1899.000000	12.384648
1898.000000	12.690933
1897.000000	12.965764
1896.000000	13.325925
1895.000000	13.583619
1894.000000	13.895151
1893.000000	14.245875
1892.000000	14.561321
1891.000000	14.873122
1890.000000	15.155130
1889.000000	15.433416
1888.000000	15.717482
1887.000000	15.954410
1886.000000	16.306251
1885.000000	16.619473
1884.000000	16.876928
1883.000000	17.150415
1882.000000	17.375150
1881.000000	17.633063
1880.000000	17.850028
1879.000000	18.050043
1878.000000	18.301556
1877.000000	18.498272
1876.000000	18.687304
1875.000000	18.879452
1874.000000	18.988834
1873.000000	19.183693
1872.000000	19.314392
1871.000000	19.436634
1870.000000	19.579639
1869.000000	19.704620
1868.000000	19.833462
1867.000000	19.892250
1866.000000	19.957307
1865.000000	20.018160
1864.000000	20.036420
1863.000000	20.098308
1862.000000	20.165431
1861.000000	20.213751
1860.000000	20.265990
1859.000000	20.303495
1858.000000	20.313420
1857.000000	20.387505
1856.000000	20.432516
1855.000000	20.411800
1854.000000	20.448298
1853.000000	20.487020
1852.000000	20.487257
1851.000000	20.496034
1850.000000	20.467835
1849.000000	20.475802
1848.000000	20.480472
1847.000000	20.507507
1846.000000	20.537882
1845.000000	20.539618
1844.000000	20.504975
1843.000000	20.493354
1842.000000	20.485931
1841.000000	20.472820
1840.000000	20.412033
1839.000000	20.384198
1838.000000	20.364428
1837.000000	20.299822
1836.000000	20.255314
1835.000000	20.226297
1834.000000	20.191400
1833.000000	20.171054
1832.000000	20.145081
1831.000000	20.098830
1830.000000	20.063815
1829.000000	20.021085
1828.000000	19.960290
1827.000000	19.940610
1826.000000	19.938097
1825.000000	19.912894
1824.000000	19.905899
1823.000000	19.877762
1822.000000	19.851938
1821.000000	19.817130
1820.000000	19.769924
1819.000000	19.756376
1818.000000	19.722861
1817.000000	19.674831
1816.000000	19.651307
1815.000000	19.639186
1814.000000	19.618909
1813.000000	19.591195
1812.000000	19.566863
1811.000000	19.539463
1810.000000	19.515923
1809.000000	19.495562
1808.000000	19.488288
1807.000000	19.460808
1806.000000	19.437282
1805.000000	19.420176
1804.000000	19.400440
1803.000000	19.377486
1802.000000	19.340893
1801.000000	19.323072
1800.000000	19.309348
1799.000000	19.303689
1798.000000	19.288194
1797.000000	19.265596
1796.000000	19.243703
1795.000000	19.229506
1794.000000	19.226963
1793.000000	19.222941
1792.000000	19.203949
1791.000000	19.209796
1790.000000	19.179543
1789.000000	19.145690
1788.000000	19.142209
1787.000000	19.124022
1786.000000	19.129453
1785.000000	19.117951
1784.000000	19.079252
1783.000000	19.047948
1782.000000	19.035030
1781.000000	19.024219
1780.000000	18.997850
1779.000000	18.973303
1778.000000	18.945222
1777.000000	18.888893
1776.000000	18.856130
1775.000000	18.820840
1774.000000	18.791758
1773.000000	18.762065
1772.000000	18.721285
1771.000000	18.667606
1770.000000	18.628578
1769.000000	18.558225
1768.000000	18.510147
1767.000000	18.483022
1766.000000	18.471294
1765.000000	18.436572
1764.000000	18.387176
1763.000000	18.336388
1762.000000	18.291832
1761.000000	18.273474
1760.000000	18.223295
1759.000000	18.173441
1758.000000	18.148184
1757.000000	18.120995
1756.000000	18.057879
1755.000000	18.007413
1754.000000	17.984940
1753.000000	17.967678
1752.000000	17.925525
1751.000000	17.883581
1750.000000	17.853652
1749.000000	17.837229
1748.000000	17.772996
1747.000000	17.718871
1746.000000	17.698495
1745.000000	17.645796
1744.000000	17.592339
1743.000000	17.553399
1742.000000	17.505602
1741.000000	17.458546
1740.000000	17.418670
1739.000000	17.418057
1738.000000	17.379272
1737.000000	17.364925
1736.000000	17.378675
1735.000000	17.339057
1734.000000	17.332038
1733.000000	17.310612
1732.000000	17.308891
1731.000000	17.302935
1730.000000	17.331296
1729.000000	17.347274
1728.000000	17.369544
1727.000000	17.403749
1726.000000	17.456700
1725.000000	17.436646
1724.000000	17.537303
1723.000000	17.585643
1722.000000	17.661950
1721.000000	17.709775
1720.000000	17.761950
1719.000000	17.837890
1718.000000	17.896037
1717.000000	17.968056
1716.000000	18.030893
1715.000000	18.081677
1714.000000	18.142346
1713.000000	18.188483
1712.000000	18.247224
1711.000000	18.318338
1710.000000	18.350454
1709.000000	18.347917
1708.000000	18.379494
1707.000000	18.454811
1706.000000	18.443887
1705.000000	18.461538
1704.000000	18.490707
1703.000000	18.511880
1702.000000	18.515901
1701.000000	18.518541
1700.000000	18.553551
1699.000000	18.539637
1698.000000	18.566710
1697.000000	18.594958
1696.000000	18.634717
1695.000000	18.640585
1694.000000	18.640046
1693.000000	18.672575
1692.000000	18.715176
1691.000000	18.754593
1690.000000	18.829459
1689.000000	18.856292
1688.000000	18.936826
1687.000000	19.028670
1686.000000	19.099953
1685.000000	19.196211
1684.000000	19.289552
1683.000000	19.416388
1682.000000	19.516676
1681.000000	19.627593
1680.000000	19.726408
1679.000000	19.862307
1678.000000	19.968747
1677.000000	20.064292
1676.000000	20.225737
1675.000000	20.330265
1674.000000	20.477907
1673.000000	20.567764
1672.000000	20.682282
1671.000000	20.819883
1670.000000	20.915311
1669.000000	21.038828
1668.000000	21.127180
1667.000000	21.205172
1666.000000	21.265129
1665.000000	21.345005
1664.000000	21.411665
1663.000000	21.465911
1662.000000	21.521653
1661.000000	21.582642
1660.000000	21.647561
1659.000000	21.694798
1658.000000	21.723195
1657.000000	21.770658
1656.000000	21.789080
1655.000000	21.810901
1654.000000	21.824569
1653.000000	21.836311
1652.000000	21.847059
1651.000000	21.853785
1650.000000	21.844643
1649.000000	21.841634
1648.000000	21.824446
1647.000000	21.817871
1646.000000	21.807529
1645.000000	21.808423
1644.000000	21.785877
1643.000000	21.753756
1642.000000	21.730889
1641.000000	21.717605
1640.000000	21.706583
1639.000000	21.680961
1638.000000	21.675489
1637.000000	21.647306
1636.000000	21.613468
1635.000000	21.579953
1634.000000	21.558425
1633.000000	21.527794
1632.000000	21.491566
1631.000000	21.457513
1630.000000	21.432904
1629.000000	21.401851
1628.000000	21.365065
1627.000000	21.315935
1626.000000	21.287801
1625.000000	21.261057
1624.000000	21.225416
1623.000000	21.194674
1622.000000	21.169397
1621.000000	21.136472
1620.000000	21.108272
1619.000000	21.062370
1618.000000	21.018444
1617.000000	20.982332
1616.000000	20.928945
1615.000000	20.881827
1614.000000	20.851671
1613.000000	20.823144
1612.000000	20.769459
1611.000000	20.733836
1610.000000	20.693814
1609.000000	20.641870
1608.000000	20.596703
1607.000000	20.551005
1606.000000	20.506686
1605.000000	20.455707
1604.000000	20.407533
1603.000000	20.366301
1602.000000	20.337693
1601.000000	20.285919
1600.000000	20.244252
1599.000000	20.207176
1598.000000	20.157223
1597.000000	20.111871
1596.000000	20.076075
1595.000000	20.029195
1594.000000	19.985861
1593.000000	19.956204
1592.000000	19.929944
1591.000000	19.891898
1590.000000	19.843002
1589.000000	19.796556
1588.000000	19.762321
1587.000000	19.730922
1586.000000	19.693321
1585.000000	19.669162
1584.000000	19.646059
1583.000000	19.610905
1582.000000	19.569119
1581.000000	19.531373
1580.000000	19.495500
1579.000000	19.455136
1578.000000	19.430322
1577.000000	19.403496
1576.000000	19.365651
1575.000000	19.331571
1574.000000	19.286240
1573.000000	19.249527
1572.000000	19.231129
1571.000000	19.191730
1570.000000	19.164475
1569.000000	19.127826
1568.000000	19.090851
1567.000000	19.064067
1566.000000	19.035955
1565.000000	19.015609
1564.000000	18.991687
1563.000000	18.973342
1562.000000	18.950125
1561.000000	18.943119
1560.000000	18.913855
1559.000000	18.888143
1558.000000	18.867532
1557.000000	18.854969
1556.000000	18.827488
1555.000000	18.817428
1554.000000	18.792836
1553.000000	18.778152
1552.000000	18.742562
1551.000000	18.716332
1550.000000	18.693614
1549.000000	18.653607
1548.000000	18.621612
1547.000000	18.587002
1546.000000	18.535205
1545.000000	18.503263
1544.000000	18.454468
1543.000000	18.401940
1542.000000	18.337782
1541.000000	18.284283
1540.000000	18.221547
1539.000000	18.158719
1538.000000	18.096797
1537.000000	18.032462
1536.000000	17.974723
1535.000000	17.945951
1534.000000	17.916289
1533.000000	17.912259
1532.000000	17.865712
1531.000000	17.771760
1530.000000	17.691659
1529.000000	17.633820
1528.000000	17.598239
1527.000000	17.535719
1526.000000	17.491820
1525.000000	17.449550
1524.000000	17.387926
1523.000000	17.325100
1522.000000	17.299782
1521.000000	17.275488
1520.000000	17.229884
1519.000000	17.213305
1518.000000	17.188290
1517.000000	17.142912
1516.000000	17.092564
1515.000000	17.076559
1514.000000	17.055923
1513.000000	17.051356
1512.000000	17.013300
1511.000000	16.976189
1510.000000	16.946717
1509.000000	16.950432
1508.000000	16.927168
1507.000000	16.931227
1506.000000	16.918332
1505.000000	16.885328
1504.000000	16.870811
1503.000000	16.842425
1502.000000	16.818033
1501.000000	16.817268
1500.000000	16.813633
1499.000000	16.805616
1498.000000	16.814702
1497.000000	16.811486
1496.000000	16.831192
1495.000000	16.836330
1494.000000	16.829467
1493.000000	16.849545
1492.000000	16.869093
1491.000000	16.895588
1490.000000	16.906604
1489.000000	16.946853
1488.000000	16.974215
1487.000000	16.994028
1486.000000	17.006431
1485.000000	17.050273
1484.000000	17.088316
1483.000000	17.122293
1482.000000	17.146390
1481.000000	17.190990
1480.000000	17.240889
1479.000000	17.278425
1478.000000	17.295031
1477.000000	17.345985
1476.000000	17.366742
1475.000000	17.414190
1474.000000	17.437619
1473.000000	17.473352
1472.000000	17.514501
1471.000000	17.541600
1470.000000	17.579487
1469.000000	17.599831
1468.000000	17.619807
1467.000000	17.684660
1466.000000	17.719377
1465.000000	17.738456
1464.000000	17.758959
1463.000000	17.788131
1462.000000	17.840136
1461.000000	17.907435
1460.000000	17.905206
1459.000000	17.933686
1458.000000	17.958326
1457.000000	18.011307
1456.000000	18.064799
1455.000000	18.076373
1454.000000	18.117495
1453.000000	18.163366
1452.000000	18.221206
1451.000000	18.273024
1450.000000	18.301913
1449.000000	18.346183
1448.000000	18.390838
1447.000000	18.440799
1446.000000	18.487116
1445.000000	18.584097
1444.000000	18.626632
1443.000000	18.680873
1442.000000	18.734068
1441.000000	18.802933
1440.000000	18.866213
1439.000000	18.916329
1438.000000	18.980185
1437.000000	19.077637
1436.000000	19.152464
1435.000000	19.225823
1434.000000	19.282361
1433.000000	19.353218
1432.000000	19.443385
1431.000000	19.538707
1430.000000	19.613118
1429.000000	19.704394
1428.000000	19.801630
1427.000000	19.901513
1426.000000	20.006979
1425.000000	20.108652
1424.000000	20.198955
1423.000000	20.292987
1422.000000	20.412022
1421.000000	20.545245
1420.000000	20.679705
1419.000000	20.791887
1418.000000	20.896808
1417.000000	21.037743
1416.000000	21.180609
1415.000000	21.323335
1414.000000	21.445134
1413.000000	21.579675
1412.000000	21.716205
1411.000000	21.836756
1410.000000	21.977862
1409.000000	22.135010
1408.000000	22.278707
1407.000000	22.404843
1406.000000	22.524656
1405.000000	22.666718
1404.000000	22.821995
1403.000000	22.973617
1402.000000	23.103454
1401.000000	23.231564
1400.000000	23.347580
1399.000000	23.464727
1398.000000	23.563453
1397.000000	23.673783
1396.000000	23.793563
1395.000000	23.907625
1394.000000	24.020758
1393.000000	24.137764
1392.000000	24.247384
1391.000000	24.350779
1390.000000	24.458757
1389.000000	24.570458
1388.000000	24.678381
1387.000000	24.761864
1386.000000	24.824760
1385.000000	24.890850
1384.000000	24.977407
1383.000000	25.078691
1382.000000	25.154707
1381.000000	25.192753
1380.000000	25.231400
1379.000000	25.306413
1378.000000	25.389938
1377.000000	25.432104
1376.000000	25.451982
1375.000000	25.487724
1374.000000	25.518592
1373.000000	25.544567
1372.000000	25.588452
1371.000000	25.647280
1370.000000	25.691472
1369.000000	25.713867
1368.000000	25.738574
1367.000000	25.773930
1366.000000	25.813793
1365.000000	25.841355
1364.000000	25.869902
1363.000000	25.901456
1362.000000	25.929104
1361.000000	25.956712
1360.000000	25.981185
1359.000000	26.030357
1358.000000	26.095498
1357.000000	26.153813
1356.000000	26.163447
1355.000000	26.168308
1354.000000	26.205898
1353.000000	26.260349
1352.000000	26.303641
1351.000000	26.342515
1350.000000	26.378221
1349.000000	26.394964
1348.000000	26.416380
1347.000000	26.453018
1346.000000	26.509588
1345.000000	26.565463
1344.000000	26.580106
1343.000000	26.593100
1342.000000	26.626559
1341.000000	26.683551
1340.000000	26.723745
1339.000000	26.743587
1338.000000	26.756935
1337.000000	26.780166
1336.000000	26.836790
1335.000000	26.873480
1334.000000	26.898257
1333.000000	26.904859
1332.000000	26.914259
1331.000000	26.932768
1330.000000	26.980539
1329.000000	27.013688
1328.000000	27.029438
1327.000000	27.022995
1326.000000	27.049012
1325.000000	27.064160
1324.000000	27.076387
1323.000000	27.093672
1322.000000	27.101789
1321.000000	27.100071
1320.000000	27.119427
1319.000000	27.139300
1318.000000	27.163007
1317.000000	27.161057
1316.000000	27.162486
1315.000000	27.184376
1314.000000	27.207108
1313.000000	27.201661
1312.000000	27.202072
1311.000000	27.225728
1310.000000	27.251298
1309.000000	27.247906
1308.000000	27.250606
1307.000000	27.272884
1306.000000	27.269356
1305.000000	27.277996
1304.000000	27.274974
1303.000000	27.275002
1302.000000	27.284000
1301.000000	27.319018
1300.000000	27.310750
1299.000000	27.311767
1298.000000	27.304363
1297.000000	27.307891
1296.000000	27.301540
1295.000000	27.315616
1294.000000	27.290422
1293.000000	27.299048
1292.000000	27.296833
1291.000000	27.295378
1290.000000	27.297344
1289.000000	27.279339
1288.000000	27.227026
1287.000000	27.236097
1286.000000	27.245005
1285.000000	27.250622
1284.000000	27.232454
1283.000000	27.241255
1282.000000	27.248619
1281.000000	27.256969
1280.000000	27.250675
1279.000000	27.252257
1278.000000	27.240961
1277.000000	27.220112
1276.000000	27.196740
1275.000000	27.188448
1274.000000	27.203383
1273.000000	27.207766
1272.000000	27.193241
1271.000000	27.213256
1270.000000	27.226910
1269.000000	27.257586
1268.000000	27.251758
1267.000000	27.249336
1266.000000	27.279314
1265.000000	27.229026
1264.000000	27.244442
1263.000000	27.259948
1262.000000	27.302153
1261.000000	27.282881
1260.000000	27.273288
1259.000000	27.279542
1258.000000	27.273996
1257.000000	27.268517
1256.000000	27.302291
1255.000000	27.337656
1254.000000	27.311807
1253.000000	27.314215
1252.000000	27.314500
1251.000000	27.321910
1250.000000	27.305959
1249.000000	27.300858
1248.000000	27.295902
1247.000000	27.300936
1246.000000	27.305196
1245.000000	27.304433
1244.000000	27.303304
1243.000000	27.286565
1242.000000	27.238927
1241.000000	27.221709
1240.000000	27.221006
1239.000000	27.207279
1238.000000	27.163371
1237.000000	27.145605
1236.000000	27.154375
1235.000000	27.141934
1234.000000	27.099761
1233.000000	27.090377
1232.000000	27.105050
1231.000000	27.101428
1230.000000	27.091421
1229.000000	27.038293
1228.000000	27.019537
1227.000000	27.007150
1226.000000	27.019081
1225.000000	27.020148
1224.000000	26.997064
1223.000000	26.993272
1222.000000	26.971988
1221.000000	26.952187
1220.000000	26.940672
1219.000000	26.909568
1218.000000	26.892081
1217.000000	26.875073
1216.000000	26.860193
1215.000000	26.835908
1214.000000	26.795410
1213.000000	26.791860
1212.000000	26.798634
1211.000000	26.775530
1210.000000	26.751154
1209.000000	26.740694
1208.000000	26.712179
1207.000000	26.677882
1206.000000	26.642338
1205.000000	26.632663
1204.000000	26.607568
1203.000000	26.591271
1202.000000	26.578714
1201.000000	26.558330
1200.000000	26.519192
1199.000000	26.484617
1198.000000	26.459528
1197.000000	26.465485
1196.000000	26.452419
1195.000000	26.427481
1194.000000	26.405947
1193.000000	26.382747
1192.000000	26.352708
1191.000000	26.338767
1190.000000	26.315333
1189.000000	26.264167
1188.000000	26.266736
1187.000000	26.281826
1186.000000	26.271456
1185.000000	26.257731
1184.000000	26.266107
1183.000000	26.273787
1182.000000	26.285611
1181.000000	26.297785
1180.000000	26.328724
1179.000000	26.359817
1178.000000	26.385074
1177.000000	26.397045
1176.000000	26.425682
1175.000000	26.461025
1174.000000	26.492494
1173.000000	26.529597
1172.000000	26.571281
1171.000000	26.612445
1170.000000	26.652886
1169.000000	26.691659
1168.000000	26.738481
1167.000000	26.791081
1166.000000	26.830000
1165.000000	26.880342
1164.000000	26.937036
1163.000000	26.976585
1162.000000	27.016165
1161.000000	27.066564
1160.000000	27.118334
1159.000000	27.143343
1158.000000	27.170570
1157.000000	27.222529
1156.000000	27.267909
1155.000000	27.305246
1154.000000	27.347943
1153.000000	27.393061
1152.000000	27.440712
1151.000000	27.477622
1150.000000	27.507725
1149.000000	27.543108
1148.000000	27.569685
1147.000000	27.593951
1146.000000	27.625643
1145.000000	27.666951
1144.000000	27.707237
1143.000000	27.729503
1142.000000	27.750245
1141.000000	27.754558
1140.000000	27.763870
1139.000000	27.784627
1138.000000	27.810056
1137.000000	27.849394
1136.000000	27.886279
1135.000000	27.915271
1134.000000	27.945183
1133.000000	27.968576
1132.000000	27.986135
1131.000000	27.998050
1130.000000	28.030170
1129.000000	28.044854
1128.000000	28.036691
1127.000000	28.055143
1126.000000	28.062414
1125.000000	28.069836
1124.000000	28.093369
1123.000000	28.104384
1122.000000	28.109649
1121.000000	28.122098
1120.000000	28.129592
1119.000000	28.134122
1118.000000	28.143792
1117.000000	28.148880
1116.000000	28.151571
1115.000000	28.148861
1114.000000	28.154444
1113.000000	28.164317
1112.000000	28.161404
1111.000000	28.147469
1110.000000	28.156141
1109.000000	28.159125
1108.000000	28.167016
1107.000000	28.172177
1106.000000	28.173814
1105.000000	28.184881
1104.000000	28.182141
1103.000000	28.181409
1102.000000	28.146823
1101.000000	28.132874
1100.000000	28.139554
1099.000000	28.145449
1098.000000	28.162953
1097.000000	28.162188
1096.000000	28.168744
1095.000000	28.169800
1094.000000	28.183677
1093.000000	28.146941
1092.000000	28.132993
1091.000000	28.141555
1090.000000	28.151003
1089.000000	28.155775
1088.000000	28.169770
1087.000000	28.162223
1086.000000	28.142639
1085.000000	28.136571
1084.000000	28.136778
1083.000000	28.135335
1082.000000	28.149714
1081.000000	28.148251
1080.000000	28.099439
1079.000000	28.100065
1078.000000	28.125106
1077.000000	28.117326
1076.000000	28.115569
1075.000000	28.146101
1074.000000	28.129689
1073.000000	28.127129
1072.000000	28.087108
1071.000000	28.072687
1070.000000	28.070360
1069.000000	28.086688
1068.000000	28.088796
1067.000000	28.085951
1066.000000	28.105976
1065.000000	28.052682
1064.000000	28.043630
1063.000000	28.055897
1062.000000	28.055013
1061.000000	28.058473
1060.000000	28.058671
1059.000000	28.061259
1058.000000	28.009737
1057.000000	28.009319
1056.000000	28.019677
1055.000000	28.013021
1054.000000	28.027117
1053.000000	28.039893
1052.000000	27.989884
1051.000000	27.970542
1050.000000	27.993625
1049.000000	28.002767
1048.000000	27.936918
1047.000000	27.963829
1046.000000	27.987716
1045.000000	27.976524
1044.000000	27.974127
1043.000000	27.983163
1042.000000	27.947118
1041.000000	27.937974
1040.000000	27.942289
1039.000000	27.968585
1038.000000	27.921745
1037.000000	27.931977
1036.000000	27.930007
1035.000000	27.955137
1034.000000	27.919029
1033.000000	27.914913
1032.000000	27.937206
1031.000000	27.958202
1030.000000	27.926029
1029.000000	27.920268
1028.000000	27.927738
1027.000000	27.932273
1026.000000	27.907286
1025.000000	27.908358
1024.000000	27.928768
1023.000000	27.931198
1022.000000	27.909545
1021.000000	27.915158
1020.000000	27.915810
1019.000000	27.898990
1018.000000	27.913027
1017.000000	27.931065
1016.000000	27.938921
1015.000000	27.918031
1014.000000	27.900676
1013.000000	27.913395
1012.000000	27.929647
1011.000000	27.960221
1010.000000	27.960693
1009.000000	27.936170
1008.000000	27.942540
1007.000000	27.955810
1006.000000	27.947873
1005.000000	27.960948
1004.000000	27.969513
1003.000000	27.959809
1002.000000	27.965702
1001.000000	27.976100
1000.000000	27.955406
999.000000	27.944082
998.000000	27.967465
997.000000	27.980645
996.000000	27.998154
995.000000	27.989676
994.000000	27.991207
993.000000	27.983056
992.000000	27.988820
991.000000	28.006159
990.000000	27.990833
989.000000	27.979631
988.000000	27.994599
987.000000	28.017325
986.000000	28.041937
985.000000	28.031355
984.000000	28.029006
983.000000	28.038659
982.000000	28.043297
981.000000	28.060027
980.000000	28.078110
979.000000	28.113592
978.000000	28.133418
977.000000	28.136894
976.000000	28.144105
975.000000	28.155050
974.000000	28.161597
973.000000	28.189251
972.000000	28.187703
971.000000	28.206272
970.000000	28.217803
969.000000	28.218600
968.000000	28.222064
967.000000	28.237846
966.000000	28.260502
965.000000	28.266951
964.000000	28.265973
963.000000	28.268865
962.000000	28.276590
961.000000	28.280643
960.000000	28.285955
959.000000	28.292417
958.000000	28.297894
957.000000	28.309070
956.000000	28.311647
955.000000	28.316007
954.000000	28.328174
953.000000	28.347703
952.000000	28.341955
951.000000	28.340317
950.000000	28.358314
949.000000	28.365492
948.000000	28.365747
947.000000	28.354899
946.000000	28.355142
945.000000	28.366605
944.000000	28.375227
943.000000	28.381259
942.000000	28.396557
941.000000	28.402067
940.000000	28.393657
939.000000	28.398339
938.000000	28.408209
937.000000	28.400959
936.000000	28.393880
935.000000	28.414302
934.000000	28.415741
933.000000	28.397559
932.000000	28.395635
931.000000	28.409684
930.000000	28.406863
929.000000	28.381132
928.000000	28.388289
927.000000	28.391277
926.000000	28.396412
925.000000	28.411177
924.000000	28.408357
923.000000	28.391071
922.000000	28.376451
921.000000	28.392290
920.000000	28.383953
919.000000	28.386555
918.000000	28.395763
917.000000	28.389933
916.000000	28.381452
915.000000	28.380662
914.000000	28.396946
913.000000	28.412193
912.000000	28.412139
911.000000	28.413920
910.000000	28.397134
909.000000	28.407609
908.000000	28.400362
907.000000	28.379853
906.000000	28.405351
905.000000	28.429543
904.000000	28.445295
903.000000	28.443956
902.000000	28.459002
901.000000	28.413109
900.000000	28.407863
899.000000	28.428159
898.000000	28.453110
897.000000	28.448941
896.000000	28.447218
895.000000	28.453467
894.000000	28.456527
893.000000	28.438937
892.000000	28.443190
891.000000	28.477708
890.000000	28.523232
889.000000	28.488996
888.000000	28.509888
887.000000	28.497047
886.000000	28.517519
885.000000	28.477455
884.000000	28.526652
883.000000	28.498318
882.000000	28.542532
881.000000	28.538075
880.000000	28.548983
879.000000	28.506176
878.000000	28.473046
877.000000	28.516117
876.000000	28.590723
875.000000	28.562764
874.000000	28.586889
873.000000	28.501424
872.000000	28.473574
871.000000	28.504156
870.000000	28.443895
869.000000	28.500108
868.000000	28.538647
867.000000	28.479681
866.000000	28.492026
865.000000	28.479852
864.000000	28.428564
863.000000	28.463231
862.000000	28.455115
861.000000	28.448198
860.000000	28.536573
859.000000	28.332259
858.000000	28.061322
857.000000	28.251694
856.000000	28.149663
855.000000	28.156351
854.000000	28.068607
853.000000	28.141938
852.000000	28.054215
851.000000	28.208367
850.000000	28.274395
849.000000	28.171997
848.000000	28.143052
847.000000	28.251423
846.000000	28.173223
845.000000	28.191253
844.000000	28.187901
843.000000	28.240899
842.000000	28.063577
841.000000	28.226071
840.000000	28.154613
839.000000	28.202599
838.000000	28.083725
837.000000	28.144436
836.000000	28.065459
835.000000	28.213419
834.000000	28.168571
833.000000	28.088774
832.000000	28.176312
831.000000	28.133843
830.000000	28.174092
829.000000	28.216381
828.000000	28.234141
827.000000	28.226737
826.000000	28.178881
825.000000	28.139816
824.000000	28.167773
823.000000	28.091996
822.000000	28.206801
821.000000	28.146626
820.000000	28.141983
819.000000	28.122220
818.000000	28.144662
817.000000	28.111663
816.000000	28.087454
815.000000	28.132351
814.000000	28.059727
813.000000	28.101093
812.000000	28.128345
811.000000	28.165988
810.000000	28.137810
809.000000	28.206565
808.000000	28.091480
807.000000	28.168230
806.000000	28.092747
805.000000	28.131684
804.000000	28.141750
803.000000	28.110012
802.000000	28.103107
801.000000	28.098850
800.000000	28.096880
799.000000	28.118363
798.000000	28.137207
797.000000	28.077932
796.000000	28.089091
795.000000	28.117717
794.000000	28.146939
793.000000	28.128832
792.000000	28.078071
791.000000	28.099767
790.000000	28.085027
789.000000	28.119717
788.000000	28.101258
787.000000	28.148735
786.000000	28.136711
785.000000	28.083914
784.000000	28.098208
783.000000	28.056408
782.000000	28.048949
781.000000	28.105445
780.000000	28.056822
779.000000	28.093773
778.000000	28.098214
777.000000	28.077067
776.000000	28.083665
775.000000	28.047344
774.000000	28.073975
773.000000	28.080584
772.000000	28.068074
771.000000	28.070204
770.000000	27.978049
769.000000	28.060390
768.000000	28.049128
767.000000	28.059262
766.000000	28.082761
765.000000	28.046289
764.000000	28.020557
763.000000	28.085562
762.000000	28.089179
761.000000	28.099997
760.000000	28.084908
759.000000	28.063878
758.000000	28.050777
757.000000	28.026521
756.000000	28.028564
755.000000	28.022476
754.000000	27.999378
753.000000	28.049152
752.000000	28.017623
751.000000	28.013231
750.000000	28.059469
749.000000	28.070199
748.000000	28.022296
747.000000	28.018936
746.000000	27.978569
745.000000	28.001685
744.000000	28.044167
743.000000	27.987197
742.000000	27.972427
741.000000	27.983057
740.000000	27.977813
739.000000	27.977543
738.000000	27.985623
737.000000	28.009394
736.000000	27.959134
735.000000	27.998829
734.000000	28.017185
733.000000	27.995872
732.000000	28.003437
731.000000	28.009850
730.000000	28.001963
729.000000	27.973126
728.000000	27.976446
727.000000	28.023496
726.000000	28.004302
725.000000	27.965792
724.000000	27.952888
723.000000	27.983247
722.000000	28.022284
721.000000	27.992337
720.000000	27.985586
719.000000	27.981099
718.000000	27.994882
717.000000	27.988892
716.000000	27.953698
715.000000	27.941069
714.000000	27.952632
713.000000	27.955567
712.000000	27.944766
711.000000	27.929628
710.000000	27.921157
709.000000	27.939321
708.000000	27.925097
707.000000	27.898120
706.000000	27.914793
705.000000	27.917081
704.000000	27.925266
703.000000	27.935206
702.000000	27.927201
701.000000	27.902296
700.000000	27.879513
699.000000	27.893385
698.000000	27.917583
697.000000	27.888743
696.000000	27.876278
695.000000	27.910415
694.000000	27.894996
693.000000	27.865117
692.000000	27.879276
691.000000	27.881047
690.000000	27.860643
689.000000	27.841831
688.000000	27.843095
687.000000	27.825844
686.000000	27.847858
685.000000	27.850632
684.000000	27.804232
683.000000	27.786454
682.000000	27.788764
681.000000	27.764567
680.000000	27.773624
679.000000	27.799363
678.000000	27.784514
677.000000	27.778513
676.000000	27.768564
675.000000	27.776061
674.000000	27.763216
673.000000	27.782644
672.000000	27.789927
671.000000	27.770543
670.000000	27.736993
669.000000	27.727966
668.000000	27.739726
667.000000	27.751172
666.000000	27.718553
665.000000	27.700669
664.000000	27.696570
663.000000	27.707834
662.000000	27.726883
661.000000	27.723551
660.000000	27.689822
659.000000	27.690252
658.000000	27.670847
657.000000	27.698512
656.000000	27.649140
655.000000	27.643614
654.000000	27.662394
653.000000	27.665014
652.000000	27.645804
651.000000	27.641830
650.000000	27.616146
649.000000	27.622724
648.000000	27.630501
647.000000	27.612861
646.000000	27.605494
645.000000	27.586857
644.000000	27.579152
643.000000	27.559522
642.000000	27.575222
641.000000	27.593053
640.000000	27.569083
639.000000	27.574073
638.000000	27.553420
637.000000	27.527132
636.000000	27.538955
635.000000	27.527336
634.000000	27.495798
633.000000	27.487458
632.000000	27.484237
631.000000	27.498020
630.000000	27.511544
629.000000	27.464439
628.000000	27.479282
627.000000	27.490639
626.000000	27.456892
625.000000	27.422992
624.000000	27.438944
623.000000	27.426236
622.000000	27.402159
621.000000	27.394717
620.000000	27.387235
619.000000	27.396722
618.000000	27.390960
617.000000	27.422370
616.000000	27.344738
615.000000	27.366067
614.000000	27.344656
613.000000	27.351953
612.000000	27.332038
611.000000	27.315976
610.000000	27.331538
609.000000	27.285842
608.000000	27.281355
607.000000	27.277380
606.000000	27.255059
605.000000	27.253095
604.000000	27.208525
603.000000	27.233015
602.000000	27.232378
601.000000	27.216396
600.000000	27.197641
599.000000	27.159835
598.000000	27.184011
597.000000	27.165244
596.000000	27.156080
595.000000	27.144352
594.000000	27.138088
593.000000	27.132210
592.000000	27.087346
591.000000	27.071081
590.000000	27.062194
589.000000	27.075248
588.000000	27.057620
587.000000	27.043052
586.000000	27.004847
585.000000	27.032324
584.000000	26.960264
583.000000	26.940199
582.000000	26.946292
581.000000	26.944801
580.000000	26.905777
579.000000	26.887764
578.000000	26.854229
577.000000	26.885614
576.000000	26.873165
575.000000	26.859732
574.000000	26.826634
573.000000	26.823571
572.000000	26.790694
571.000000	26.773937
570.000000	26.755089
569.000000	26.772701
568.000000	26.701655
567.000000	26.703676
566.000000	26.697077
565.000000	26.694686
564.000000	26.672015
563.000000	26.634671
562.000000	26.590431
561.000000	26.604423
560.000000	26.584931
559.000000	26.563136
558.000000	26.533608
557.000000	26.524842
556.000000	26.494725
555.000000	26.471298
554.000000	26.472665
553.000000	26.464746
552.000000	26.429172
551.000000	26.398515
550.000000	26.362132
549.000000	26.351210
548.000000	26.323680
547.000000	26.312421
546.000000	26.278634
545.000000	26.268934
544.000000	26.259699
543.000000	26.221357
542.000000	26.196251
541.000000	26.189345
540.000000	26.131751
539.000000	26.127801
538.000000	26.111947
537.000000	26.086270
536.000000	26.058236
535.000000	26.034375
534.000000	25.981674
533.000000	25.974638
532.000000	25.937750
531.000000	25.924818
530.000000	25.874739
529.000000	25.856903
528.000000	25.806467
527.000000	25.794642
526.000000	25.773800
525.000000	25.732686
524.000000	25.705320
523.000000	25.681354
522.000000	25.663546
521.000000	25.636506
520.000000	25.596874
519.000000	25.539034
518.000000	25.490912
517.000000	25.475228
516.000000	25.441793
515.000000	25.415303
514.000000	25.389182
513.000000	25.329720
512.000000	25.292717
511.000000	25.264662
510.000000	25.222760
509.000000	25.197334
508.000000	25.151677
507.000000	25.115577
506.000000	25.063546
505.000000	25.027792
504.000000	24.998176
503.000000	24.959504
502.000000	24.922410
501.000000	24.879227
500.000000	24.846884
499.000000	24.798948
498.000000	24.755634
497.000000	24.704859
496.000000	24.663351
495.000000	24.614156
494.000000	24.579924
493.000000	24.538853
492.000000	24.487618
491.000000	24.444056
490.000000	24.408524
489.000000	24.360504
488.000000	24.302340
487.000000	24.249949
486.000000	24.213743
485.000000	24.189090
484.000000	24.159273
483.000000	24.120261
482.000000	24.059766
481.000000	24.013921
480.000000	23.961084
479.000000	23.908134
478.000000	23.856727
477.000000	23.795602
476.000000	23.723562
475.000000	23.677858
474.000000	23.620321
473.000000	23.573167
472.000000	23.521344
471.000000	23.456891
470.000000	23.398773
469.000000	23.334479
468.000000	23.275058
467.000000	23.212766
466.000000	23.150903
465.000000	23.096170
464.000000	23.027741
463.000000	22.958366
462.000000	22.904937
461.000000	22.858628
460.000000	22.779946
459.000000	22.689424
458.000000	22.628947
457.000000	22.565779
456.000000	22.507839
455.000000	22.454638
454.000000	22.363171
453.000000	22.255846
452.000000	22.184782
451.000000	22.116842
450.000000	22.051326
449.000000	21.971858
448.000000	21.887722
447.000000	21.818776
446.000000	21.732022
445.000000	21.637905
444.000000	21.559569
443.000000	21.470722
442.000000	21.380627
441.000000	21.284819
440.000000	21.202525
439.000000	21.111931
438.000000	21.001106
437.000000	20.916029
436.000000	20.839176
435.000000	20.737456
434.000000	20.610661
433.000000	20.508244
432.000000	20.440602
431.000000	20.324723
430.000000	20.232400
429.000000	20.109938
428.000000	19.973729
427.000000	19.863718
426.000000	19.732980
425.000000	19.624897
424.000000	19.527387
423.000000	19.406771
422.000000	19.272506
421.000000	19.140249
420.000000	19.031161
419.000000	18.937773
418.000000	18.790595
417.000000	18.668818
416.000000	18.534351
415.000000	18.395523
414.000000	18.264529
413.000000	18.147244
412.000000	17.984390
411.000000	17.859572
410.000000	17.711369
409.000000	17.575230
408.000000	17.435751
407.000000	17.307631
406.000000	17.147092
405.000000	17.013253
404.000000	16.877509
403.000000	16.750027
402.000000	16.577739
401.000000	16.433372
400.000000	16.307536
399.000000	16.138084
398.000000	15.977928
397.000000	15.852096
396.000000	15.703661
395.000000	15.552648
394.000000	15.392922
393.000000	15.236657
392.000000	15.104424
391.000000	14.920751
390.000000	14.771901
389.000000	14.632518
388.000000	14.468311
387.000000	14.289136
386.000000	14.156660
385.000000	13.973057
384.000000	13.811239
383.000000	13.633382
382.000000	13.481285
381.000000	13.323741
380.000000	13.130769
379.000000	12.976510
378.000000	12.778513
377.000000	12.648756
376.000000	12.534445
375.000000	12.283787
374.000000	12.097127
373.000000	11.931863
372.000000	11.800608
371.000000	11.633587
370.000000	11.380890
369.000000	11.220663
368.000000	11.103977
367.000000	10.903264
366.000000	10.780086
365.000000	10.574371
364.000000	10.410823
363.000000	10.269378
362.000000	10.105929
361.000000	9.929052
360.000000	9.752389
359.000000	9.665193
358.000000	9.477387
357.000000	9.339986
356.000000	9.171311
355.000000	8.958680
354.000000	8.902308
353.000000	8.776094
352.000000	8.575563
351.000000	8.454328
350.000000	8.315470
349.000000	8.158865
348.000000	8.033425
347.000000	7.877362
346.000000	7.732463
345.000000	7.569371
344.000000	7.383896
343.000000	7.255143
342.000000	7.064774
341.000000	6.926166
340.000000	6.792282
339.000000	6.539353
338.000000	6.430536
337.000000	6.292751
336.000000	6.012155
335.000000	5.864222
334.000000	5.654077
333.000000	5.500503
332.000000	5.285957
331.000000	5.062134
330.000000	4.886679
329.000000	4.728164
328.000000	4.533220
327.000000	4.382413
326.000000	4.201917
325.000000	4.114077
324.000000	3.898905
323.000000	3.820556
322.000000	3.684204
321.000000	3.633713
320.000000	3.488350
319.000000	3.342812
318.000000	3.257795
317.000000	3.235311
316.000000	3.126493
315.000000	3.042472
314.000000	2.972032
313.000000	2.912870
312.000000	2.835561
311.000000	2.763580
310.000000	2.700802
309.000000	2.640558
308.000000	2.587807
307.000000	2.479474
306.000000	2.415960
305.000000	2.351365
304.000000	2.306262
303.000000	2.246733
302.000000	2.183273
301.000000	2.105068
300.000000	2.064567
299.000000	2.008160
298.000000	1.935662
297.000000	1.841071
296.000000	1.759707
295.000000	1.663924
294.000000	1.572231
293.000000	1.464067
292.000000	1.353583
291.000000	1.257522
290.000000	1.152025
289.000000	1.074236
288.000000	1.017320
287.000000	0.954649
286.000000	0.931822
285.000000	0.912490
284.000000	0.914689
283.000000	0.915506
282.000000	0.919962
281.000000	0.905923
280.000000	0.918709
279.000000	0.925396
278.000000	0.932596
277.000000	0.948501
276.000000	0.958380
275.000000	0.993178
274.000000	1.012374
273.000000	1.038422
272.000000	1.059629
271.000000	1.078923
270.000000	1.089607
269.000000	1.094189
268.000000	1.129653
267.000000	1.150601
266.000000	1.178085
265.000000	1.197447
264.000000	1.233586
263.000000	1.280431
262.000000	1.304380
261.000000	1.329503
260.000000	1.354082
259.000000	1.372643
258.000000	1.415628
257.000000	1.461925
256.000000	1.493716
255.000000	1.520105
254.000000	1.536711
253.000000	1.515812
252.000000	1.500323
251.000000	1.483608
250.000000	1.457934
249.000000	1.407883
248.000000	1.327500
247.000000	1.229064
246.000000	1.134307
245.000000	1.028993
244.000000	0.927684
243.000000	0.827437
242.000000	0.726506
241.000000	0.633750
240.000000	0.573937
239.000000	0.504979
238.000000	0.439986
237.000000	0.383320
236.000000	0.354112
235.000000	0.323531
234.000000	0.288919
233.000000	0.261939
232.000000	0.240003
231.000000	0.226885
230.000000	0.203885
229.000000	0.173553
228.000000	0.150212
227.000000	0.132912
226.000000	0.129487
225.000000	0.128051
224.000000	0.115624
223.000000	0.103882
222.000000	0.086123
221.000000	0.078753
220.000000	0.070802
219.000000	0.074393
218.000000	0.079085
217.000000	0.077855
216.000000	0.070148
215.000000	0.059349
214.000000	0.075928
213.000000	0.058142
212.000000	0.044185
211.000000	0.051324
210.000000	0.045739
209.000000	0.050899
208.000000	0.080192
207.000000	0.049676
206.000000	0.043979
205.000000	0.091052
204.000000	0.072115
203.000000	0.080052
202.000000	0.148615
201.000000	0.146971
200.000000	0.075479
