PE IR       SUBTECH     SPECTRUM    ASCII       PEDS        4.00        
   -1
Peau020_1.ASC
23/06/14
15:00:22.00
23/06/14
15:01:00.00
uco
Sample 020 By uco Date Wednesday, June 14 2023
450.000000
#HDR
-1
-1
#GR
cm-1
A
1.0
0.0
4000.000000
-1.000000
3551
8
0.030084
0.004650
#DATA
4000.000000	0.004903
3999.000000	0.004918
3998.000000	0.004935
3997.000000	0.004945
3996.000000	0.004943
3995.000000	0.004936
3994.000000	0.004933
3993.000000	0.004943
3992.000000	0.004963
3991.000000	0.004985
3990.000000	0.005002
3989.000000	0.005012
3988.000000	0.005015
3987.000000	0.005011
3986.000000	0.005000
3985.000000	0.004985
3984.000000	0.004972
3983.000000	0.004966
3982.000000	0.004968
3981.000000	0.004972
3980.000000	0.004972
3979.000000	0.004964
3978.000000	0.004951
3977.000000	0.004942
3976.000000	0.004941
3975.000000	0.004951
3974.000000	0.004964
3973.000000	0.004975
3972.000000	0.004984
3971.000000	0.004993
3970.000000	0.005004
3969.000000	0.005013
3968.000000	0.005014
3967.000000	0.005011
3966.000000	0.005010
3965.000000	0.005017
3964.000000	0.005030
3963.000000	0.005038
3962.000000	0.005034
3961.000000	0.005020
3960.000000	0.005009
3959.000000	0.005011
3958.000000	0.005029
3957.000000	0.005055
3956.000000	0.005078
3955.000000	0.005093
3954.000000	0.005097
3953.000000	0.005094
3952.000000	0.005086
3951.000000	0.005073
3950.000000	0.005057
3949.000000	0.005039
3948.000000	0.005025
3947.000000	0.005021
3946.000000	0.005029
3945.000000	0.005049
3944.000000	0.005075
3943.000000	0.005098
3942.000000	0.005105
3941.000000	0.005095
3940.000000	0.005079
3939.000000	0.005070
3938.000000	0.005071
3937.000000	0.005078
3936.000000	0.005083
3935.000000	0.005081
3934.000000	0.005076
3933.000000	0.005074
3932.000000	0.005076
3931.000000	0.005082
3930.000000	0.005088
3929.000000	0.005093
3928.000000	0.005097
3927.000000	0.005100
3926.000000	0.005098
3925.000000	0.005095
3924.000000	0.005094
3923.000000	0.005099
3922.000000	0.005114
3921.000000	0.005134
3920.000000	0.005152
3919.000000	0.005162
3918.000000	0.005159
3917.000000	0.005146
3916.000000	0.005129
3915.000000	0.005117
3914.000000	0.005113
3913.000000	0.005121
3912.000000	0.005135
3911.000000	0.005147
3910.000000	0.005152
3909.000000	0.005151
3908.000000	0.005145
3907.000000	0.005141
3906.000000	0.005140
3905.000000	0.005141
3904.000000	0.005141
3903.000000	0.005137
3902.000000	0.005128
3901.000000	0.005116
3900.000000	0.005105
3899.000000	0.005098
3898.000000	0.005094
3897.000000	0.005093
3896.000000	0.005095
3895.000000	0.005107
3894.000000	0.005129
3893.000000	0.005154
3892.000000	0.005165
3891.000000	0.005154
3890.000000	0.005130
3889.000000	0.005111
3888.000000	0.005110
3887.000000	0.005125
3886.000000	0.005144
3885.000000	0.005155
3884.000000	0.005154
3883.000000	0.005144
3882.000000	0.005135
3881.000000	0.005131
3880.000000	0.005132
3879.000000	0.005137
3878.000000	0.005147
3877.000000	0.005163
3876.000000	0.005178
3875.000000	0.005183
3874.000000	0.005176
3873.000000	0.005158
3872.000000	0.005138
3871.000000	0.005127
3870.000000	0.005126
3869.000000	0.005134
3868.000000	0.005143
3867.000000	0.005147
3866.000000	0.005144
3865.000000	0.005138
3864.000000	0.005134
3863.000000	0.005137
3862.000000	0.005145
3861.000000	0.005154
3860.000000	0.005164
3859.000000	0.005173
3858.000000	0.005181
3857.000000	0.005188
3856.000000	0.005195
3855.000000	0.005200
3854.000000	0.005205
3853.000000	0.005207
3852.000000	0.005205
3851.000000	0.005200
3850.000000	0.005198
3849.000000	0.005204
3848.000000	0.005219
3847.000000	0.005237
3846.000000	0.005248
3845.000000	0.005244
3844.000000	0.005223
3843.000000	0.005192
3842.000000	0.005161
3841.000000	0.005143
3840.000000	0.005145
3839.000000	0.005163
3838.000000	0.005183
3837.000000	0.005191
3836.000000	0.005186
3835.000000	0.005175
3834.000000	0.005167
3833.000000	0.005169
3832.000000	0.005179
3831.000000	0.005193
3830.000000	0.005206
3829.000000	0.005215
3828.000000	0.005221
3827.000000	0.005225
3826.000000	0.005231
3825.000000	0.005238
3824.000000	0.005243
3823.000000	0.005243
3822.000000	0.005240
3821.000000	0.005242
3820.000000	0.005255
3819.000000	0.005278
3818.000000	0.005302
3817.000000	0.005310
3816.000000	0.005285
3815.000000	0.005227
3814.000000	0.005159
3813.000000	0.005108
3812.000000	0.005084
3811.000000	0.005086
3810.000000	0.005103
3809.000000	0.005127
3808.000000	0.005153
3807.000000	0.005180
3806.000000	0.005204
3805.000000	0.005217
3804.000000	0.005214
3803.000000	0.005190
3802.000000	0.005156
3801.000000	0.005131
3800.000000	0.005126
3799.000000	0.005134
3798.000000	0.005140
3797.000000	0.005135
3796.000000	0.005122
3795.000000	0.005110
3794.000000	0.005102
3793.000000	0.005097
3792.000000	0.005097
3791.000000	0.005106
3790.000000	0.005123
3789.000000	0.005142
3788.000000	0.005152
3787.000000	0.005151
3786.000000	0.005146
3785.000000	0.005140
3784.000000	0.005133
3783.000000	0.005122
3782.000000	0.005112
3781.000000	0.005110
3780.000000	0.005122
3779.000000	0.005144
3778.000000	0.005163
3777.000000	0.005171
3776.000000	0.005165
3775.000000	0.005149
3774.000000	0.005129
3773.000000	0.005117
3772.000000	0.005122
3771.000000	0.005146
3770.000000	0.005179
3769.000000	0.005203
3768.000000	0.005206
3767.000000	0.005187
3766.000000	0.005154
3765.000000	0.005117
3764.000000	0.005080
3763.000000	0.005047
3762.000000	0.005024
3761.000000	0.005019
3760.000000	0.005038
3759.000000	0.005078
3758.000000	0.005117
3757.000000	0.005135
3756.000000	0.005123
3755.000000	0.005090
3754.000000	0.005054
3753.000000	0.005036
3752.000000	0.005047
3751.000000	0.005079
3750.000000	0.005106
3749.000000	0.005116
3748.000000	0.005119
3747.000000	0.005126
3746.000000	0.005144
3745.000000	0.005165
3744.000000	0.005168
3743.000000	0.005142
3742.000000	0.005099
3741.000000	0.005055
3740.000000	0.005021
3739.000000	0.004996
3738.000000	0.004973
3737.000000	0.004946
3736.000000	0.004914
3735.000000	0.004887
3734.000000	0.004875
3733.000000	0.004881
3732.000000	0.004898
3731.000000	0.004916
3730.000000	0.004932
3729.000000	0.004945
3728.000000	0.004956
3727.000000	0.004967
3726.000000	0.004979
3725.000000	0.004991
3724.000000	0.004998
3723.000000	0.004995
3722.000000	0.004988
3721.000000	0.004991
3720.000000	0.005011
3719.000000	0.005040
3718.000000	0.005062
3717.000000	0.005071
3716.000000	0.005073
3715.000000	0.005074
3714.000000	0.005082
3713.000000	0.005094
3712.000000	0.005102
3711.000000	0.005094
3710.000000	0.005062
3709.000000	0.005012
3708.000000	0.004964
3707.000000	0.004933
3706.000000	0.004924
3705.000000	0.004934
3704.000000	0.004955
3703.000000	0.004978
3702.000000	0.004999
3701.000000	0.005015
3700.000000	0.005029
3699.000000	0.005043
3698.000000	0.005055
3697.000000	0.005063
3696.000000	0.005065
3695.000000	0.005063
3694.000000	0.005058
3693.000000	0.005048
3692.000000	0.005028
3691.000000	0.005000
3690.000000	0.004971
3689.000000	0.004946
3688.000000	0.004926
3687.000000	0.004914
3686.000000	0.004909
3685.000000	0.004908
3684.000000	0.004913
3683.000000	0.004926
3682.000000	0.004951
3681.000000	0.004982
3680.000000	0.005005
3679.000000	0.005002
3678.000000	0.004972
3677.000000	0.004926
3676.000000	0.004890
3675.000000	0.004877
3674.000000	0.004882
3673.000000	0.004891
3672.000000	0.004902
3671.000000	0.004915
3670.000000	0.004927
3669.000000	0.004935
3668.000000	0.004937
3667.000000	0.004940
3666.000000	0.004943
3665.000000	0.004939
3664.000000	0.004928
3663.000000	0.004916
3662.000000	0.004914
3661.000000	0.004925
3660.000000	0.004948
3659.000000	0.004979
3658.000000	0.005010
3657.000000	0.005037
3656.000000	0.005057
3655.000000	0.005081
3654.000000	0.005118
3653.000000	0.005167
3652.000000	0.005209
3651.000000	0.005232
3650.000000	0.005243
3649.000000	0.005266
3648.000000	0.005303
3647.000000	0.005334
3646.000000	0.005348
3645.000000	0.005356
3644.000000	0.005366
3643.000000	0.005382
3642.000000	0.005399
3641.000000	0.005415
3640.000000	0.005429
3639.000000	0.005439
3638.000000	0.005445
3637.000000	0.005452
3636.000000	0.005465
3635.000000	0.005483
3634.000000	0.005490
3633.000000	0.005479
3632.000000	0.005454
3631.000000	0.005440
3630.000000	0.005463
3629.000000	0.005523
3628.000000	0.005581
3627.000000	0.005609
3626.000000	0.005615
3625.000000	0.005619
3624.000000	0.005629
3623.000000	0.005644
3622.000000	0.005662
3621.000000	0.005686
3620.000000	0.005722
3619.000000	0.005769
3618.000000	0.005813
3617.000000	0.005839
3616.000000	0.005848
3615.000000	0.005846
3614.000000	0.005841
3613.000000	0.005838
3612.000000	0.005837
3611.000000	0.005841
3610.000000	0.005856
3609.000000	0.005884
3608.000000	0.005917
3607.000000	0.005941
3606.000000	0.005951
3605.000000	0.005951
3604.000000	0.005949
3603.000000	0.005954
3602.000000	0.005967
3601.000000	0.005985
3600.000000	0.005998
3599.000000	0.006002
3598.000000	0.006010
3597.000000	0.006039
3596.000000	0.006098
3595.000000	0.006173
3594.000000	0.006244
3593.000000	0.006294
3592.000000	0.006321
3591.000000	0.006330
3590.000000	0.006324
3589.000000	0.006313
3588.000000	0.006310
3587.000000	0.006321
3586.000000	0.006343
3585.000000	0.006372
3584.000000	0.006405
3583.000000	0.006445
3582.000000	0.006490
3581.000000	0.006539
3580.000000	0.006580
3579.000000	0.006605
3578.000000	0.006613
3577.000000	0.006616
3576.000000	0.006625
3575.000000	0.006644
3574.000000	0.006669
3573.000000	0.006691
3572.000000	0.006705
3571.000000	0.006712
3570.000000	0.006715
3569.000000	0.006726
3568.000000	0.006760
3567.000000	0.006814
3566.000000	0.006867
3565.000000	0.006900
3564.000000	0.006914
3563.000000	0.006927
3562.000000	0.006955
3561.000000	0.007003
3560.000000	0.007063
3559.000000	0.007118
3558.000000	0.007160
3557.000000	0.007187
3556.000000	0.007206
3555.000000	0.007225
3554.000000	0.007251
3553.000000	0.007288
3552.000000	0.007333
3551.000000	0.007372
3550.000000	0.007395
3549.000000	0.007405
3548.000000	0.007413
3547.000000	0.007426
3546.000000	0.007443
3545.000000	0.007458
3544.000000	0.007472
3543.000000	0.007486
3542.000000	0.007505
3541.000000	0.007526
3540.000000	0.007545
3539.000000	0.007565
3538.000000	0.007591
3537.000000	0.007625
3536.000000	0.007664
3535.000000	0.007699
3534.000000	0.007729
3533.000000	0.007754
3532.000000	0.007775
3531.000000	0.007791
3530.000000	0.007804
3529.000000	0.007816
3528.000000	0.007830
3527.000000	0.007845
3526.000000	0.007860
3525.000000	0.007879
3524.000000	0.007910
3523.000000	0.007954
3522.000000	0.008005
3521.000000	0.008048
3520.000000	0.008078
3519.000000	0.008092
3518.000000	0.008097
3517.000000	0.008098
3516.000000	0.008102
3515.000000	0.008115
3514.000000	0.008137
3513.000000	0.008165
3512.000000	0.008191
3511.000000	0.008211
3510.000000	0.008229
3509.000000	0.008246
3508.000000	0.008263
3507.000000	0.008279
3506.000000	0.008296
3505.000000	0.008322
3504.000000	0.008356
3503.000000	0.008386
3502.000000	0.008396
3501.000000	0.008383
3500.000000	0.008363
3499.000000	0.008356
3498.000000	0.008376
3497.000000	0.008418
3496.000000	0.008467
3495.000000	0.008513
3494.000000	0.008551
3493.000000	0.008583
3492.000000	0.008613
3491.000000	0.008641
3490.000000	0.008670
3489.000000	0.008701
3488.000000	0.008731
3487.000000	0.008757
3486.000000	0.008779
3485.000000	0.008798
3484.000000	0.008812
3483.000000	0.008824
3482.000000	0.008839
3481.000000	0.008861
3480.000000	0.008891
3479.000000	0.008922
3478.000000	0.008944
3477.000000	0.008955
3476.000000	0.008961
3475.000000	0.008976
3474.000000	0.009003
3473.000000	0.009035
3472.000000	0.009059
3471.000000	0.009077
3470.000000	0.009095
3469.000000	0.009121
3468.000000	0.009153
3467.000000	0.009181
3466.000000	0.009198
3465.000000	0.009208
3464.000000	0.009218
3463.000000	0.009233
3462.000000	0.009251
3461.000000	0.009268
3460.000000	0.009280
3459.000000	0.009290
3458.000000	0.009301
3457.000000	0.009318
3456.000000	0.009339
3455.000000	0.009361
3454.000000	0.009381
3453.000000	0.009397
3452.000000	0.009410
3451.000000	0.009417
3450.000000	0.009424
3449.000000	0.009436
3448.000000	0.009460
3447.000000	0.009497
3446.000000	0.009540
3445.000000	0.009584
3444.000000	0.009626
3443.000000	0.009666
3442.000000	0.009699
3441.000000	0.009723
3440.000000	0.009738
3439.000000	0.009751
3438.000000	0.009764
3437.000000	0.009781
3436.000000	0.009799
3435.000000	0.009816
3434.000000	0.009834
3433.000000	0.009854
3432.000000	0.009877
3431.000000	0.009903
3430.000000	0.009927
3429.000000	0.009944
3428.000000	0.009955
3427.000000	0.009968
3426.000000	0.009989
3425.000000	0.010017
3424.000000	0.010044
3423.000000	0.010067
3422.000000	0.010095
3421.000000	0.010134
3420.000000	0.010180
3419.000000	0.010223
3418.000000	0.010259
3417.000000	0.010290
3416.000000	0.010322
3415.000000	0.010350
3414.000000	0.010373
3413.000000	0.010392
3412.000000	0.010415
3411.000000	0.010446
3410.000000	0.010482
3409.000000	0.010513
3408.000000	0.010531
3407.000000	0.010537
3406.000000	0.010536
3405.000000	0.010536
3404.000000	0.010541
3403.000000	0.010552
3402.000000	0.010572
3401.000000	0.010605
3400.000000	0.010649
3399.000000	0.010699
3398.000000	0.010745
3397.000000	0.010781
3396.000000	0.010805
3395.000000	0.010821
3394.000000	0.010834
3393.000000	0.010852
3392.000000	0.010876
3391.000000	0.010903
3390.000000	0.010931
3389.000000	0.010955
3388.000000	0.010974
3387.000000	0.010988
3386.000000	0.010996
3385.000000	0.011002
3384.000000	0.011008
3383.000000	0.011016
3382.000000	0.011029
3381.000000	0.011052
3380.000000	0.011089
3379.000000	0.011135
3378.000000	0.011182
3377.000000	0.011221
3376.000000	0.011246
3375.000000	0.011262
3374.000000	0.011276
3373.000000	0.011295
3372.000000	0.011321
3371.000000	0.011352
3370.000000	0.011382
3369.000000	0.011412
3368.000000	0.011441
3367.000000	0.011471
3366.000000	0.011506
3365.000000	0.011549
3364.000000	0.011596
3363.000000	0.011641
3362.000000	0.011679
3361.000000	0.011714
3360.000000	0.011754
3359.000000	0.011803
3358.000000	0.011859
3357.000000	0.011913
3356.000000	0.011958
3355.000000	0.011993
3354.000000	0.012020
3353.000000	0.012044
3352.000000	0.012072
3351.000000	0.012108
3350.000000	0.012148
3349.000000	0.012187
3348.000000	0.012216
3347.000000	0.012237
3346.000000	0.012259
3345.000000	0.012290
3344.000000	0.012332
3343.000000	0.012378
3342.000000	0.012423
3341.000000	0.012468
3340.000000	0.012518
3339.000000	0.012574
3338.000000	0.012631
3337.000000	0.012684
3336.000000	0.012727
3335.000000	0.012763
3334.000000	0.012793
3333.000000	0.012817
3332.000000	0.012831
3331.000000	0.012834
3330.000000	0.012835
3329.000000	0.012850
3328.000000	0.012887
3327.000000	0.012940
3326.000000	0.012992
3325.000000	0.013027
3324.000000	0.013048
3323.000000	0.013069
3322.000000	0.013103
3321.000000	0.013145
3320.000000	0.013181
3319.000000	0.013201
3318.000000	0.013209
3317.000000	0.013220
3316.000000	0.013243
3315.000000	0.013277
3314.000000	0.013307
3313.000000	0.013317
3312.000000	0.013303
3311.000000	0.013275
3310.000000	0.013258
3309.000000	0.013266
3308.000000	0.013301
3307.000000	0.013348
3306.000000	0.013392
3305.000000	0.013428
3304.000000	0.013460
3303.000000	0.013494
3302.000000	0.013531
3301.000000	0.013565
3300.000000	0.013589
3299.000000	0.013601
3298.000000	0.013603
3297.000000	0.013597
3296.000000	0.013588
3295.000000	0.013583
3294.000000	0.013584
3293.000000	0.013590
3292.000000	0.013595
3291.000000	0.013599
3290.000000	0.013608
3289.000000	0.013627
3288.000000	0.013650
3287.000000	0.013667
3286.000000	0.013674
3285.000000	0.013674
3284.000000	0.013672
3283.000000	0.013666
3282.000000	0.013658
3281.000000	0.013653
3280.000000	0.013656
3279.000000	0.013661
3278.000000	0.013662
3277.000000	0.013653
3276.000000	0.013636
3275.000000	0.013612
3274.000000	0.013584
3273.000000	0.013552
3272.000000	0.013519
3271.000000	0.013488
3270.000000	0.013464
3269.000000	0.013446
3268.000000	0.013432
3267.000000	0.013420
3266.000000	0.013414
3265.000000	0.013412
3264.000000	0.013405
3263.000000	0.013383
3262.000000	0.013348
3261.000000	0.013308
3260.000000	0.013276
3259.000000	0.013252
3258.000000	0.013230
3257.000000	0.013205
3256.000000	0.013180
3255.000000	0.013161
3254.000000	0.013145
3253.000000	0.013128
3252.000000	0.013108
3251.000000	0.013086
3250.000000	0.013066
3249.000000	0.013045
3248.000000	0.013023
3247.000000	0.013001
3246.000000	0.012983
3245.000000	0.012968
3244.000000	0.012945
3243.000000	0.012911
3242.000000	0.012872
3241.000000	0.012838
3240.000000	0.012813
3239.000000	0.012794
3238.000000	0.012771
3237.000000	0.012745
3236.000000	0.012718
3235.000000	0.012699
3234.000000	0.012693
3233.000000	0.012703
3232.000000	0.012719
3231.000000	0.012727
3230.000000	0.012719
3229.000000	0.012698
3228.000000	0.012672
3227.000000	0.012647
3226.000000	0.012625
3225.000000	0.012603
3224.000000	0.012581
3223.000000	0.012556
3222.000000	0.012526
3221.000000	0.012488
3220.000000	0.012450
3219.000000	0.012422
3218.000000	0.012414
3217.000000	0.012428
3216.000000	0.012452
3215.000000	0.012471
3214.000000	0.012472
3213.000000	0.012449
3212.000000	0.012407
3211.000000	0.012359
3210.000000	0.012319
3209.000000	0.012298
3208.000000	0.012289
3207.000000	0.012279
3206.000000	0.012260
3205.000000	0.012235
3204.000000	0.012215
3203.000000	0.012206
3202.000000	0.012198
3201.000000	0.012179
3200.000000	0.012141
3199.000000	0.012094
3198.000000	0.012054
3197.000000	0.012028
3196.000000	0.012014
3195.000000	0.012006
3194.000000	0.011996
3193.000000	0.011983
3192.000000	0.011967
3191.000000	0.011950
3190.000000	0.011936
3189.000000	0.011924
3188.000000	0.011907
3187.000000	0.011880
3186.000000	0.011847
3185.000000	0.011819
3184.000000	0.011798
3183.000000	0.011778
3182.000000	0.011756
3181.000000	0.011732
3180.000000	0.011709
3179.000000	0.011685
3178.000000	0.011654
3177.000000	0.011615
3176.000000	0.011570
3175.000000	0.011522
3174.000000	0.011478
3173.000000	0.011447
3172.000000	0.011437
3171.000000	0.011441
3170.000000	0.011444
3169.000000	0.011435
3168.000000	0.011413
3167.000000	0.011384
3166.000000	0.011347
3165.000000	0.011301
3164.000000	0.011252
3163.000000	0.011213
3162.000000	0.011190
3161.000000	0.011184
3160.000000	0.011180
3159.000000	0.011169
3158.000000	0.011144
3157.000000	0.011114
3156.000000	0.011092
3155.000000	0.011083
3154.000000	0.011078
3153.000000	0.011062
3152.000000	0.011028
3151.000000	0.010983
3150.000000	0.010941
3149.000000	0.010912
3148.000000	0.010894
3147.000000	0.010883
3146.000000	0.010871
3145.000000	0.010850
3144.000000	0.010817
3143.000000	0.010777
3142.000000	0.010740
3141.000000	0.010712
3140.000000	0.010692
3139.000000	0.010680
3138.000000	0.010676
3137.000000	0.010675
3136.000000	0.010669
3135.000000	0.010648
3134.000000	0.010613
3133.000000	0.010576
3132.000000	0.010550
3131.000000	0.010539
3130.000000	0.010542
3129.000000	0.010554
3128.000000	0.010566
3127.000000	0.010566
3126.000000	0.010546
3125.000000	0.010508
3124.000000	0.010467
3123.000000	0.010437
3122.000000	0.010428
3121.000000	0.010431
3120.000000	0.010435
3119.000000	0.010429
3118.000000	0.010415
3117.000000	0.010405
3116.000000	0.010410
3115.000000	0.010429
3114.000000	0.010450
3113.000000	0.010458
3112.000000	0.010448
3111.000000	0.010429
3110.000000	0.010418
3109.000000	0.010426
3108.000000	0.010451
3107.000000	0.010479
3106.000000	0.010499
3105.000000	0.010505
3104.000000	0.010501
3103.000000	0.010489
3102.000000	0.010472
3101.000000	0.010456
3100.000000	0.010445
3099.000000	0.010443
3098.000000	0.010447
3097.000000	0.010454
3096.000000	0.010463
3095.000000	0.010474
3094.000000	0.010489
3093.000000	0.010504
3092.000000	0.010519
3091.000000	0.010535
3090.000000	0.010550
3089.000000	0.010565
3088.000000	0.010576
3087.000000	0.010583
3086.000000	0.010588
3085.000000	0.010592
3084.000000	0.010590
3083.000000	0.010578
3082.000000	0.010558
3081.000000	0.010534
3080.000000	0.010515
3079.000000	0.010512
3078.000000	0.010530
3077.000000	0.010571
3076.000000	0.010619
3075.000000	0.010652
3074.000000	0.010656
3073.000000	0.010635
3072.000000	0.010609
3071.000000	0.010593
3070.000000	0.010588
3069.000000	0.010588
3068.000000	0.010589
3067.000000	0.010594
3066.000000	0.010608
3065.000000	0.010624
3064.000000	0.010630
3063.000000	0.010616
3062.000000	0.010586
3061.000000	0.010549
3060.000000	0.010517
3059.000000	0.010492
3058.000000	0.010475
3057.000000	0.010467
3056.000000	0.010463
3055.000000	0.010455
3054.000000	0.010436
3053.000000	0.010407
3052.000000	0.010377
3051.000000	0.010352
3050.000000	0.010333
3049.000000	0.010317
3048.000000	0.010300
3047.000000	0.010278
3046.000000	0.010245
3045.000000	0.010205
3044.000000	0.010165
3043.000000	0.010135
3042.000000	0.010115
3041.000000	0.010097
3040.000000	0.010075
3039.000000	0.010049
3038.000000	0.010021
3037.000000	0.009988
3036.000000	0.009948
3035.000000	0.009905
3034.000000	0.009870
3033.000000	0.009848
3032.000000	0.009827
3031.000000	0.009797
3030.000000	0.009756
3029.000000	0.009713
3028.000000	0.009683
3027.000000	0.009669
3026.000000	0.009668
3025.000000	0.009671
3024.000000	0.009668
3023.000000	0.009651
3022.000000	0.009615
3021.000000	0.009559
3020.000000	0.009490
3019.000000	0.009415
3018.000000	0.009346
3017.000000	0.009291
3016.000000	0.009260
3015.000000	0.009253
3014.000000	0.009259
3013.000000	0.009260
3012.000000	0.009244
3011.000000	0.009216
3010.000000	0.009185
3009.000000	0.009161
3008.000000	0.009140
3007.000000	0.009115
3006.000000	0.009081
3005.000000	0.009042
3004.000000	0.009007
3003.000000	0.008985
3002.000000	0.008978
3001.000000	0.008985
3000.000000	0.008995
2999.000000	0.008999
2998.000000	0.008995
2997.000000	0.008988
2996.000000	0.008983
2995.000000	0.008987
2994.000000	0.009004
2993.000000	0.009025
2992.000000	0.009038
2991.000000	0.009036
2990.000000	0.009033
2989.000000	0.009057
2988.000000	0.009123
2987.000000	0.009218
2986.000000	0.009317
2985.000000	0.009406
2984.000000	0.009488
2983.000000	0.009576
2982.000000	0.009674
2981.000000	0.009783
2980.000000	0.009902
2979.000000	0.010026
2978.000000	0.010149
2977.000000	0.010263
2976.000000	0.010374
2975.000000	0.010494
2974.000000	0.010633
2973.000000	0.010789
2972.000000	0.010955
2971.000000	0.011127
2970.000000	0.011310
2969.000000	0.011517
2968.000000	0.011749
2967.000000	0.011990
2966.000000	0.012218
2965.000000	0.012420
2964.000000	0.012603
2963.000000	0.012777
2962.000000	0.012946
2961.000000	0.013101
2960.000000	0.013234
2959.000000	0.013345
2958.000000	0.013440
2957.000000	0.013515
2956.000000	0.013558
2955.000000	0.013562
2954.000000	0.013530
2953.000000	0.013477
2952.000000	0.013417
2951.000000	0.013364
2950.000000	0.013327
2949.000000	0.013310
2948.000000	0.013316
2947.000000	0.013351
2946.000000	0.013419
2945.000000	0.013523
2944.000000	0.013659
2943.000000	0.013820
2942.000000	0.014002
2941.000000	0.014206
2940.000000	0.014431
2939.000000	0.014677
2938.000000	0.014946
2937.000000	0.015237
2936.000000	0.015539
2935.000000	0.015835
2934.000000	0.016112
2933.000000	0.016366
2932.000000	0.016606
2931.000000	0.016844
2930.000000	0.017091
2929.000000	0.017351
2928.000000	0.017621
2927.000000	0.017897
2926.000000	0.018177
2925.000000	0.018456
2924.000000	0.018724
2923.000000	0.018968
2922.000000	0.019183
2921.000000	0.019366
2920.000000	0.019510
2919.000000	0.019592
2918.000000	0.019584
2917.000000	0.019464
2916.000000	0.019216
2915.000000	0.018840
2914.000000	0.018355
2913.000000	0.017803
2912.000000	0.017236
2911.000000	0.016700
2910.000000	0.016221
2909.000000	0.015808
2908.000000	0.015456
2907.000000	0.015153
2906.000000	0.014882
2905.000000	0.014628
2904.000000	0.014378
2903.000000	0.014134
2902.000000	0.013904
2901.000000	0.013706
2900.000000	0.013542
2899.000000	0.013395
2898.000000	0.013242
2897.000000	0.013076
2896.000000	0.012906
2895.000000	0.012745
2894.000000	0.012600
2893.000000	0.012467
2892.000000	0.012344
2891.000000	0.012231
2890.000000	0.012132
2889.000000	0.012049
2888.000000	0.011982
2887.000000	0.011924
2886.000000	0.011869
2885.000000	0.011813
2884.000000	0.011767
2883.000000	0.011744
2882.000000	0.011754
2881.000000	0.011798
2880.000000	0.011864
2879.000000	0.011941
2878.000000	0.012020
2877.000000	0.012107
2876.000000	0.012204
2875.000000	0.012307
2874.000000	0.012402
2873.000000	0.012477
2872.000000	0.012526
2871.000000	0.012554
2870.000000	0.012564
2869.000000	0.012567
2868.000000	0.012579
2867.000000	0.012611
2866.000000	0.012672
2865.000000	0.012761
2864.000000	0.012880
2863.000000	0.013030
2862.000000	0.013205
2861.000000	0.013398
2860.000000	0.013599
2859.000000	0.013809
2858.000000	0.014028
2857.000000	0.014259
2856.000000	0.014506
2855.000000	0.014770
2854.000000	0.015046
2853.000000	0.015316
2852.000000	0.015549
2851.000000	0.015696
2850.000000	0.015701
2849.000000	0.015519
2848.000000	0.015148
2847.000000	0.014635
2846.000000	0.014059
2845.000000	0.013496
2844.000000	0.012998
2843.000000	0.012580
2842.000000	0.012232
2841.000000	0.011934
2840.000000	0.011671
2839.000000	0.011440
2838.000000	0.011241
2837.000000	0.011073
2836.000000	0.010930
2835.000000	0.010808
2834.000000	0.010702
2833.000000	0.010606
2832.000000	0.010517
2831.000000	0.010435
2830.000000	0.010366
2829.000000	0.010309
2828.000000	0.010263
2827.000000	0.010220
2826.000000	0.010181
2825.000000	0.010143
2824.000000	0.010107
2823.000000	0.010072
2822.000000	0.010044
2821.000000	0.010025
2820.000000	0.010011
2819.000000	0.009996
2818.000000	0.009978
2817.000000	0.009956
2816.000000	0.009930
2815.000000	0.009901
2814.000000	0.009873
2813.000000	0.009851
2812.000000	0.009832
2811.000000	0.009808
2810.000000	0.009774
2809.000000	0.009732
2808.000000	0.009691
2807.000000	0.009659
2806.000000	0.009637
2805.000000	0.009622
2804.000000	0.009609
2803.000000	0.009589
2802.000000	0.009563
2801.000000	0.009539
2800.000000	0.009524
2799.000000	0.009514
2798.000000	0.009500
2797.000000	0.009476
2796.000000	0.009444
2795.000000	0.009415
2794.000000	0.009396
2793.000000	0.009387
2792.000000	0.009381
2791.000000	0.009372
2790.000000	0.009359
2789.000000	0.009343
2788.000000	0.009324
2787.000000	0.009300
2786.000000	0.009270
2785.000000	0.009243
2784.000000	0.009227
2783.000000	0.009225
2782.000000	0.009230
2781.000000	0.009233
2780.000000	0.009225
2779.000000	0.009208
2778.000000	0.009189
2777.000000	0.009177
2776.000000	0.009173
2775.000000	0.009164
2774.000000	0.009141
2773.000000	0.009110
2772.000000	0.009086
2771.000000	0.009084
2770.000000	0.009098
2769.000000	0.009111
2768.000000	0.009108
2767.000000	0.009086
2766.000000	0.009054
2765.000000	0.009026
2764.000000	0.009012
2763.000000	0.009010
2762.000000	0.009014
2761.000000	0.009014
2760.000000	0.009010
2759.000000	0.009002
2758.000000	0.008991
2757.000000	0.008977
2756.000000	0.008964
2755.000000	0.008957
2754.000000	0.008958
2753.000000	0.008959
2752.000000	0.008949
2751.000000	0.008928
2750.000000	0.008908
2749.000000	0.008897
2748.000000	0.008897
2747.000000	0.008897
2746.000000	0.008894
2745.000000	0.008889
2744.000000	0.008883
2743.000000	0.008878
2742.000000	0.008872
2741.000000	0.008868
2740.000000	0.008866
2739.000000	0.008864
2738.000000	0.008852
2737.000000	0.008831
2736.000000	0.008811
2735.000000	0.008801
2734.000000	0.008804
2733.000000	0.008809
2732.000000	0.008810
2731.000000	0.008808
2730.000000	0.008806
2729.000000	0.008807
2728.000000	0.008809
2727.000000	0.008805
2726.000000	0.008792
2725.000000	0.008775
2724.000000	0.008762
2723.000000	0.008759
2722.000000	0.008763
2721.000000	0.008763
2720.000000	0.008754
2719.000000	0.008739
2718.000000	0.008725
2717.000000	0.008718
2716.000000	0.008716
2715.000000	0.008710
2714.000000	0.008695
2713.000000	0.008675
2712.000000	0.008657
2711.000000	0.008649
2710.000000	0.008648
2709.000000	0.008649
2708.000000	0.008646
2707.000000	0.008639
2706.000000	0.008628
2705.000000	0.008614
2704.000000	0.008599
2703.000000	0.008591
2702.000000	0.008591
2701.000000	0.008596
2700.000000	0.008595
2699.000000	0.008587
2698.000000	0.008579
2697.000000	0.008578
2696.000000	0.008583
2695.000000	0.008587
2694.000000	0.008587
2693.000000	0.008585
2692.000000	0.008580
2691.000000	0.008575
2690.000000	0.008568
2689.000000	0.008565
2688.000000	0.008567
2687.000000	0.008568
2686.000000	0.008564
2685.000000	0.008557
2684.000000	0.008554
2683.000000	0.008555
2682.000000	0.008557
2681.000000	0.008556
2680.000000	0.008556
2679.000000	0.008558
2678.000000	0.008559
2677.000000	0.008550
2676.000000	0.008532
2675.000000	0.008511
2674.000000	0.008493
2673.000000	0.008482
2672.000000	0.008477
2671.000000	0.008481
2670.000000	0.008494
2669.000000	0.008512
2668.000000	0.008530
2667.000000	0.008542
2666.000000	0.008546
2665.000000	0.008541
2664.000000	0.008533
2663.000000	0.008531
2662.000000	0.008540
2661.000000	0.008555
2660.000000	0.008566
2659.000000	0.008565
2658.000000	0.008551
2657.000000	0.008528
2656.000000	0.008504
2655.000000	0.008486
2654.000000	0.008473
2653.000000	0.008461
2652.000000	0.008448
2651.000000	0.008440
2650.000000	0.008439
2649.000000	0.008439
2648.000000	0.008428
2647.000000	0.008402
2646.000000	0.008368
2645.000000	0.008340
2644.000000	0.008318
2643.000000	0.008297
2642.000000	0.008276
2641.000000	0.008260
2640.000000	0.008253
2639.000000	0.008258
2638.000000	0.008270
2637.000000	0.008272
2636.000000	0.008250
2635.000000	0.008200
2634.000000	0.008143
2633.000000	0.008102
2632.000000	0.008088
2631.000000	0.008093
2630.000000	0.008103
2629.000000	0.008111
2628.000000	0.008113
2627.000000	0.008103
2626.000000	0.008078
2625.000000	0.008044
2624.000000	0.008015
2623.000000	0.008001
2622.000000	0.008000
2621.000000	0.008001
2620.000000	0.007995
2619.000000	0.007982
2618.000000	0.007963
2617.000000	0.007940
2616.000000	0.007906
2615.000000	0.007869
2614.000000	0.007846
2613.000000	0.007855
2612.000000	0.007888
2611.000000	0.007917
2610.000000	0.007917
2609.000000	0.007893
2608.000000	0.007865
2607.000000	0.007845
2606.000000	0.007823
2605.000000	0.007791
2604.000000	0.007756
2603.000000	0.007736
2602.000000	0.007744
2601.000000	0.007778
2600.000000	0.007822
2599.000000	0.007856
2598.000000	0.007862
2597.000000	0.007832
2596.000000	0.007778
2595.000000	0.007724
2594.000000	0.007690
2593.000000	0.007678
2592.000000	0.007673
2591.000000	0.007667
2590.000000	0.007664
2589.000000	0.007671
2588.000000	0.007686
2587.000000	0.007698
2586.000000	0.007697
2585.000000	0.007680
2584.000000	0.007651
2583.000000	0.007624
2582.000000	0.007611
2581.000000	0.007614
2580.000000	0.007620
2579.000000	0.007613
2578.000000	0.007593
2577.000000	0.007579
2576.000000	0.007578
2575.000000	0.007580
2574.000000	0.007566
2573.000000	0.007531
2572.000000	0.007484
2571.000000	0.007446
2570.000000	0.007428
2569.000000	0.007436
2568.000000	0.007464
2567.000000	0.007497
2566.000000	0.007519
2565.000000	0.007525
2564.000000	0.007519
2563.000000	0.007507
2562.000000	0.007493
2561.000000	0.007477
2560.000000	0.007465
2559.000000	0.007464
2558.000000	0.007475
2557.000000	0.007490
2556.000000	0.007498
2555.000000	0.007493
2554.000000	0.007479
2553.000000	0.007463
2552.000000	0.007452
2551.000000	0.007450
2550.000000	0.007458
2549.000000	0.007471
2548.000000	0.007476
2547.000000	0.007463
2546.000000	0.007432
2545.000000	0.007388
2544.000000	0.007345
2543.000000	0.007314
2542.000000	0.007302
2541.000000	0.007303
2540.000000	0.007304
2539.000000	0.007304
2538.000000	0.007315
2537.000000	0.007348
2536.000000	0.007394
2535.000000	0.007432
2534.000000	0.007450
2533.000000	0.007458
2532.000000	0.007468
2531.000000	0.007485
2530.000000	0.007503
2529.000000	0.007517
2528.000000	0.007521
2527.000000	0.007514
2526.000000	0.007502
2525.000000	0.007498
2524.000000	0.007510
2523.000000	0.007532
2522.000000	0.007551
2521.000000	0.007558
2520.000000	0.007552
2519.000000	0.007535
2518.000000	0.007508
2517.000000	0.007476
2516.000000	0.007448
2515.000000	0.007441
2514.000000	0.007459
2513.000000	0.007486
2512.000000	0.007497
2511.000000	0.007481
2510.000000	0.007452
2509.000000	0.007429
2508.000000	0.007417
2507.000000	0.007411
2506.000000	0.007412
2505.000000	0.007420
2504.000000	0.007417
2503.000000	0.007380
2502.000000	0.007319
2501.000000	0.007279
2500.000000	0.007293
2499.000000	0.007345
2498.000000	0.007391
2497.000000	0.007405
2496.000000	0.007397
2495.000000	0.007383
2494.000000	0.007361
2493.000000	0.007328
2492.000000	0.007291
2491.000000	0.007265
2490.000000	0.007251
2489.000000	0.007240
2488.000000	0.007223
2487.000000	0.007206
2486.000000	0.007204
2485.000000	0.007221
2484.000000	0.007246
2483.000000	0.007258
2482.000000	0.007242
2481.000000	0.007200
2480.000000	0.007152
2479.000000	0.007121
2478.000000	0.007118
2477.000000	0.007133
2476.000000	0.007144
2475.000000	0.007140
2474.000000	0.007126
2473.000000	0.007118
2472.000000	0.007120
2471.000000	0.007120
2470.000000	0.007107
2469.000000	0.007082
2468.000000	0.007064
2467.000000	0.007072
2466.000000	0.007103
2465.000000	0.007139
2464.000000	0.007160
2463.000000	0.007162
2462.000000	0.007155
2461.000000	0.007145
2460.000000	0.007129
2459.000000	0.007107
2458.000000	0.007084
2457.000000	0.007066
2456.000000	0.007048
2455.000000	0.007024
2454.000000	0.006995
2453.000000	0.006970
2452.000000	0.006956
2451.000000	0.006964
2450.000000	0.007000
2449.000000	0.007060
2448.000000	0.007123
2447.000000	0.007160
2446.000000	0.007159
2445.000000	0.007132
2444.000000	0.007099
2443.000000	0.007073
2442.000000	0.007062
2441.000000	0.007067
2440.000000	0.007078
2439.000000	0.007084
2438.000000	0.007075
2437.000000	0.007060
2436.000000	0.007051
2435.000000	0.007054
2434.000000	0.007063
2433.000000	0.007065
2432.000000	0.007058
2431.000000	0.007043
2430.000000	0.007028
2429.000000	0.007015
2428.000000	0.007002
2427.000000	0.006993
2426.000000	0.006992
2425.000000	0.006998
2424.000000	0.006996
2423.000000	0.006974
2422.000000	0.006931
2421.000000	0.006883
2420.000000	0.006852
2419.000000	0.006848
2418.000000	0.006872
2417.000000	0.006908
2416.000000	0.006936
2415.000000	0.006947
2414.000000	0.006949
2413.000000	0.006951
2412.000000	0.006951
2411.000000	0.006944
2410.000000	0.006931
2409.000000	0.006918
2408.000000	0.006910
2407.000000	0.006903
2406.000000	0.006897
2405.000000	0.006890
2404.000000	0.006881
2403.000000	0.006868
2402.000000	0.006859
2401.000000	0.006863
2400.000000	0.006876
2399.000000	0.006888
2398.000000	0.006893
2397.000000	0.006896
2396.000000	0.006904
2395.000000	0.006916
2394.000000	0.006924
2393.000000	0.006917
2392.000000	0.006891
2391.000000	0.006859
2390.000000	0.006847
2389.000000	0.006868
2388.000000	0.006904
2387.000000	0.006925
2386.000000	0.006916
2385.000000	0.006881
2384.000000	0.006829
2383.000000	0.006764
2382.000000	0.006695
2381.000000	0.006642
2380.000000	0.006621
2379.000000	0.006642
2378.000000	0.006698
2377.000000	0.006770
2376.000000	0.006829
2375.000000	0.006851
2374.000000	0.006837
2373.000000	0.006804
2372.000000	0.006769
2371.000000	0.006740
2370.000000	0.006718
2369.000000	0.006698
2368.000000	0.006676
2367.000000	0.006658
2366.000000	0.006661
2365.000000	0.006691
2364.000000	0.006735
2363.000000	0.006779
2362.000000	0.006814
2361.000000	0.006834
2360.000000	0.006832
2359.000000	0.006815
2358.000000	0.006795
2357.000000	0.006781
2356.000000	0.006783
2355.000000	0.006806
2354.000000	0.006823
2353.000000	0.006801
2352.000000	0.006756
2351.000000	0.006730
2350.000000	0.006741
2349.000000	0.006780
2348.000000	0.006827
2347.000000	0.006856
2346.000000	0.006860
2345.000000	0.006861
2344.000000	0.006874
2343.000000	0.006888
2342.000000	0.006894
2341.000000	0.006892
2340.000000	0.006888
2339.000000	0.006887
2338.000000	0.006898
2337.000000	0.006924
2336.000000	0.006955
2335.000000	0.006971
2334.000000	0.006948
2333.000000	0.006887
2332.000000	0.006825
2331.000000	0.006794
2330.000000	0.006800
2329.000000	0.006836
2328.000000	0.006911
2327.000000	0.007033
2326.000000	0.007175
2325.000000	0.007290
2324.000000	0.007340
2323.000000	0.007325
2322.000000	0.007276
2321.000000	0.007230
2320.000000	0.007208
2319.000000	0.007201
2318.000000	0.007191
2317.000000	0.007166
2316.000000	0.007127
2315.000000	0.007077
2314.000000	0.007022
2313.000000	0.006972
2312.000000	0.006934
2311.000000	0.006901
2310.000000	0.006863
2309.000000	0.006817
2308.000000	0.006779
2307.000000	0.006764
2306.000000	0.006774
2305.000000	0.006795
2304.000000	0.006812
2303.000000	0.006819
2302.000000	0.006819
2301.000000	0.006820
2300.000000	0.006824
2299.000000	0.006834
2298.000000	0.006858
2297.000000	0.006906
2296.000000	0.006972
2295.000000	0.007027
2294.000000	0.007046
2293.000000	0.007023
2292.000000	0.006984
2291.000000	0.006961
2290.000000	0.006976
2289.000000	0.007019
2288.000000	0.007062
2287.000000	0.007076
2286.000000	0.007060
2285.000000	0.007032
2284.000000	0.007000
2283.000000	0.006958
2282.000000	0.006899
2281.000000	0.006837
2280.000000	0.006789
2279.000000	0.006760
2278.000000	0.006748
2277.000000	0.006749
2276.000000	0.006754
2275.000000	0.006746
2274.000000	0.006715
2273.000000	0.006678
2272.000000	0.006659
2271.000000	0.006657
2270.000000	0.006652
2269.000000	0.006628
2268.000000	0.006595
2267.000000	0.006582
2266.000000	0.006609
2265.000000	0.006672
2264.000000	0.006737
2263.000000	0.006776
2262.000000	0.006794
2261.000000	0.006823
2260.000000	0.006869
2259.000000	0.006900
2258.000000	0.006877
2257.000000	0.006792
2256.000000	0.006666
2255.000000	0.006526
2254.000000	0.006404
2253.000000	0.006347
2252.000000	0.006392
2251.000000	0.006515
2250.000000	0.006634
2249.000000	0.006667
2248.000000	0.006601
2247.000000	0.006497
2246.000000	0.006443
2245.000000	0.006477
2244.000000	0.006555
2243.000000	0.006591
2242.000000	0.006543
2241.000000	0.006454
2240.000000	0.006392
2239.000000	0.006384
2238.000000	0.006409
2237.000000	0.006445
2236.000000	0.006486
2235.000000	0.006518
2234.000000	0.006512
2233.000000	0.006461
2232.000000	0.006410
2231.000000	0.006416
2230.000000	0.006479
2229.000000	0.006532
2228.000000	0.006504
2227.000000	0.006392
2226.000000	0.006264
2225.000000	0.006184
2224.000000	0.006158
2223.000000	0.006155
2222.000000	0.006169
2221.000000	0.006231
2220.000000	0.006343
2219.000000	0.006452
2218.000000	0.006496
2217.000000	0.006478
2216.000000	0.006460
2215.000000	0.006484
2214.000000	0.006526
2213.000000	0.006524
2212.000000	0.006446
2211.000000	0.006324
2210.000000	0.006224
2209.000000	0.006184
2208.000000	0.006194
2207.000000	0.006227
2206.000000	0.006286
2205.000000	0.006375
2204.000000	0.006448
2203.000000	0.006430
2202.000000	0.006295
2201.000000	0.006112
2200.000000	0.005977
2199.000000	0.005918
2198.000000	0.005896
2197.000000	0.005863
2196.000000	0.005812
2195.000000	0.005773
2194.000000	0.005791
2193.000000	0.005895
2192.000000	0.006052
2191.000000	0.006176
2190.000000	0.006203
2189.000000	0.006154
2188.000000	0.006105
2187.000000	0.006100
2186.000000	0.006109
2185.000000	0.006078
2184.000000	0.006004
2183.000000	0.005940
2182.000000	0.005934
2181.000000	0.005979
2180.000000	0.006021
2179.000000	0.006024
2178.000000	0.006007
2177.000000	0.006014
2176.000000	0.006045
2175.000000	0.006059
2174.000000	0.006024
2173.000000	0.005955
2172.000000	0.005884
2171.000000	0.005824
2170.000000	0.005777
2169.000000	0.005764
2168.000000	0.005806
2167.000000	0.005906
2166.000000	0.006038
2165.000000	0.006155
2164.000000	0.006217
2163.000000	0.006211
2162.000000	0.006150
2161.000000	0.006043
2160.000000	0.005867
2159.000000	0.005616
2158.000000	0.005358
2157.000000	0.005198
2156.000000	0.005172
2155.000000	0.005233
2154.000000	0.005322
2153.000000	0.005416
2152.000000	0.005504
2151.000000	0.005585
2150.000000	0.005679
2149.000000	0.005793
2148.000000	0.005877
2147.000000	0.005849
2146.000000	0.005695
2145.000000	0.005498
2144.000000	0.005365
2143.000000	0.005335
2142.000000	0.005384
2141.000000	0.005481
2140.000000	0.005616
2139.000000	0.005777
2138.000000	0.005940
2137.000000	0.006056
2136.000000	0.006084
2135.000000	0.006022
2134.000000	0.005933
2133.000000	0.005898
2132.000000	0.005932
2131.000000	0.005972
2130.000000	0.005949
2129.000000	0.005864
2128.000000	0.005781
2127.000000	0.005765
2126.000000	0.005837
2125.000000	0.005971
2124.000000	0.006124
2123.000000	0.006254
2122.000000	0.006340
2121.000000	0.006382
2120.000000	0.006389
2119.000000	0.006379
2118.000000	0.006376
2117.000000	0.006395
2116.000000	0.006422
2115.000000	0.006428
2114.000000	0.006396
2113.000000	0.006338
2112.000000	0.006280
2111.000000	0.006234
2110.000000	0.006200
2109.000000	0.006180
2108.000000	0.006181
2107.000000	0.006206
2106.000000	0.006255
2105.000000	0.006324
2104.000000	0.006399
2103.000000	0.006453
2102.000000	0.006459
2101.000000	0.006410
2100.000000	0.006336
2099.000000	0.006288
2098.000000	0.006297
2097.000000	0.006334
2096.000000	0.006325
2095.000000	0.006229
2094.000000	0.006089
2093.000000	0.005998
2092.000000	0.006001
2091.000000	0.006068
2090.000000	0.006140
2089.000000	0.006182
2088.000000	0.006194
2087.000000	0.006184
2086.000000	0.006169
2085.000000	0.006163
2084.000000	0.006165
2083.000000	0.006147
2082.000000	0.006090
2081.000000	0.006012
2080.000000	0.005951
2079.000000	0.005925
2078.000000	0.005924
2077.000000	0.005937
2076.000000	0.005966
2075.000000	0.006006
2074.000000	0.006038
2073.000000	0.006045
2072.000000	0.006036
2071.000000	0.006045
2070.000000	0.006090
2069.000000	0.006148
2068.000000	0.006169
2067.000000	0.006125
2066.000000	0.006039
2065.000000	0.005956
2064.000000	0.005904
2063.000000	0.005877
2062.000000	0.005868
2061.000000	0.005877
2060.000000	0.005900
2059.000000	0.005916
2058.000000	0.005903
2057.000000	0.005855
2056.000000	0.005799
2055.000000	0.005782
2054.000000	0.005852
2053.000000	0.006004
2052.000000	0.006160
2051.000000	0.006220
2050.000000	0.006141
2049.000000	0.005965
2048.000000	0.005768
2047.000000	0.005601
2046.000000	0.005483
2045.000000	0.005427
2044.000000	0.005430
2043.000000	0.005453
2042.000000	0.005455
2041.000000	0.005444
2040.000000	0.005472
2039.000000	0.005573
2038.000000	0.005729
2037.000000	0.005877
2036.000000	0.005934
2035.000000	0.005843
2034.000000	0.005599
2033.000000	0.005265
2032.000000	0.004943
2031.000000	0.004725
2030.000000	0.004659
2029.000000	0.004733
2028.000000	0.004881
2027.000000	0.005034
2026.000000	0.005165
2025.000000	0.005274
2024.000000	0.005350
2023.000000	0.005363
2022.000000	0.005296
2021.000000	0.005167
2020.000000	0.005027
2019.000000	0.004929
2018.000000	0.004902
2017.000000	0.004929
2016.000000	0.004967
2015.000000	0.004978
2014.000000	0.004952
2013.000000	0.004885
2012.000000	0.004799
2011.000000	0.004757
2010.000000	0.004835
2009.000000	0.005014
2008.000000	0.005169
2007.000000	0.005198
2006.000000	0.005145
2005.000000	0.005138
2004.000000	0.005241
2003.000000	0.005403
2002.000000	0.005531
2001.000000	0.005556
2000.000000	0.005467
1999.000000	0.005326
1998.000000	0.005232
1997.000000	0.005233
1996.000000	0.005294
1995.000000	0.005353
1994.000000	0.005409
1993.000000	0.005491
1992.000000	0.005583
1991.000000	0.005625
1990.000000	0.005584
1989.000000	0.005484
1988.000000	0.005366
1987.000000	0.005260
1986.000000	0.005200
1985.000000	0.005211
1984.000000	0.005301
1983.000000	0.005463
1982.000000	0.005673
1981.000000	0.005855
1980.000000	0.005898
1979.000000	0.005759
1978.000000	0.005517
1977.000000	0.005288
1976.000000	0.005096
1975.000000	0.004921
1974.000000	0.004807
1973.000000	0.004827
1972.000000	0.004959
1971.000000	0.005096
1970.000000	0.005168
1969.000000	0.005185
1968.000000	0.005173
1967.000000	0.005145
1966.000000	0.005116
1965.000000	0.005093
1964.000000	0.005046
1963.000000	0.004952
1962.000000	0.004842
1961.000000	0.004773
1960.000000	0.004763
1959.000000	0.004800
1958.000000	0.004894
1957.000000	0.005042
1956.000000	0.005173
1955.000000	0.005215
1954.000000	0.005179
1953.000000	0.005143
1952.000000	0.005142
1951.000000	0.005152
1950.000000	0.005173
1949.000000	0.005239
1948.000000	0.005334
1947.000000	0.005380
1946.000000	0.005327
1945.000000	0.005217
1944.000000	0.005136
1943.000000	0.005132
1942.000000	0.005195
1941.000000	0.005273
1940.000000	0.005306
1939.000000	0.005272
1938.000000	0.005200
1937.000000	0.005140
1936.000000	0.005113
1935.000000	0.005111
1934.000000	0.005149
1933.000000	0.005256
1932.000000	0.005402
1931.000000	0.005504
1930.000000	0.005509
1929.000000	0.005448
1928.000000	0.005387
1927.000000	0.005363
1926.000000	0.005371
1925.000000	0.005395
1924.000000	0.005412
1923.000000	0.005406
1922.000000	0.005391
1921.000000	0.005386
1920.000000	0.005391
1919.000000	0.005379
1918.000000	0.005352
1917.000000	0.005354
1916.000000	0.005417
1915.000000	0.005511
1914.000000	0.005586
1913.000000	0.005609
1912.000000	0.005574
1911.000000	0.005494
1910.000000	0.005408
1909.000000	0.005357
1908.000000	0.005353
1907.000000	0.005368
1906.000000	0.005374
1905.000000	0.005374
1904.000000	0.005375
1903.000000	0.005377
1902.000000	0.005374
1901.000000	0.005360
1900.000000	0.005329
1899.000000	0.005289
1898.000000	0.005267
1897.000000	0.005287
1896.000000	0.005334
1895.000000	0.005367
1894.000000	0.005368
1893.000000	0.005362
1892.000000	0.005370
1891.000000	0.005385
1890.000000	0.005389
1889.000000	0.005390
1888.000000	0.005399
1887.000000	0.005416
1886.000000	0.005427
1885.000000	0.005417
1884.000000	0.005377
1883.000000	0.005318
1882.000000	0.005275
1881.000000	0.005265
1880.000000	0.005270
1879.000000	0.005259
1878.000000	0.005232
1877.000000	0.005232
1876.000000	0.005284
1875.000000	0.005356
1874.000000	0.005398
1873.000000	0.005394
1872.000000	0.005363
1871.000000	0.005323
1870.000000	0.005274
1869.000000	0.005217
1868.000000	0.005166
1867.000000	0.005139
1866.000000	0.005139
1865.000000	0.005151
1864.000000	0.005148
1863.000000	0.005120
1862.000000	0.005093
1861.000000	0.005107
1860.000000	0.005162
1859.000000	0.005223
1858.000000	0.005262
1857.000000	0.005272
1856.000000	0.005259
1855.000000	0.005228
1854.000000	0.005190
1853.000000	0.005160
1852.000000	0.005144
1851.000000	0.005137
1850.000000	0.005126
1849.000000	0.005100
1848.000000	0.005050
1847.000000	0.004985
1846.000000	0.004938
1845.000000	0.004928
1844.000000	0.004941
1843.000000	0.004957
1842.000000	0.004977
1841.000000	0.005000
1840.000000	0.005015
1839.000000	0.005015
1838.000000	0.005015
1837.000000	0.005040
1836.000000	0.005078
1835.000000	0.005096
1834.000000	0.005091
1833.000000	0.005086
1832.000000	0.005096
1831.000000	0.005095
1830.000000	0.005057
1829.000000	0.005017
1828.000000	0.005018
1827.000000	0.005050
1826.000000	0.005060
1825.000000	0.005019
1824.000000	0.004961
1823.000000	0.004939
1822.000000	0.004969
1821.000000	0.005022
1820.000000	0.005061
1819.000000	0.005060
1818.000000	0.005019
1817.000000	0.004969
1816.000000	0.004936
1815.000000	0.004935
1814.000000	0.004962
1813.000000	0.005008
1812.000000	0.005049
1811.000000	0.005056
1810.000000	0.005034
1809.000000	0.005014
1808.000000	0.005016
1807.000000	0.005033
1806.000000	0.005055
1805.000000	0.005089
1804.000000	0.005134
1803.000000	0.005184
1802.000000	0.005233
1801.000000	0.005277
1800.000000	0.005317
1799.000000	0.005346
1798.000000	0.005365
1797.000000	0.005380
1796.000000	0.005386
1795.000000	0.005381
1794.000000	0.005362
1793.000000	0.005314
1792.000000	0.005230
1791.000000	0.005141
1790.000000	0.005090
1789.000000	0.005088
1788.000000	0.005109
1787.000000	0.005123
1786.000000	0.005115
1785.000000	0.005096
1784.000000	0.005073
1783.000000	0.005049
1782.000000	0.005022
1781.000000	0.004989
1780.000000	0.004968
1779.000000	0.004964
1778.000000	0.004968
1777.000000	0.004959
1776.000000	0.004920
1775.000000	0.004868
1774.000000	0.004838
1773.000000	0.004835
1772.000000	0.004849
1771.000000	0.004885
1770.000000	0.004939
1769.000000	0.004995
1768.000000	0.005034
1767.000000	0.005056
1766.000000	0.005094
1765.000000	0.005179
1764.000000	0.005307
1763.000000	0.005440
1762.000000	0.005539
1761.000000	0.005630
1760.000000	0.005778
1759.000000	0.006001
1758.000000	0.006279
1757.000000	0.006576
1756.000000	0.006875
1755.000000	0.007178
1754.000000	0.007496
1753.000000	0.007853
1752.000000	0.008268
1751.000000	0.008724
1750.000000	0.009205
1749.000000	0.009703
1748.000000	0.010176
1747.000000	0.010595
1746.000000	0.010970
1745.000000	0.011325
1744.000000	0.011649
1743.000000	0.011911
1742.000000	0.012115
1741.000000	0.012260
1740.000000	0.012293
1739.000000	0.012193
1738.000000	0.012050
1737.000000	0.011927
1736.000000	0.011785
1735.000000	0.011467
1734.000000	0.010919
1733.000000	0.010466
1732.000000	0.010327
1731.000000	0.010297
1730.000000	0.010149
1729.000000	0.009873
1728.000000	0.009566
1727.000000	0.009285
1726.000000	0.009020
1725.000000	0.008753
1724.000000	0.008478
1723.000000	0.008197
1722.000000	0.007938
1721.000000	0.007721
1720.000000	0.007510
1719.000000	0.007223
1718.000000	0.006855
1717.000000	0.006587
1716.000000	0.006563
1715.000000	0.006689
1714.000000	0.006816
1713.000000	0.006903
1712.000000	0.006967
1711.000000	0.007006
1710.000000	0.007027
1709.000000	0.007080
1708.000000	0.007203
1707.000000	0.007359
1706.000000	0.007472
1705.000000	0.007525
1704.000000	0.007559
1703.000000	0.007629
1702.000000	0.007823
1701.000000	0.008084
1700.000000	0.008190
1699.000000	0.008164
1698.000000	0.008205
1697.000000	0.008415
1696.000000	0.008774
1695.000000	0.009175
1694.000000	0.009596
1693.000000	0.010034
1692.000000	0.010424
1691.000000	0.010738
1690.000000	0.010986
1689.000000	0.011147
1688.000000	0.011188
1687.000000	0.011167
1686.000000	0.011280
1685.000000	0.011681
1684.000000	0.012273
1683.000000	0.012832
1682.000000	0.013302
1681.000000	0.013744
1680.000000	0.014157
1679.000000	0.014517
1678.000000	0.014845
1677.000000	0.015228
1676.000000	0.015703
1675.000000	0.016176
1674.000000	0.016570
1673.000000	0.016940
1672.000000	0.017358
1671.000000	0.017831
1670.000000	0.018344
1669.000000	0.018865
1668.000000	0.019346
1667.000000	0.019763
1666.000000	0.020145
1665.000000	0.020562
1664.000000	0.021052
1663.000000	0.021561
1662.000000	0.022020
1661.000000	0.022418
1660.000000	0.022786
1659.000000	0.023118
1658.000000	0.023366
1657.000000	0.023469
1656.000000	0.023439
1655.000000	0.023418
1654.000000	0.023596
1653.000000	0.023970
1652.000000	0.024368
1651.000000	0.024787
1650.000000	0.025176
1649.000000	0.025408
1648.000000	0.025531
1647.000000	0.025632
1646.000000	0.025704
1645.000000	0.025759
1644.000000	0.025854
1643.000000	0.025960
1642.000000	0.026031
1641.000000	0.026062
1640.000000	0.026056
1639.000000	0.025992
1638.000000	0.025899
1637.000000	0.025863
1636.000000	0.025929
1635.000000	0.026009
1634.000000	0.026036
1633.000000	0.026052
1632.000000	0.026044
1631.000000	0.025987
1630.000000	0.025891
1629.000000	0.025760
1628.000000	0.025583
1627.000000	0.025354
1626.000000	0.025100
1625.000000	0.024857
1624.000000	0.024604
1623.000000	0.024323
1622.000000	0.023968
1621.000000	0.023634
1620.000000	0.023158
1619.000000	0.022881
1618.000000	0.022730
1617.000000	0.022327
1616.000000	0.022035
1615.000000	0.021706
1614.000000	0.021398
1613.000000	0.021078
1612.000000	0.020758
1611.000000	0.020450
1610.000000	0.020129
1609.000000	0.019808
1608.000000	0.019525
1607.000000	0.019248
1606.000000	0.018998
1605.000000	0.018769
1604.000000	0.018562
1603.000000	0.018374
1602.000000	0.018203
1601.000000	0.018039
1600.000000	0.017868
1599.000000	0.017694
1598.000000	0.017529
1597.000000	0.017379
1596.000000	0.017244
1595.000000	0.017124
1594.000000	0.017030
1593.000000	0.016966
1592.000000	0.016926
1591.000000	0.016904
1590.000000	0.016895
1589.000000	0.016894
1588.000000	0.016906
1587.000000	0.016951
1586.000000	0.017046
1585.000000	0.017188
1584.000000	0.017364
1583.000000	0.017580
1582.000000	0.017837
1581.000000	0.018100
1580.000000	0.018293
1579.000000	0.018368
1578.000000	0.018371
1577.000000	0.018416
1576.000000	0.018570
1575.000000	0.018815
1574.000000	0.019080
1573.000000	0.019275
1572.000000	0.019383
1571.000000	0.019455
1570.000000	0.019526
1569.000000	0.019590
1568.000000	0.019657
1567.000000	0.019767
1566.000000	0.019930
1565.000000	0.020097
1564.000000	0.020188
1563.000000	0.020156
1562.000000	0.020068
1561.000000	0.020144
1560.000000	0.020510
1559.000000	0.021104
1558.000000	0.021643
1557.000000	0.021976
1556.000000	0.022280
1555.000000	0.022622
1554.000000	0.022990
1553.000000	0.023353
1552.000000	0.023707
1551.000000	0.024064
1550.000000	0.024428
1549.000000	0.024771
1548.000000	0.025065
1547.000000	0.025341
1546.000000	0.025637
1545.000000	0.025951
1544.000000	0.026242
1543.000000	0.026477
1542.000000	0.026661
1541.000000	0.026845
1540.000000	0.027023
1539.000000	0.027097
1538.000000	0.027094
1537.000000	0.027096
1536.000000	0.027044
1535.000000	0.026894
1534.000000	0.026648
1533.000000	0.026351
1532.000000	0.026073
1531.000000	0.025838
1530.000000	0.025638
1529.000000	0.025453
1528.000000	0.025257
1527.000000	0.025042
1526.000000	0.024810
1525.000000	0.024561
1524.000000	0.024292
1523.000000	0.024007
1522.000000	0.023748
1521.000000	0.023586
1520.000000	0.023565
1519.000000	0.023632
1518.000000	0.023673
1517.000000	0.023618
1516.000000	0.023472
1515.000000	0.023281
1514.000000	0.023085
1513.000000	0.022897
1512.000000	0.022697
1511.000000	0.022444
1510.000000	0.022110
1509.000000	0.021707
1508.000000	0.021274
1507.000000	0.020867
1506.000000	0.020539
1505.000000	0.020374
1504.000000	0.020409
1503.000000	0.020471
1502.000000	0.020426
1501.000000	0.020284
1500.000000	0.020090
1499.000000	0.019848
1498.000000	0.019559
1497.000000	0.019283
1496.000000	0.019085
1495.000000	0.018978
1494.000000	0.018942
1493.000000	0.018943
1492.000000	0.018940
1491.000000	0.018878
1490.000000	0.018748
1489.000000	0.018630
1488.000000	0.018577
1487.000000	0.018561
1486.000000	0.018575
1485.000000	0.018649
1484.000000	0.018798
1483.000000	0.018999
1482.000000	0.019221
1481.000000	0.019465
1480.000000	0.019739
1479.000000	0.020043
1478.000000	0.020367
1477.000000	0.020698
1476.000000	0.021010
1475.000000	0.021317
1474.000000	0.021690
1473.000000	0.022169
1472.000000	0.022684
1471.000000	0.023137
1470.000000	0.023539
1469.000000	0.023932
1468.000000	0.024313
1467.000000	0.024656
1466.000000	0.024947
1465.000000	0.025179
1464.000000	0.025356
1463.000000	0.025498
1462.000000	0.025637
1461.000000	0.025770
1460.000000	0.025855
1459.000000	0.025885
1458.000000	0.025931
1457.000000	0.026082
1456.000000	0.026357
1455.000000	0.026735
1454.000000	0.027136
1453.000000	0.027452
1452.000000	0.027659
1451.000000	0.027795
1450.000000	0.027908
1449.000000	0.028026
1448.000000	0.028139
1447.000000	0.028239
1446.000000	0.028341
1445.000000	0.028454
1444.000000	0.028569
1443.000000	0.028663
1442.000000	0.028737
1441.000000	0.028812
1440.000000	0.028893
1439.000000	0.028978
1438.000000	0.029070
1437.000000	0.029154
1436.000000	0.029220
1435.000000	0.029301
1434.000000	0.029413
1433.000000	0.029518
1432.000000	0.029575
1431.000000	0.029583
1430.000000	0.029577
1429.000000	0.029605
1428.000000	0.029683
1427.000000	0.029799
1426.000000	0.029931
1425.000000	0.030037
1424.000000	0.030084
1423.000000	0.030073
1422.000000	0.030048
1421.000000	0.030049
1420.000000	0.030058
1419.000000	0.030034
1418.000000	0.030016
1417.000000	0.030044
1416.000000	0.030070
1415.000000	0.030042
1414.000000	0.029968
1413.000000	0.029876
1412.000000	0.029763
1411.000000	0.029625
1410.000000	0.029483
1409.000000	0.029367
1408.000000	0.029267
1407.000000	0.029150
1406.000000	0.029004
1405.000000	0.028837
1404.000000	0.028666
1403.000000	0.028512
1402.000000	0.028391
1401.000000	0.028285
1400.000000	0.028145
1399.000000	0.027961
1398.000000	0.027779
1397.000000	0.027619
1396.000000	0.027434
1395.000000	0.027203
1394.000000	0.026993
1393.000000	0.026883
1392.000000	0.026859
1391.000000	0.026842
1390.000000	0.026771
1389.000000	0.026640
1388.000000	0.026458
1387.000000	0.026251
1386.000000	0.026068
1385.000000	0.025929
1384.000000	0.025800
1383.000000	0.025644
1382.000000	0.025471
1381.000000	0.025314
1380.000000	0.025171
1379.000000	0.025012
1378.000000	0.024820
1377.000000	0.024604
1376.000000	0.024372
1375.000000	0.024122
1374.000000	0.023866
1373.000000	0.023625
1372.000000	0.023406
1371.000000	0.023203
1370.000000	0.023006
1369.000000	0.022802
1368.000000	0.022584
1367.000000	0.022358
1366.000000	0.022139
1365.000000	0.021930
1364.000000	0.021716
1363.000000	0.021493
1362.000000	0.021280
1361.000000	0.021095
1360.000000	0.020944
1359.000000	0.020823
1358.000000	0.020723
1357.000000	0.020627
1356.000000	0.020526
1355.000000	0.020424
1354.000000	0.020335
1353.000000	0.020270
1352.000000	0.020224
1351.000000	0.020192
1350.000000	0.020173
1349.000000	0.020160
1348.000000	0.020145
1347.000000	0.020139
1346.000000	0.020161
1345.000000	0.020214
1344.000000	0.020275
1343.000000	0.020320
1342.000000	0.020348
1341.000000	0.020373
1340.000000	0.020419
1339.000000	0.020500
1338.000000	0.020613
1337.000000	0.020732
1336.000000	0.020828
1335.000000	0.020880
1334.000000	0.020884
1333.000000	0.020842
1332.000000	0.020757
1331.000000	0.020640
1330.000000	0.020512
1329.000000	0.020389
1328.000000	0.020272
1327.000000	0.020157
1326.000000	0.020043
1325.000000	0.019934
1324.000000	0.019828
1323.000000	0.019724
1322.000000	0.019627
1321.000000	0.019536
1320.000000	0.019444
1319.000000	0.019345
1318.000000	0.019246
1317.000000	0.019152
1316.000000	0.019055
1315.000000	0.018941
1314.000000	0.018804
1313.000000	0.018650
1312.000000	0.018493
1311.000000	0.018342
1310.000000	0.018199
1309.000000	0.018057
1308.000000	0.017910
1307.000000	0.017764
1306.000000	0.017630
1305.000000	0.017509
1304.000000	0.017394
1303.000000	0.017280
1302.000000	0.017170
1301.000000	0.017068
1300.000000	0.016967
1299.000000	0.016860
1298.000000	0.016748
1297.000000	0.016641
1296.000000	0.016547
1295.000000	0.016468
1294.000000	0.016414
1293.000000	0.016384
1292.000000	0.016369
1291.000000	0.016356
1290.000000	0.016343
1289.000000	0.016341
1288.000000	0.016358
1287.000000	0.016387
1286.000000	0.016414
1285.000000	0.016429
1284.000000	0.016432
1283.000000	0.016426
1282.000000	0.016422
1281.000000	0.016430
1280.000000	0.016452
1279.000000	0.016479
1278.000000	0.016496
1277.000000	0.016496
1276.000000	0.016485
1275.000000	0.016481
1274.000000	0.016502
1273.000000	0.016553
1272.000000	0.016631
1271.000000	0.016730
1270.000000	0.016847
1269.000000	0.016987
1268.000000	0.017154
1267.000000	0.017345
1266.000000	0.017551
1265.000000	0.017757
1264.000000	0.017950
1263.000000	0.018124
1262.000000	0.018286
1261.000000	0.018446
1260.000000	0.018605
1259.000000	0.018754
1258.000000	0.018893
1257.000000	0.019029
1256.000000	0.019166
1255.000000	0.019296
1254.000000	0.019399
1253.000000	0.019471
1252.000000	0.019532
1251.000000	0.019616
1250.000000	0.019752
1249.000000	0.019934
1248.000000	0.020129
1247.000000	0.020303
1246.000000	0.020446
1245.000000	0.020571
1244.000000	0.020690
1243.000000	0.020812
1242.000000	0.020946
1241.000000	0.021092
1240.000000	0.021228
1239.000000	0.021325
1238.000000	0.021371
1237.000000	0.021377
1236.000000	0.021361
1235.000000	0.021322
1234.000000	0.021253
1233.000000	0.021154
1232.000000	0.021031
1231.000000	0.020884
1230.000000	0.020710
1229.000000	0.020500
1228.000000	0.020255
1227.000000	0.019983
1226.000000	0.019701
1225.000000	0.019416
1224.000000	0.019124
1223.000000	0.018818
1222.000000	0.018498
1221.000000	0.018182
1220.000000	0.017887
1219.000000	0.017627
1218.000000	0.017402
1217.000000	0.017206
1216.000000	0.017033
1215.000000	0.016885
1214.000000	0.016775
1213.000000	0.016706
1212.000000	0.016675
1211.000000	0.016672
1210.000000	0.016693
1209.000000	0.016738
1208.000000	0.016802
1207.000000	0.016873
1206.000000	0.016941
1205.000000	0.017002
1204.000000	0.017049
1203.000000	0.017079
1202.000000	0.017087
1201.000000	0.017075
1200.000000	0.017051
1199.000000	0.017023
1198.000000	0.016991
1197.000000	0.016948
1196.000000	0.016887
1195.000000	0.016813
1194.000000	0.016742
1193.000000	0.016685
1192.000000	0.016640
1191.000000	0.016601
1190.000000	0.016565
1189.000000	0.016531
1188.000000	0.016497
1187.000000	0.016472
1186.000000	0.016479
1185.000000	0.016535
1184.000000	0.016632
1183.000000	0.016738
1182.000000	0.016826
1181.000000	0.016901
1180.000000	0.016984
1179.000000	0.017094
1178.000000	0.017231
1177.000000	0.017388
1176.000000	0.017554
1175.000000	0.017719
1174.000000	0.017876
1173.000000	0.018026
1172.000000	0.018175
1171.000000	0.018322
1170.000000	0.018465
1169.000000	0.018602
1168.000000	0.018742
1167.000000	0.018892
1166.000000	0.019045
1165.000000	0.019184
1164.000000	0.019292
1163.000000	0.019360
1162.000000	0.019391
1161.000000	0.019387
1160.000000	0.019354
1159.000000	0.019300
1158.000000	0.019228
1157.000000	0.019124
1156.000000	0.018976
1155.000000	0.018790
1154.000000	0.018584
1153.000000	0.018364
1152.000000	0.018110
1151.000000	0.017809
1150.000000	0.017479
1149.000000	0.017149
1148.000000	0.016831
1147.000000	0.016518
1146.000000	0.016200
1145.000000	0.015876
1144.000000	0.015553
1143.000000	0.015244
1142.000000	0.014964
1141.000000	0.014720
1140.000000	0.014501
1139.000000	0.014296
1138.000000	0.014102
1137.000000	0.013926
1136.000000	0.013766
1135.000000	0.013620
1134.000000	0.013493
1133.000000	0.013401
1132.000000	0.013355
1131.000000	0.013347
1130.000000	0.013364
1129.000000	0.013390
1128.000000	0.013419
1127.000000	0.013447
1126.000000	0.013477
1125.000000	0.013518
1124.000000	0.013575
1123.000000	0.013649
1122.000000	0.013741
1121.000000	0.013850
1120.000000	0.013974
1119.000000	0.014108
1118.000000	0.014259
1117.000000	0.014447
1116.000000	0.014681
1115.000000	0.014943
1114.000000	0.015204
1113.000000	0.015446
1112.000000	0.015664
1111.000000	0.015857
1110.000000	0.016017
1109.000000	0.016137
1108.000000	0.016218
1107.000000	0.016265
1106.000000	0.016290
1105.000000	0.016313
1104.000000	0.016348
1103.000000	0.016388
1102.000000	0.016417
1101.000000	0.016425
1100.000000	0.016423
1099.000000	0.016431
1098.000000	0.016455
1097.000000	0.016494
1096.000000	0.016536
1095.000000	0.016580
1094.000000	0.016625
1093.000000	0.016663
1092.000000	0.016677
1091.000000	0.016648
1090.000000	0.016579
1089.000000	0.016494
1088.000000	0.016415
1087.000000	0.016341
1086.000000	0.016254
1085.000000	0.016147
1084.000000	0.016027
1083.000000	0.015909
1082.000000	0.015799
1081.000000	0.015688
1080.000000	0.015558
1079.000000	0.015398
1078.000000	0.015212
1077.000000	0.015023
1076.000000	0.014849
1075.000000	0.014692
1074.000000	0.014543
1073.000000	0.014411
1072.000000	0.014319
1071.000000	0.014279
1070.000000	0.014263
1069.000000	0.014224
1068.000000	0.014148
1067.000000	0.014082
1066.000000	0.014092
1065.000000	0.014204
1064.000000	0.014384
1063.000000	0.014574
1062.000000	0.014727
1061.000000	0.014814
1060.000000	0.014827
1059.000000	0.014787
1058.000000	0.014737
1057.000000	0.014713
1056.000000	0.014716
1055.000000	0.014716
1054.000000	0.014691
1053.000000	0.014652
1052.000000	0.014616
1051.000000	0.014593
1050.000000	0.014584
1049.000000	0.014599
1048.000000	0.014642
1047.000000	0.014706
1046.000000	0.014777
1045.000000	0.014849
1044.000000	0.014927
1043.000000	0.015018
1042.000000	0.015135
1041.000000	0.015293
1040.000000	0.015498
1039.000000	0.015741
1038.000000	0.016005
1037.000000	0.016280
1036.000000	0.016555
1035.000000	0.016809
1034.000000	0.017021
1033.000000	0.017184
1032.000000	0.017305
1031.000000	0.017379
1030.000000	0.017390
1029.000000	0.017344
1028.000000	0.017269
1027.000000	0.017197
1026.000000	0.017131
1025.000000	0.017052
1024.000000	0.016954
1023.000000	0.016845
1022.000000	0.016738
1021.000000	0.016632
1020.000000	0.016522
1019.000000	0.016415
1018.000000	0.016326
1017.000000	0.016255
1016.000000	0.016191
1015.000000	0.016120
1014.000000	0.016034
1013.000000	0.015939
1012.000000	0.015839
1011.000000	0.015731
1010.000000	0.015609
1009.000000	0.015463
1008.000000	0.015288
1007.000000	0.015086
1006.000000	0.014876
1005.000000	0.014677
1004.000000	0.014502
1003.000000	0.014348
1002.000000	0.014199
1001.000000	0.014039
1000.000000	0.013857
999.000000	0.013659
998.000000	0.013458
997.000000	0.013269
996.000000	0.013100
995.000000	0.012948
994.000000	0.012811
993.000000	0.012689
992.000000	0.012588
991.000000	0.012501
990.000000	0.012407
989.000000	0.012281
988.000000	0.012119
987.000000	0.011947
986.000000	0.011794
985.000000	0.011676
984.000000	0.011587
983.000000	0.011511
982.000000	0.011436
981.000000	0.011359
980.000000	0.011287
979.000000	0.011231
978.000000	0.011195
977.000000	0.011173
976.000000	0.011160
975.000000	0.011146
974.000000	0.011123
973.000000	0.011083
972.000000	0.011020
971.000000	0.010939
970.000000	0.010853
969.000000	0.010776
968.000000	0.010712
967.000000	0.010649
966.000000	0.010569
965.000000	0.010467
964.000000	0.010362
963.000000	0.010272
962.000000	0.010191
961.000000	0.010096
960.000000	0.009981
959.000000	0.009864
958.000000	0.009761
957.000000	0.009664
956.000000	0.009556
955.000000	0.009434
954.000000	0.009307
953.000000	0.009181
952.000000	0.009061
951.000000	0.008950
950.000000	0.008843
949.000000	0.008724
948.000000	0.008589
947.000000	0.008457
946.000000	0.008356
945.000000	0.008297
944.000000	0.008262
943.000000	0.008229
942.000000	0.008184
941.000000	0.008124
940.000000	0.008058
939.000000	0.007996
938.000000	0.007947
937.000000	0.007900
936.000000	0.007838
935.000000	0.007754
934.000000	0.007654
933.000000	0.007550
932.000000	0.007447
931.000000	0.007347
930.000000	0.007252
929.000000	0.007164
928.000000	0.007084
927.000000	0.007014
926.000000	0.006949
925.000000	0.006887
924.000000	0.006832
923.000000	0.006789
922.000000	0.006757
921.000000	0.006718
920.000000	0.006664
919.000000	0.006606
918.000000	0.006561
917.000000	0.006520
916.000000	0.006461
915.000000	0.006376
914.000000	0.006285
913.000000	0.006202
912.000000	0.006117
911.000000	0.006018
910.000000	0.005914
909.000000	0.005825
908.000000	0.005757
907.000000	0.005698
906.000000	0.005637
905.000000	0.005574
904.000000	0.005508
903.000000	0.005429
902.000000	0.005334
901.000000	0.005237
900.000000	0.005158
899.000000	0.005100
898.000000	0.005047
897.000000	0.004987
896.000000	0.004929
895.000000	0.004891
894.000000	0.004875
893.000000	0.004862
892.000000	0.004836
891.000000	0.004801
890.000000	0.004795
889.000000	0.004865
888.000000	0.005064
887.000000	0.005432
886.000000	0.005976
885.000000	0.006649
884.000000	0.007371
883.000000	0.008077
882.000000	0.008763
881.000000	0.009484
880.000000	0.010303
879.000000	0.011231
878.000000	0.012210
877.000000	0.013138
876.000000	0.013910
875.000000	0.014439
874.000000	0.014671
873.000000	0.014583
872.000000	0.014171
871.000000	0.013452
870.000000	0.012493
869.000000	0.011432
868.000000	0.010434
867.000000	0.009612
866.000000	0.008977
865.000000	0.008463
864.000000	0.008004
863.000000	0.007578
862.000000	0.007194
861.000000	0.006870
860.000000	0.006620
859.000000	0.006450
858.000000	0.006332
857.000000	0.006215
856.000000	0.006070
855.000000	0.005917
854.000000	0.005798
853.000000	0.005732
852.000000	0.005713
851.000000	0.005734
850.000000	0.005794
849.000000	0.005866
848.000000	0.005895
847.000000	0.005845
846.000000	0.005727
845.000000	0.005586
844.000000	0.005464
843.000000	0.005379
842.000000	0.005326
841.000000	0.005289
840.000000	0.005251
839.000000	0.005205
838.000000	0.005166
837.000000	0.005154
836.000000	0.005169
835.000000	0.005186
834.000000	0.005177
833.000000	0.005142
832.000000	0.005098
831.000000	0.005063
830.000000	0.005036
829.000000	0.005004
828.000000	0.004956
827.000000	0.004900
826.000000	0.004861
825.000000	0.004863
824.000000	0.004903
823.000000	0.004949
822.000000	0.004970
821.000000	0.004953
820.000000	0.004905
819.000000	0.004849
818.000000	0.004809
817.000000	0.004804
816.000000	0.004833
815.000000	0.004873
814.000000	0.004901
813.000000	0.004922
812.000000	0.004955
811.000000	0.004995
810.000000	0.005005
809.000000	0.004955
808.000000	0.004873
807.000000	0.004816
806.000000	0.004816
805.000000	0.004852
804.000000	0.004886
803.000000	0.004906
802.000000	0.004924
801.000000	0.004940
800.000000	0.004940
799.000000	0.004922
798.000000	0.004906
797.000000	0.004909
796.000000	0.004931
795.000000	0.004952
794.000000	0.004964
793.000000	0.004969
792.000000	0.004964
791.000000	0.004938
790.000000	0.004892
789.000000	0.004853
788.000000	0.004852
787.000000	0.004885
786.000000	0.004916
785.000000	0.004923
784.000000	0.004921
783.000000	0.004940
782.000000	0.004975
781.000000	0.004993
780.000000	0.004973
779.000000	0.004936
778.000000	0.004919
777.000000	0.004930
776.000000	0.004950
775.000000	0.004964
774.000000	0.004972
773.000000	0.004978
772.000000	0.004974
771.000000	0.004952
770.000000	0.004921
769.000000	0.004902
768.000000	0.004903
767.000000	0.004909
766.000000	0.004905
765.000000	0.004896
764.000000	0.004904
763.000000	0.004936
762.000000	0.004981
761.000000	0.005020
760.000000	0.005042
759.000000	0.005047
758.000000	0.005044
757.000000	0.005050
756.000000	0.005071
755.000000	0.005098
754.000000	0.005109
753.000000	0.005101
752.000000	0.005092
751.000000	0.005095
750.000000	0.005106
749.000000	0.005106
748.000000	0.005093
747.000000	0.005082
746.000000	0.005088
745.000000	0.005115
744.000000	0.005153
743.000000	0.005185
742.000000	0.005184
741.000000	0.005139
740.000000	0.005069
739.000000	0.005023
738.000000	0.005033
737.000000	0.005088
736.000000	0.005146
735.000000	0.005177
734.000000	0.005186
733.000000	0.005215
732.000000	0.005303
731.000000	0.005446
730.000000	0.005602
729.000000	0.005731
728.000000	0.005839
727.000000	0.005949
726.000000	0.006071
725.000000	0.006191
724.000000	0.006299
723.000000	0.006407
722.000000	0.006533
721.000000	0.006674
720.000000	0.006814
719.000000	0.006953
718.000000	0.007135
717.000000	0.007435
716.000000	0.007914
715.000000	0.008550
714.000000	0.009206
713.000000	0.009682
712.000000	0.009834
711.000000	0.009661
710.000000	0.009286
709.000000	0.008873
708.000000	0.008541
707.000000	0.008335
706.000000	0.008246
705.000000	0.008237
704.000000	0.008265
703.000000	0.008308
702.000000	0.008366
701.000000	0.008436
700.000000	0.008509
699.000000	0.008575
698.000000	0.008636
697.000000	0.008691
696.000000	0.008729
695.000000	0.008749
694.000000	0.008767
693.000000	0.008791
692.000000	0.008807
691.000000	0.008793
690.000000	0.008754
689.000000	0.008725
688.000000	0.008736
687.000000	0.008795
686.000000	0.008878
685.000000	0.008940
684.000000	0.008953
683.000000	0.008919
682.000000	0.008857
681.000000	0.008789
680.000000	0.008742
679.000000	0.008740
678.000000	0.008789
677.000000	0.008883
676.000000	0.008992
675.000000	0.009063
674.000000	0.009051
673.000000	0.008952
672.000000	0.008802
671.000000	0.008637
670.000000	0.008467
669.000000	0.008337
668.000000	0.008466
667.000000	0.008793
666.000000	0.008873
665.000000	0.008810
664.000000	0.008811
663.000000	0.008867
662.000000	0.008915
661.000000	0.008938
660.000000	0.008953
659.000000	0.008950
658.000000	0.008922
657.000000	0.008910
656.000000	0.008935
655.000000	0.008954
654.000000	0.008950
653.000000	0.008975
652.000000	0.009048
651.000000	0.009104
650.000000	0.009110
649.000000	0.009134
648.000000	0.009236
647.000000	0.009370
646.000000	0.009476
645.000000	0.009574
644.000000	0.009710
643.000000	0.009868
642.000000	0.010011
641.000000	0.010144
640.000000	0.010276
639.000000	0.010367
638.000000	0.010380
637.000000	0.010357
636.000000	0.010354
635.000000	0.010363
634.000000	0.010358
633.000000	0.010354
632.000000	0.010374
631.000000	0.010391
630.000000	0.010378
629.000000	0.010383
628.000000	0.010470
627.000000	0.010611
626.000000	0.010708
625.000000	0.010706
624.000000	0.010652
623.000000	0.010629
622.000000	0.010680
621.000000	0.010778
620.000000	0.010862
619.000000	0.010888
618.000000	0.010882
617.000000	0.010909
616.000000	0.010980
615.000000	0.011047
614.000000	0.011077
613.000000	0.011102
612.000000	0.011145
611.000000	0.011176
610.000000	0.011176
609.000000	0.011177
608.000000	0.011198
607.000000	0.011190
606.000000	0.011114
605.000000	0.011020
604.000000	0.010968
603.000000	0.010938
602.000000	0.010862
601.000000	0.010735
600.000000	0.010608
599.000000	0.010495
598.000000	0.010361
597.000000	0.010199
596.000000	0.010039
595.000000	0.009879
594.000000	0.009679
593.000000	0.009433
592.000000	0.009206
591.000000	0.009066
590.000000	0.009027
589.000000	0.009052
588.000000	0.009089
587.000000	0.009108
586.000000	0.009118
585.000000	0.009162
584.000000	0.009251
583.000000	0.009316
582.000000	0.009283
581.000000	0.009184
580.000000	0.009130
579.000000	0.009171
578.000000	0.009233
577.000000	0.009219
576.000000	0.009117
575.000000	0.009000
574.000000	0.008939
573.000000	0.008957
572.000000	0.009039
571.000000	0.009160
570.000000	0.009297
569.000000	0.009424
568.000000	0.009498
567.000000	0.009484
566.000000	0.009400
565.000000	0.009323
564.000000	0.009317
563.000000	0.009400
562.000000	0.009569
561.000000	0.009820
560.000000	0.010103
559.000000	0.010320
558.000000	0.010408
557.000000	0.010404
556.000000	0.010374
555.000000	0.010324
554.000000	0.010225
553.000000	0.010101
552.000000	0.010008
551.000000	0.009968
550.000000	0.009974
549.000000	0.010020
548.000000	0.010080
547.000000	0.010092
546.000000	0.010025
545.000000	0.009946
544.000000	0.009918
543.000000	0.009905
542.000000	0.009837
541.000000	0.009747
540.000000	0.009750
539.000000	0.009883
538.000000	0.010062
537.000000	0.010213
536.000000	0.010345
535.000000	0.010486
534.000000	0.010606
533.000000	0.010656
532.000000	0.010637
531.000000	0.010603
530.000000	0.010593
529.000000	0.010589
528.000000	0.010523
527.000000	0.010361
526.000000	0.010180
525.000000	0.010120
524.000000	0.010209
523.000000	0.010319
522.000000	0.010305
521.000000	0.010133
520.000000	0.009852
519.000000	0.009537
518.000000	0.009294
517.000000	0.009219
516.000000	0.009271
515.000000	0.009274
514.000000	0.009123
513.000000	0.008906
512.000000	0.008752
511.000000	0.008656
510.000000	0.008534
509.000000	0.008401
508.000000	0.008349
507.000000	0.008379
506.000000	0.008385
505.000000	0.008315
504.000000	0.008223
503.000000	0.008155
502.000000	0.008106
501.000000	0.008080
500.000000	0.008101
499.000000	0.008142
498.000000	0.008139
497.000000	0.008082
496.000000	0.008011
495.000000	0.007929
494.000000	0.007806
493.000000	0.007679
492.000000	0.007629
491.000000	0.007655
490.000000	0.007662
489.000000	0.007614
488.000000	0.007593
487.000000	0.007652
486.000000	0.007733
485.000000	0.007771
484.000000	0.007807
483.000000	0.007931
482.000000	0.008146
481.000000	0.008374
480.000000	0.008537
479.000000	0.008602
478.000000	0.008559
477.000000	0.008442
476.000000	0.008316
475.000000	0.008249
474.000000	0.008290
473.000000	0.008450
472.000000	0.008671
471.000000	0.008846
470.000000	0.008920
469.000000	0.008921
468.000000	0.008856
467.000000	0.008675
466.000000	0.008387
465.000000	0.008101
464.000000	0.007877
463.000000	0.007625
462.000000	0.007245
461.000000	0.006818
460.000000	0.006527
459.000000	0.006445
458.000000	0.006475
457.000000	0.006484
456.000000	0.006413
455.000000	0.006245
454.000000	0.005975
453.000000	0.005643
452.000000	0.005307
451.000000	0.004975
450.000000	0.004650
