PE UV       SUBTECH     SPECTRUM    ASCII       PEDS        4.00        
   -1
chevre_side2_watered.Sample.asc
24/02/16
16:47:00.00
24/02/16
16:47:00.00
Administrator

250.000000
1
Lambda 750
750N8071901
PerkinElmer UV WinLab 6.0.4.0738 / 1.61.00 Lambda 900

0
0
3350/servo 860.8/2
0
0
UV/VIS
1
1
1
CommonBeamDepol,150mm sphere / downward view
0
0
0
0
Program
Program
3350/servo 860.8/2
3350/0.2 860.8/0.2
3350/0.2 860.8/0.2
0
1
 
 
 
0
 
860.8
319.2
860.8
Front
100
on
 
 
0
0
0
 
0
 
 
 
0
 
 
0
0
0
0
0
 
 
 
 
0
0


0
0
#HDR
-1
-1
#GR
nm
%R
1.0
0.0
2500.000000
-10.000000
226
8
50.184295
-6.900838
#DATA
2500.000000	-4.398041
2490.000000	-6.900838
2480.000000	4.746472
2470.000000	3.999780
2460.000000	-3.561896
2450.000000	2.788046
2440.000000	2.781140
2430.000000	-0.991850
2420.000000	3.705481
2410.000000	1.206194
2400.000000	5.806719
2390.000000	1.766618
2380.000000	1.730164
2370.000000	1.619375
2360.000000	3.484998
2350.000000	5.286913
2340.000000	2.967219
2330.000000	2.691137
2320.000000	2.480930
2310.000000	3.870569
2300.000000	1.509658
2290.000000	4.581462
2280.000000	4.523769
2270.000000	3.276785
2260.000000	4.725794
2250.000000	7.103658
2240.000000	6.240388
2230.000000	5.526598
2220.000000	5.059637
2210.000000	5.937543
2200.000000	3.878766
2190.000000	3.232875
2180.000000	6.629823
2170.000000	5.096936
2160.000000	4.922725
2150.000000	8.122231
2140.000000	8.393576
2130.000000	6.319430
2120.000000	5.893523
2110.000000	8.085672
2100.000000	6.838123
2090.000000	6.961677
2080.000000	4.816950
2070.000000	4.821913
2060.000000	3.986129
2050.000000	3.959288
2040.000000	4.774738
2030.000000	4.909718
2020.000000	4.813117
2010.000000	3.846073
2000.000000	3.234442
1990.000000	2.447632
1980.000000	2.108782
1970.000000	1.868684
1960.000000	1.029113
1950.000000	1.905421
1940.000000	2.526314
1930.000000	4.784086
1920.000000	8.677129
1910.000000	13.829247
1900.000000	17.988244
1890.000000	21.808066
1880.000000	24.074484
1870.000000	25.929530
1860.000000	25.292696
1850.000000	24.851912
1840.000000	24.297419
1830.000000	24.540451
1820.000000	23.981425
1810.000000	23.878278
1800.000000	23.298877
1790.000000	22.626789
1780.000000	21.629508
1770.000000	21.781531
1760.000000	21.004636
1750.000000	20.245924
1740.000000	20.350144
1730.000000	22.109158
1720.000000	22.849696
1710.000000	23.860738
1700.000000	24.758481
1690.000000	27.066819
1680.000000	28.536860
1670.000000	29.188806
1660.000000	29.256146
1650.000000	28.995473
1640.000000	28.437206
1630.000000	27.637269
1620.000000	26.748017
1610.000000	26.020334
1600.000000	24.983821
1590.000000	24.563350
1580.000000	23.966315
1570.000000	23.392933
1560.000000	22.601767
1550.000000	21.941036
1540.000000	20.880139
1530.000000	20.240408
1520.000000	19.845275
1510.000000	19.526274
1500.000000	19.429897
1490.000000	19.540999
1480.000000	19.719427
1470.000000	20.333375
1460.000000	21.031705
1450.000000	22.336718
1440.000000	24.061238
1430.000000	26.369677
1420.000000	29.719539
1410.000000	33.492546
1400.000000	36.745063
1390.000000	38.519386
1380.000000	39.307135
1370.000000	40.646857
1360.000000	41.759060
1350.000000	42.224394
1340.000000	42.793899
1330.000000	43.805171
1320.000000	44.596922
1310.000000	45.270884
1300.000000	45.286814
1290.000000	45.341331
1280.000000	44.989112
1270.000000	44.779161
1260.000000	44.491341
1250.000000	44.181934
1240.000000	43.777547
1230.000000	43.420499
1220.000000	42.481719
1210.000000	42.323175
1200.000000	42.509965
1190.000000	43.178646
1180.000000	44.165768
1170.000000	45.562426
1160.000000	46.515939
1150.000000	47.506355
1140.000000	47.971662
1130.000000	48.372640
1120.000000	48.376150
1110.000000	48.510966
1100.000000	48.686518
1090.000000	48.571429
1080.000000	48.610755
1070.000000	48.449191
1060.000000	48.305262
1050.000000	48.141379
1040.000000	47.913646
1030.000000	47.760871
1020.000000	47.949692
1010.000000	48.613164
1000.000000	48.756669
990.000000	48.817016
980.000000	48.662814
970.000000	49.025929
960.000000	49.275449
950.000000	49.599419
940.000000	49.296526
930.000000	48.793489
920.000000	49.510433
910.000000	49.830989
900.000000	50.184295
890.000000	49.434350
880.000000	49.290351
870.000000	49.336361
860.000000	48.615145
850.000000	49.097305
840.000000	48.718339
830.000000	49.091451
820.000000	49.421131
810.000000	48.994057
800.000000	49.031179
790.000000	48.813110
780.000000	49.128185
770.000000	49.082694
760.000000	48.635210
750.000000	48.641775
740.000000	48.533235
730.000000	48.609041
720.000000	48.343095
710.000000	48.241003
700.000000	48.092499
690.000000	47.917981
680.000000	47.677309
670.000000	47.498610
660.000000	47.265403
650.000000	46.974011
640.000000	46.433331
630.000000	46.191976
620.000000	45.859538
610.000000	45.307548
600.000000	44.888536
590.000000	44.368545
580.000000	43.721873
570.000000	42.977881
560.000000	42.343358
550.000000	41.425772
540.000000	40.505920
530.000000	39.458410
520.000000	38.376322
510.000000	37.142358
500.000000	35.787880
490.000000	34.263334
480.000000	32.475280
470.000000	30.745640
460.000000	28.830460
450.000000	26.474213
440.000000	24.230604
430.000000	21.692403
420.000000	19.040755
410.000000	16.376753
400.000000	13.672176
390.000000	11.750000
380.000000	9.634808
370.000000	8.141440
360.000000	7.313913
350.000000	7.116221
340.000000	6.049349
330.000000	5.165633
320.000000	6.408752
310.000000	5.503395
300.000000	3.675043
290.000000	3.585167
280.000000	3.675167
270.000000	3.666423
260.000000	4.111663
250.000000	4.715177
