PE UV       SUBTECH     SPECTRUM    ASCII       PEDS        4.00        
   -1
parch_reconsitue6_side1.asc
24/02/16
17:05:47.00
24/02/16
17:05:47.00
Administrator

250.000000
1
Lambda 750
750N8071901
PerkinElmer UV WinLab 6.0.4.0738 / 1.61.00 Lambda 900

0
0
3350/servo 860.8/2
0
0
UV/VIS
1
1
1
CommonBeamDepol,150mm sphere / downward view
0
0
0
0
Program
Program
3350/servo 860.8/2
3350/0.2 860.8/0.2
3350/0.2 860.8/0.2
0
1
 
 
 
0
 
860.8
319.2
860.8
Front
100
on
 
 
0
0
0
 
0
 
 
 
0
 
 
0
0
0
0
0
 
 
 
 
0
0


0
0
#HDR
-1
-1
#GR
nm
%R
1.0
0.0
2500.000000
-10.000000
226
8
26.978816
-5.631097
#DATA
2500.000000	-5.631097
2490.000000	-5.240597
2480.000000	-0.145911
2470.000000	5.348863
2460.000000	2.657198
2450.000000	4.327079
2440.000000	2.009946
2430.000000	4.485521
2420.000000	4.997399
2410.000000	0.703731
2400.000000	1.791276
2390.000000	5.330925
2380.000000	5.529576
2370.000000	-1.782607
2360.000000	5.878487
2350.000000	6.977003
2340.000000	6.403798
2330.000000	3.060427
2320.000000	4.066332
2310.000000	4.491788
2300.000000	4.658470
2290.000000	4.724051
2280.000000	1.285052
2270.000000	4.868859
2260.000000	3.846724
2250.000000	5.093740
2240.000000	5.350776
2230.000000	4.227321
2220.000000	3.095208
2210.000000	5.083734
2200.000000	4.961021
2190.000000	3.988087
2180.000000	5.938319
2170.000000	5.023473
2160.000000	4.032940
2150.000000	5.659672
2140.000000	5.338928
2130.000000	4.367458
2120.000000	4.886916
2110.000000	7.252789
2100.000000	5.739473
2090.000000	5.712004
2080.000000	4.213452
2070.000000	4.652274
2060.000000	3.958918
2050.000000	4.053723
2040.000000	4.170827
2030.000000	4.347796
2020.000000	4.416784
2010.000000	3.337178
2000.000000	3.293777
1990.000000	3.052808
1980.000000	2.163788
1970.000000	2.420955
1960.000000	2.528596
1950.000000	2.072350
1940.000000	2.996162
1930.000000	4.479815
1920.000000	6.902746
1910.000000	8.967745
1900.000000	11.494647
1890.000000	13.641371
1880.000000	15.167652
1870.000000	16.087528
1860.000000	16.364076
1850.000000	15.316957
1840.000000	15.575766
1830.000000	15.766053
1820.000000	15.317617
1810.000000	15.763947
1800.000000	15.148332
1790.000000	14.822834
1780.000000	14.802452
1770.000000	14.755433
1760.000000	14.745440
1750.000000	14.052529
1740.000000	14.305106
1730.000000	15.199442
1720.000000	15.163858
1710.000000	15.517241
1700.000000	16.076287
1690.000000	17.332085
1680.000000	17.682562
1670.000000	18.311767
1660.000000	18.062954
1650.000000	17.959847
1640.000000	17.871672
1630.000000	17.506833
1620.000000	16.848932
1610.000000	16.259412
1600.000000	15.697436
1590.000000	15.672258
1580.000000	15.202700
1570.000000	14.904703
1560.000000	14.638490
1550.000000	14.092973
1540.000000	13.648249
1530.000000	13.199605
1520.000000	12.877801
1510.000000	12.776999
1500.000000	12.626074
1490.000000	12.650469
1480.000000	12.712689
1470.000000	12.933780
1460.000000	13.479929
1450.000000	13.955013
1440.000000	14.931748
1430.000000	16.078042
1420.000000	17.972497
1410.000000	19.818580
1400.000000	21.625874
1390.000000	22.546057
1380.000000	22.933471
1370.000000	23.444108
1360.000000	23.967124
1350.000000	23.936087
1340.000000	24.235656
1330.000000	25.023449
1320.000000	25.465504
1310.000000	25.582532
1300.000000	25.216140
1290.000000	25.428991
1280.000000	25.228716
1270.000000	25.215866
1260.000000	25.089284
1250.000000	24.954406
1240.000000	25.089397
1230.000000	24.777144
1220.000000	24.541426
1210.000000	24.507490
1200.000000	24.404009
1190.000000	24.709443
1180.000000	24.819795
1170.000000	25.448351
1160.000000	25.887262
1150.000000	26.194544
1140.000000	26.566764
1130.000000	26.437626
1120.000000	26.344804
1110.000000	26.342720
1100.000000	26.795159
1090.000000	26.708487
1080.000000	26.567207
1070.000000	26.478997
1060.000000	26.542465
1050.000000	26.343723
1040.000000	26.006758
1030.000000	26.082048
1020.000000	26.039423
1010.000000	26.432633
1000.000000	26.389616
990.000000	26.388251
980.000000	26.107498
970.000000	26.439083
960.000000	26.626097
950.000000	26.978816
940.000000	26.762308
930.000000	26.653373
920.000000	26.500798
910.000000	26.778446
900.000000	26.431550
890.000000	25.846257
880.000000	25.846530
870.000000	25.608722
860.000000	26.580217
850.000000	25.337747
840.000000	25.012039
830.000000	25.169973
820.000000	25.020511
810.000000	24.773882
800.000000	24.836597
790.000000	24.659208
780.000000	24.862304
770.000000	24.636667
760.000000	24.457591
750.000000	24.501652
740.000000	24.594405
730.000000	24.467352
720.000000	24.281401
710.000000	24.323439
700.000000	24.182499
690.000000	24.049211
680.000000	23.870520
670.000000	23.788468
660.000000	23.764562
650.000000	23.588546
640.000000	23.307292
630.000000	23.255314
620.000000	23.086365
610.000000	22.954629
600.000000	22.759673
590.000000	22.712979
580.000000	22.470213
570.000000	22.305517
560.000000	22.120727
550.000000	21.808809
540.000000	21.640088
530.000000	21.366681
520.000000	21.150579
510.000000	20.923412
500.000000	20.582493
490.000000	20.344757
480.000000	19.825978
470.000000	19.545452
460.000000	19.021431
450.000000	18.475139
440.000000	17.981189
430.000000	17.264402
420.000000	16.506254
410.000000	15.890640
400.000000	15.486084
390.000000	15.157475
380.000000	14.801767
370.000000	14.588078
360.000000	14.277309
350.000000	13.458048
340.000000	13.168012
330.000000	12.201541
320.000000	11.443777
310.000000	11.800166
300.000000	7.991112
290.000000	6.339674
280.000000	6.150392
270.000000	6.344536
260.000000	6.699889
250.000000	6.949195
