PE UV       SUBTECH     SPECTRUM    ASCII       PEDS        4.00        
   -1
veau_side2_humidity.Sample.asc
24/02/16
16:24:18.00
24/02/16
16:24:18.00
Administrator

250.000000
1
Lambda 750
750N8071901
PerkinElmer UV WinLab 6.0.4.0738 / 1.61.00 Lambda 900

0
0
3350/servo 860.8/2
0
0
UV/VIS
1
1
1
CommonBeamDepol,150mm sphere / downward view
0
0
0
0
Program
Program
3350/servo 860.8/2
3350/0.2 860.8/0.2
3350/0.2 860.8/0.2
0
1
 
 
 
0
 
860.8
319.2
860.8
Front
100
on
 
 
0
0
0
 
0
 
 
 
0
 
 
0
0
0
0
0
 
 
 
 
0
0


0
0
#HDR
-1
-1
#GR
nm
%R
1.0
0.0
2500.000000
-10.000000
226
8
57.110681
0.358938
#DATA
2500.000000	0.358938
2490.000000	4.833129
2480.000000	8.989988
2470.000000	12.165137
2460.000000	4.890846
2450.000000	8.833348
2440.000000	8.822736
2430.000000	15.121207
2420.000000	15.874646
2410.000000	14.289359
2400.000000	12.738413
2390.000000	11.105491
2380.000000	14.240152
2370.000000	12.088505
2360.000000	13.779866
2350.000000	19.471448
2340.000000	12.072535
2330.000000	13.912236
2320.000000	11.880541
2310.000000	12.699350
2300.000000	11.739207
2290.000000	15.799879
2280.000000	13.160803
2270.000000	16.714367
2260.000000	15.091755
2250.000000	18.534975
2240.000000	18.416352
2230.000000	17.553041
2220.000000	15.833016
2210.000000	16.610158
2200.000000	16.621231
2190.000000	16.502624
2180.000000	17.999631
2170.000000	17.021038
2160.000000	16.484291
2150.000000	19.667174
2140.000000	21.225023
2130.000000	20.000845
2120.000000	19.129066
2110.000000	19.913150
2100.000000	19.337342
2090.000000	17.957422
2080.000000	16.315143
2070.000000	15.570819
2060.000000	14.588130
2050.000000	14.680144
2040.000000	15.532733
2030.000000	15.985339
2020.000000	15.211819
2010.000000	14.418231
2000.000000	13.197711
1990.000000	12.085093
1980.000000	10.430329
1970.000000	10.229030
1960.000000	9.765884
1950.000000	9.720429
1940.000000	12.220984
1930.000000	15.095877
1920.000000	19.485168
1910.000000	25.750799
1900.000000	31.225946
1890.000000	35.761797
1880.000000	38.314197
1870.000000	39.370790
1860.000000	38.856827
1850.000000	39.031109
1840.000000	38.645272
1830.000000	38.457220
1820.000000	37.785452
1810.000000	37.704276
1800.000000	37.413508
1790.000000	37.074547
1780.000000	36.332592
1770.000000	36.242731
1760.000000	35.693862
1750.000000	35.283545
1740.000000	35.690369
1730.000000	36.857111
1720.000000	37.490182
1710.000000	37.922026
1700.000000	38.536866
1690.000000	40.365477
1680.000000	41.684398
1670.000000	42.382252
1660.000000	42.257644
1650.000000	42.136218
1640.000000	41.514917
1630.000000	40.792997
1620.000000	39.756226
1610.000000	38.956938
1600.000000	38.401587
1590.000000	37.709658
1580.000000	37.017086
1570.000000	36.717801
1560.000000	35.832323
1550.000000	34.860112
1540.000000	34.129268
1530.000000	33.358448
1520.000000	33.011452
1510.000000	32.502394
1500.000000	32.316431
1490.000000	32.493788
1480.000000	32.636959
1470.000000	33.102398
1460.000000	34.049718
1450.000000	35.257131
1440.000000	37.024620
1430.000000	39.063691
1420.000000	42.297501
1410.000000	45.595259
1400.000000	48.377661
1390.000000	49.546015
1380.000000	49.943468
1370.000000	50.878718
1360.000000	51.537592
1350.000000	51.675403
1340.000000	51.955971
1330.000000	52.931276
1320.000000	53.414595
1310.000000	53.625334
1300.000000	53.588838
1290.000000	53.560817
1280.000000	53.321692
1270.000000	53.360596
1260.000000	53.057066
1250.000000	52.943574
1240.000000	53.192654
1230.000000	53.205468
1220.000000	52.439326
1210.000000	52.147227
1200.000000	52.221278
1190.000000	52.591175
1180.000000	53.091136
1170.000000	53.996764
1160.000000	54.560131
1150.000000	54.809611
1140.000000	55.250675
1130.000000	55.462162
1120.000000	55.617036
1110.000000	55.420275
1100.000000	55.483717
1090.000000	55.538300
1080.000000	55.419880
1070.000000	55.312764
1060.000000	55.420801
1050.000000	55.320268
1040.000000	55.265625
1030.000000	55.241758
1020.000000	54.969322
1010.000000	55.593313
1000.000000	55.613850
990.000000	55.725861
980.000000	55.775903
970.000000	55.881470
960.000000	56.248508
950.000000	56.496403
940.000000	56.172445
930.000000	55.804482
920.000000	56.204853
910.000000	56.271925
900.000000	56.855206
890.000000	56.796360
880.000000	55.792279
870.000000	57.110681
860.000000	55.541849
850.000000	56.197933
840.000000	56.346734
830.000000	56.817159
820.000000	56.506731
810.000000	56.377030
800.000000	56.479656
790.000000	56.370102
780.000000	56.602912
770.000000	56.760337
760.000000	56.514803
750.000000	56.571090
740.000000	56.498263
730.000000	56.644162
720.000000	56.263849
710.000000	56.478855
700.000000	56.161532
690.000000	56.132492
680.000000	56.024735
670.000000	55.990702
660.000000	55.990311
650.000000	55.859652
640.000000	55.683620
630.000000	55.491699
620.000000	55.414742
610.000000	55.161571
600.000000	55.083078
590.000000	54.861396
580.000000	54.617094
570.000000	54.368481
560.000000	54.200003
550.000000	53.820606
540.000000	53.640697
530.000000	53.088824
520.000000	52.749517
510.000000	52.182274
500.000000	51.629241
490.000000	50.985386
480.000000	50.100275
470.000000	49.157266
460.000000	48.240392
450.000000	46.803186
440.000000	45.388615
430.000000	43.919058
420.000000	41.889163
410.000000	39.865003
400.000000	37.770004
390.000000	35.734681
380.000000	33.460499
370.000000	31.270409
360.000000	27.602589
350.000000	26.033561
340.000000	24.280840
330.000000	20.361761
320.000000	19.331152
310.000000	17.445030
300.000000	14.469302
290.000000	10.516793
280.000000	9.034974
270.000000	9.598752
260.000000	10.585658
250.000000	10.739045
