PE UV       SUBTECH     SPECTRUM    ASCII       PEDS        4.00        
   -1
veau_side1_humidity.Sample.asc
24/02/16
16:16:56.00
24/02/16
16:16:56.00
Administrator

250.000000
1
Lambda 750
750N8071901
PerkinElmer UV WinLab 6.0.4.0738 / 1.61.00 Lambda 900

0
0
3350/servo 860.8/2
0
0
UV/VIS
1
1
1
CommonBeamDepol,150mm sphere / downward view
0
0
0
0
Program
Program
3350/servo 860.8/2
3350/0.2 860.8/0.2
3350/0.2 860.8/0.2
0
1
 
 
 
0
 
860.8
319.2
860.8
Front
100
on
 
 
0
0
0
 
0
 
 
 
0
 
 
0
0
0
0
0
 
 
 
 
0
0


0
0
#HDR
-1
-1
#GR
nm
%R
1.0
0.0
2500.000000
-10.000000
226
8
57.971162
8.817195
#DATA
2500.000000	8.817195
2490.000000	10.651385
2480.000000	15.268859
2470.000000	17.470659
2460.000000	13.788913
2450.000000	14.341083
2440.000000	14.752976
2430.000000	22.266690
2420.000000	21.128131
2410.000000	18.073775
2400.000000	19.569008
2390.000000	20.121387
2380.000000	18.717733
2370.000000	18.914760
2360.000000	15.377623
2350.000000	21.969087
2340.000000	20.404351
2330.000000	18.929409
2320.000000	19.544807
2310.000000	18.580904
2300.000000	18.933084
2290.000000	18.750172
2280.000000	19.726789
2270.000000	21.489209
2260.000000	22.852987
2250.000000	23.879433
2240.000000	24.955347
2230.000000	22.547330
2220.000000	22.219171
2210.000000	22.669870
2200.000000	22.036608
2190.000000	21.881293
2180.000000	24.150667
2170.000000	23.569744
2160.000000	22.990580
2150.000000	25.151532
2140.000000	24.739141
2130.000000	25.779274
2120.000000	26.135080
2110.000000	25.185789
2100.000000	24.825735
2090.000000	23.898016
2080.000000	22.361161
2070.000000	21.902177
2060.000000	20.895606
2050.000000	20.609283
2040.000000	21.189949
2030.000000	21.795796
2020.000000	20.510427
2010.000000	19.094754
2000.000000	18.675567
1990.000000	17.434593
1980.000000	15.868015
1970.000000	15.335777
1960.000000	14.953497
1950.000000	14.895954
1940.000000	17.361092
1930.000000	20.763532
1920.000000	25.738179
1910.000000	30.567713
1900.000000	35.954097
1890.000000	39.558930
1880.000000	41.804357
1870.000000	43.261992
1860.000000	43.149938
1850.000000	42.397443
1840.000000	41.943988
1830.000000	42.030332
1820.000000	41.547148
1810.000000	41.447198
1800.000000	40.925708
1790.000000	40.947538
1780.000000	40.299646
1770.000000	39.914026
1760.000000	39.632318
1750.000000	39.430124
1740.000000	39.672827
1730.000000	40.718240
1720.000000	41.363684
1710.000000	41.522758
1700.000000	42.204764
1690.000000	43.928014
1680.000000	45.034559
1670.000000	45.450883
1660.000000	45.592642
1650.000000	45.038184
1640.000000	44.775004
1630.000000	44.093001
1620.000000	43.297249
1610.000000	42.621187
1600.000000	41.858669
1590.000000	41.292998
1580.000000	40.925636
1570.000000	40.673980
1560.000000	39.860731
1550.000000	39.050531
1540.000000	38.117011
1530.000000	37.713847
1520.000000	37.222715
1510.000000	37.046082
1500.000000	36.769188
1490.000000	36.844285
1480.000000	36.813138
1470.000000	37.391598
1460.000000	38.283719
1450.000000	39.189851
1440.000000	40.620608
1430.000000	42.499455
1420.000000	45.218975
1410.000000	48.128673
1400.000000	50.736482
1390.000000	51.761876
1380.000000	52.113064
1370.000000	52.673109
1360.000000	53.419245
1350.000000	53.392153
1340.000000	53.817362
1330.000000	54.568374
1320.000000	55.137364
1310.000000	55.560223
1300.000000	55.285836
1290.000000	55.151051
1280.000000	54.896095
1270.000000	54.804996
1260.000000	54.965703
1250.000000	54.994612
1240.000000	54.672211
1230.000000	54.651187
1220.000000	54.214628
1210.000000	54.123460
1200.000000	54.113388
1190.000000	54.498279
1180.000000	54.802136
1170.000000	55.463844
1160.000000	55.981666
1150.000000	56.372495
1140.000000	56.562068
1130.000000	56.765138
1120.000000	56.795230
1110.000000	56.811539
1100.000000	56.950167
1090.000000	56.847174
1080.000000	56.746316
1070.000000	56.674665
1060.000000	56.783337
1050.000000	56.795835
1040.000000	56.603023
1030.000000	56.357098
1020.000000	56.393496
1010.000000	57.035650
1000.000000	56.988005
990.000000	57.033761
980.000000	57.085238
970.000000	57.188908
960.000000	57.613422
950.000000	57.634792
940.000000	57.636724
930.000000	56.901843
920.000000	57.313024
910.000000	57.652765
900.000000	57.971162
890.000000	57.883295
880.000000	56.768165
870.000000	56.922572
860.000000	56.678779
850.000000	57.404783
840.000000	57.373282
830.000000	57.368735
820.000000	57.507065
810.000000	57.170032
800.000000	57.078952
790.000000	57.048325
780.000000	57.090167
770.000000	57.181852
760.000000	57.299472
750.000000	57.304744
740.000000	57.339450
730.000000	57.048111
720.000000	57.048518
710.000000	57.117918
700.000000	56.979033
690.000000	57.005047
680.000000	56.882887
670.000000	56.739855
660.000000	56.697993
650.000000	56.710573
640.000000	56.327167
630.000000	56.251027
620.000000	56.301803
610.000000	56.042353
600.000000	55.910702
590.000000	55.716527
580.000000	55.474361
570.000000	55.124419
560.000000	55.068100
550.000000	54.701630
540.000000	54.449459
530.000000	54.045960
520.000000	53.774651
510.000000	53.239581
500.000000	52.771674
490.000000	52.172212
480.000000	51.485092
470.000000	50.573594
460.000000	49.685919
450.000000	48.415514
440.000000	47.334652
430.000000	45.900219
420.000000	44.102424
410.000000	42.651639
400.000000	40.571072
390.000000	38.753064
380.000000	36.787505
370.000000	34.669053
360.000000	31.817556
350.000000	30.154133
340.000000	28.882598
330.000000	25.181269
320.000000	23.825102
310.000000	22.693205
300.000000	18.716927
290.000000	13.972217
280.000000	10.901438
270.000000	11.562043
260.000000	12.177697
250.000000	12.265688
