PE UV       SUBTECH     SPECTRUM    ASCII       PEDS        4.00        
   -1
019-2S-XXX-NR008-X001.Sample.asc
24/01/19
19:28:28.00
24/01/19
19:28:28.00
Administrator

250.000000
1
Lambda 750
750N8071901
PerkinElmer UV WinLab 6.0.4.0738 / 1.61.00 Lambda 900

0
0
3350/servo 860.8/2
0
0
UV/VIS
1
1
1
CommonBeamDepol,150mm sphere / downward view
0
0
0
0
Program
Program
3350/servo 860.8/2
3350/0.2 860.8/0.2
3350/0.2 860.8/0.2
0
1
 
 
 
0
 
860.8
319.2
860.8
Front
100
on
 
 
0
0
0
 
0
 
 
 
0
 
 
0
0
0
0
0
 
 
 
 
0
0


0
0
#HDR
-1
-1
#GR
nm
%R
1.0
0.0
2500.000000
-10.000000
226
8
64.187635
3.967436
#DATA
2500.000000	22.324797
2490.000000	20.543889
2480.000000	22.659789
2470.000000	23.967296
2460.000000	24.152202
2450.000000	25.258497
2440.000000	28.514315
2430.000000	27.151452
2420.000000	25.934997
2410.000000	26.732344
2400.000000	29.078870
2390.000000	27.987271
2380.000000	26.992906
2370.000000	28.209718
2360.000000	27.881664
2350.000000	28.267374
2340.000000	27.418453
2330.000000	27.579507
2320.000000	26.595369
2310.000000	27.407501
2300.000000	26.342971
2290.000000	27.398167
2280.000000	28.146804
2270.000000	29.989679
2260.000000	31.691165
2250.000000	33.745812
2240.000000	32.766334
2230.000000	32.867933
2220.000000	32.335889
2210.000000	32.082626
2200.000000	31.318317
2190.000000	31.316764
2180.000000	31.791909
2170.000000	33.697937
2160.000000	34.749980
2150.000000	35.748958
2140.000000	37.160007
2130.000000	36.935125
2120.000000	37.691231
2110.000000	36.948202
2100.000000	37.168644
2090.000000	35.968824
2080.000000	34.761644
2070.000000	33.481677
2060.000000	32.934244
2050.000000	33.611812
2040.000000	34.030230
2030.000000	34.598242
2020.000000	33.796536
2010.000000	32.714190
2000.000000	31.707071
1990.000000	30.602450
1980.000000	29.644846
1970.000000	29.023638
1960.000000	28.518534
1950.000000	29.459742
1940.000000	31.248526
1930.000000	34.406007
1920.000000	38.622365
1910.000000	43.406501
1900.000000	47.593819
1890.000000	50.351143
1880.000000	51.757512
1870.000000	52.429710
1860.000000	52.247720
1850.000000	52.171229
1840.000000	51.825934
1830.000000	51.630263
1820.000000	51.244323
1810.000000	51.173527
1800.000000	50.767565
1790.000000	50.385337
1780.000000	50.015589
1770.000000	49.368494
1760.000000	49.076923
1750.000000	48.677751
1740.000000	48.908409
1730.000000	49.864585
1720.000000	50.496323
1710.000000	50.830443
1700.000000	51.926396
1690.000000	53.337400
1680.000000	54.531979
1670.000000	55.136263
1660.000000	55.290218
1650.000000	55.019537
1640.000000	54.706331
1630.000000	54.256427
1620.000000	53.699136
1610.000000	53.227476
1600.000000	52.802613
1590.000000	52.404900
1580.000000	52.140211
1570.000000	51.965038
1560.000000	51.588687
1550.000000	50.933265
1540.000000	50.222027
1530.000000	49.824472
1520.000000	49.631022
1510.000000	49.608169
1500.000000	49.870118
1490.000000	50.286898
1480.000000	50.716021
1470.000000	51.216364
1460.000000	51.750566
1450.000000	52.589994
1440.000000	53.627265
1430.000000	54.994908
1420.000000	56.592696
1410.000000	58.298106
1400.000000	59.575664
1390.000000	60.355049
1380.000000	60.800878
1370.000000	61.161317
1360.000000	61.614290
1350.000000	62.160680
1340.000000	62.792653
1330.000000	63.174115
1320.000000	63.051568
1310.000000	62.830678
1300.000000	62.639954
1290.000000	62.560621
1280.000000	62.685792
1270.000000	62.882636
1260.000000	62.748064
1250.000000	62.710821
1240.000000	62.593920
1230.000000	62.384780
1220.000000	62.098121
1210.000000	61.932819
1200.000000	61.876585
1190.000000	62.136621
1180.000000	62.547794
1170.000000	63.107884
1160.000000	63.447363
1150.000000	63.703009
1140.000000	63.853300
1130.000000	64.001404
1120.000000	64.040918
1110.000000	64.154952
1100.000000	64.178634
1090.000000	64.065188
1080.000000	64.019925
1070.000000	63.922660
1060.000000	63.919050
1050.000000	63.888565
1040.000000	63.850778
1030.000000	63.769845
1020.000000	63.810626
1010.000000	63.971378
1000.000000	64.005367
990.000000	63.952394
980.000000	64.067148
970.000000	64.043230
960.000000	64.175625
950.000000	64.036410
940.000000	63.912007
930.000000	64.184797
920.000000	64.060360
910.000000	64.085185
900.000000	63.979063
890.000000	64.187635
880.000000	63.825076
870.000000	63.909251
860.000000	63.478903
850.000000	63.493459
840.000000	63.275908
830.000000	62.971965
820.000000	62.966749
810.000000	62.573861
800.000000	62.718187
790.000000	62.246490
780.000000	62.029682
770.000000	61.830724
760.000000	61.452423
750.000000	61.141637
740.000000	60.788061
730.000000	60.259675
720.000000	59.945076
710.000000	59.573065
700.000000	58.773557
690.000000	58.206753
680.000000	57.470196
670.000000	56.803143
660.000000	55.950123
650.000000	55.217596
640.000000	54.292755
630.000000	53.368820
620.000000	52.354024
610.000000	51.318565
600.000000	50.214807
590.000000	49.022860
580.000000	47.676595
570.000000	46.365211
560.000000	44.993408
550.000000	43.414473
540.000000	41.882956
530.000000	40.260299
520.000000	38.634827
510.000000	36.973189
500.000000	35.204209
490.000000	33.505593
480.000000	31.845059
470.000000	30.108491
460.000000	28.414067
450.000000	26.505748
440.000000	24.380599
430.000000	22.393372
420.000000	20.344565
410.000000	18.393850
400.000000	16.514781
390.000000	14.748956
380.000000	12.984676
370.000000	11.332148
360.000000	10.073722
350.000000	8.747732
340.000000	7.698060
330.000000	6.838928
320.000000	5.843642
310.000000	5.521339
300.000000	4.769317
290.000000	4.222927
280.000000	3.967436
270.000000	3.997984
260.000000	4.376400
250.000000	4.531585
