PE UV       SUBTECH     SPECTRUM    ASCII       PEDS        4.00        
   -1
019-2S-XXX-NR008-Y001.Sample.Cycle1.asc
24/01/19
19:38:05.00
24/01/19
19:38:05.00
Administrator

250.000000
1
Lambda 750
750N8071901
PerkinElmer UV WinLab 6.0.4.0738 / 1.61.00 Lambda 900

0
0
3350/servo 860.8/2
0
0
UV/VIS
1
1
1
CommonBeamDepol,150mm sphere / downward view
0
0
0
0
Program
Program
3350/servo 860.8/2
3350/0.2 860.8/0.2
3350/0.2 860.8/0.2
0
1
 
 
 
0
 
860.8
319.2
860.8
Front
100
on
 
 
0
0
0
 
0
 
 
 
0
 
 
0
0
0
0
0
 
 
 
 
0
0


0
0
#HDR
-1
-1
#GR
nm
%R
1.0
0.0
2500.000000
-10.000000
226
8
67.694435
9.941833
#DATA
2500.000000	32.268114
2490.000000	31.163758
2480.000000	33.183055
2470.000000	34.165567
2460.000000	33.663156
2450.000000	33.774553
2440.000000	35.335224
2430.000000	33.876580
2420.000000	35.256227
2410.000000	34.690747
2400.000000	35.369375
2390.000000	34.604750
2380.000000	34.974731
2370.000000	34.040576
2360.000000	33.851859
2350.000000	35.724238
2340.000000	35.010529
2330.000000	34.349672
2320.000000	33.782574
2310.000000	34.284665
2300.000000	32.511549
2290.000000	33.017302
2280.000000	33.315858
2270.000000	35.129527
2260.000000	37.083355
2250.000000	38.354557
2240.000000	38.268487
2230.000000	37.774439
2220.000000	37.612236
2210.000000	37.389951
2200.000000	36.497916
2190.000000	36.500736
2180.000000	37.648299
2170.000000	39.055080
2160.000000	40.397419
2150.000000	41.589764
2140.000000	41.523178
2130.000000	42.056677
2120.000000	42.502837
2110.000000	42.453157
2100.000000	42.072311
2090.000000	41.290052
2080.000000	39.967401
2070.000000	38.957034
2060.000000	38.272664
2050.000000	38.585374
2040.000000	39.256143
2030.000000	39.562808
2020.000000	38.577117
2010.000000	37.594350
2000.000000	36.891755
1990.000000	35.676572
1980.000000	34.768110
1970.000000	33.998846
1960.000000	33.798284
1950.000000	34.670844
1940.000000	36.238459
1930.000000	39.260280
1920.000000	43.323284
1910.000000	47.363470
1900.000000	50.689516
1890.000000	52.941145
1880.000000	54.223174
1870.000000	54.716003
1860.000000	54.848321
1850.000000	54.590175
1840.000000	54.453139
1830.000000	54.269542
1820.000000	54.120291
1810.000000	53.939466
1800.000000	53.711162
1790.000000	53.531168
1780.000000	53.216155
1770.000000	52.861932
1760.000000	52.613331
1750.000000	52.476984
1740.000000	52.586272
1730.000000	53.390241
1720.000000	53.824144
1710.000000	53.943489
1700.000000	54.808360
1690.000000	55.805630
1680.000000	56.789800
1670.000000	57.160166
1660.000000	57.351633
1650.000000	57.205887
1640.000000	57.014528
1630.000000	56.706590
1620.000000	56.210822
1610.000000	55.904911
1600.000000	55.560320
1590.000000	55.249200
1580.000000	55.078904
1570.000000	54.992238
1560.000000	54.636229
1550.000000	54.124803
1540.000000	53.625553
1530.000000	53.273703
1520.000000	53.166971
1510.000000	53.110175
1500.000000	53.385125
1490.000000	53.703614
1480.000000	54.085751
1470.000000	54.548284
1460.000000	54.981390
1450.000000	55.738672
1440.000000	56.516712
1430.000000	57.634204
1420.000000	58.869877
1410.000000	60.327337
1400.000000	61.321952
1390.000000	61.942155
1380.000000	62.276826
1370.000000	62.574321
1360.000000	62.937622
1350.000000	63.508243
1340.000000	64.100279
1330.000000	64.589120
1320.000000	64.591690
1310.000000	64.469184
1300.000000	64.379635
1290.000000	64.238848
1280.000000	64.386626
1270.000000	64.527578
1260.000000	64.625731
1250.000000	64.705361
1240.000000	64.627920
1230.000000	64.483655
1220.000000	64.348324
1210.000000	64.219753
1200.000000	64.215534
1190.000000	64.465039
1180.000000	64.721793
1170.000000	65.186216
1160.000000	65.549181
1150.000000	65.689025
1140.000000	65.888423
1130.000000	65.986565
1120.000000	66.101315
1110.000000	66.242526
1100.000000	66.402373
1090.000000	66.292035
1080.000000	66.275083
1070.000000	66.117413
1060.000000	66.158760
1050.000000	66.211639
1040.000000	66.135650
1030.000000	66.120866
1020.000000	66.217843
1010.000000	66.370263
1000.000000	66.544894
990.000000	66.543952
980.000000	66.591414
970.000000	66.724250
960.000000	66.850437
950.000000	66.909565
940.000000	66.910953
930.000000	67.103727
920.000000	67.043976
910.000000	67.196059
900.000000	67.217836
890.000000	67.187258
880.000000	67.502555
870.000000	67.202767
860.000000	67.379465
850.000000	67.621877
840.000000	67.269879
830.000000	67.576386
820.000000	67.694435
810.000000	67.594096
800.000000	67.468292
790.000000	67.508759
780.000000	67.632180
770.000000	67.503477
760.000000	67.471974
750.000000	67.486478
740.000000	67.421136
730.000000	67.342089
720.000000	67.270171
710.000000	67.253342
700.000000	67.018488
690.000000	66.818248
680.000000	66.676289
670.000000	66.474123
660.000000	66.088232
650.000000	65.894248
640.000000	65.454174
630.000000	65.232924
620.000000	64.922416
610.000000	64.471096
600.000000	64.093981
590.000000	63.577851
580.000000	62.989663
570.000000	62.447633
560.000000	61.814637
550.000000	61.097340
540.000000	60.283844
530.000000	59.491448
520.000000	58.642075
510.000000	57.636646
500.000000	56.658510
490.000000	55.766170
480.000000	54.618801
470.000000	53.381916
460.000000	52.198929
450.000000	50.879505
440.000000	49.155166
430.000000	47.494083
420.000000	45.461057
410.000000	43.324341
400.000000	40.864907
390.000000	38.423036
380.000000	35.627080
370.000000	32.629657
360.000000	29.411723
350.000000	25.887357
340.000000	22.750198
330.000000	19.394127
320.000000	15.785437
310.000000	13.775610
300.000000	12.284886
290.000000	10.838718
280.000000	10.107069
270.000000	9.941833
260.000000	10.335730
250.000000	10.596812
