PE IR       SUBTECH     SPECTRUM    ASCII       PEDS        4.00        
   -1
3S-N10-C028_1.ASC
22/02/18
14:41:50.00
22/02/18
14:55:43.00
uco
Sample 028 By uco Date Friday, February 18 2022
450.000000
#HDR
-1
-1
#GR
cm-1
A
1.0
0.0
4000.000000
-1.000000
3551
8
0.045477
0.004841
#DATA
4000.000000	0.005200
3999.000000	0.005206
3998.000000	0.005223
3997.000000	0.005244
3996.000000	0.005259
3995.000000	0.005267
3994.000000	0.005274
3993.000000	0.005289
3992.000000	0.005313
3991.000000	0.005341
3990.000000	0.005364
3989.000000	0.005377
3988.000000	0.005385
3987.000000	0.005391
3986.000000	0.005392
3985.000000	0.005382
3984.000000	0.005361
3983.000000	0.005337
3982.000000	0.005322
3981.000000	0.005319
3980.000000	0.005321
3979.000000	0.005319
3978.000000	0.005310
3977.000000	0.005302
3976.000000	0.005302
3975.000000	0.005313
3974.000000	0.005328
3973.000000	0.005338
3972.000000	0.005339
3971.000000	0.005332
3970.000000	0.005322
3969.000000	0.005314
3968.000000	0.005310
3967.000000	0.005311
3966.000000	0.005320
3965.000000	0.005337
3964.000000	0.005358
3963.000000	0.005380
3962.000000	0.005397
3961.000000	0.005406
3960.000000	0.005404
3959.000000	0.005393
3958.000000	0.005378
3957.000000	0.005369
3956.000000	0.005366
3955.000000	0.005366
3954.000000	0.005366
3953.000000	0.005363
3952.000000	0.005360
3951.000000	0.005358
3950.000000	0.005361
3949.000000	0.005369
3948.000000	0.005381
3947.000000	0.005398
3946.000000	0.005415
3945.000000	0.005427
3944.000000	0.005432
3943.000000	0.005429
3942.000000	0.005420
3941.000000	0.005406
3940.000000	0.005393
3939.000000	0.005381
3938.000000	0.005374
3937.000000	0.005371
3936.000000	0.005373
3935.000000	0.005377
3934.000000	0.005383
3933.000000	0.005392
3932.000000	0.005405
3931.000000	0.005423
3930.000000	0.005440
3929.000000	0.005446
3928.000000	0.005438
3927.000000	0.005415
3926.000000	0.005390
3925.000000	0.005383
3924.000000	0.005401
3923.000000	0.005436
3922.000000	0.005472
3921.000000	0.005498
3920.000000	0.005510
3919.000000	0.005509
3918.000000	0.005497
3917.000000	0.005479
3916.000000	0.005456
3915.000000	0.005427
3914.000000	0.005398
3913.000000	0.005378
3912.000000	0.005378
3911.000000	0.005399
3910.000000	0.005433
3909.000000	0.005466
3908.000000	0.005492
3907.000000	0.005505
3906.000000	0.005500
3905.000000	0.005479
3904.000000	0.005453
3903.000000	0.005437
3902.000000	0.005440
3901.000000	0.005460
3900.000000	0.005487
3899.000000	0.005507
3898.000000	0.005511
3897.000000	0.005503
3896.000000	0.005490
3895.000000	0.005476
3894.000000	0.005461
3893.000000	0.005445
3892.000000	0.005431
3891.000000	0.005420
3890.000000	0.005410
3889.000000	0.005395
3888.000000	0.005377
3887.000000	0.005368
3886.000000	0.005383
3885.000000	0.005418
3884.000000	0.005444
3883.000000	0.005446
3882.000000	0.005438
3881.000000	0.005447
3880.000000	0.005482
3879.000000	0.005518
3878.000000	0.005524
3877.000000	0.005488
3876.000000	0.005424
3875.000000	0.005370
3874.000000	0.005353
3873.000000	0.005368
3872.000000	0.005384
3871.000000	0.005383
3870.000000	0.005378
3869.000000	0.005383
3868.000000	0.005393
3867.000000	0.005401
3866.000000	0.005413
3865.000000	0.005437
3864.000000	0.005464
3863.000000	0.005475
3862.000000	0.005466
3861.000000	0.005454
3860.000000	0.005460
3859.000000	0.005497
3858.000000	0.005562
3857.000000	0.005635
3856.000000	0.005674
3855.000000	0.005645
3854.000000	0.005582
3853.000000	0.005545
3852.000000	0.005534
3851.000000	0.005521
3850.000000	0.005501
3849.000000	0.005479
3848.000000	0.005454
3847.000000	0.005421
3846.000000	0.005386
3845.000000	0.005359
3844.000000	0.005350
3843.000000	0.005353
3842.000000	0.005351
3841.000000	0.005337
3840.000000	0.005319
3839.000000	0.005321
3838.000000	0.005352
3837.000000	0.005397
3836.000000	0.005434
3835.000000	0.005447
3834.000000	0.005437
3833.000000	0.005413
3832.000000	0.005390
3831.000000	0.005375
3830.000000	0.005369
3829.000000	0.005369
3828.000000	0.005375
3827.000000	0.005387
3826.000000	0.005401
3825.000000	0.005403
3824.000000	0.005377
3823.000000	0.005326
3822.000000	0.005294
3821.000000	0.005322
3820.000000	0.005387
3819.000000	0.005435
3818.000000	0.005443
3817.000000	0.005424
3816.000000	0.005414
3815.000000	0.005421
3814.000000	0.005426
3813.000000	0.005422
3812.000000	0.005418
3811.000000	0.005420
3810.000000	0.005422
3809.000000	0.005410
3808.000000	0.005387
3807.000000	0.005376
3806.000000	0.005386
3805.000000	0.005400
3804.000000	0.005398
3803.000000	0.005383
3802.000000	0.005384
3801.000000	0.005417
3800.000000	0.005452
3799.000000	0.005462
3798.000000	0.005449
3797.000000	0.005433
3796.000000	0.005431
3795.000000	0.005438
3794.000000	0.005441
3793.000000	0.005435
3792.000000	0.005427
3791.000000	0.005425
3790.000000	0.005429
3789.000000	0.005433
3788.000000	0.005428
3787.000000	0.005411
3786.000000	0.005388
3785.000000	0.005370
3784.000000	0.005365
3783.000000	0.005363
3782.000000	0.005355
3781.000000	0.005342
3780.000000	0.005341
3779.000000	0.005358
3778.000000	0.005380
3777.000000	0.005386
3776.000000	0.005370
3775.000000	0.005343
3774.000000	0.005315
3773.000000	0.005290
3772.000000	0.005267
3771.000000	0.005256
3770.000000	0.005265
3769.000000	0.005285
3768.000000	0.005299
3767.000000	0.005297
3766.000000	0.005293
3765.000000	0.005301
3764.000000	0.005319
3763.000000	0.005334
3762.000000	0.005336
3761.000000	0.005334
3760.000000	0.005334
3759.000000	0.005333
3758.000000	0.005322
3757.000000	0.005303
3756.000000	0.005285
3755.000000	0.005269
3754.000000	0.005247
3753.000000	0.005217
3752.000000	0.005196
3751.000000	0.005197
3750.000000	0.005219
3749.000000	0.005253
3748.000000	0.005292
3747.000000	0.005325
3746.000000	0.005339
3745.000000	0.005351
3744.000000	0.005374
3743.000000	0.005380
3742.000000	0.005349
3741.000000	0.005304
3740.000000	0.005279
3739.000000	0.005280
3738.000000	0.005285
3737.000000	0.005277
3736.000000	0.005260
3735.000000	0.005244
3734.000000	0.005229
3733.000000	0.005218
3732.000000	0.005221
3731.000000	0.005236
3730.000000	0.005246
3729.000000	0.005243
3728.000000	0.005230
3727.000000	0.005225
3726.000000	0.005234
3725.000000	0.005244
3724.000000	0.005245
3723.000000	0.005240
3722.000000	0.005240
3721.000000	0.005241
3720.000000	0.005237
3719.000000	0.005224
3718.000000	0.005210
3717.000000	0.005205
3716.000000	0.005209
3715.000000	0.005214
3714.000000	0.005215
3713.000000	0.005217
3712.000000	0.005231
3711.000000	0.005251
3710.000000	0.005258
3709.000000	0.005246
3708.000000	0.005225
3707.000000	0.005206
3706.000000	0.005192
3705.000000	0.005183
3704.000000	0.005179
3703.000000	0.005185
3702.000000	0.005205
3701.000000	0.005233
3700.000000	0.005255
3699.000000	0.005265
3698.000000	0.005269
3697.000000	0.005278
3696.000000	0.005295
3695.000000	0.005307
3694.000000	0.005301
3693.000000	0.005279
3692.000000	0.005257
3691.000000	0.005250
3690.000000	0.005256
3689.000000	0.005265
3688.000000	0.005267
3687.000000	0.005263
3686.000000	0.005257
3685.000000	0.005255
3684.000000	0.005258
3683.000000	0.005261
3682.000000	0.005254
3681.000000	0.005235
3680.000000	0.005212
3679.000000	0.005195
3678.000000	0.005182
3677.000000	0.005183
3676.000000	0.005235
3675.000000	0.005329
3674.000000	0.005402
3673.000000	0.005415
3672.000000	0.005376
3671.000000	0.005333
3670.000000	0.005333
3669.000000	0.005367
3668.000000	0.005390
3667.000000	0.005389
3666.000000	0.005383
3665.000000	0.005391
3664.000000	0.005417
3663.000000	0.005452
3662.000000	0.005482
3661.000000	0.005501
3660.000000	0.005511
3659.000000	0.005517
3658.000000	0.005518
3657.000000	0.005520
3656.000000	0.005520
3655.000000	0.005515
3654.000000	0.005502
3653.000000	0.005487
3652.000000	0.005483
3651.000000	0.005510
3650.000000	0.005578
3649.000000	0.005665
3648.000000	0.005733
3647.000000	0.005773
3646.000000	0.005795
3645.000000	0.005804
3644.000000	0.005798
3643.000000	0.005781
3642.000000	0.005768
3641.000000	0.005769
3640.000000	0.005786
3639.000000	0.005809
3638.000000	0.005823
3637.000000	0.005825
3636.000000	0.005818
3635.000000	0.005816
3634.000000	0.005830
3633.000000	0.005855
3632.000000	0.005870
3631.000000	0.005867
3630.000000	0.005874
3629.000000	0.005942
3628.000000	0.006053
3627.000000	0.006144
3626.000000	0.006191
3625.000000	0.006210
3624.000000	0.006222
3623.000000	0.006238
3622.000000	0.006256
3621.000000	0.006274
3620.000000	0.006305
3619.000000	0.006358
3618.000000	0.006424
3617.000000	0.006486
3616.000000	0.006532
3615.000000	0.006563
3614.000000	0.006590
3613.000000	0.006617
3612.000000	0.006639
3611.000000	0.006649
3610.000000	0.006653
3609.000000	0.006669
3608.000000	0.006710
3607.000000	0.006767
3606.000000	0.006821
3605.000000	0.006860
3604.000000	0.006883
3603.000000	0.006899
3602.000000	0.006916
3601.000000	0.006939
3600.000000	0.006968
3599.000000	0.007006
3598.000000	0.007052
3597.000000	0.007100
3596.000000	0.007142
3595.000000	0.007175
3594.000000	0.007205
3593.000000	0.007244
3592.000000	0.007291
3591.000000	0.007341
3590.000000	0.007389
3589.000000	0.007442
3588.000000	0.007513
3587.000000	0.007594
3586.000000	0.007660
3585.000000	0.007701
3584.000000	0.007727
3583.000000	0.007753
3582.000000	0.007789
3581.000000	0.007836
3580.000000	0.007887
3579.000000	0.007929
3578.000000	0.007950
3577.000000	0.007960
3576.000000	0.007982
3575.000000	0.008038
3574.000000	0.008128
3573.000000	0.008225
3572.000000	0.008293
3571.000000	0.008319
3570.000000	0.008315
3569.000000	0.008315
3568.000000	0.008357
3567.000000	0.008445
3566.000000	0.008551
3565.000000	0.008638
3564.000000	0.008694
3563.000000	0.008726
3562.000000	0.008747
3561.000000	0.008772
3560.000000	0.008809
3559.000000	0.008859
3558.000000	0.008918
3557.000000	0.008979
3556.000000	0.009033
3555.000000	0.009075
3554.000000	0.009105
3553.000000	0.009138
3552.000000	0.009187
3551.000000	0.009257
3550.000000	0.009335
3549.000000	0.009410
3548.000000	0.009472
3547.000000	0.009526
3546.000000	0.009576
3545.000000	0.009630
3544.000000	0.009688
3543.000000	0.009752
3542.000000	0.009818
3541.000000	0.009880
3540.000000	0.009929
3539.000000	0.009963
3538.000000	0.009983
3537.000000	0.009994
3536.000000	0.010008
3535.000000	0.010033
3534.000000	0.010076
3533.000000	0.010141
3532.000000	0.010223
3531.000000	0.010310
3530.000000	0.010390
3529.000000	0.010453
3528.000000	0.010499
3527.000000	0.010535
3526.000000	0.010574
3525.000000	0.010620
3524.000000	0.010672
3523.000000	0.010722
3522.000000	0.010764
3521.000000	0.010802
3520.000000	0.010844
3519.000000	0.010896
3518.000000	0.010956
3517.000000	0.011016
3516.000000	0.011070
3515.000000	0.011114
3514.000000	0.011153
3513.000000	0.011187
3512.000000	0.011218
3511.000000	0.011246
3510.000000	0.011275
3509.000000	0.011314
3508.000000	0.011366
3507.000000	0.011426
3506.000000	0.011489
3505.000000	0.011550
3504.000000	0.011608
3503.000000	0.011660
3502.000000	0.011702
3501.000000	0.011729
3500.000000	0.011744
3499.000000	0.011755
3498.000000	0.011772
3497.000000	0.011807
3496.000000	0.011864
3495.000000	0.011938
3494.000000	0.012014
3493.000000	0.012077
3492.000000	0.012123
3491.000000	0.012157
3490.000000	0.012192
3489.000000	0.012241
3488.000000	0.012305
3487.000000	0.012374
3486.000000	0.012434
3485.000000	0.012480
3484.000000	0.012513
3483.000000	0.012540
3482.000000	0.012566
3481.000000	0.012592
3480.000000	0.012621
3479.000000	0.012656
3478.000000	0.012694
3477.000000	0.012727
3476.000000	0.012754
3475.000000	0.012782
3474.000000	0.012819
3473.000000	0.012868
3472.000000	0.012922
3471.000000	0.012979
3470.000000	0.013034
3469.000000	0.013083
3468.000000	0.013122
3467.000000	0.013153
3466.000000	0.013184
3465.000000	0.013217
3464.000000	0.013247
3463.000000	0.013267
3462.000000	0.013280
3461.000000	0.013294
3460.000000	0.013319
3459.000000	0.013357
3458.000000	0.013405
3457.000000	0.013456
3456.000000	0.013510
3455.000000	0.013567
3454.000000	0.013623
3453.000000	0.013667
3452.000000	0.013691
3451.000000	0.013694
3450.000000	0.013691
3449.000000	0.013695
3448.000000	0.013714
3447.000000	0.013745
3446.000000	0.013784
3445.000000	0.013829
3444.000000	0.013882
3443.000000	0.013944
3442.000000	0.014011
3441.000000	0.014074
3440.000000	0.014124
3439.000000	0.014162
3438.000000	0.014196
3437.000000	0.014229
3436.000000	0.014260
3435.000000	0.014288
3434.000000	0.014317
3433.000000	0.014358
3432.000000	0.014412
3431.000000	0.014470
3430.000000	0.014519
3429.000000	0.014549
3428.000000	0.014561
3427.000000	0.014571
3426.000000	0.014599
3425.000000	0.014653
3424.000000	0.014720
3423.000000	0.014783
3422.000000	0.014830
3421.000000	0.014865
3420.000000	0.014894
3419.000000	0.014920
3418.000000	0.014948
3417.000000	0.014980
3416.000000	0.015017
3415.000000	0.015057
3414.000000	0.015100
3413.000000	0.015145
3412.000000	0.015185
3411.000000	0.015216
3410.000000	0.015243
3409.000000	0.015276
3408.000000	0.015323
3407.000000	0.015379
3406.000000	0.015432
3405.000000	0.015474
3404.000000	0.015503
3403.000000	0.015527
3402.000000	0.015553
3401.000000	0.015584
3400.000000	0.015616
3399.000000	0.015641
3398.000000	0.015658
3397.000000	0.015676
3396.000000	0.015709
3395.000000	0.015761
3394.000000	0.015820
3393.000000	0.015871
3392.000000	0.015903
3391.000000	0.015916
3390.000000	0.015923
3389.000000	0.015933
3388.000000	0.015952
3387.000000	0.015977
3386.000000	0.016007
3385.000000	0.016044
3384.000000	0.016091
3383.000000	0.016147
3382.000000	0.016205
3381.000000	0.016256
3380.000000	0.016297
3379.000000	0.016331
3378.000000	0.016366
3377.000000	0.016405
3376.000000	0.016449
3375.000000	0.016497
3374.000000	0.016550
3373.000000	0.016608
3372.000000	0.016665
3371.000000	0.016720
3370.000000	0.016778
3369.000000	0.016842
3368.000000	0.016909
3367.000000	0.016971
3366.000000	0.017025
3365.000000	0.017082
3364.000000	0.017148
3363.000000	0.017222
3362.000000	0.017298
3361.000000	0.017369
3360.000000	0.017436
3359.000000	0.017500
3358.000000	0.017560
3357.000000	0.017621
3356.000000	0.017687
3355.000000	0.017762
3354.000000	0.017842
3353.000000	0.017919
3352.000000	0.017992
3351.000000	0.018061
3350.000000	0.018131
3349.000000	0.018202
3348.000000	0.018276
3347.000000	0.018360
3346.000000	0.018453
3345.000000	0.018547
3344.000000	0.018630
3343.000000	0.018701
3342.000000	0.018761
3341.000000	0.018813
3340.000000	0.018859
3339.000000	0.018911
3338.000000	0.018979
3337.000000	0.019066
3336.000000	0.019164
3335.000000	0.019256
3334.000000	0.019334
3333.000000	0.019400
3332.000000	0.019461
3331.000000	0.019527
3330.000000	0.019601
3329.000000	0.019674
3328.000000	0.019730
3327.000000	0.019764
3326.000000	0.019783
3325.000000	0.019807
3324.000000	0.019847
3323.000000	0.019906
3322.000000	0.019981
3321.000000	0.020064
3320.000000	0.020146
3319.000000	0.020220
3318.000000	0.020278
3317.000000	0.020317
3316.000000	0.020337
3315.000000	0.020349
3314.000000	0.020365
3313.000000	0.020390
3312.000000	0.020418
3311.000000	0.020444
3310.000000	0.020470
3309.000000	0.020504
3308.000000	0.020548
3307.000000	0.020603
3306.000000	0.020667
3305.000000	0.020734
3304.000000	0.020791
3303.000000	0.020828
3302.000000	0.020849
3301.000000	0.020867
3300.000000	0.020884
3299.000000	0.020897
3298.000000	0.020900
3297.000000	0.020904
3296.000000	0.020919
3295.000000	0.020947
3294.000000	0.020974
3293.000000	0.020989
3292.000000	0.020989
3291.000000	0.020982
3290.000000	0.020980
3289.000000	0.020989
3288.000000	0.021005
3287.000000	0.021021
3286.000000	0.021033
3285.000000	0.021040
3284.000000	0.021042
3283.000000	0.021041
3282.000000	0.021041
3281.000000	0.021046
3280.000000	0.021050
3279.000000	0.021040
3278.000000	0.021014
3277.000000	0.020982
3276.000000	0.020960
3275.000000	0.020945
3274.000000	0.020925
3273.000000	0.020894
3272.000000	0.020862
3271.000000	0.020843
3270.000000	0.020840
3269.000000	0.020834
3268.000000	0.020808
3267.000000	0.020755
3266.000000	0.020689
3265.000000	0.020630
3264.000000	0.020588
3263.000000	0.020559
3262.000000	0.020531
3261.000000	0.020492
3260.000000	0.020441
3259.000000	0.020384
3258.000000	0.020332
3257.000000	0.020291
3256.000000	0.020264
3255.000000	0.020245
3254.000000	0.020222
3253.000000	0.020185
3252.000000	0.020131
3251.000000	0.020070
3250.000000	0.020016
3249.000000	0.019981
3248.000000	0.019963
3247.000000	0.019950
3246.000000	0.019927
3245.000000	0.019893
3244.000000	0.019859
3243.000000	0.019837
3242.000000	0.019825
3241.000000	0.019812
3240.000000	0.019782
3239.000000	0.019733
3238.000000	0.019673
3237.000000	0.019616
3236.000000	0.019572
3235.000000	0.019544
3234.000000	0.019524
3233.000000	0.019506
3232.000000	0.019483
3231.000000	0.019453
3230.000000	0.019418
3229.000000	0.019377
3228.000000	0.019336
3227.000000	0.019300
3226.000000	0.019271
3225.000000	0.019250
3224.000000	0.019236
3223.000000	0.019226
3222.000000	0.019220
3221.000000	0.019211
3220.000000	0.019190
3219.000000	0.019155
3218.000000	0.019110
3217.000000	0.019063
3216.000000	0.019020
3215.000000	0.018980
3214.000000	0.018943
3213.000000	0.018910
3212.000000	0.018882
3211.000000	0.018853
3210.000000	0.018817
3209.000000	0.018773
3208.000000	0.018727
3207.000000	0.018688
3206.000000	0.018657
3205.000000	0.018629
3204.000000	0.018596
3203.000000	0.018554
3202.000000	0.018509
3201.000000	0.018472
3200.000000	0.018440
3199.000000	0.018404
3198.000000	0.018353
3197.000000	0.018297
3196.000000	0.018253
3195.000000	0.018233
3194.000000	0.018222
3193.000000	0.018199
3192.000000	0.018152
3191.000000	0.018091
3190.000000	0.018037
3189.000000	0.018000
3188.000000	0.017975
3187.000000	0.017950
3186.000000	0.017915
3185.000000	0.017871
3184.000000	0.017824
3183.000000	0.017780
3182.000000	0.017744
3181.000000	0.017714
3180.000000	0.017687
3179.000000	0.017659
3178.000000	0.017625
3177.000000	0.017583
3176.000000	0.017536
3175.000000	0.017486
3174.000000	0.017435
3173.000000	0.017383
3172.000000	0.017327
3171.000000	0.017267
3170.000000	0.017204
3169.000000	0.017139
3168.000000	0.017072
3167.000000	0.017004
3166.000000	0.016944
3165.000000	0.016897
3164.000000	0.016858
3163.000000	0.016818
3162.000000	0.016766
3161.000000	0.016707
3160.000000	0.016651
3159.000000	0.016607
3158.000000	0.016575
3157.000000	0.016548
3156.000000	0.016511
3155.000000	0.016456
3154.000000	0.016384
3153.000000	0.016310
3152.000000	0.016252
3151.000000	0.016217
3150.000000	0.016197
3149.000000	0.016179
3148.000000	0.016152
3147.000000	0.016115
3146.000000	0.016075
3145.000000	0.016037
3144.000000	0.016006
3143.000000	0.015979
3142.000000	0.015948
3141.000000	0.015908
3140.000000	0.015859
3139.000000	0.015812
3138.000000	0.015773
3137.000000	0.015740
3136.000000	0.015709
3135.000000	0.015677
3134.000000	0.015647
3133.000000	0.015618
3132.000000	0.015586
3131.000000	0.015543
3130.000000	0.015494
3129.000000	0.015447
3128.000000	0.015414
3127.000000	0.015397
3126.000000	0.015394
3125.000000	0.015397
3124.000000	0.015397
3123.000000	0.015389
3122.000000	0.015369
3121.000000	0.015342
3120.000000	0.015313
3119.000000	0.015287
3118.000000	0.015267
3117.000000	0.015254
3116.000000	0.015246
3115.000000	0.015241
3114.000000	0.015238
3113.000000	0.015242
3112.000000	0.015250
3111.000000	0.015259
3110.000000	0.015265
3109.000000	0.015268
3108.000000	0.015270
3107.000000	0.015269
3106.000000	0.015265
3105.000000	0.015261
3104.000000	0.015264
3103.000000	0.015273
3102.000000	0.015284
3101.000000	0.015296
3100.000000	0.015310
3099.000000	0.015327
3098.000000	0.015342
3097.000000	0.015355
3096.000000	0.015370
3095.000000	0.015391
3094.000000	0.015418
3093.000000	0.015450
3092.000000	0.015482
3091.000000	0.015509
3090.000000	0.015520
3089.000000	0.015517
3088.000000	0.015511
3087.000000	0.015516
3086.000000	0.015530
3085.000000	0.015541
3084.000000	0.015547
3083.000000	0.015554
3082.000000	0.015571
3081.000000	0.015598
3080.000000	0.015629
3079.000000	0.015657
3078.000000	0.015676
3077.000000	0.015679
3076.000000	0.015666
3075.000000	0.015643
3074.000000	0.015620
3073.000000	0.015603
3072.000000	0.015594
3071.000000	0.015596
3070.000000	0.015600
3069.000000	0.015596
3068.000000	0.015578
3067.000000	0.015555
3066.000000	0.015546
3065.000000	0.015556
3064.000000	0.015566
3063.000000	0.015556
3062.000000	0.015520
3061.000000	0.015472
3060.000000	0.015430
3059.000000	0.015402
3058.000000	0.015381
3057.000000	0.015357
3056.000000	0.015328
3055.000000	0.015294
3054.000000	0.015256
3053.000000	0.015208
3052.000000	0.015147
3051.000000	0.015079
3050.000000	0.015012
3049.000000	0.014952
3048.000000	0.014895
3047.000000	0.014838
3046.000000	0.014781
3045.000000	0.014728
3044.000000	0.014677
3043.000000	0.014624
3042.000000	0.014564
3041.000000	0.014497
3040.000000	0.014435
3039.000000	0.014389
3038.000000	0.014359
3037.000000	0.014334
3036.000000	0.014303
3035.000000	0.014264
3034.000000	0.014222
3033.000000	0.014180
3032.000000	0.014135
3031.000000	0.014085
3030.000000	0.014032
3029.000000	0.013986
3028.000000	0.013952
3027.000000	0.013925
3026.000000	0.013894
3025.000000	0.013851
3024.000000	0.013798
3023.000000	0.013750
3022.000000	0.013723
3021.000000	0.013717
3020.000000	0.013720
3019.000000	0.013715
3018.000000	0.013703
3017.000000	0.013691
3016.000000	0.013688
3015.000000	0.013695
3014.000000	0.013708
3013.000000	0.013724
3012.000000	0.013746
3011.000000	0.013775
3010.000000	0.013810
3009.000000	0.013844
3008.000000	0.013871
3007.000000	0.013888
3006.000000	0.013900
3005.000000	0.013907
3004.000000	0.013905
3003.000000	0.013888
3002.000000	0.013854
3001.000000	0.013812
3000.000000	0.013771
2999.000000	0.013736
2998.000000	0.013707
2997.000000	0.013683
2996.000000	0.013670
2995.000000	0.013672
2994.000000	0.013688
2993.000000	0.013711
2992.000000	0.013734
2991.000000	0.013758
2990.000000	0.013786
2989.000000	0.013826
2988.000000	0.013884
2987.000000	0.013958
2986.000000	0.014045
2985.000000	0.014131
2984.000000	0.014206
2983.000000	0.014269
2982.000000	0.014330
2981.000000	0.014400
2980.000000	0.014480
2979.000000	0.014562
2978.000000	0.014633
2977.000000	0.014695
2976.000000	0.014756
2975.000000	0.014824
2974.000000	0.014895
2973.000000	0.014961
2972.000000	0.015030
2971.000000	0.015127
2970.000000	0.015284
2969.000000	0.015504
2968.000000	0.015760
2967.000000	0.016016
2966.000000	0.016252
2965.000000	0.016470
2964.000000	0.016683
2963.000000	0.016895
2962.000000	0.017105
2961.000000	0.017317
2960.000000	0.017532
2959.000000	0.017745
2958.000000	0.017938
2957.000000	0.018095
2956.000000	0.018203
2955.000000	0.018264
2954.000000	0.018284
2953.000000	0.018279
2952.000000	0.018266
2951.000000	0.018261
2950.000000	0.018276
2949.000000	0.018317
2948.000000	0.018388
2947.000000	0.018488
2946.000000	0.018622
2945.000000	0.018803
2944.000000	0.019042
2943.000000	0.019338
2942.000000	0.019680
2941.000000	0.020056
2940.000000	0.020465
2939.000000	0.020912
2938.000000	0.021396
2937.000000	0.021912
2936.000000	0.022451
2935.000000	0.023008
2934.000000	0.023578
2933.000000	0.024158
2932.000000	0.024738
2931.000000	0.025307
2930.000000	0.025854
2929.000000	0.026376
2928.000000	0.026878
2927.000000	0.027358
2926.000000	0.027793
2925.000000	0.028147
2924.000000	0.028389
2923.000000	0.028507
2922.000000	0.028502
2921.000000	0.028381
2920.000000	0.028145
2919.000000	0.027794
2918.000000	0.027334
2917.000000	0.026775
2916.000000	0.026146
2915.000000	0.025483
2914.000000	0.024820
2913.000000	0.024174
2912.000000	0.023560
2911.000000	0.022990
2910.000000	0.022470
2909.000000	0.021999
2908.000000	0.021572
2907.000000	0.021191
2906.000000	0.020860
2905.000000	0.020575
2904.000000	0.020316
2903.000000	0.020067
2902.000000	0.019821
2901.000000	0.019583
2900.000000	0.019361
2899.000000	0.019160
2898.000000	0.018973
2897.000000	0.018794
2896.000000	0.018617
2895.000000	0.018441
2894.000000	0.018270
2893.000000	0.018105
2892.000000	0.017944
2891.000000	0.017789
2890.000000	0.017640
2889.000000	0.017502
2888.000000	0.017378
2887.000000	0.017271
2886.000000	0.017175
2885.000000	0.017083
2884.000000	0.016994
2883.000000	0.016919
2882.000000	0.016870
2881.000000	0.016852
2880.000000	0.016857
2879.000000	0.016874
2878.000000	0.016899
2877.000000	0.016933
2876.000000	0.016978
2875.000000	0.017039
2874.000000	0.017111
2873.000000	0.017180
2872.000000	0.017226
2871.000000	0.017242
2870.000000	0.017238
2869.000000	0.017232
2868.000000	0.017248
2867.000000	0.017302
2866.000000	0.017402
2865.000000	0.017555
2864.000000	0.017766
2863.000000	0.018039
2862.000000	0.018380
2861.000000	0.018789
2860.000000	0.019254
2859.000000	0.019756
2858.000000	0.020272
2857.000000	0.020771
2856.000000	0.021229
2855.000000	0.021620
2854.000000	0.021920
2853.000000	0.022094
2852.000000	0.022111
2851.000000	0.021950
2850.000000	0.021610
2849.000000	0.021109
2848.000000	0.020484
2847.000000	0.019790
2846.000000	0.019085
2845.000000	0.018416
2844.000000	0.017810
2843.000000	0.017277
2842.000000	0.016813
2841.000000	0.016408
2840.000000	0.016050
2839.000000	0.015734
2838.000000	0.015461
2837.000000	0.015232
2836.000000	0.015041
2835.000000	0.014878
2834.000000	0.014736
2833.000000	0.014611
2832.000000	0.014498
2831.000000	0.014391
2830.000000	0.014288
2829.000000	0.014191
2828.000000	0.014104
2827.000000	0.014025
2826.000000	0.013948
2825.000000	0.013874
2824.000000	0.013807
2823.000000	0.013749
2822.000000	0.013696
2821.000000	0.013641
2820.000000	0.013577
2819.000000	0.013508
2818.000000	0.013442
2817.000000	0.013388
2816.000000	0.013345
2815.000000	0.013306
2814.000000	0.013265
2813.000000	0.013222
2812.000000	0.013181
2811.000000	0.013147
2810.000000	0.013117
2809.000000	0.013082
2808.000000	0.013040
2807.000000	0.012996
2806.000000	0.012957
2805.000000	0.012927
2804.000000	0.012901
2803.000000	0.012873
2802.000000	0.012845
2801.000000	0.012818
2800.000000	0.012787
2799.000000	0.012751
2798.000000	0.012716
2797.000000	0.012688
2796.000000	0.012670
2795.000000	0.012653
2794.000000	0.012628
2793.000000	0.012598
2792.000000	0.012570
2791.000000	0.012550
2790.000000	0.012537
2789.000000	0.012524
2788.000000	0.012505
2787.000000	0.012474
2786.000000	0.012435
2785.000000	0.012394
2784.000000	0.012358
2783.000000	0.012331
2782.000000	0.012309
2781.000000	0.012289
2780.000000	0.012266
2779.000000	0.012241
2778.000000	0.012216
2777.000000	0.012191
2776.000000	0.012166
2775.000000	0.012143
2774.000000	0.012125
2773.000000	0.012111
2772.000000	0.012101
2771.000000	0.012089
2770.000000	0.012072
2769.000000	0.012049
2768.000000	0.012022
2767.000000	0.012000
2766.000000	0.011989
2765.000000	0.011988
2764.000000	0.011984
2763.000000	0.011963
2762.000000	0.011925
2761.000000	0.011883
2760.000000	0.011853
2759.000000	0.011843
2758.000000	0.011847
2757.000000	0.011854
2756.000000	0.011854
2755.000000	0.011843
2754.000000	0.011823
2753.000000	0.011798
2752.000000	0.011773
2751.000000	0.011753
2750.000000	0.011745
2749.000000	0.011743
2748.000000	0.011737
2747.000000	0.011718
2746.000000	0.011688
2745.000000	0.011657
2744.000000	0.011631
2743.000000	0.011610
2742.000000	0.011592
2741.000000	0.011578
2740.000000	0.011569
2739.000000	0.011567
2738.000000	0.011569
2737.000000	0.011570
2736.000000	0.011566
2735.000000	0.011553
2734.000000	0.011534
2733.000000	0.011515
2732.000000	0.011501
2731.000000	0.011494
2730.000000	0.011491
2729.000000	0.011488
2728.000000	0.011481
2727.000000	0.011466
2726.000000	0.011443
2725.000000	0.011418
2724.000000	0.011395
2723.000000	0.011381
2722.000000	0.011374
2721.000000	0.011371
2720.000000	0.011364
2719.000000	0.011347
2718.000000	0.011320
2717.000000	0.011285
2716.000000	0.011249
2715.000000	0.011218
2714.000000	0.011197
2713.000000	0.011188
2712.000000	0.011191
2711.000000	0.011204
2710.000000	0.011222
2709.000000	0.011236
2708.000000	0.011240
2707.000000	0.011231
2706.000000	0.011212
2705.000000	0.011186
2704.000000	0.011157
2703.000000	0.011130
2702.000000	0.011110
2701.000000	0.011102
2700.000000	0.011104
2699.000000	0.011107
2698.000000	0.011102
2697.000000	0.011086
2696.000000	0.011067
2695.000000	0.011052
2694.000000	0.011047
2693.000000	0.011047
2692.000000	0.011047
2691.000000	0.011048
2690.000000	0.011049
2689.000000	0.011045
2688.000000	0.011027
2687.000000	0.011002
2686.000000	0.010980
2685.000000	0.010971
2684.000000	0.010969
2683.000000	0.010962
2682.000000	0.010952
2681.000000	0.010949
2680.000000	0.010958
2679.000000	0.010971
2678.000000	0.010977
2677.000000	0.010970
2676.000000	0.010953
2675.000000	0.010936
2674.000000	0.010925
2673.000000	0.010923
2672.000000	0.010925
2671.000000	0.010928
2670.000000	0.010925
2669.000000	0.010914
2668.000000	0.010896
2667.000000	0.010877
2666.000000	0.010865
2665.000000	0.010860
2664.000000	0.010856
2663.000000	0.010848
2662.000000	0.010836
2661.000000	0.010823
2660.000000	0.010809
2659.000000	0.010797
2658.000000	0.010789
2657.000000	0.010783
2656.000000	0.010773
2655.000000	0.010752
2654.000000	0.010719
2653.000000	0.010677
2652.000000	0.010634
2651.000000	0.010596
2650.000000	0.010570
2649.000000	0.010560
2648.000000	0.010561
2647.000000	0.010556
2646.000000	0.010536
2645.000000	0.010506
2644.000000	0.010477
2643.000000	0.010462
2642.000000	0.010459
2641.000000	0.010462
2640.000000	0.010462
2639.000000	0.010452
2638.000000	0.010431
2637.000000	0.010400
2636.000000	0.010359
2635.000000	0.010313
2634.000000	0.010271
2633.000000	0.010242
2632.000000	0.010225
2631.000000	0.010213
2630.000000	0.010197
2629.000000	0.010174
2628.000000	0.010147
2627.000000	0.010117
2626.000000	0.010083
2625.000000	0.010046
2624.000000	0.010014
2623.000000	0.009997
2622.000000	0.009996
2621.000000	0.010004
2620.000000	0.010006
2619.000000	0.010002
2618.000000	0.010000
2617.000000	0.010001
2616.000000	0.009994
2615.000000	0.009969
2614.000000	0.009932
2613.000000	0.009904
2612.000000	0.009892
2611.000000	0.009893
2610.000000	0.009899
2609.000000	0.009902
2608.000000	0.009895
2607.000000	0.009876
2606.000000	0.009851
2605.000000	0.009834
2604.000000	0.009831
2603.000000	0.009832
2602.000000	0.009820
2601.000000	0.009788
2600.000000	0.009742
2599.000000	0.009699
2598.000000	0.009672
2597.000000	0.009666
2596.000000	0.009673
2595.000000	0.009678
2594.000000	0.009675
2593.000000	0.009665
2592.000000	0.009657
2591.000000	0.009650
2590.000000	0.009640
2589.000000	0.009627
2588.000000	0.009611
2587.000000	0.009591
2586.000000	0.009556
2585.000000	0.009502
2584.000000	0.009441
2583.000000	0.009404
2582.000000	0.009411
2581.000000	0.009451
2580.000000	0.009490
2579.000000	0.009505
2578.000000	0.009500
2577.000000	0.009494
2576.000000	0.009496
2575.000000	0.009503
2574.000000	0.009515
2573.000000	0.009535
2572.000000	0.009553
2571.000000	0.009551
2570.000000	0.009517
2569.000000	0.009465
2568.000000	0.009425
2567.000000	0.009420
2566.000000	0.009449
2565.000000	0.009495
2564.000000	0.009534
2563.000000	0.009545
2562.000000	0.009521
2561.000000	0.009471
2560.000000	0.009413
2559.000000	0.009364
2558.000000	0.009328
2557.000000	0.009299
2556.000000	0.009275
2555.000000	0.009262
2554.000000	0.009267
2553.000000	0.009291
2552.000000	0.009328
2551.000000	0.009367
2550.000000	0.009400
2549.000000	0.009417
2548.000000	0.009402
2547.000000	0.009355
2546.000000	0.009290
2545.000000	0.009229
2544.000000	0.009188
2543.000000	0.009173
2542.000000	0.009180
2541.000000	0.009202
2540.000000	0.009230
2539.000000	0.009256
2538.000000	0.009275
2537.000000	0.009284
2536.000000	0.009278
2535.000000	0.009261
2534.000000	0.009244
2533.000000	0.009234
2532.000000	0.009230
2531.000000	0.009227
2530.000000	0.009220
2529.000000	0.009208
2528.000000	0.009192
2527.000000	0.009179
2526.000000	0.009178
2525.000000	0.009190
2524.000000	0.009202
2523.000000	0.009204
2522.000000	0.009204
2521.000000	0.009214
2520.000000	0.009229
2519.000000	0.009230
2518.000000	0.009204
2517.000000	0.009162
2516.000000	0.009126
2515.000000	0.009107
2514.000000	0.009091
2513.000000	0.009056
2512.000000	0.009001
2511.000000	0.008958
2510.000000	0.008968
2509.000000	0.009036
2508.000000	0.009126
2507.000000	0.009192
2506.000000	0.009218
2505.000000	0.009210
2504.000000	0.009176
2503.000000	0.009124
2502.000000	0.009066
2501.000000	0.009016
2500.000000	0.008979
2499.000000	0.008949
2498.000000	0.008922
2497.000000	0.008896
2496.000000	0.008873
2495.000000	0.008863
2494.000000	0.008878
2493.000000	0.008915
2492.000000	0.008951
2491.000000	0.008964
2490.000000	0.008956
2489.000000	0.008942
2488.000000	0.008935
2487.000000	0.008939
2486.000000	0.008956
2485.000000	0.008977
2484.000000	0.008983
2483.000000	0.008963
2482.000000	0.008933
2481.000000	0.008922
2480.000000	0.008936
2479.000000	0.008953
2478.000000	0.008952
2477.000000	0.008926
2476.000000	0.008885
2475.000000	0.008843
2474.000000	0.008818
2473.000000	0.008826
2472.000000	0.008863
2471.000000	0.008913
2470.000000	0.008960
2469.000000	0.008996
2468.000000	0.009015
2467.000000	0.009011
2466.000000	0.008990
2465.000000	0.008968
2464.000000	0.008956
2463.000000	0.008952
2462.000000	0.008953
2461.000000	0.008953
2460.000000	0.008946
2459.000000	0.008924
2458.000000	0.008885
2457.000000	0.008845
2456.000000	0.008818
2455.000000	0.008816
2454.000000	0.008838
2453.000000	0.008871
2452.000000	0.008885
2451.000000	0.008861
2450.000000	0.008814
2449.000000	0.008782
2448.000000	0.008785
2447.000000	0.008811
2446.000000	0.008836
2445.000000	0.008847
2444.000000	0.008844
2443.000000	0.008827
2442.000000	0.008799
2441.000000	0.008770
2440.000000	0.008754
2439.000000	0.008761
2438.000000	0.008792
2437.000000	0.008831
2436.000000	0.008852
2435.000000	0.008837
2434.000000	0.008798
2433.000000	0.008770
2432.000000	0.008775
2431.000000	0.008800
2430.000000	0.008819
2429.000000	0.008815
2428.000000	0.008789
2427.000000	0.008755
2426.000000	0.008728
2425.000000	0.008725
2424.000000	0.008745
2423.000000	0.008772
2422.000000	0.008791
2421.000000	0.008795
2420.000000	0.008784
2419.000000	0.008759
2418.000000	0.008721
2417.000000	0.008683
2416.000000	0.008665
2415.000000	0.008679
2414.000000	0.008722
2413.000000	0.008771
2412.000000	0.008796
2411.000000	0.008779
2410.000000	0.008734
2409.000000	0.008692
2408.000000	0.008675
2407.000000	0.008682
2406.000000	0.008699
2405.000000	0.008711
2404.000000	0.008711
2403.000000	0.008700
2402.000000	0.008689
2401.000000	0.008685
2400.000000	0.008688
2399.000000	0.008692
2398.000000	0.008698
2397.000000	0.008707
2396.000000	0.008713
2395.000000	0.008703
2394.000000	0.008675
2393.000000	0.008642
2392.000000	0.008620
2391.000000	0.008620
2390.000000	0.008642
2389.000000	0.008678
2388.000000	0.008709
2387.000000	0.008719
2386.000000	0.008713
2385.000000	0.008704
2384.000000	0.008701
2383.000000	0.008690
2382.000000	0.008658
2381.000000	0.008606
2380.000000	0.008550
2379.000000	0.008512
2378.000000	0.008512
2377.000000	0.008555
2376.000000	0.008620
2375.000000	0.008678
2374.000000	0.008707
2373.000000	0.008708
2372.000000	0.008682
2371.000000	0.008632
2370.000000	0.008562
2369.000000	0.008491
2368.000000	0.008449
2367.000000	0.008456
2366.000000	0.008504
2365.000000	0.008562
2364.000000	0.008604
2363.000000	0.008635
2362.000000	0.008672
2361.000000	0.008718
2360.000000	0.008759
2359.000000	0.008778
2358.000000	0.008767
2357.000000	0.008730
2356.000000	0.008697
2355.000000	0.008695
2354.000000	0.008699
2353.000000	0.008670
2352.000000	0.008621
2351.000000	0.008605
2350.000000	0.008639
2349.000000	0.008692
2348.000000	0.008722
2347.000000	0.008705
2346.000000	0.008672
2345.000000	0.008682
2344.000000	0.008749
2343.000000	0.008826
2342.000000	0.008872
2341.000000	0.008876
2340.000000	0.008851
2339.000000	0.008819
2338.000000	0.008795
2337.000000	0.008789
2336.000000	0.008799
2335.000000	0.008810
2334.000000	0.008796
2333.000000	0.008752
2332.000000	0.008705
2331.000000	0.008689
2330.000000	0.008710
2329.000000	0.008755
2328.000000	0.008816
2327.000000	0.008891
2326.000000	0.008963
2325.000000	0.008999
2324.000000	0.008976
2323.000000	0.008911
2322.000000	0.008853
2321.000000	0.008848
2320.000000	0.008896
2319.000000	0.008965
2318.000000	0.009020
2317.000000	0.009038
2316.000000	0.009003
2315.000000	0.008920
2314.000000	0.008823
2313.000000	0.008756
2312.000000	0.008733
2311.000000	0.008728
2310.000000	0.008723
2309.000000	0.008724
2308.000000	0.008738
2307.000000	0.008744
2306.000000	0.008718
2305.000000	0.008669
2304.000000	0.008629
2303.000000	0.008614
2302.000000	0.008619
2301.000000	0.008630
2300.000000	0.008641
2299.000000	0.008646
2298.000000	0.008631
2297.000000	0.008597
2296.000000	0.008555
2295.000000	0.008521
2294.000000	0.008498
2293.000000	0.008482
2292.000000	0.008476
2291.000000	0.008488
2290.000000	0.008520
2289.000000	0.008557
2288.000000	0.008579
2287.000000	0.008573
2286.000000	0.008551
2285.000000	0.008539
2284.000000	0.008551
2283.000000	0.008578
2282.000000	0.008603
2281.000000	0.008613
2280.000000	0.008603
2279.000000	0.008571
2278.000000	0.008523
2277.000000	0.008469
2276.000000	0.008416
2275.000000	0.008373
2274.000000	0.008357
2273.000000	0.008379
2272.000000	0.008428
2271.000000	0.008474
2270.000000	0.008498
2269.000000	0.008510
2268.000000	0.008524
2267.000000	0.008535
2266.000000	0.008517
2265.000000	0.008449
2264.000000	0.008332
2263.000000	0.008206
2262.000000	0.008129
2261.000000	0.008143
2260.000000	0.008237
2259.000000	0.008355
2258.000000	0.008428
2257.000000	0.008420
2256.000000	0.008333
2255.000000	0.008216
2254.000000	0.008138
2253.000000	0.008141
2252.000000	0.008206
2251.000000	0.008265
2250.000000	0.008263
2249.000000	0.008196
2248.000000	0.008113
2247.000000	0.008073
2246.000000	0.008108
2245.000000	0.008194
2244.000000	0.008267
2243.000000	0.008279
2242.000000	0.008242
2241.000000	0.008193
2240.000000	0.008149
2239.000000	0.008103
2238.000000	0.008069
2237.000000	0.008077
2236.000000	0.008123
2235.000000	0.008158
2234.000000	0.008153
2233.000000	0.008128
2232.000000	0.008115
2231.000000	0.008123
2230.000000	0.008140
2229.000000	0.008165
2228.000000	0.008188
2227.000000	0.008176
2226.000000	0.008105
2225.000000	0.007993
2224.000000	0.007892
2223.000000	0.007848
2222.000000	0.007865
2221.000000	0.007908
2220.000000	0.007926
2219.000000	0.007889
2218.000000	0.007811
2217.000000	0.007736
2216.000000	0.007698
2215.000000	0.007700
2214.000000	0.007730
2213.000000	0.007774
2212.000000	0.007816
2211.000000	0.007853
2210.000000	0.007897
2209.000000	0.007945
2208.000000	0.007976
2207.000000	0.007989
2206.000000	0.008032
2205.000000	0.008131
2204.000000	0.008229
2203.000000	0.008229
2202.000000	0.008120
2201.000000	0.007993
2200.000000	0.007931
2199.000000	0.007936
2198.000000	0.007966
2197.000000	0.008005
2196.000000	0.008057
2195.000000	0.008122
2194.000000	0.008200
2193.000000	0.008290
2192.000000	0.008350
2191.000000	0.008311
2190.000000	0.008151
2189.000000	0.007939
2188.000000	0.007767
2187.000000	0.007680
2186.000000	0.007683
2185.000000	0.007790
2184.000000	0.008001
2183.000000	0.008241
2182.000000	0.008377
2181.000000	0.008326
2180.000000	0.008130
2179.000000	0.007905
2178.000000	0.007721
2177.000000	0.007568
2176.000000	0.007420
2175.000000	0.007312
2174.000000	0.007302
2173.000000	0.007374
2172.000000	0.007431
2171.000000	0.007418
2170.000000	0.007391
2169.000000	0.007431
2168.000000	0.007537
2167.000000	0.007640
2166.000000	0.007697
2165.000000	0.007686
2164.000000	0.007553
2163.000000	0.007262
2162.000000	0.006905
2161.000000	0.006663
2160.000000	0.006620
2159.000000	0.006684
2158.000000	0.006721
2157.000000	0.006688
2156.000000	0.006614
2155.000000	0.006539
2154.000000	0.006509
2153.000000	0.006553
2152.000000	0.006638
2151.000000	0.006710
2150.000000	0.006771
2149.000000	0.006868
2148.000000	0.007018
2147.000000	0.007182
2146.000000	0.007329
2145.000000	0.007453
2144.000000	0.007542
2143.000000	0.007570
2142.000000	0.007538
2141.000000	0.007482
2140.000000	0.007439
2139.000000	0.007434
2138.000000	0.007477
2137.000000	0.007546
2136.000000	0.007587
2135.000000	0.007567
2134.000000	0.007530
2133.000000	0.007546
2132.000000	0.007620
2131.000000	0.007687
2130.000000	0.007688
2129.000000	0.007626
2128.000000	0.007545
2127.000000	0.007497
2126.000000	0.007530
2125.000000	0.007648
2124.000000	0.007791
2123.000000	0.007877
2122.000000	0.007887
2121.000000	0.007875
2120.000000	0.007893
2119.000000	0.007926
2118.000000	0.007926
2117.000000	0.007880
2116.000000	0.007830
2115.000000	0.007822
2114.000000	0.007870
2113.000000	0.007943
2112.000000	0.007999
2111.000000	0.008021
2110.000000	0.008028
2109.000000	0.008052
2108.000000	0.008096
2107.000000	0.008137
2106.000000	0.008153
2105.000000	0.008141
2104.000000	0.008099
2103.000000	0.008028
2102.000000	0.007940
2101.000000	0.007860
2100.000000	0.007804
2099.000000	0.007783
2098.000000	0.007802
2097.000000	0.007851
2096.000000	0.007887
2095.000000	0.007876
2094.000000	0.007829
2093.000000	0.007787
2092.000000	0.007772
2091.000000	0.007780
2090.000000	0.007807
2089.000000	0.007848
2088.000000	0.007870
2087.000000	0.007841
2086.000000	0.007771
2085.000000	0.007707
2084.000000	0.007666
2083.000000	0.007614
2082.000000	0.007531
2081.000000	0.007451
2080.000000	0.007433
2079.000000	0.007500
2078.000000	0.007621
2077.000000	0.007730
2076.000000	0.007762
2075.000000	0.007696
2074.000000	0.007578
2073.000000	0.007484
2072.000000	0.007459
2071.000000	0.007490
2070.000000	0.007543
2069.000000	0.007578
2068.000000	0.007550
2067.000000	0.007433
2066.000000	0.007253
2065.000000	0.007081
2064.000000	0.006991
2063.000000	0.007029
2062.000000	0.007196
2061.000000	0.007429
2060.000000	0.007597
2059.000000	0.007611
2058.000000	0.007511
2057.000000	0.007421
2056.000000	0.007412
2055.000000	0.007455
2054.000000	0.007491
2053.000000	0.007498
2052.000000	0.007470
2051.000000	0.007396
2050.000000	0.007282
2049.000000	0.007165
2048.000000	0.007084
2047.000000	0.007068
2046.000000	0.007135
2045.000000	0.007259
2044.000000	0.007352
2043.000000	0.007348
2042.000000	0.007294
2041.000000	0.007282
2040.000000	0.007294
2039.000000	0.007225
2038.000000	0.007047
2037.000000	0.006861
2036.000000	0.006762
2035.000000	0.006745
2034.000000	0.006787
2033.000000	0.006891
2032.000000	0.007020
2031.000000	0.007078
2030.000000	0.007015
2029.000000	0.006880
2028.000000	0.006735
2027.000000	0.006614
2026.000000	0.006566
2025.000000	0.006650
2024.000000	0.006835
2023.000000	0.006992
2022.000000	0.007027
2021.000000	0.006953
2020.000000	0.006835
2019.000000	0.006729
2018.000000	0.006687
2017.000000	0.006707
2016.000000	0.006682
2015.000000	0.006496
2014.000000	0.006207
2013.000000	0.006041
2012.000000	0.006155
2011.000000	0.006470
2010.000000	0.006760
2009.000000	0.006850
2008.000000	0.006724
2007.000000	0.006507
2006.000000	0.006363
2005.000000	0.006350
2004.000000	0.006381
2003.000000	0.006361
2002.000000	0.006329
2001.000000	0.006376
2000.000000	0.006491
1999.000000	0.006570
1998.000000	0.006563
1997.000000	0.006525
1996.000000	0.006509
1995.000000	0.006528
1994.000000	0.006604
1993.000000	0.006764
1992.000000	0.006949
1991.000000	0.007052
1990.000000	0.007064
1989.000000	0.007091
1988.000000	0.007195
1987.000000	0.007319
1986.000000	0.007382
1985.000000	0.007363
1984.000000	0.007251
1983.000000	0.007030
1982.000000	0.006749
1981.000000	0.006545
1980.000000	0.006495
1979.000000	0.006532
1978.000000	0.006560
1977.000000	0.006594
1976.000000	0.006698
1975.000000	0.006849
1974.000000	0.006968
1973.000000	0.007004
1972.000000	0.006947
1971.000000	0.006795
1970.000000	0.006587
1969.000000	0.006409
1968.000000	0.006334
1967.000000	0.006362
1966.000000	0.006455
1965.000000	0.006563
1964.000000	0.006623
1963.000000	0.006584
1962.000000	0.006460
1961.000000	0.006333
1960.000000	0.006284
1959.000000	0.006344
1958.000000	0.006501
1957.000000	0.006703
1956.000000	0.006864
1955.000000	0.006923
1954.000000	0.006902
1953.000000	0.006867
1952.000000	0.006840
1951.000000	0.006792
1950.000000	0.006716
1949.000000	0.006653
1948.000000	0.006620
1947.000000	0.006590
1946.000000	0.006542
1945.000000	0.006487
1944.000000	0.006432
1943.000000	0.006376
1942.000000	0.006346
1941.000000	0.006377
1940.000000	0.006445
1939.000000	0.006489
1938.000000	0.006501
1937.000000	0.006531
1936.000000	0.006612
1935.000000	0.006701
1934.000000	0.006744
1933.000000	0.006738
1932.000000	0.006717
1931.000000	0.006709
1930.000000	0.006734
1929.000000	0.006811
1928.000000	0.006911
1927.000000	0.006961
1926.000000	0.006916
1925.000000	0.006814
1924.000000	0.006723
1923.000000	0.006673
1922.000000	0.006659
1921.000000	0.006680
1920.000000	0.006738
1919.000000	0.006807
1918.000000	0.006844
1917.000000	0.006839
1916.000000	0.006815
1915.000000	0.006798
1914.000000	0.006799
1913.000000	0.006819
1912.000000	0.006845
1911.000000	0.006859
1910.000000	0.006846
1909.000000	0.006813
1908.000000	0.006769
1907.000000	0.006729
1906.000000	0.006697
1905.000000	0.006682
1904.000000	0.006677
1903.000000	0.006671
1902.000000	0.006677
1901.000000	0.006708
1900.000000	0.006744
1899.000000	0.006753
1898.000000	0.006728
1897.000000	0.006693
1896.000000	0.006670
1895.000000	0.006662
1894.000000	0.006664
1893.000000	0.006676
1892.000000	0.006683
1891.000000	0.006671
1890.000000	0.006652
1889.000000	0.006647
1888.000000	0.006647
1887.000000	0.006624
1886.000000	0.006575
1885.000000	0.006525
1884.000000	0.006495
1883.000000	0.006492
1882.000000	0.006523
1881.000000	0.006577
1880.000000	0.006623
1879.000000	0.006637
1878.000000	0.006629
1877.000000	0.006625
1876.000000	0.006626
1875.000000	0.006618
1874.000000	0.006593
1873.000000	0.006561
1872.000000	0.006525
1871.000000	0.006483
1870.000000	0.006454
1869.000000	0.006460
1868.000000	0.006483
1867.000000	0.006485
1866.000000	0.006480
1865.000000	0.006509
1864.000000	0.006575
1863.000000	0.006647
1862.000000	0.006707
1861.000000	0.006746
1860.000000	0.006744
1859.000000	0.006690
1858.000000	0.006615
1857.000000	0.006559
1856.000000	0.006525
1855.000000	0.006491
1854.000000	0.006471
1853.000000	0.006496
1852.000000	0.006546
1851.000000	0.006585
1850.000000	0.006592
1849.000000	0.006564
1848.000000	0.006497
1847.000000	0.006405
1846.000000	0.006341
1845.000000	0.006349
1844.000000	0.006398
1843.000000	0.006409
1842.000000	0.006383
1841.000000	0.006385
1840.000000	0.006434
1839.000000	0.006487
1838.000000	0.006510
1837.000000	0.006520
1836.000000	0.006522
1835.000000	0.006480
1834.000000	0.006386
1833.000000	0.006286
1832.000000	0.006232
1831.000000	0.006242
1830.000000	0.006282
1829.000000	0.006307
1828.000000	0.006313
1827.000000	0.006328
1826.000000	0.006367
1825.000000	0.006418
1824.000000	0.006455
1823.000000	0.006466
1822.000000	0.006462
1821.000000	0.006455
1820.000000	0.006441
1819.000000	0.006414
1818.000000	0.006384
1817.000000	0.006367
1816.000000	0.006359
1815.000000	0.006332
1814.000000	0.006291
1813.000000	0.006261
1812.000000	0.006259
1811.000000	0.006266
1810.000000	0.006266
1809.000000	0.006281
1808.000000	0.006319
1807.000000	0.006348
1806.000000	0.006351
1805.000000	0.006345
1804.000000	0.006341
1803.000000	0.006321
1802.000000	0.006279
1801.000000	0.006235
1800.000000	0.006217
1799.000000	0.006226
1798.000000	0.006249
1797.000000	0.006268
1796.000000	0.006250
1795.000000	0.006169
1794.000000	0.006048
1793.000000	0.005945
1792.000000	0.005916
1791.000000	0.005940
1790.000000	0.005970
1789.000000	0.005998
1788.000000	0.006028
1787.000000	0.006047
1786.000000	0.006050
1785.000000	0.006040
1784.000000	0.005997
1783.000000	0.005918
1782.000000	0.005852
1781.000000	0.005826
1780.000000	0.005824
1779.000000	0.005804
1778.000000	0.005758
1777.000000	0.005696
1776.000000	0.005611
1775.000000	0.005513
1774.000000	0.005435
1773.000000	0.005405
1772.000000	0.005418
1771.000000	0.005448
1770.000000	0.005498
1769.000000	0.005601
1768.000000	0.005718
1767.000000	0.005761
1766.000000	0.005725
1765.000000	0.005693
1764.000000	0.005739
1763.000000	0.005857
1762.000000	0.006011
1761.000000	0.006172
1760.000000	0.006347
1759.000000	0.006564
1758.000000	0.006886
1757.000000	0.007328
1756.000000	0.007805
1755.000000	0.008237
1754.000000	0.008659
1753.000000	0.009155
1752.000000	0.009724
1751.000000	0.010272
1750.000000	0.010719
1749.000000	0.011099
1748.000000	0.011425
1747.000000	0.011646
1746.000000	0.011742
1745.000000	0.011721
1744.000000	0.011583
1743.000000	0.011301
1742.000000	0.010901
1741.000000	0.010455
1740.000000	0.009996
1739.000000	0.009490
1738.000000	0.008968
1737.000000	0.008535
1736.000000	0.008231
1735.000000	0.007962
1734.000000	0.007656
1733.000000	0.007336
1732.000000	0.007048
1731.000000	0.006825
1730.000000	0.006662
1729.000000	0.006535
1728.000000	0.006409
1727.000000	0.006273
1726.000000	0.006132
1725.000000	0.005991
1724.000000	0.005854
1723.000000	0.005682
1722.000000	0.005462
1721.000000	0.005252
1720.000000	0.005111
1719.000000	0.005023
1718.000000	0.004950
1717.000000	0.004943
1716.000000	0.005047
1715.000000	0.005224
1714.000000	0.005438
1713.000000	0.005681
1712.000000	0.005931
1711.000000	0.006167
1710.000000	0.006397
1709.000000	0.006640
1708.000000	0.006912
1707.000000	0.007247
1706.000000	0.007662
1705.000000	0.008103
1704.000000	0.008472
1703.000000	0.008799
1702.000000	0.009227
1701.000000	0.009859
1700.000000	0.010552
1699.000000	0.011017
1698.000000	0.011386
1697.000000	0.012002
1696.000000	0.012879
1695.000000	0.013649
1694.000000	0.014118
1693.000000	0.014487
1692.000000	0.014942
1691.000000	0.015474
1690.000000	0.016009
1689.000000	0.016507
1688.000000	0.016958
1687.000000	0.017397
1686.000000	0.017882
1685.000000	0.018511
1684.000000	0.019264
1683.000000	0.019918
1682.000000	0.020488
1681.000000	0.021150
1680.000000	0.021892
1679.000000	0.022584
1678.000000	0.023210
1677.000000	0.023894
1676.000000	0.024707
1675.000000	0.025542
1674.000000	0.026274
1673.000000	0.026945
1672.000000	0.027682
1671.000000	0.028512
1670.000000	0.029418
1669.000000	0.030386
1668.000000	0.031338
1667.000000	0.032186
1666.000000	0.032939
1665.000000	0.033683
1664.000000	0.034472
1663.000000	0.035271
1662.000000	0.036034
1661.000000	0.036759
1660.000000	0.037457
1659.000000	0.038098
1658.000000	0.038639
1657.000000	0.039109
1656.000000	0.039594
1655.000000	0.040111
1654.000000	0.040561
1653.000000	0.040964
1652.000000	0.041335
1651.000000	0.041600
1650.000000	0.041864
1649.000000	0.042216
1648.000000	0.042602
1647.000000	0.042928
1646.000000	0.043198
1645.000000	0.043480
1644.000000	0.043790
1643.000000	0.044090
1642.000000	0.044367
1641.000000	0.044597
1640.000000	0.044763
1639.000000	0.044879
1638.000000	0.044964
1637.000000	0.045024
1636.000000	0.045050
1635.000000	0.045083
1634.000000	0.045153
1633.000000	0.045277
1632.000000	0.045418
1631.000000	0.045477
1630.000000	0.045370
1629.000000	0.045093
1628.000000	0.044704
1627.000000	0.044265
1626.000000	0.043810
1625.000000	0.043297
1624.000000	0.042652
1623.000000	0.041874
1622.000000	0.041100
1621.000000	0.040445
1620.000000	0.039896
1619.000000	0.039344
1618.000000	0.038616
1617.000000	0.037621
1616.000000	0.036528
1615.000000	0.035595
1614.000000	0.034885
1613.000000	0.034285
1612.000000	0.033652
1611.000000	0.032932
1610.000000	0.032187
1609.000000	0.031471
1608.000000	0.030777
1607.000000	0.030114
1606.000000	0.029527
1605.000000	0.029005
1604.000000	0.028496
1603.000000	0.027997
1602.000000	0.027541
1601.000000	0.027135
1600.000000	0.026759
1599.000000	0.026412
1598.000000	0.026109
1597.000000	0.025842
1596.000000	0.025590
1595.000000	0.025365
1594.000000	0.025194
1593.000000	0.025072
1592.000000	0.024972
1591.000000	0.024896
1590.000000	0.024866
1589.000000	0.024876
1588.000000	0.024911
1587.000000	0.024987
1586.000000	0.025134
1585.000000	0.025331
1584.000000	0.025525
1583.000000	0.025728
1582.000000	0.025973
1581.000000	0.026229
1580.000000	0.026448
1579.000000	0.026668
1578.000000	0.026949
1577.000000	0.027284
1576.000000	0.027610
1575.000000	0.027890
1574.000000	0.028161
1573.000000	0.028466
1572.000000	0.028811
1571.000000	0.029178
1570.000000	0.029581
1569.000000	0.030019
1568.000000	0.030439
1567.000000	0.030869
1566.000000	0.031359
1565.000000	0.031895
1564.000000	0.032405
1563.000000	0.032888
1562.000000	0.033400
1561.000000	0.033910
1560.000000	0.034290
1559.000000	0.034641
1558.000000	0.035142
1557.000000	0.035698
1556.000000	0.036265
1555.000000	0.036827
1554.000000	0.037324
1553.000000	0.037719
1552.000000	0.038068
1551.000000	0.038426
1550.000000	0.038765
1549.000000	0.039059
1548.000000	0.039311
1547.000000	0.039551
1546.000000	0.039766
1545.000000	0.039914
1544.000000	0.039985
1543.000000	0.040014
1542.000000	0.040009
1541.000000	0.039978
1540.000000	0.039947
1539.000000	0.039929
1538.000000	0.039893
1537.000000	0.039851
1536.000000	0.039813
1535.000000	0.039696
1534.000000	0.039413
1533.000000	0.039044
1532.000000	0.038762
1531.000000	0.038578
1530.000000	0.038402
1529.000000	0.038188
1528.000000	0.037934
1527.000000	0.037621
1526.000000	0.037231
1525.000000	0.036800
1524.000000	0.036399
1523.000000	0.036020
1522.000000	0.035593
1521.000000	0.035153
1520.000000	0.034798
1519.000000	0.034534
1518.000000	0.034295
1517.000000	0.034030
1516.000000	0.033752
1515.000000	0.033497
1514.000000	0.033261
1513.000000	0.032986
1512.000000	0.032632
1511.000000	0.032201
1510.000000	0.031741
1509.000000	0.031260
1508.000000	0.030683
1507.000000	0.029975
1506.000000	0.029335
1505.000000	0.028914
1504.000000	0.028635
1503.000000	0.028401
1502.000000	0.028136
1501.000000	0.027786
1500.000000	0.027358
1499.000000	0.026905
1498.000000	0.026449
1497.000000	0.026003
1496.000000	0.025598
1495.000000	0.025226
1494.000000	0.024884
1493.000000	0.024585
1492.000000	0.024302
1491.000000	0.023953
1490.000000	0.023532
1489.000000	0.023170
1488.000000	0.022969
1487.000000	0.022889
1486.000000	0.022875
1485.000000	0.022927
1484.000000	0.023017
1483.000000	0.023113
1482.000000	0.023193
1481.000000	0.023283
1480.000000	0.023401
1479.000000	0.023540
1478.000000	0.023692
1477.000000	0.023872
1476.000000	0.024105
1475.000000	0.024387
1474.000000	0.024754
1473.000000	0.025264
1472.000000	0.025901
1471.000000	0.026546
1470.000000	0.027148
1469.000000	0.027733
1468.000000	0.028293
1467.000000	0.028779
1466.000000	0.029188
1465.000000	0.029568
1464.000000	0.029943
1463.000000	0.030288
1462.000000	0.030584
1461.000000	0.030857
1460.000000	0.031135
1459.000000	0.031446
1458.000000	0.031820
1457.000000	0.032276
1456.000000	0.032710
1455.000000	0.033033
1454.000000	0.033314
1453.000000	0.033594
1452.000000	0.033824
1451.000000	0.033949
1450.000000	0.033986
1449.000000	0.033982
1448.000000	0.033957
1447.000000	0.033920
1446.000000	0.033905
1445.000000	0.033903
1444.000000	0.033881
1443.000000	0.033811
1442.000000	0.033685
1441.000000	0.033516
1440.000000	0.033339
1439.000000	0.033176
1438.000000	0.032978
1437.000000	0.032671
1436.000000	0.032286
1435.000000	0.031952
1434.000000	0.031733
1433.000000	0.031597
1432.000000	0.031460
1431.000000	0.031275
1430.000000	0.031068
1429.000000	0.030892
1428.000000	0.030762
1427.000000	0.030663
1426.000000	0.030585
1425.000000	0.030489
1424.000000	0.030362
1423.000000	0.030252
1422.000000	0.030206
1421.000000	0.030203
1420.000000	0.030158
1419.000000	0.030047
1418.000000	0.029934
1417.000000	0.029880
1416.000000	0.029884
1415.000000	0.029900
1414.000000	0.029885
1413.000000	0.029837
1412.000000	0.029786
1411.000000	0.029756
1410.000000	0.029743
1409.000000	0.029740
1408.000000	0.029742
1407.000000	0.029738
1406.000000	0.029732
1405.000000	0.029730
1404.000000	0.029736
1403.000000	0.029746
1402.000000	0.029743
1401.000000	0.029704
1400.000000	0.029597
1399.000000	0.029429
1398.000000	0.029251
1397.000000	0.029097
1396.000000	0.028947
1395.000000	0.028764
1394.000000	0.028556
1393.000000	0.028350
1392.000000	0.028160
1391.000000	0.027976
1390.000000	0.027778
1389.000000	0.027544
1388.000000	0.027272
1387.000000	0.026986
1386.000000	0.026719
1385.000000	0.026477
1384.000000	0.026240
1383.000000	0.025992
1382.000000	0.025744
1381.000000	0.025526
1380.000000	0.025334
1379.000000	0.025129
1378.000000	0.024877
1377.000000	0.024578
1376.000000	0.024249
1375.000000	0.023906
1374.000000	0.023563
1373.000000	0.023226
1372.000000	0.022895
1371.000000	0.022568
1370.000000	0.022241
1369.000000	0.021893
1368.000000	0.021509
1367.000000	0.021110
1366.000000	0.020742
1365.000000	0.020427
1364.000000	0.020148
1363.000000	0.019881
1362.000000	0.019637
1361.000000	0.019449
1360.000000	0.019336
1359.000000	0.019276
1358.000000	0.019239
1357.000000	0.019205
1356.000000	0.019186
1355.000000	0.019209
1354.000000	0.019285
1353.000000	0.019403
1352.000000	0.019550
1351.000000	0.019720
1350.000000	0.019930
1349.000000	0.020177
1348.000000	0.020445
1347.000000	0.020713
1346.000000	0.020980
1345.000000	0.021246
1344.000000	0.021510
1343.000000	0.021765
1342.000000	0.022008
1341.000000	0.022237
1340.000000	0.022441
1339.000000	0.022606
1338.000000	0.022725
1337.000000	0.022799
1336.000000	0.022829
1335.000000	0.022814
1334.000000	0.022759
1333.000000	0.022670
1332.000000	0.022551
1331.000000	0.022406
1330.000000	0.022246
1329.000000	0.022083
1328.000000	0.021924
1327.000000	0.021772
1326.000000	0.021638
1325.000000	0.021531
1324.000000	0.021448
1323.000000	0.021381
1322.000000	0.021326
1321.000000	0.021281
1320.000000	0.021247
1319.000000	0.021216
1318.000000	0.021180
1317.000000	0.021142
1316.000000	0.021106
1315.000000	0.021065
1314.000000	0.021000
1313.000000	0.020901
1312.000000	0.020781
1311.000000	0.020660
1310.000000	0.020548
1309.000000	0.020440
1308.000000	0.020327
1307.000000	0.020205
1306.000000	0.020078
1305.000000	0.019951
1304.000000	0.019830
1303.000000	0.019719
1302.000000	0.019614
1301.000000	0.019510
1300.000000	0.019411
1299.000000	0.019325
1298.000000	0.019255
1297.000000	0.019198
1296.000000	0.019162
1295.000000	0.019168
1294.000000	0.019226
1293.000000	0.019322
1292.000000	0.019433
1291.000000	0.019541
1290.000000	0.019645
1289.000000	0.019752
1288.000000	0.019874
1287.000000	0.020022
1286.000000	0.020192
1285.000000	0.020370
1284.000000	0.020531
1283.000000	0.020655
1282.000000	0.020736
1281.000000	0.020784
1280.000000	0.020818
1279.000000	0.020844
1278.000000	0.020858
1277.000000	0.020849
1276.000000	0.020818
1275.000000	0.020778
1274.000000	0.020745
1273.000000	0.020725
1272.000000	0.020710
1271.000000	0.020696
1270.000000	0.020684
1269.000000	0.020687
1268.000000	0.020721
1267.000000	0.020796
1266.000000	0.020901
1265.000000	0.021005
1264.000000	0.021083
1263.000000	0.021137
1262.000000	0.021197
1261.000000	0.021296
1260.000000	0.021444
1259.000000	0.021620
1258.000000	0.021792
1257.000000	0.021951
1256.000000	0.022113
1255.000000	0.022305
1254.000000	0.022535
1253.000000	0.022795
1252.000000	0.023064
1251.000000	0.023329
1250.000000	0.023585
1249.000000	0.023834
1248.000000	0.024075
1247.000000	0.024310
1246.000000	0.024539
1245.000000	0.024762
1244.000000	0.024985
1243.000000	0.025209
1242.000000	0.025430
1241.000000	0.025629
1240.000000	0.025774
1239.000000	0.025841
1238.000000	0.025838
1237.000000	0.025787
1236.000000	0.025705
1235.000000	0.025590
1234.000000	0.025428
1233.000000	0.025218
1232.000000	0.024970
1231.000000	0.024692
1230.000000	0.024388
1229.000000	0.024059
1228.000000	0.023706
1227.000000	0.023327
1226.000000	0.022921
1225.000000	0.022485
1224.000000	0.022016
1223.000000	0.021514
1222.000000	0.020973
1221.000000	0.020392
1220.000000	0.019796
1219.000000	0.019248
1218.000000	0.018828
1217.000000	0.018583
1216.000000	0.018507
1215.000000	0.018549
1214.000000	0.018648
1213.000000	0.018768
1212.000000	0.018894
1211.000000	0.019022
1210.000000	0.019143
1209.000000	0.019255
1208.000000	0.019368
1207.000000	0.019498
1206.000000	0.019643
1205.000000	0.019781
1204.000000	0.019885
1203.000000	0.019943
1202.000000	0.019958
1201.000000	0.019938
1200.000000	0.019886
1199.000000	0.019803
1198.000000	0.019690
1197.000000	0.019551
1196.000000	0.019386
1195.000000	0.019200
1194.000000	0.019004
1193.000000	0.018813
1192.000000	0.018634
1191.000000	0.018462
1190.000000	0.018292
1189.000000	0.018125
1188.000000	0.017964
1187.000000	0.017809
1186.000000	0.017662
1185.000000	0.017532
1184.000000	0.017439
1183.000000	0.017389
1182.000000	0.017370
1181.000000	0.017358
1180.000000	0.017347
1179.000000	0.017345
1178.000000	0.017363
1177.000000	0.017408
1176.000000	0.017473
1175.000000	0.017543
1174.000000	0.017607
1173.000000	0.017670
1172.000000	0.017750
1171.000000	0.017857
1170.000000	0.017977
1169.000000	0.018091
1168.000000	0.018199
1167.000000	0.018314
1166.000000	0.018439
1165.000000	0.018565
1164.000000	0.018679
1163.000000	0.018775
1162.000000	0.018847
1161.000000	0.018889
1160.000000	0.018892
1159.000000	0.018852
1158.000000	0.018766
1157.000000	0.018637
1156.000000	0.018477
1155.000000	0.018296
1154.000000	0.018096
1153.000000	0.017869
1152.000000	0.017622
1151.000000	0.017378
1150.000000	0.017156
1149.000000	0.016957
1148.000000	0.016769
1147.000000	0.016585
1146.000000	0.016403
1145.000000	0.016218
1144.000000	0.016033
1143.000000	0.015859
1142.000000	0.015697
1141.000000	0.015532
1140.000000	0.015343
1139.000000	0.015121
1138.000000	0.014886
1137.000000	0.014668
1136.000000	0.014486
1135.000000	0.014343
1134.000000	0.014228
1133.000000	0.014126
1132.000000	0.014030
1131.000000	0.013940
1130.000000	0.013857
1129.000000	0.013787
1128.000000	0.013743
1127.000000	0.013741
1126.000000	0.013786
1125.000000	0.013867
1124.000000	0.013966
1123.000000	0.014065
1122.000000	0.014150
1121.000000	0.014213
1120.000000	0.014255
1119.000000	0.014281
1118.000000	0.014294
1117.000000	0.014295
1116.000000	0.014297
1115.000000	0.014311
1114.000000	0.014336
1113.000000	0.014356
1112.000000	0.014362
1111.000000	0.014360
1110.000000	0.014365
1109.000000	0.014385
1108.000000	0.014426
1107.000000	0.014482
1106.000000	0.014546
1105.000000	0.014606
1104.000000	0.014658
1103.000000	0.014703
1102.000000	0.014749
1101.000000	0.014802
1100.000000	0.014872
1099.000000	0.014953
1098.000000	0.015022
1097.000000	0.015055
1096.000000	0.015055
1095.000000	0.015057
1094.000000	0.015103
1093.000000	0.015212
1092.000000	0.015376
1091.000000	0.015573
1090.000000	0.015786
1089.000000	0.016015
1088.000000	0.016271
1087.000000	0.016558
1086.000000	0.016853
1085.000000	0.017120
1084.000000	0.017328
1083.000000	0.017463
1082.000000	0.017525
1081.000000	0.017522
1080.000000	0.017474
1079.000000	0.017397
1078.000000	0.017295
1077.000000	0.017159
1076.000000	0.016991
1075.000000	0.016805
1074.000000	0.016611
1073.000000	0.016407
1072.000000	0.016192
1071.000000	0.015989
1070.000000	0.015834
1069.000000	0.015754
1068.000000	0.015742
1067.000000	0.015772
1066.000000	0.015817
1065.000000	0.015865
1064.000000	0.015910
1063.000000	0.015949
1062.000000	0.015976
1061.000000	0.015984
1060.000000	0.015974
1059.000000	0.015947
1058.000000	0.015899
1057.000000	0.015828
1056.000000	0.015744
1055.000000	0.015662
1054.000000	0.015590
1053.000000	0.015525
1052.000000	0.015459
1051.000000	0.015391
1050.000000	0.015320
1049.000000	0.015243
1048.000000	0.015169
1047.000000	0.015115
1046.000000	0.015092
1045.000000	0.015095
1044.000000	0.015110
1043.000000	0.015133
1042.000000	0.015169
1041.000000	0.015215
1040.000000	0.015269
1039.000000	0.015341
1038.000000	0.015450
1037.000000	0.015612
1036.000000	0.015821
1035.000000	0.016052
1034.000000	0.016277
1033.000000	0.016473
1032.000000	0.016620
1031.000000	0.016705
1030.000000	0.016725
1029.000000	0.016684
1028.000000	0.016597
1027.000000	0.016483
1026.000000	0.016355
1025.000000	0.016218
1024.000000	0.016071
1023.000000	0.015921
1022.000000	0.015782
1021.000000	0.015664
1020.000000	0.015565
1019.000000	0.015478
1018.000000	0.015396
1017.000000	0.015313
1016.000000	0.015216
1015.000000	0.015092
1014.000000	0.014936
1013.000000	0.014753
1012.000000	0.014551
1011.000000	0.014343
1010.000000	0.014139
1009.000000	0.013945
1008.000000	0.013759
1007.000000	0.013576
1006.000000	0.013387
1005.000000	0.013192
1004.000000	0.012997
1003.000000	0.012813
1002.000000	0.012643
1001.000000	0.012482
1000.000000	0.012324
999.000000	0.012170
998.000000	0.012022
997.000000	0.011879
996.000000	0.011742
995.000000	0.011611
994.000000	0.011483
993.000000	0.011351
992.000000	0.011207
991.000000	0.011046
990.000000	0.010876
989.000000	0.010718
988.000000	0.010595
987.000000	0.010510
986.000000	0.010434
985.000000	0.010335
984.000000	0.010222
983.000000	0.010141
982.000000	0.010123
981.000000	0.010145
980.000000	0.010158
979.000000	0.010139
978.000000	0.010102
977.000000	0.010062
976.000000	0.010023
975.000000	0.009982
974.000000	0.009941
973.000000	0.009898
972.000000	0.009844
971.000000	0.009776
970.000000	0.009700
969.000000	0.009622
968.000000	0.009535
967.000000	0.009427
966.000000	0.009301
965.000000	0.009171
964.000000	0.009054
963.000000	0.008952
962.000000	0.008853
961.000000	0.008742
960.000000	0.008612
959.000000	0.008473
958.000000	0.008344
957.000000	0.008236
956.000000	0.008144
955.000000	0.008060
954.000000	0.007979
953.000000	0.007900
952.000000	0.007821
951.000000	0.007747
950.000000	0.007687
949.000000	0.007647
948.000000	0.007616
947.000000	0.007576
946.000000	0.007533
945.000000	0.007513
944.000000	0.007529
943.000000	0.007560
942.000000	0.007571
941.000000	0.007549
940.000000	0.007505
939.000000	0.007456
938.000000	0.007412
937.000000	0.007371
936.000000	0.007332
935.000000	0.007287
934.000000	0.007232
933.000000	0.007171
932.000000	0.007111
931.000000	0.007045
930.000000	0.006962
929.000000	0.006871
928.000000	0.006804
927.000000	0.006786
926.000000	0.006802
925.000000	0.006815
924.000000	0.006794
923.000000	0.006739
922.000000	0.006667
921.000000	0.006594
920.000000	0.006523
919.000000	0.006438
918.000000	0.006324
917.000000	0.006197
916.000000	0.006098
915.000000	0.006050
914.000000	0.006030
913.000000	0.005988
912.000000	0.005904
911.000000	0.005802
910.000000	0.005708
909.000000	0.005631
908.000000	0.005569
907.000000	0.005532
906.000000	0.005533
905.000000	0.005562
904.000000	0.005585
903.000000	0.005556
902.000000	0.005462
901.000000	0.005341
900.000000	0.005260
899.000000	0.005258
898.000000	0.005303
897.000000	0.005336
896.000000	0.005326
895.000000	0.005289
894.000000	0.005247
893.000000	0.005205
892.000000	0.005162
891.000000	0.005129
890.000000	0.005115
889.000000	0.005116
888.000000	0.005132
887.000000	0.005176
886.000000	0.005264
885.000000	0.005411
884.000000	0.005628
883.000000	0.005924
882.000000	0.006304
881.000000	0.006765
880.000000	0.007310
879.000000	0.007930
878.000000	0.008578
877.000000	0.009171
876.000000	0.009629
875.000000	0.009888
874.000000	0.009894
873.000000	0.009611
872.000000	0.009071
871.000000	0.008398
870.000000	0.007753
869.000000	0.007235
868.000000	0.006855
867.000000	0.006576
866.000000	0.006373
865.000000	0.006233
864.000000	0.006141
863.000000	0.006076
862.000000	0.006025
861.000000	0.005989
860.000000	0.005970
859.000000	0.005969
858.000000	0.005988
857.000000	0.006022
856.000000	0.006056
855.000000	0.006068
854.000000	0.006048
853.000000	0.006013
852.000000	0.006002
851.000000	0.006031
850.000000	0.006065
849.000000	0.006040
848.000000	0.005923
847.000000	0.005761
846.000000	0.005634
845.000000	0.005585
844.000000	0.005585
843.000000	0.005584
842.000000	0.005558
841.000000	0.005516
840.000000	0.005465
839.000000	0.005402
838.000000	0.005335
837.000000	0.005288
836.000000	0.005276
835.000000	0.005285
834.000000	0.005293
833.000000	0.005286
832.000000	0.005258
831.000000	0.005201
830.000000	0.005120
829.000000	0.005057
828.000000	0.005065
827.000000	0.005139
826.000000	0.005212
825.000000	0.005221
824.000000	0.005183
823.000000	0.005167
822.000000	0.005218
821.000000	0.005312
820.000000	0.005396
819.000000	0.005446
818.000000	0.005473
817.000000	0.005507
816.000000	0.005559
815.000000	0.005608
814.000000	0.005615
813.000000	0.005556
812.000000	0.005450
811.000000	0.005347
810.000000	0.005286
809.000000	0.005271
808.000000	0.005284
807.000000	0.005302
806.000000	0.005297
805.000000	0.005250
804.000000	0.005166
803.000000	0.005092
802.000000	0.005081
801.000000	0.005143
800.000000	0.005233
799.000000	0.005306
798.000000	0.005359
797.000000	0.005414
796.000000	0.005479
795.000000	0.005532
794.000000	0.005562
793.000000	0.005585
792.000000	0.005619
791.000000	0.005664
790.000000	0.005705
789.000000	0.005734
788.000000	0.005748
787.000000	0.005742
786.000000	0.005730
785.000000	0.005750
784.000000	0.005834
783.000000	0.005968
782.000000	0.006095
781.000000	0.006168
780.000000	0.006176
779.000000	0.006136
778.000000	0.006066
777.000000	0.005992
776.000000	0.005948
775.000000	0.005958
774.000000	0.006019
773.000000	0.006108
772.000000	0.006204
771.000000	0.006286
770.000000	0.006336
769.000000	0.006351
768.000000	0.006346
767.000000	0.006342
766.000000	0.006343
765.000000	0.006346
764.000000	0.006354
763.000000	0.006371
762.000000	0.006396
761.000000	0.006425
760.000000	0.006469
759.000000	0.006539
758.000000	0.006631
757.000000	0.006719
756.000000	0.006782
755.000000	0.006819
754.000000	0.006838
753.000000	0.006845
752.000000	0.006848
751.000000	0.006863
750.000000	0.006897
749.000000	0.006947
748.000000	0.007005
747.000000	0.007077
746.000000	0.007166
745.000000	0.007258
744.000000	0.007326
743.000000	0.007364
742.000000	0.007395
741.000000	0.007448
740.000000	0.007537
739.000000	0.007655
738.000000	0.007789
737.000000	0.007914
736.000000	0.008002
735.000000	0.008049
734.000000	0.008088
733.000000	0.008167
732.000000	0.008298
731.000000	0.008456
730.000000	0.008612
729.000000	0.008760
728.000000	0.008909
727.000000	0.009063
726.000000	0.009224
725.000000	0.009395
724.000000	0.009571
723.000000	0.009737
722.000000	0.009878
721.000000	0.009991
720.000000	0.010072
719.000000	0.010114
718.000000	0.010137
717.000000	0.010185
716.000000	0.010293
715.000000	0.010444
714.000000	0.010580
713.000000	0.010664
712.000000	0.010699
711.000000	0.010710
710.000000	0.010727
709.000000	0.010776
708.000000	0.010868
707.000000	0.010975
706.000000	0.011055
705.000000	0.011102
704.000000	0.011136
703.000000	0.011166
702.000000	0.011171
701.000000	0.011143
700.000000	0.011100
699.000000	0.011065
698.000000	0.011036
697.000000	0.011022
696.000000	0.011052
695.000000	0.011140
694.000000	0.011249
693.000000	0.011325
692.000000	0.011354
691.000000	0.011359
690.000000	0.011357
689.000000	0.011351
688.000000	0.011364
687.000000	0.011432
686.000000	0.011551
685.000000	0.011676
684.000000	0.011775
683.000000	0.011852
682.000000	0.011917
681.000000	0.011954
680.000000	0.011956
679.000000	0.011954
678.000000	0.011989
677.000000	0.012085
676.000000	0.012230
675.000000	0.012379
674.000000	0.012480
673.000000	0.012518
672.000000	0.012518
671.000000	0.012492
670.000000	0.012393
669.000000	0.012165
668.000000	0.011998
667.000000	0.012192
666.000000	0.012498
665.000000	0.012754
664.000000	0.012962
663.000000	0.013093
662.000000	0.013149
661.000000	0.013178
660.000000	0.013203
659.000000	0.013191
658.000000	0.013131
657.000000	0.013083
656.000000	0.013099
655.000000	0.013166
654.000000	0.013248
653.000000	0.013332
652.000000	0.013393
651.000000	0.013385
650.000000	0.013317
649.000000	0.013269
648.000000	0.013299
647.000000	0.013372
646.000000	0.013421
645.000000	0.013423
644.000000	0.013387
643.000000	0.013328
642.000000	0.013253
641.000000	0.013178
640.000000	0.013121
639.000000	0.013105
638.000000	0.013159
637.000000	0.013272
636.000000	0.013374
635.000000	0.013400
634.000000	0.013381
633.000000	0.013395
632.000000	0.013458
631.000000	0.013512
630.000000	0.013531
629.000000	0.013559
628.000000	0.013622
627.000000	0.013670
626.000000	0.013661
625.000000	0.013625
624.000000	0.013609
623.000000	0.013604
622.000000	0.013581
621.000000	0.013547
620.000000	0.013532
619.000000	0.013541
618.000000	0.013564
617.000000	0.013605
616.000000	0.013666
615.000000	0.013715
614.000000	0.013714
613.000000	0.013664
612.000000	0.013597
611.000000	0.013546
610.000000	0.013537
609.000000	0.013577
608.000000	0.013624
607.000000	0.013605
606.000000	0.013492
605.000000	0.013340
604.000000	0.013225
603.000000	0.013185
602.000000	0.013217
601.000000	0.013300
600.000000	0.013386
599.000000	0.013433
598.000000	0.013449
597.000000	0.013492
596.000000	0.013577
595.000000	0.013639
594.000000	0.013609
593.000000	0.013505
592.000000	0.013411
591.000000	0.013389
590.000000	0.013444
589.000000	0.013542
588.000000	0.013631
587.000000	0.013661
586.000000	0.013622
585.000000	0.013557
584.000000	0.013515
583.000000	0.013508
582.000000	0.013530
581.000000	0.013587
580.000000	0.013667
579.000000	0.013713
578.000000	0.013680
577.000000	0.013588
576.000000	0.013509
575.000000	0.013499
574.000000	0.013566
573.000000	0.013678
572.000000	0.013794
571.000000	0.013895
570.000000	0.014009
569.000000	0.014175
568.000000	0.014372
567.000000	0.014525
566.000000	0.014609
565.000000	0.014676
564.000000	0.014770
563.000000	0.014859
562.000000	0.014910
561.000000	0.014949
560.000000	0.014994
559.000000	0.014979
558.000000	0.014834
557.000000	0.014603
556.000000	0.014404
555.000000	0.014301
554.000000	0.014282
553.000000	0.014310
552.000000	0.014342
551.000000	0.014314
550.000000	0.014192
549.000000	0.014025
548.000000	0.013879
547.000000	0.013748
546.000000	0.013589
545.000000	0.013417
544.000000	0.013291
543.000000	0.013244
542.000000	0.013267
541.000000	0.013364
540.000000	0.013525
539.000000	0.013669
538.000000	0.013690
537.000000	0.013578
536.000000	0.013427
535.000000	0.013334
534.000000	0.013334
533.000000	0.013431
532.000000	0.013603
531.000000	0.013759
530.000000	0.013782
529.000000	0.013640
528.000000	0.013406
527.000000	0.013176
526.000000	0.013002
525.000000	0.012903
524.000000	0.012886
523.000000	0.012929
522.000000	0.012965
521.000000	0.012906
520.000000	0.012706
519.000000	0.012406
518.000000	0.012111
517.000000	0.011896
516.000000	0.011733
515.000000	0.011555
514.000000	0.011374
513.000000	0.011275
512.000000	0.011295
511.000000	0.011349
510.000000	0.011330
509.000000	0.011214
508.000000	0.011017
507.000000	0.010743
506.000000	0.010449
505.000000	0.010281
504.000000	0.010355
503.000000	0.010585
502.000000	0.010720
501.000000	0.010599
500.000000	0.010321
499.000000	0.010115
498.000000	0.010104
497.000000	0.010223
496.000000	0.010295
495.000000	0.010213
494.000000	0.010029
493.000000	0.009877
492.000000	0.009797
491.000000	0.009712
490.000000	0.009569
489.000000	0.009419
488.000000	0.009320
487.000000	0.009231
486.000000	0.009067
485.000000	0.008808
484.000000	0.008516
483.000000	0.008275
482.000000	0.008153
481.000000	0.008165
480.000000	0.008248
479.000000	0.008328
478.000000	0.008422
477.000000	0.008609
476.000000	0.008865
475.000000	0.009017
474.000000	0.008923
473.000000	0.008662
472.000000	0.008446
471.000000	0.008366
470.000000	0.008331
469.000000	0.008237
468.000000	0.008061
467.000000	0.007858
466.000000	0.007730
465.000000	0.007744
464.000000	0.007801
463.000000	0.007667
462.000000	0.007253
461.000000	0.006775
460.000000	0.006483
459.000000	0.006338
458.000000	0.006098
457.000000	0.005408
456.000000	0.005158
455.000000	0.005033
454.000000	0.004918
453.000000	0.004841
452.000000	0.004964
451.000000	0.005278
450.000000	0.005494
