PE IR       SUBTECH     SPECTRUM    ASCII       PEDS        4.00        
   -1
3S-N10-C005_1.ASC
22/02/18
11:38:31.00
22/02/18
11:50:45.00
uco
Sample 005 By uco Date Friday, February 18 2022
450.000000
#HDR
-1
-1
#GR
cm-1
A
1.0
0.0
4000.000000
-1.000000
3551
8
0.064627
-0.020408
#DATA
4000.000000	0.004321
3999.000000	0.004323
3998.000000	0.004315
3997.000000	0.004303
3996.000000	0.004296
3995.000000	0.004297
3994.000000	0.004301
3993.000000	0.004303
3992.000000	0.004302
3991.000000	0.004302
3990.000000	0.004309
3989.000000	0.004322
3988.000000	0.004336
3987.000000	0.004347
3986.000000	0.004355
3985.000000	0.004366
3984.000000	0.004381
3983.000000	0.004397
3982.000000	0.004409
3981.000000	0.004416
3980.000000	0.004414
3979.000000	0.004407
3978.000000	0.004396
3977.000000	0.004387
3976.000000	0.004384
3975.000000	0.004388
3974.000000	0.004397
3973.000000	0.004407
3972.000000	0.004414
3971.000000	0.004419
3970.000000	0.004425
3969.000000	0.004432
3968.000000	0.004439
3967.000000	0.004444
3966.000000	0.004447
3965.000000	0.004448
3964.000000	0.004446
3963.000000	0.004441
3962.000000	0.004433
3961.000000	0.004428
3960.000000	0.004434
3959.000000	0.004452
3958.000000	0.004475
3957.000000	0.004490
3956.000000	0.004486
3955.000000	0.004471
3954.000000	0.004457
3953.000000	0.004460
3952.000000	0.004481
3951.000000	0.004510
3950.000000	0.004535
3949.000000	0.004549
3948.000000	0.004554
3947.000000	0.004552
3946.000000	0.004543
3945.000000	0.004525
3944.000000	0.004502
3943.000000	0.004478
3942.000000	0.004461
3941.000000	0.004453
3940.000000	0.004449
3939.000000	0.004444
3938.000000	0.004440
3937.000000	0.004445
3936.000000	0.004460
3935.000000	0.004479
3934.000000	0.004489
3933.000000	0.004483
3932.000000	0.004471
3931.000000	0.004466
3930.000000	0.004475
3929.000000	0.004489
3928.000000	0.004498
3927.000000	0.004497
3926.000000	0.004484
3925.000000	0.004467
3924.000000	0.004455
3923.000000	0.004459
3922.000000	0.004477
3921.000000	0.004500
3920.000000	0.004513
3919.000000	0.004513
3918.000000	0.004506
3917.000000	0.004505
3916.000000	0.004520
3915.000000	0.004545
3914.000000	0.004566
3913.000000	0.004567
3912.000000	0.004547
3911.000000	0.004521
3910.000000	0.004503
3909.000000	0.004494
3908.000000	0.004484
3907.000000	0.004470
3906.000000	0.004457
3905.000000	0.004459
3904.000000	0.004478
3903.000000	0.004503
3902.000000	0.004516
3901.000000	0.004513
3900.000000	0.004500
3899.000000	0.004489
3898.000000	0.004490
3897.000000	0.004501
3896.000000	0.004513
3895.000000	0.004517
3894.000000	0.004507
3893.000000	0.004486
3892.000000	0.004464
3891.000000	0.004454
3890.000000	0.004464
3889.000000	0.004490
3888.000000	0.004525
3887.000000	0.004549
3886.000000	0.004547
3885.000000	0.004528
3884.000000	0.004517
3883.000000	0.004516
3882.000000	0.004511
3881.000000	0.004488
3880.000000	0.004459
3879.000000	0.004450
3878.000000	0.004473
3877.000000	0.004524
3876.000000	0.004580
3875.000000	0.004612
3874.000000	0.004605
3873.000000	0.004573
3872.000000	0.004539
3871.000000	0.004512
3870.000000	0.004484
3869.000000	0.004458
3868.000000	0.004443
3867.000000	0.004446
3866.000000	0.004453
3865.000000	0.004446
3864.000000	0.004430
3863.000000	0.004421
3862.000000	0.004420
3861.000000	0.004425
3860.000000	0.004434
3859.000000	0.004447
3858.000000	0.004460
3857.000000	0.004474
3856.000000	0.004499
3855.000000	0.004536
3854.000000	0.004571
3853.000000	0.004595
3852.000000	0.004610
3851.000000	0.004616
3850.000000	0.004613
3849.000000	0.004598
3848.000000	0.004577
3847.000000	0.004557
3846.000000	0.004543
3845.000000	0.004536
3844.000000	0.004534
3843.000000	0.004531
3842.000000	0.004524
3841.000000	0.004516
3840.000000	0.004508
3839.000000	0.004503
3838.000000	0.004504
3837.000000	0.004513
3836.000000	0.004528
3835.000000	0.004542
3834.000000	0.004549
3833.000000	0.004544
3832.000000	0.004523
3831.000000	0.004497
3830.000000	0.004479
3829.000000	0.004475
3828.000000	0.004477
3827.000000	0.004470
3826.000000	0.004447
3825.000000	0.004419
3824.000000	0.004404
3823.000000	0.004410
3822.000000	0.004424
3821.000000	0.004438
3820.000000	0.004460
3819.000000	0.004491
3818.000000	0.004522
3817.000000	0.004540
3816.000000	0.004536
3815.000000	0.004528
3814.000000	0.004532
3813.000000	0.004545
3812.000000	0.004550
3811.000000	0.004540
3810.000000	0.004527
3809.000000	0.004520
3808.000000	0.004514
3807.000000	0.004496
3806.000000	0.004475
3805.000000	0.004475
3804.000000	0.004510
3803.000000	0.004560
3802.000000	0.004584
3801.000000	0.004576
3800.000000	0.004563
3799.000000	0.004563
3798.000000	0.004566
3797.000000	0.004552
3796.000000	0.004517
3795.000000	0.004476
3794.000000	0.004446
3793.000000	0.004433
3792.000000	0.004430
3791.000000	0.004427
3790.000000	0.004419
3789.000000	0.004404
3788.000000	0.004384
3787.000000	0.004366
3786.000000	0.004357
3785.000000	0.004361
3784.000000	0.004374
3783.000000	0.004392
3782.000000	0.004410
3781.000000	0.004422
3780.000000	0.004430
3779.000000	0.004440
3778.000000	0.004452
3777.000000	0.004456
3776.000000	0.004442
3775.000000	0.004413
3774.000000	0.004383
3773.000000	0.004369
3772.000000	0.004377
3771.000000	0.004390
3770.000000	0.004397
3769.000000	0.004402
3768.000000	0.004418
3767.000000	0.004442
3766.000000	0.004457
3765.000000	0.004451
3764.000000	0.004430
3763.000000	0.004413
3762.000000	0.004403
3761.000000	0.004389
3760.000000	0.004363
3759.000000	0.004341
3758.000000	0.004336
3757.000000	0.004344
3756.000000	0.004354
3755.000000	0.004362
3754.000000	0.004369
3753.000000	0.004379
3752.000000	0.004396
3751.000000	0.004428
3750.000000	0.004465
3749.000000	0.004479
3748.000000	0.004471
3747.000000	0.004474
3746.000000	0.004507
3745.000000	0.004540
3744.000000	0.004535
3743.000000	0.004505
3742.000000	0.004481
3741.000000	0.004475
3740.000000	0.004472
3739.000000	0.004468
3738.000000	0.004465
3737.000000	0.004457
3736.000000	0.004434
3735.000000	0.004403
3734.000000	0.004388
3733.000000	0.004392
3732.000000	0.004399
3731.000000	0.004397
3730.000000	0.004392
3729.000000	0.004394
3728.000000	0.004411
3727.000000	0.004436
3726.000000	0.004456
3725.000000	0.004463
3724.000000	0.004448
3723.000000	0.004411
3722.000000	0.004366
3721.000000	0.004334
3720.000000	0.004322
3719.000000	0.004323
3718.000000	0.004322
3717.000000	0.004309
3716.000000	0.004291
3715.000000	0.004282
3714.000000	0.004290
3713.000000	0.004306
3712.000000	0.004319
3711.000000	0.004331
3710.000000	0.004351
3709.000000	0.004373
3708.000000	0.004387
3707.000000	0.004384
3706.000000	0.004368
3705.000000	0.004350
3704.000000	0.004338
3703.000000	0.004329
3702.000000	0.004322
3701.000000	0.004312
3700.000000	0.004299
3699.000000	0.004290
3698.000000	0.004290
3697.000000	0.004299
3696.000000	0.004308
3695.000000	0.004318
3694.000000	0.004331
3693.000000	0.004344
3692.000000	0.004354
3691.000000	0.004356
3690.000000	0.004356
3689.000000	0.004362
3688.000000	0.004376
3687.000000	0.004392
3686.000000	0.004407
3685.000000	0.004418
3684.000000	0.004422
3683.000000	0.004417
3682.000000	0.004413
3681.000000	0.004416
3680.000000	0.004431
3679.000000	0.004468
3678.000000	0.004536
3677.000000	0.004615
3676.000000	0.004660
3675.000000	0.004663
3674.000000	0.004665
3673.000000	0.004692
3672.000000	0.004738
3671.000000	0.004768
3670.000000	0.004758
3669.000000	0.004730
3668.000000	0.004716
3667.000000	0.004721
3666.000000	0.004739
3665.000000	0.004759
3664.000000	0.004773
3663.000000	0.004785
3662.000000	0.004801
3661.000000	0.004827
3660.000000	0.004859
3659.000000	0.004890
3658.000000	0.004919
3657.000000	0.004950
3656.000000	0.004985
3655.000000	0.005031
3654.000000	0.005091
3653.000000	0.005164
3652.000000	0.005243
3651.000000	0.005308
3650.000000	0.005344
3649.000000	0.005358
3648.000000	0.005364
3647.000000	0.005369
3646.000000	0.005382
3645.000000	0.005410
3644.000000	0.005451
3643.000000	0.005500
3642.000000	0.005552
3641.000000	0.005604
3640.000000	0.005654
3639.000000	0.005699
3638.000000	0.005741
3637.000000	0.005787
3636.000000	0.005840
3635.000000	0.005888
3634.000000	0.005919
3633.000000	0.005940
3632.000000	0.005972
3631.000000	0.006033
3630.000000	0.006113
3629.000000	0.006185
3628.000000	0.006242
3627.000000	0.006288
3626.000000	0.006328
3625.000000	0.006366
3624.000000	0.006402
3623.000000	0.006431
3622.000000	0.006452
3621.000000	0.006472
3620.000000	0.006502
3619.000000	0.006558
3618.000000	0.006638
3617.000000	0.006723
3616.000000	0.006791
3615.000000	0.006834
3614.000000	0.006856
3613.000000	0.006877
3612.000000	0.006916
3611.000000	0.006979
3610.000000	0.007054
3609.000000	0.007122
3608.000000	0.007175
3607.000000	0.007227
3606.000000	0.007294
3605.000000	0.007380
3604.000000	0.007478
3603.000000	0.007575
3602.000000	0.007661
3601.000000	0.007725
3600.000000	0.007769
3599.000000	0.007803
3598.000000	0.007841
3597.000000	0.007887
3596.000000	0.007938
3595.000000	0.007992
3594.000000	0.008050
3593.000000	0.008112
3592.000000	0.008172
3591.000000	0.008220
3590.000000	0.008252
3589.000000	0.008275
3588.000000	0.008317
3587.000000	0.008403
3586.000000	0.008526
3585.000000	0.008646
3584.000000	0.008731
3583.000000	0.008776
3582.000000	0.008800
3581.000000	0.008827
3580.000000	0.008870
3579.000000	0.008936
3578.000000	0.009021
3577.000000	0.009120
3576.000000	0.009224
3575.000000	0.009321
3574.000000	0.009403
3573.000000	0.009469
3572.000000	0.009527
3571.000000	0.009587
3570.000000	0.009656
3569.000000	0.009731
3568.000000	0.009798
3567.000000	0.009859
3566.000000	0.009928
3565.000000	0.010012
3564.000000	0.010104
3563.000000	0.010196
3562.000000	0.010285
3561.000000	0.010373
3560.000000	0.010462
3559.000000	0.010554
3558.000000	0.010651
3557.000000	0.010751
3556.000000	0.010843
3555.000000	0.010921
3554.000000	0.010987
3553.000000	0.011050
3552.000000	0.011122
3551.000000	0.011203
3550.000000	0.011288
3549.000000	0.011370
3548.000000	0.011449
3547.000000	0.011529
3546.000000	0.011613
3545.000000	0.011704
3544.000000	0.011793
3543.000000	0.011872
3542.000000	0.011942
3541.000000	0.012013
3540.000000	0.012096
3539.000000	0.012199
3538.000000	0.012314
3537.000000	0.012426
3536.000000	0.012516
3535.000000	0.012582
3534.000000	0.012633
3533.000000	0.012686
3532.000000	0.012746
3531.000000	0.012815
3530.000000	0.012892
3529.000000	0.012981
3528.000000	0.013085
3527.000000	0.013197
3526.000000	0.013303
3525.000000	0.013389
3524.000000	0.013453
3523.000000	0.013504
3522.000000	0.013553
3521.000000	0.013609
3520.000000	0.013673
3519.000000	0.013751
3518.000000	0.013847
3517.000000	0.013955
3516.000000	0.014056
3515.000000	0.014135
3514.000000	0.014194
3513.000000	0.014252
3512.000000	0.014329
3511.000000	0.014426
3510.000000	0.014534
3509.000000	0.014634
3508.000000	0.014712
3507.000000	0.014767
3506.000000	0.014807
3505.000000	0.014850
3504.000000	0.014910
3503.000000	0.014991
3502.000000	0.015083
3501.000000	0.015173
3500.000000	0.015253
3499.000000	0.015324
3498.000000	0.015389
3497.000000	0.015450
3496.000000	0.015502
3495.000000	0.015547
3494.000000	0.015593
3493.000000	0.015652
3492.000000	0.015724
3491.000000	0.015799
3490.000000	0.015870
3489.000000	0.015931
3488.000000	0.015983
3487.000000	0.016027
3486.000000	0.016066
3485.000000	0.016109
3484.000000	0.016162
3483.000000	0.016222
3482.000000	0.016285
3481.000000	0.016349
3480.000000	0.016417
3479.000000	0.016489
3478.000000	0.016563
3477.000000	0.016636
3476.000000	0.016710
3475.000000	0.016790
3474.000000	0.016877
3473.000000	0.016964
3472.000000	0.017042
3471.000000	0.017108
3470.000000	0.017172
3469.000000	0.017243
3468.000000	0.017322
3467.000000	0.017399
3466.000000	0.017459
3465.000000	0.017500
3464.000000	0.017527
3463.000000	0.017553
3462.000000	0.017587
3461.000000	0.017637
3460.000000	0.017705
3459.000000	0.017789
3458.000000	0.017881
3457.000000	0.017969
3456.000000	0.018041
3455.000000	0.018103
3454.000000	0.018169
3453.000000	0.018249
3452.000000	0.018338
3451.000000	0.018424
3450.000000	0.018499
3449.000000	0.018566
3448.000000	0.018629
3447.000000	0.018697
3446.000000	0.018771
3445.000000	0.018847
3444.000000	0.018919
3443.000000	0.018983
3442.000000	0.019045
3441.000000	0.019111
3440.000000	0.019182
3439.000000	0.019253
3438.000000	0.019326
3437.000000	0.019405
3436.000000	0.019488
3435.000000	0.019570
3434.000000	0.019648
3433.000000	0.019725
3432.000000	0.019801
3431.000000	0.019869
3430.000000	0.019922
3429.000000	0.019963
3428.000000	0.020007
3427.000000	0.020066
3426.000000	0.020139
3425.000000	0.020214
3424.000000	0.020281
3423.000000	0.020342
3422.000000	0.020402
3421.000000	0.020470
3420.000000	0.020543
3419.000000	0.020617
3418.000000	0.020690
3417.000000	0.020760
3416.000000	0.020829
3415.000000	0.020895
3414.000000	0.020958
3413.000000	0.021026
3412.000000	0.021106
3411.000000	0.021198
3410.000000	0.021294
3409.000000	0.021380
3408.000000	0.021452
3407.000000	0.021515
3406.000000	0.021571
3405.000000	0.021620
3404.000000	0.021662
3403.000000	0.021703
3402.000000	0.021760
3401.000000	0.021841
3400.000000	0.021937
3399.000000	0.022032
3398.000000	0.022109
3397.000000	0.022161
3396.000000	0.022198
3395.000000	0.022231
3394.000000	0.022268
3393.000000	0.022315
3392.000000	0.022374
3391.000000	0.022445
3390.000000	0.022527
3389.000000	0.022611
3388.000000	0.022692
3387.000000	0.022769
3386.000000	0.022846
3385.000000	0.022929
3384.000000	0.023017
3383.000000	0.023105
3382.000000	0.023188
3381.000000	0.023265
3380.000000	0.023337
3379.000000	0.023402
3378.000000	0.023458
3377.000000	0.023506
3376.000000	0.023555
3375.000000	0.023622
3374.000000	0.023717
3373.000000	0.023835
3372.000000	0.023951
3371.000000	0.024047
3370.000000	0.024120
3369.000000	0.024180
3368.000000	0.024246
3367.000000	0.024329
3366.000000	0.024432
3365.000000	0.024546
3364.000000	0.024662
3363.000000	0.024772
3362.000000	0.024883
3361.000000	0.025001
3360.000000	0.025125
3359.000000	0.025246
3358.000000	0.025361
3357.000000	0.025474
3356.000000	0.025590
3355.000000	0.025708
3354.000000	0.025824
3353.000000	0.025932
3352.000000	0.026033
3351.000000	0.026139
3350.000000	0.026261
3349.000000	0.026399
3348.000000	0.026541
3347.000000	0.026674
3346.000000	0.026794
3345.000000	0.026903
3344.000000	0.027003
3343.000000	0.027095
3342.000000	0.027180
3341.000000	0.027262
3340.000000	0.027352
3339.000000	0.027461
3338.000000	0.027593
3337.000000	0.027735
3336.000000	0.027859
3335.000000	0.027950
3334.000000	0.028021
3333.000000	0.028097
3332.000000	0.028196
3331.000000	0.028316
3330.000000	0.028440
3329.000000	0.028548
3328.000000	0.028633
3327.000000	0.028700
3326.000000	0.028769
3325.000000	0.028853
3324.000000	0.028953
3323.000000	0.029055
3322.000000	0.029146
3321.000000	0.029221
3320.000000	0.029285
3319.000000	0.029345
3318.000000	0.029410
3317.000000	0.029483
3316.000000	0.029564
3315.000000	0.029652
3314.000000	0.029744
3313.000000	0.029839
3312.000000	0.029929
3311.000000	0.030003
3310.000000	0.030058
3309.000000	0.030101
3308.000000	0.030147
3307.000000	0.030207
3306.000000	0.030280
3305.000000	0.030358
3304.000000	0.030432
3303.000000	0.030496
3302.000000	0.030551
3301.000000	0.030596
3300.000000	0.030632
3299.000000	0.030659
3298.000000	0.030683
3297.000000	0.030709
3296.000000	0.030741
3295.000000	0.030782
3294.000000	0.030827
3293.000000	0.030873
3292.000000	0.030911
3291.000000	0.030941
3290.000000	0.030965
3289.000000	0.030990
3288.000000	0.031011
3287.000000	0.031024
3286.000000	0.031032
3285.000000	0.031043
3284.000000	0.031066
3283.000000	0.031094
3282.000000	0.031118
3281.000000	0.031129
3280.000000	0.031126
3279.000000	0.031113
3278.000000	0.031093
3277.000000	0.031072
3276.000000	0.031049
3275.000000	0.031024
3274.000000	0.030991
3273.000000	0.030947
3272.000000	0.030894
3271.000000	0.030839
3270.000000	0.030782
3269.000000	0.030720
3268.000000	0.030649
3267.000000	0.030570
3266.000000	0.030493
3265.000000	0.030425
3264.000000	0.030373
3263.000000	0.030336
3262.000000	0.030309
3261.000000	0.030282
3260.000000	0.030244
3259.000000	0.030189
3258.000000	0.030122
3257.000000	0.030048
3256.000000	0.029968
3255.000000	0.029887
3254.000000	0.029806
3253.000000	0.029728
3252.000000	0.029651
3251.000000	0.029575
3250.000000	0.029503
3249.000000	0.029436
3248.000000	0.029374
3247.000000	0.029318
3246.000000	0.029267
3245.000000	0.029218
3244.000000	0.029163
3243.000000	0.029095
3242.000000	0.029012
3241.000000	0.028918
3240.000000	0.028824
3239.000000	0.028743
3238.000000	0.028685
3237.000000	0.028648
3236.000000	0.028616
3235.000000	0.028574
3234.000000	0.028518
3233.000000	0.028460
3232.000000	0.028413
3231.000000	0.028381
3230.000000	0.028354
3229.000000	0.028320
3228.000000	0.028274
3227.000000	0.028222
3226.000000	0.028176
3225.000000	0.028141
3224.000000	0.028112
3223.000000	0.028079
3222.000000	0.028038
3221.000000	0.027986
3220.000000	0.027927
3219.000000	0.027865
3218.000000	0.027811
3217.000000	0.027765
3216.000000	0.027720
3215.000000	0.027667
3214.000000	0.027604
3213.000000	0.027538
3212.000000	0.027476
3211.000000	0.027417
3210.000000	0.027360
3209.000000	0.027303
3208.000000	0.027250
3207.000000	0.027207
3206.000000	0.027171
3205.000000	0.027134
3204.000000	0.027087
3203.000000	0.027029
3202.000000	0.026968
3201.000000	0.026906
3200.000000	0.026830
3199.000000	0.026735
3198.000000	0.026635
3197.000000	0.026552
3196.000000	0.026495
3195.000000	0.026449
3194.000000	0.026390
3193.000000	0.026309
3192.000000	0.026213
3191.000000	0.026118
3190.000000	0.026038
3189.000000	0.025977
3188.000000	0.025925
3187.000000	0.025866
3186.000000	0.025790
3185.000000	0.025698
3184.000000	0.025601
3183.000000	0.025511
3182.000000	0.025433
3181.000000	0.025370
3180.000000	0.025314
3179.000000	0.025253
3178.000000	0.025181
3177.000000	0.025095
3176.000000	0.025001
3175.000000	0.024902
3174.000000	0.024796
3173.000000	0.024685
3172.000000	0.024571
3171.000000	0.024459
3170.000000	0.024354
3169.000000	0.024257
3168.000000	0.024171
3167.000000	0.024099
3166.000000	0.024043
3165.000000	0.024001
3164.000000	0.023962
3163.000000	0.023911
3162.000000	0.023841
3161.000000	0.023755
3160.000000	0.023668
3159.000000	0.023590
3158.000000	0.023520
3157.000000	0.023450
3156.000000	0.023368
3155.000000	0.023278
3154.000000	0.023183
3153.000000	0.023092
3152.000000	0.023006
3151.000000	0.022923
3150.000000	0.022844
3149.000000	0.022768
3148.000000	0.022702
3147.000000	0.022648
3146.000000	0.022600
3145.000000	0.022548
3144.000000	0.022487
3143.000000	0.022420
3142.000000	0.022352
3141.000000	0.022282
3140.000000	0.022212
3139.000000	0.022147
3138.000000	0.022093
3137.000000	0.022042
3136.000000	0.021982
3135.000000	0.021904
3134.000000	0.021822
3133.000000	0.021755
3132.000000	0.021712
3131.000000	0.021684
3130.000000	0.021657
3129.000000	0.021627
3128.000000	0.021598
3127.000000	0.021573
3126.000000	0.021553
3125.000000	0.021530
3124.000000	0.021501
3123.000000	0.021463
3122.000000	0.021422
3121.000000	0.021380
3120.000000	0.021343
3119.000000	0.021311
3118.000000	0.021287
3117.000000	0.021270
3116.000000	0.021260
3115.000000	0.021256
3114.000000	0.021252
3113.000000	0.021245
3112.000000	0.021236
3111.000000	0.021231
3110.000000	0.021234
3109.000000	0.021242
3108.000000	0.021252
3107.000000	0.021266
3106.000000	0.021285
3105.000000	0.021304
3104.000000	0.021314
3103.000000	0.021312
3102.000000	0.021303
3101.000000	0.021298
3100.000000	0.021304
3099.000000	0.021324
3098.000000	0.021353
3097.000000	0.021381
3096.000000	0.021400
3095.000000	0.021407
3094.000000	0.021410
3093.000000	0.021418
3092.000000	0.021435
3091.000000	0.021455
3090.000000	0.021471
3089.000000	0.021479
3088.000000	0.021482
3087.000000	0.021487
3086.000000	0.021500
3085.000000	0.021523
3084.000000	0.021551
3083.000000	0.021579
3082.000000	0.021609
3081.000000	0.021638
3080.000000	0.021661
3079.000000	0.021670
3078.000000	0.021668
3077.000000	0.021664
3076.000000	0.021668
3075.000000	0.021681
3074.000000	0.021695
3073.000000	0.021700
3072.000000	0.021692
3071.000000	0.021673
3070.000000	0.021644
3069.000000	0.021611
3068.000000	0.021575
3067.000000	0.021540
3066.000000	0.021510
3065.000000	0.021490
3064.000000	0.021473
3063.000000	0.021448
3062.000000	0.021404
3061.000000	0.021344
3060.000000	0.021277
3059.000000	0.021212
3058.000000	0.021146
3057.000000	0.021074
3056.000000	0.020997
3055.000000	0.020918
3054.000000	0.020843
3053.000000	0.020768
3052.000000	0.020688
3051.000000	0.020602
3050.000000	0.020514
3049.000000	0.020426
3048.000000	0.020337
3047.000000	0.020246
3046.000000	0.020151
3045.000000	0.020055
3044.000000	0.019958
3043.000000	0.019871
3042.000000	0.019804
3041.000000	0.019755
3040.000000	0.019707
3039.000000	0.019640
3038.000000	0.019548
3037.000000	0.019442
3036.000000	0.019334
3035.000000	0.019235
3034.000000	0.019144
3033.000000	0.019057
3032.000000	0.018969
3031.000000	0.018877
3030.000000	0.018778
3029.000000	0.018670
3028.000000	0.018555
3027.000000	0.018433
3026.000000	0.018305
3025.000000	0.018179
3024.000000	0.018066
3023.000000	0.017967
3022.000000	0.017872
3021.000000	0.017762
3020.000000	0.017622
3019.000000	0.017457
3018.000000	0.017278
3017.000000	0.017103
3016.000000	0.016936
3015.000000	0.016776
3014.000000	0.016621
3013.000000	0.016469
3012.000000	0.016318
3011.000000	0.016165
3010.000000	0.016009
3009.000000	0.015857
3008.000000	0.015721
3007.000000	0.015611
3006.000000	0.015528
3005.000000	0.015473
3004.000000	0.015446
3003.000000	0.015450
3002.000000	0.015486
3001.000000	0.015548
3000.000000	0.015625
2999.000000	0.015708
2998.000000	0.015790
2997.000000	0.015870
2996.000000	0.015947
2995.000000	0.016016
2994.000000	0.016076
2993.000000	0.016126
2992.000000	0.016168
2991.000000	0.016206
2990.000000	0.016242
2989.000000	0.016275
2988.000000	0.016307
2987.000000	0.016335
2986.000000	0.016356
2985.000000	0.016359
2984.000000	0.016338
2983.000000	0.016299
2982.000000	0.016252
2981.000000	0.016202
2980.000000	0.016140
2979.000000	0.016053
2978.000000	0.015939
2977.000000	0.015801
2976.000000	0.015647
2975.000000	0.015473
2974.000000	0.015276
2973.000000	0.015050
2972.000000	0.014792
2971.000000	0.014504
2970.000000	0.014189
2969.000000	0.013854
2968.000000	0.013501
2967.000000	0.013131
2966.000000	0.012742
2965.000000	0.012335
2964.000000	0.011913
2963.000000	0.011484
2962.000000	0.011060
2961.000000	0.010655
2960.000000	0.010281
2959.000000	0.009941
2958.000000	0.009636
2957.000000	0.009372
2956.000000	0.009158
2955.000000	0.008989
2954.000000	0.008849
2953.000000	0.008725
2952.000000	0.008610
2951.000000	0.008499
2950.000000	0.008375
2949.000000	0.008209
2948.000000	0.007972
2947.000000	0.007642
2946.000000	0.007211
2945.000000	0.006683
2944.000000	0.006076
2943.000000	0.005409
2942.000000	0.004696
2941.000000	0.003937
2940.000000	0.003121
2939.000000	0.002232
2938.000000	0.001257
2937.000000	0.000200
2936.000000	-0.000919
2935.000000	-0.002072
2934.000000	-0.003238
2933.000000	-0.004402
2932.000000	-0.005551
2931.000000	-0.006671
2930.000000	-0.007744
2929.000000	-0.008750
2928.000000	-0.009656
2927.000000	-0.010419
2926.000000	-0.010989
2925.000000	-0.011313
2924.000000	-0.011349
2923.000000	-0.011067
2922.000000	-0.010469
2921.000000	-0.009584
2920.000000	-0.008459
2919.000000	-0.007156
2918.000000	-0.005749
2917.000000	-0.004331
2916.000000	-0.002995
2915.000000	-0.001808
2914.000000	-0.000791
2913.000000	0.000080
2912.000000	0.000844
2911.000000	0.001537
2910.000000	0.002184
2909.000000	0.002799
2908.000000	0.003382
2907.000000	0.003929
2906.000000	0.004435
2905.000000	0.004908
2904.000000	0.005358
2903.000000	0.005793
2902.000000	0.006217
2901.000000	0.006627
2900.000000	0.007023
2899.000000	0.007405
2898.000000	0.007773
2897.000000	0.008128
2896.000000	0.008475
2895.000000	0.008816
2894.000000	0.009145
2893.000000	0.009460
2892.000000	0.009765
2891.000000	0.010069
2890.000000	0.010376
2889.000000	0.010679
2888.000000	0.010966
2887.000000	0.011229
2886.000000	0.011463
2885.000000	0.011666
2884.000000	0.011834
2883.000000	0.011965
2882.000000	0.012055
2881.000000	0.012093
2880.000000	0.012066
2879.000000	0.011970
2878.000000	0.011806
2877.000000	0.011582
2876.000000	0.011307
2875.000000	0.010997
2874.000000	0.010676
2873.000000	0.010373
2872.000000	0.010105
2871.000000	0.009868
2870.000000	0.009630
2869.000000	0.009348
2868.000000	0.008980
2867.000000	0.008497
2866.000000	0.007883
2865.000000	0.007128
2864.000000	0.006232
2863.000000	0.005203
2862.000000	0.004059
2861.000000	0.002822
2860.000000	0.001528
2859.000000	0.000221
2858.000000	-0.001039
2857.000000	-0.002173
2856.000000	-0.003078
2855.000000	-0.003634
2854.000000	-0.003742
2853.000000	-0.003362
2852.000000	-0.002531
2851.000000	-0.001360
2850.000000	0.000012
2849.000000	0.001451
2848.000000	0.002868
2847.000000	0.004224
2846.000000	0.005507
2845.000000	0.006705
2844.000000	0.007794
2843.000000	0.008752
2842.000000	0.009569
2841.000000	0.010250
2840.000000	0.010809
2839.000000	0.011266
2838.000000	0.011647
2837.000000	0.011972
2836.000000	0.012253
2835.000000	0.012501
2834.000000	0.012723
2833.000000	0.012919
2832.000000	0.013086
2831.000000	0.013225
2830.000000	0.013340
2829.000000	0.013441
2828.000000	0.013534
2827.000000	0.013623
2826.000000	0.013708
2825.000000	0.013782
2824.000000	0.013837
2823.000000	0.013874
2822.000000	0.013904
2821.000000	0.013936
2820.000000	0.013968
2819.000000	0.013996
2818.000000	0.014024
2817.000000	0.014057
2816.000000	0.014098
2815.000000	0.014141
2814.000000	0.014175
2813.000000	0.014189
2812.000000	0.014186
2811.000000	0.014175
2810.000000	0.014171
2809.000000	0.014177
2808.000000	0.014183
2807.000000	0.014183
2806.000000	0.014179
2805.000000	0.014175
2804.000000	0.014173
2803.000000	0.014168
2802.000000	0.014159
2801.000000	0.014150
2800.000000	0.014141
2799.000000	0.014133
2798.000000	0.014132
2797.000000	0.014141
2796.000000	0.014151
2795.000000	0.014151
2794.000000	0.014133
2793.000000	0.014101
2792.000000	0.014067
2791.000000	0.014040
2790.000000	0.014025
2789.000000	0.014019
2788.000000	0.014019
2787.000000	0.014018
2786.000000	0.014012
2785.000000	0.014002
2784.000000	0.013986
2783.000000	0.013964
2782.000000	0.013936
2781.000000	0.013903
2780.000000	0.013870
2779.000000	0.013846
2778.000000	0.013838
2777.000000	0.013842
2776.000000	0.013844
2775.000000	0.013833
2774.000000	0.013812
2773.000000	0.013792
2772.000000	0.013781
2771.000000	0.013776
2770.000000	0.013769
2769.000000	0.013755
2768.000000	0.013733
2767.000000	0.013708
2766.000000	0.013685
2765.000000	0.013663
2764.000000	0.013641
2763.000000	0.013618
2762.000000	0.013597
2761.000000	0.013580
2760.000000	0.013563
2759.000000	0.013542
2758.000000	0.013520
2757.000000	0.013504
2756.000000	0.013495
2755.000000	0.013489
2754.000000	0.013477
2753.000000	0.013452
2752.000000	0.013419
2751.000000	0.013386
2750.000000	0.013361
2749.000000	0.013343
2748.000000	0.013324
2747.000000	0.013296
2746.000000	0.013266
2745.000000	0.013243
2744.000000	0.013230
2743.000000	0.013221
2742.000000	0.013206
2741.000000	0.013185
2740.000000	0.013161
2739.000000	0.013136
2738.000000	0.013108
2737.000000	0.013075
2736.000000	0.013038
2735.000000	0.013004
2734.000000	0.012980
2733.000000	0.012968
2732.000000	0.012963
2731.000000	0.012953
2730.000000	0.012934
2729.000000	0.012910
2728.000000	0.012890
2727.000000	0.012877
2726.000000	0.012871
2725.000000	0.012861
2724.000000	0.012837
2723.000000	0.012799
2722.000000	0.012760
2721.000000	0.012735
2720.000000	0.012724
2719.000000	0.012710
2718.000000	0.012681
2717.000000	0.012646
2716.000000	0.012623
2715.000000	0.012618
2714.000000	0.012623
2713.000000	0.012624
2712.000000	0.012615
2711.000000	0.012597
2710.000000	0.012572
2709.000000	0.012541
2708.000000	0.012507
2707.000000	0.012482
2706.000000	0.012467
2705.000000	0.012460
2704.000000	0.012452
2703.000000	0.012440
2702.000000	0.012426
2701.000000	0.012411
2700.000000	0.012390
2699.000000	0.012361
2698.000000	0.012322
2697.000000	0.012276
2696.000000	0.012233
2695.000000	0.012203
2694.000000	0.012197
2693.000000	0.012211
2692.000000	0.012228
2691.000000	0.012234
2690.000000	0.012226
2689.000000	0.012217
2688.000000	0.012215
2687.000000	0.012213
2686.000000	0.012200
2685.000000	0.012172
2684.000000	0.012140
2683.000000	0.012119
2682.000000	0.012117
2681.000000	0.012126
2680.000000	0.012132
2679.000000	0.012120
2678.000000	0.012091
2677.000000	0.012056
2676.000000	0.012031
2675.000000	0.012024
2674.000000	0.012030
2673.000000	0.012034
2672.000000	0.012027
2671.000000	0.012009
2670.000000	0.011988
2669.000000	0.011974
2668.000000	0.011971
2667.000000	0.011978
2666.000000	0.011993
2665.000000	0.012009
2664.000000	0.012016
2663.000000	0.012011
2662.000000	0.011999
2661.000000	0.011988
2660.000000	0.011983
2659.000000	0.011981
2658.000000	0.011978
2657.000000	0.011970
2656.000000	0.011953
2655.000000	0.011928
2654.000000	0.011902
2653.000000	0.011880
2652.000000	0.011864
2651.000000	0.011846
2650.000000	0.011818
2649.000000	0.011780
2648.000000	0.011742
2647.000000	0.011716
2646.000000	0.011706
2645.000000	0.011700
2644.000000	0.011680
2643.000000	0.011639
2642.000000	0.011585
2641.000000	0.011538
2640.000000	0.011503
2639.000000	0.011480
2638.000000	0.011462
2637.000000	0.011448
2636.000000	0.011438
2635.000000	0.011436
2634.000000	0.011438
2633.000000	0.011438
2632.000000	0.011425
2631.000000	0.011394
2630.000000	0.011350
2629.000000	0.011303
2628.000000	0.011259
2627.000000	0.011216
2626.000000	0.011176
2625.000000	0.011147
2624.000000	0.011136
2623.000000	0.011140
2622.000000	0.011152
2621.000000	0.011159
2620.000000	0.011150
2619.000000	0.011127
2618.000000	0.011096
2617.000000	0.011071
2616.000000	0.011056
2615.000000	0.011043
2614.000000	0.011021
2613.000000	0.010991
2612.000000	0.010962
2611.000000	0.010949
2610.000000	0.010947
2609.000000	0.010944
2608.000000	0.010929
2607.000000	0.010911
2606.000000	0.010905
2605.000000	0.010911
2604.000000	0.010912
2603.000000	0.010893
2602.000000	0.010866
2601.000000	0.010853
2600.000000	0.010857
2599.000000	0.010855
2598.000000	0.010824
2597.000000	0.010767
2596.000000	0.010712
2595.000000	0.010683
2594.000000	0.010677
2593.000000	0.010676
2592.000000	0.010665
2591.000000	0.010644
2590.000000	0.010623
2589.000000	0.010607
2588.000000	0.010599
2587.000000	0.010594
2586.000000	0.010589
2585.000000	0.010580
2584.000000	0.010571
2583.000000	0.010568
2582.000000	0.010574
2581.000000	0.010577
2580.000000	0.010560
2579.000000	0.010519
2578.000000	0.010464
2577.000000	0.010415
2576.000000	0.010379
2575.000000	0.010357
2574.000000	0.010349
2573.000000	0.010361
2572.000000	0.010396
2571.000000	0.010447
2570.000000	0.010495
2569.000000	0.010520
2568.000000	0.010513
2567.000000	0.010484
2566.000000	0.010443
2565.000000	0.010396
2564.000000	0.010348
2563.000000	0.010312
2562.000000	0.010299
2561.000000	0.010304
2560.000000	0.010305
2559.000000	0.010284
2558.000000	0.010249
2557.000000	0.010216
2556.000000	0.010207
2555.000000	0.010231
2554.000000	0.010284
2553.000000	0.010341
2552.000000	0.010365
2551.000000	0.010336
2550.000000	0.010268
2549.000000	0.010194
2548.000000	0.010135
2547.000000	0.010096
2546.000000	0.010075
2545.000000	0.010068
2544.000000	0.010070
2543.000000	0.010073
2542.000000	0.010072
2541.000000	0.010066
2540.000000	0.010059
2539.000000	0.010052
2538.000000	0.010047
2537.000000	0.010045
2536.000000	0.010044
2535.000000	0.010044
2534.000000	0.010040
2533.000000	0.010024
2532.000000	0.009995
2531.000000	0.009967
2530.000000	0.009957
2529.000000	0.009972
2528.000000	0.009999
2527.000000	0.010029
2526.000000	0.010060
2525.000000	0.010087
2524.000000	0.010093
2523.000000	0.010069
2522.000000	0.010030
2521.000000	0.010003
2520.000000	0.009996
2519.000000	0.009999
2518.000000	0.010002
2517.000000	0.010010
2516.000000	0.010025
2515.000000	0.010036
2514.000000	0.010032
2513.000000	0.010010
2512.000000	0.009980
2511.000000	0.009949
2510.000000	0.009920
2509.000000	0.009897
2508.000000	0.009882
2507.000000	0.009872
2506.000000	0.009860
2505.000000	0.009846
2504.000000	0.009834
2503.000000	0.009832
2502.000000	0.009839
2501.000000	0.009848
2500.000000	0.009856
2499.000000	0.009869
2498.000000	0.009882
2497.000000	0.009879
2496.000000	0.009845
2495.000000	0.009788
2494.000000	0.009737
2493.000000	0.009712
2492.000000	0.009713
2491.000000	0.009725
2490.000000	0.009739
2489.000000	0.009746
2488.000000	0.009741
2487.000000	0.009725
2486.000000	0.009710
2485.000000	0.009703
2484.000000	0.009699
2483.000000	0.009689
2482.000000	0.009677
2481.000000	0.009670
2480.000000	0.009668
2479.000000	0.009663
2478.000000	0.009656
2477.000000	0.009650
2476.000000	0.009641
2475.000000	0.009621
2474.000000	0.009596
2473.000000	0.009577
2472.000000	0.009570
2471.000000	0.009568
2470.000000	0.009562
2469.000000	0.009551
2468.000000	0.009537
2467.000000	0.009514
2466.000000	0.009486
2465.000000	0.009465
2464.000000	0.009457
2463.000000	0.009463
2462.000000	0.009481
2461.000000	0.009508
2460.000000	0.009534
2459.000000	0.009544
2458.000000	0.009532
2457.000000	0.009509
2456.000000	0.009490
2455.000000	0.009483
2454.000000	0.009484
2453.000000	0.009489
2452.000000	0.009499
2451.000000	0.009518
2450.000000	0.009546
2449.000000	0.009576
2448.000000	0.009594
2447.000000	0.009587
2446.000000	0.009548
2445.000000	0.009485
2444.000000	0.009413
2443.000000	0.009353
2442.000000	0.009319
2441.000000	0.009314
2440.000000	0.009334
2439.000000	0.009367
2438.000000	0.009393
2437.000000	0.009394
2436.000000	0.009356
2435.000000	0.009291
2434.000000	0.009225
2433.000000	0.009181
2432.000000	0.009170
2431.000000	0.009186
2430.000000	0.009219
2429.000000	0.009258
2428.000000	0.009295
2427.000000	0.009323
2426.000000	0.009336
2425.000000	0.009327
2424.000000	0.009298
2423.000000	0.009264
2422.000000	0.009246
2421.000000	0.009253
2420.000000	0.009273
2419.000000	0.009290
2418.000000	0.009298
2417.000000	0.009303
2416.000000	0.009302
2415.000000	0.009286
2414.000000	0.009248
2413.000000	0.009195
2412.000000	0.009146
2411.000000	0.009123
2410.000000	0.009132
2409.000000	0.009162
2408.000000	0.009196
2407.000000	0.009222
2406.000000	0.009236
2405.000000	0.009230
2404.000000	0.009200
2403.000000	0.009158
2402.000000	0.009131
2401.000000	0.009134
2400.000000	0.009156
2399.000000	0.009171
2398.000000	0.009166
2397.000000	0.009143
2396.000000	0.009111
2395.000000	0.009081
2394.000000	0.009071
2393.000000	0.009095
2392.000000	0.009148
2391.000000	0.009207
2390.000000	0.009250
2389.000000	0.009274
2388.000000	0.009287
2387.000000	0.009300
2386.000000	0.009317
2385.000000	0.009329
2384.000000	0.009324
2383.000000	0.009301
2382.000000	0.009272
2381.000000	0.009251
2380.000000	0.009237
2379.000000	0.009224
2378.000000	0.009218
2377.000000	0.009226
2376.000000	0.009244
2375.000000	0.009257
2374.000000	0.009262
2373.000000	0.009272
2372.000000	0.009290
2371.000000	0.009307
2370.000000	0.009322
2369.000000	0.009340
2368.000000	0.009361
2367.000000	0.009375
2366.000000	0.009380
2365.000000	0.009387
2364.000000	0.009401
2363.000000	0.009414
2362.000000	0.009416
2361.000000	0.009412
2360.000000	0.009412
2359.000000	0.009414
2358.000000	0.009411
2357.000000	0.009410
2356.000000	0.009427
2355.000000	0.009462
2354.000000	0.009480
2353.000000	0.009452
2352.000000	0.009405
2351.000000	0.009393
2350.000000	0.009427
2349.000000	0.009476
2348.000000	0.009507
2347.000000	0.009507
2346.000000	0.009488
2345.000000	0.009482
2344.000000	0.009506
2343.000000	0.009545
2342.000000	0.009565
2341.000000	0.009551
2340.000000	0.009520
2339.000000	0.009500
2338.000000	0.009499
2337.000000	0.009501
2336.000000	0.009504
2335.000000	0.009518
2334.000000	0.009539
2333.000000	0.009542
2332.000000	0.009516
2331.000000	0.009475
2330.000000	0.009446
2329.000000	0.009437
2328.000000	0.009448
2327.000000	0.009483
2326.000000	0.009543
2325.000000	0.009606
2324.000000	0.009637
2323.000000	0.009613
2322.000000	0.009558
2321.000000	0.009515
2320.000000	0.009508
2319.000000	0.009517
2318.000000	0.009514
2317.000000	0.009489
2316.000000	0.009459
2315.000000	0.009442
2314.000000	0.009440
2313.000000	0.009442
2312.000000	0.009439
2311.000000	0.009429
2310.000000	0.009413
2309.000000	0.009379
2308.000000	0.009320
2307.000000	0.009243
2306.000000	0.009178
2305.000000	0.009148
2304.000000	0.009152
2303.000000	0.009171
2302.000000	0.009186
2301.000000	0.009192
2300.000000	0.009194
2299.000000	0.009194
2298.000000	0.009188
2297.000000	0.009170
2296.000000	0.009139
2295.000000	0.009105
2294.000000	0.009081
2293.000000	0.009074
2292.000000	0.009080
2291.000000	0.009097
2290.000000	0.009124
2289.000000	0.009166
2288.000000	0.009219
2287.000000	0.009275
2286.000000	0.009317
2285.000000	0.009324
2284.000000	0.009283
2283.000000	0.009207
2282.000000	0.009126
2281.000000	0.009070
2280.000000	0.009044
2279.000000	0.009040
2278.000000	0.009052
2277.000000	0.009074
2276.000000	0.009092
2275.000000	0.009088
2274.000000	0.009056
2273.000000	0.009001
2272.000000	0.008937
2271.000000	0.008879
2270.000000	0.008831
2269.000000	0.008791
2268.000000	0.008763
2267.000000	0.008769
2266.000000	0.008825
2265.000000	0.008910
2264.000000	0.008967
2263.000000	0.008951
2262.000000	0.008869
2261.000000	0.008759
2260.000000	0.008656
2259.000000	0.008576
2258.000000	0.008517
2257.000000	0.008466
2256.000000	0.008415
2255.000000	0.008376
2254.000000	0.008376
2253.000000	0.008418
2252.000000	0.008468
2251.000000	0.008500
2250.000000	0.008523
2249.000000	0.008562
2248.000000	0.008621
2247.000000	0.008683
2246.000000	0.008732
2245.000000	0.008760
2244.000000	0.008755
2243.000000	0.008718
2242.000000	0.008676
2241.000000	0.008664
2240.000000	0.008704
2239.000000	0.008798
2238.000000	0.008945
2237.000000	0.009112
2236.000000	0.009224
2235.000000	0.009220
2234.000000	0.009111
2233.000000	0.008975
2232.000000	0.008881
2231.000000	0.008836
2230.000000	0.008802
2229.000000	0.008737
2228.000000	0.008642
2227.000000	0.008563
2226.000000	0.008548
2225.000000	0.008584
2224.000000	0.008595
2223.000000	0.008533
2222.000000	0.008436
2221.000000	0.008381
2220.000000	0.008396
2219.000000	0.008451
2218.000000	0.008521
2217.000000	0.008608
2216.000000	0.008690
2215.000000	0.008713
2214.000000	0.008653
2213.000000	0.008552
2212.000000	0.008464
2211.000000	0.008402
2210.000000	0.008341
2209.000000	0.008268
2208.000000	0.008202
2207.000000	0.008174
2206.000000	0.008191
2205.000000	0.008231
2204.000000	0.008255
2203.000000	0.008239
2202.000000	0.008191
2201.000000	0.008130
2200.000000	0.008069
2199.000000	0.008028
2198.000000	0.008047
2197.000000	0.008152
2196.000000	0.008306
2195.000000	0.008425
2194.000000	0.008454
2193.000000	0.008398
2192.000000	0.008303
2191.000000	0.008208
2190.000000	0.008138
2189.000000	0.008106
2188.000000	0.008107
2187.000000	0.008124
2186.000000	0.008142
2185.000000	0.008152
2184.000000	0.008158
2183.000000	0.008169
2182.000000	0.008193
2181.000000	0.008224
2180.000000	0.008257
2179.000000	0.008305
2178.000000	0.008382
2177.000000	0.008462
2176.000000	0.008479
2175.000000	0.008384
2174.000000	0.008212
2173.000000	0.008055
2172.000000	0.007985
2171.000000	0.007997
2170.000000	0.008005
2169.000000	0.007909
2168.000000	0.007706
2167.000000	0.007533
2166.000000	0.007555
2165.000000	0.007774
2164.000000	0.008007
2163.000000	0.008084
2162.000000	0.008000
2161.000000	0.007826
2160.000000	0.007579
2159.000000	0.007270
2158.000000	0.007015
2157.000000	0.006916
2156.000000	0.006909
2155.000000	0.006872
2154.000000	0.006817
2153.000000	0.006865
2152.000000	0.007052
2151.000000	0.007262
2150.000000	0.007352
2149.000000	0.007299
2148.000000	0.007195
2147.000000	0.007155
2146.000000	0.007230
2145.000000	0.007389
2144.000000	0.007549
2143.000000	0.007644
2142.000000	0.007663
2141.000000	0.007652
2140.000000	0.007659
2139.000000	0.007709
2138.000000	0.007799
2137.000000	0.007897
2136.000000	0.007960
2135.000000	0.007954
2134.000000	0.007882
2133.000000	0.007776
2132.000000	0.007684
2131.000000	0.007648
2130.000000	0.007678
2129.000000	0.007743
2128.000000	0.007796
2127.000000	0.007820
2126.000000	0.007829
2125.000000	0.007850
2124.000000	0.007899
2123.000000	0.007979
2122.000000	0.008078
2121.000000	0.008153
2120.000000	0.008157
2119.000000	0.008094
2118.000000	0.008020
2117.000000	0.007982
2116.000000	0.007970
2115.000000	0.007950
2114.000000	0.007918
2113.000000	0.007904
2112.000000	0.007924
2111.000000	0.007977
2110.000000	0.008051
2109.000000	0.008133
2108.000000	0.008202
2107.000000	0.008236
2106.000000	0.008231
2105.000000	0.008197
2104.000000	0.008150
2103.000000	0.008115
2102.000000	0.008116
2101.000000	0.008148
2100.000000	0.008174
2099.000000	0.008160
2098.000000	0.008121
2097.000000	0.008097
2096.000000	0.008103
2095.000000	0.008114
2094.000000	0.008099
2093.000000	0.008052
2092.000000	0.008004
2091.000000	0.007992
2090.000000	0.008030
2089.000000	0.008093
2088.000000	0.008142
2087.000000	0.008172
2086.000000	0.008200
2085.000000	0.008222
2084.000000	0.008207
2083.000000	0.008136
2082.000000	0.008031
2081.000000	0.007934
2080.000000	0.007878
2079.000000	0.007881
2078.000000	0.007939
2077.000000	0.008005
2076.000000	0.008014
2075.000000	0.007943
2074.000000	0.007833
2073.000000	0.007726
2072.000000	0.007641
2071.000000	0.007593
2070.000000	0.007607
2069.000000	0.007666
2068.000000	0.007695
2067.000000	0.007652
2066.000000	0.007587
2065.000000	0.007572
2064.000000	0.007608
2063.000000	0.007632
2062.000000	0.007603
2061.000000	0.007520
2060.000000	0.007408
2059.000000	0.007313
2058.000000	0.007295
2057.000000	0.007369
2056.000000	0.007477
2055.000000	0.007550
2054.000000	0.007572
2053.000000	0.007558
2052.000000	0.007504
2051.000000	0.007409
2050.000000	0.007317
2049.000000	0.007267
2048.000000	0.007240
2047.000000	0.007194
2046.000000	0.007131
2045.000000	0.007058
2044.000000	0.006952
2043.000000	0.006827
2042.000000	0.006788
2041.000000	0.006911
2040.000000	0.007085
2039.000000	0.007115
2038.000000	0.006945
2037.000000	0.006689
2036.000000	0.006459
2035.000000	0.006256
2034.000000	0.006067
2033.000000	0.005956
2032.000000	0.005996
2031.000000	0.006183
2030.000000	0.006437
2029.000000	0.006631
2028.000000	0.006660
2027.000000	0.006525
2026.000000	0.006365
2025.000000	0.006325
2024.000000	0.006431
2023.000000	0.006609
2022.000000	0.006787
2021.000000	0.006913
2020.000000	0.006934
2019.000000	0.006840
2018.000000	0.006699
2017.000000	0.006585
2016.000000	0.006520
2015.000000	0.006523
2014.000000	0.006638
2013.000000	0.006831
2012.000000	0.006930
2011.000000	0.006771
2010.000000	0.006395
2009.000000	0.006011
2008.000000	0.005803
2007.000000	0.005811
2006.000000	0.005971
2005.000000	0.006169
2004.000000	0.006304
2003.000000	0.006375
2002.000000	0.006484
2001.000000	0.006693
2000.000000	0.006917
1999.000000	0.007030
1998.000000	0.007018
1997.000000	0.006956
1996.000000	0.006881
1995.000000	0.006775
1994.000000	0.006642
1993.000000	0.006517
1992.000000	0.006421
1991.000000	0.006361
1990.000000	0.006368
1989.000000	0.006446
1988.000000	0.006521
1987.000000	0.006517
1986.000000	0.006472
1985.000000	0.006503
1984.000000	0.006670
1983.000000	0.006924
1982.000000	0.007163
1981.000000	0.007286
1980.000000	0.007206
1979.000000	0.006940
1978.000000	0.006635
1977.000000	0.006429
1976.000000	0.006305
1975.000000	0.006202
1974.000000	0.006173
1973.000000	0.006291
1972.000000	0.006477
1971.000000	0.006576
1970.000000	0.006564
1969.000000	0.006551
1968.000000	0.006602
1967.000000	0.006672
1966.000000	0.006708
1965.000000	0.006694
1964.000000	0.006606
1963.000000	0.006419
1962.000000	0.006190
1961.000000	0.006036
1960.000000	0.006025
1959.000000	0.006142
1958.000000	0.006352
1957.000000	0.006612
1956.000000	0.006840
1955.000000	0.006959
1954.000000	0.006962
1953.000000	0.006906
1952.000000	0.006840
1951.000000	0.006779
1950.000000	0.006739
1949.000000	0.006741
1948.000000	0.006764
1947.000000	0.006766
1946.000000	0.006747
1945.000000	0.006741
1944.000000	0.006746
1943.000000	0.006710
1942.000000	0.006602
1941.000000	0.006464
1940.000000	0.006373
1939.000000	0.006379
1938.000000	0.006484
1937.000000	0.006629
1936.000000	0.006728
1935.000000	0.006744
1934.000000	0.006725
1933.000000	0.006731
1932.000000	0.006762
1931.000000	0.006760
1930.000000	0.006714
1929.000000	0.006675
1928.000000	0.006681
1927.000000	0.006718
1926.000000	0.006743
1925.000000	0.006750
1924.000000	0.006748
1923.000000	0.006738
1922.000000	0.006719
1921.000000	0.006711
1920.000000	0.006730
1919.000000	0.006766
1918.000000	0.006776
1917.000000	0.006748
1916.000000	0.006717
1915.000000	0.006720
1914.000000	0.006752
1913.000000	0.006780
1912.000000	0.006788
1911.000000	0.006790
1910.000000	0.006807
1909.000000	0.006832
1908.000000	0.006836
1907.000000	0.006830
1906.000000	0.006836
1905.000000	0.006864
1904.000000	0.006889
1903.000000	0.006890
1902.000000	0.006884
1901.000000	0.006887
1900.000000	0.006881
1899.000000	0.006858
1898.000000	0.006850
1897.000000	0.006901
1896.000000	0.007000
1895.000000	0.007064
1894.000000	0.007027
1893.000000	0.006904
1892.000000	0.006775
1891.000000	0.006710
1890.000000	0.006716
1889.000000	0.006752
1888.000000	0.006785
1887.000000	0.006824
1886.000000	0.006882
1885.000000	0.006934
1884.000000	0.006936
1883.000000	0.006882
1882.000000	0.006814
1881.000000	0.006769
1880.000000	0.006743
1879.000000	0.006724
1878.000000	0.006706
1877.000000	0.006679
1876.000000	0.006640
1875.000000	0.006596
1874.000000	0.006554
1873.000000	0.006503
1872.000000	0.006443
1871.000000	0.006411
1870.000000	0.006452
1869.000000	0.006545
1868.000000	0.006613
1867.000000	0.006630
1866.000000	0.006633
1865.000000	0.006643
1864.000000	0.006644
1863.000000	0.006625
1862.000000	0.006608
1861.000000	0.006617
1860.000000	0.006634
1859.000000	0.006626
1858.000000	0.006580
1857.000000	0.006507
1856.000000	0.006437
1855.000000	0.006415
1854.000000	0.006470
1853.000000	0.006570
1852.000000	0.006625
1851.000000	0.006609
1850.000000	0.006559
1849.000000	0.006484
1848.000000	0.006359
1847.000000	0.006210
1846.000000	0.006150
1845.000000	0.006228
1844.000000	0.006320
1843.000000	0.006307
1842.000000	0.006250
1841.000000	0.006255
1840.000000	0.006325
1839.000000	0.006398
1838.000000	0.006433
1837.000000	0.006458
1836.000000	0.006483
1835.000000	0.006469
1834.000000	0.006390
1833.000000	0.006283
1832.000000	0.006214
1831.000000	0.006218
1830.000000	0.006231
1829.000000	0.006174
1828.000000	0.006083
1827.000000	0.006065
1826.000000	0.006168
1825.000000	0.006306
1824.000000	0.006373
1823.000000	0.006374
1822.000000	0.006383
1821.000000	0.006411
1820.000000	0.006414
1819.000000	0.006380
1818.000000	0.006341
1817.000000	0.006316
1816.000000	0.006278
1815.000000	0.006211
1814.000000	0.006161
1813.000000	0.006159
1812.000000	0.006200
1811.000000	0.006241
1810.000000	0.006261
1809.000000	0.006274
1808.000000	0.006290
1807.000000	0.006303
1806.000000	0.006302
1805.000000	0.006272
1804.000000	0.006213
1803.000000	0.006152
1802.000000	0.006145
1801.000000	0.006178
1800.000000	0.006199
1799.000000	0.006192
1798.000000	0.006178
1797.000000	0.006146
1796.000000	0.006050
1795.000000	0.005904
1794.000000	0.005816
1793.000000	0.005839
1792.000000	0.005896
1791.000000	0.005909
1790.000000	0.005915
1789.000000	0.005954
1788.000000	0.006011
1787.000000	0.006049
1786.000000	0.006054
1785.000000	0.006019
1784.000000	0.005939
1783.000000	0.005846
1782.000000	0.005824
1781.000000	0.005848
1780.000000	0.005837
1779.000000	0.005769
1778.000000	0.005704
1777.000000	0.005647
1776.000000	0.005505
1775.000000	0.005278
1774.000000	0.005108
1773.000000	0.005063
1772.000000	0.005002
1771.000000	0.004849
1770.000000	0.004720
1769.000000	0.004695
1768.000000	0.004663
1767.000000	0.004454
1766.000000	0.004054
1765.000000	0.003557
1764.000000	0.003013
1763.000000	0.002372
1762.000000	0.001565
1761.000000	0.000590
1760.000000	-0.000476
1759.000000	-0.001608
1758.000000	-0.002844
1757.000000	-0.004277
1756.000000	-0.005941
1755.000000	-0.007703
1754.000000	-0.009438
1753.000000	-0.011165
1752.000000	-0.012988
1751.000000	-0.014896
1750.000000	-0.016693
1749.000000	-0.018147
1748.000000	-0.019228
1747.000000	-0.019985
1746.000000	-0.020394
1745.000000	-0.020408
1744.000000	-0.020029
1743.000000	-0.019360
1742.000000	-0.018420
1741.000000	-0.017050
1740.000000	-0.015220
1739.000000	-0.013375
1738.000000	-0.011961
1737.000000	-0.010869
1736.000000	-0.009587
1735.000000	-0.007730
1734.000000	-0.005632
1733.000000	-0.003952
1732.000000	-0.002692
1731.000000	-0.001573
1730.000000	-0.000509
1729.000000	0.000456
1728.000000	0.001275
1727.000000	0.001959
1726.000000	0.002576
1725.000000	0.003182
1724.000000	0.003784
1723.000000	0.004257
1722.000000	0.004499
1721.000000	0.004594
1720.000000	0.004755
1719.000000	0.005145
1718.000000	0.005702
1717.000000	0.006252
1716.000000	0.006769
1715.000000	0.007278
1714.000000	0.007734
1713.000000	0.008136
1712.000000	0.008515
1711.000000	0.008854
1710.000000	0.009115
1709.000000	0.009296
1708.000000	0.009462
1707.000000	0.009737
1706.000000	0.010131
1705.000000	0.010466
1704.000000	0.010571
1703.000000	0.010547
1702.000000	0.010787
1701.000000	0.011628
1700.000000	0.012688
1699.000000	0.013394
1698.000000	0.013964
1697.000000	0.014872
1696.000000	0.016158
1695.000000	0.017355
1694.000000	0.018231
1693.000000	0.018997
1692.000000	0.019849
1691.000000	0.020775
1690.000000	0.021663
1689.000000	0.022384
1688.000000	0.022860
1687.000000	0.023205
1686.000000	0.023755
1685.000000	0.024887
1684.000000	0.026343
1683.000000	0.027549
1682.000000	0.028603
1681.000000	0.029759
1680.000000	0.030933
1679.000000	0.031893
1678.000000	0.032661
1677.000000	0.033575
1676.000000	0.034888
1675.000000	0.036343
1674.000000	0.037538
1673.000000	0.038492
1672.000000	0.039487
1671.000000	0.040684
1670.000000	0.042072
1669.000000	0.043518
1668.000000	0.044843
1667.000000	0.045939
1666.000000	0.046862
1665.000000	0.047815
1664.000000	0.048965
1663.000000	0.050201
1662.000000	0.051320
1661.000000	0.052321
1660.000000	0.053305
1659.000000	0.054232
1658.000000	0.054946
1657.000000	0.055348
1656.000000	0.055539
1655.000000	0.055860
1654.000000	0.056637
1653.000000	0.057664
1652.000000	0.058532
1651.000000	0.059225
1650.000000	0.059816
1649.000000	0.060392
1648.000000	0.060998
1647.000000	0.061524
1646.000000	0.061881
1645.000000	0.062249
1644.000000	0.062730
1643.000000	0.063211
1642.000000	0.063610
1641.000000	0.063901
1640.000000	0.064068
1639.000000	0.064111
1638.000000	0.064089
1637.000000	0.064127
1636.000000	0.064205
1635.000000	0.064232
1634.000000	0.064263
1633.000000	0.064396
1632.000000	0.064565
1631.000000	0.064627
1630.000000	0.064493
1629.000000	0.064162
1628.000000	0.063669
1627.000000	0.063054
1626.000000	0.062382
1625.000000	0.061692
1624.000000	0.060947
1623.000000	0.060055
1622.000000	0.059060
1621.000000	0.058089
1620.000000	0.057160
1619.000000	0.056212
1618.000000	0.055156
1617.000000	0.053939
1616.000000	0.052664
1615.000000	0.051554
1614.000000	0.050643
1613.000000	0.049796
1612.000000	0.048880
1611.000000	0.047849
1610.000000	0.046764
1609.000000	0.045711
1608.000000	0.044728
1607.000000	0.043812
1606.000000	0.042975
1605.000000	0.042206
1604.000000	0.041488
1603.000000	0.040828
1602.000000	0.040225
1601.000000	0.039664
1600.000000	0.039139
1599.000000	0.038670
1598.000000	0.038278
1597.000000	0.037958
1596.000000	0.037702
1595.000000	0.037497
1594.000000	0.037325
1593.000000	0.037156
1592.000000	0.036990
1591.000000	0.036844
1590.000000	0.036728
1589.000000	0.036625
1588.000000	0.036537
1587.000000	0.036499
1586.000000	0.036531
1585.000000	0.036624
1584.000000	0.036745
1583.000000	0.036927
1582.000000	0.037190
1581.000000	0.037457
1580.000000	0.037622
1579.000000	0.037723
1578.000000	0.037926
1577.000000	0.038363
1576.000000	0.038937
1575.000000	0.039445
1574.000000	0.039847
1573.000000	0.040185
1572.000000	0.040529
1571.000000	0.040982
1570.000000	0.041567
1569.000000	0.042182
1568.000000	0.042761
1567.000000	0.043383
1566.000000	0.044100
1565.000000	0.044835
1564.000000	0.045369
1563.000000	0.045589
1562.000000	0.045591
1561.000000	0.045704
1560.000000	0.046326
1559.000000	0.047284
1558.000000	0.048024
1557.000000	0.048746
1556.000000	0.049617
1555.000000	0.050553
1554.000000	0.051427
1553.000000	0.052146
1552.000000	0.052760
1551.000000	0.053354
1550.000000	0.053873
1549.000000	0.054246
1548.000000	0.054496
1547.000000	0.054731
1546.000000	0.054989
1545.000000	0.055189
1544.000000	0.055233
1543.000000	0.055180
1542.000000	0.055177
1541.000000	0.055322
1540.000000	0.055511
1539.000000	0.055644
1538.000000	0.055765
1537.000000	0.055858
1536.000000	0.055884
1535.000000	0.055850
1534.000000	0.055731
1533.000000	0.055462
1532.000000	0.055159
1531.000000	0.054942
1530.000000	0.054752
1529.000000	0.054499
1528.000000	0.054156
1527.000000	0.053738
1526.000000	0.053258
1525.000000	0.052708
1524.000000	0.052140
1523.000000	0.051646
1522.000000	0.051233
1521.000000	0.050834
1520.000000	0.050499
1519.000000	0.050329
1518.000000	0.050280
1517.000000	0.050177
1516.000000	0.049887
1515.000000	0.049464
1514.000000	0.049016
1513.000000	0.048529
1512.000000	0.047929
1511.000000	0.047162
1510.000000	0.046281
1509.000000	0.045409
1508.000000	0.044666
1507.000000	0.043999
1506.000000	0.043380
1505.000000	0.042965
1504.000000	0.042687
1503.000000	0.042350
1502.000000	0.041821
1501.000000	0.041064
1500.000000	0.040116
1499.000000	0.039064
1498.000000	0.037991
1497.000000	0.036957
1496.000000	0.036034
1495.000000	0.035247
1494.000000	0.034572
1493.000000	0.033973
1492.000000	0.033436
1491.000000	0.032914
1490.000000	0.032348
1489.000000	0.031798
1488.000000	0.031407
1487.000000	0.031176
1486.000000	0.031016
1485.000000	0.030903
1484.000000	0.030841
1483.000000	0.030862
1482.000000	0.030950
1481.000000	0.031058
1480.000000	0.031157
1479.000000	0.031258
1478.000000	0.031365
1477.000000	0.031431
1476.000000	0.031389
1475.000000	0.031229
1474.000000	0.031015
1473.000000	0.030710
1472.000000	0.030223
1471.000000	0.029612
1470.000000	0.029004
1469.000000	0.028456
1468.000000	0.028009
1467.000000	0.027732
1466.000000	0.027731
1465.000000	0.028017
1464.000000	0.028443
1463.000000	0.028853
1462.000000	0.029172
1461.000000	0.029396
1460.000000	0.029551
1459.000000	0.029756
1458.000000	0.030224
1457.000000	0.031043
1456.000000	0.032011
1455.000000	0.032937
1454.000000	0.033811
1453.000000	0.034629
1452.000000	0.035324
1451.000000	0.035815
1450.000000	0.036138
1449.000000	0.036396
1448.000000	0.036620
1447.000000	0.036757
1446.000000	0.036846
1445.000000	0.036927
1444.000000	0.036998
1443.000000	0.037027
1442.000000	0.036988
1441.000000	0.036866
1440.000000	0.036654
1439.000000	0.036403
1438.000000	0.036204
1437.000000	0.036118
1436.000000	0.036078
1435.000000	0.036043
1434.000000	0.036024
1433.000000	0.036012
1432.000000	0.035981
1431.000000	0.035919
1430.000000	0.035857
1429.000000	0.035839
1428.000000	0.035864
1427.000000	0.035892
1426.000000	0.035947
1425.000000	0.036022
1424.000000	0.036020
1423.000000	0.035851
1422.000000	0.035562
1421.000000	0.035302
1420.000000	0.035178
1419.000000	0.035175
1418.000000	0.035244
1417.000000	0.035411
1416.000000	0.035656
1415.000000	0.035922
1414.000000	0.036189
1413.000000	0.036475
1412.000000	0.036779
1411.000000	0.037062
1410.000000	0.037281
1409.000000	0.037443
1408.000000	0.037570
1407.000000	0.037658
1406.000000	0.037735
1405.000000	0.037817
1404.000000	0.037869
1403.000000	0.037855
1402.000000	0.037796
1401.000000	0.037750
1400.000000	0.037713
1399.000000	0.037616
1398.000000	0.037439
1397.000000	0.037256
1396.000000	0.037094
1395.000000	0.036905
1394.000000	0.036683
1393.000000	0.036472
1392.000000	0.036268
1391.000000	0.036008
1390.000000	0.035665
1389.000000	0.035273
1388.000000	0.034873
1387.000000	0.034454
1386.000000	0.034011
1385.000000	0.033561
1384.000000	0.033085
1383.000000	0.032543
1382.000000	0.031923
1381.000000	0.031270
1380.000000	0.030637
1379.000000	0.030054
1378.000000	0.029550
1377.000000	0.029161
1376.000000	0.028900
1375.000000	0.028727
1374.000000	0.028577
1373.000000	0.028413
1372.000000	0.028244
1371.000000	0.028072
1370.000000	0.027893
1369.000000	0.027695
1368.000000	0.027464
1367.000000	0.027199
1366.000000	0.026912
1365.000000	0.026624
1364.000000	0.026350
1363.000000	0.026084
1362.000000	0.025823
1361.000000	0.025583
1360.000000	0.025377
1359.000000	0.025192
1358.000000	0.025012
1357.000000	0.024842
1356.000000	0.024693
1355.000000	0.024567
1354.000000	0.024465
1353.000000	0.024397
1352.000000	0.024385
1351.000000	0.024434
1350.000000	0.024531
1349.000000	0.024661
1348.000000	0.024818
1347.000000	0.025001
1346.000000	0.025201
1345.000000	0.025403
1344.000000	0.025599
1343.000000	0.025794
1342.000000	0.026005
1341.000000	0.026241
1340.000000	0.026485
1339.000000	0.026698
1338.000000	0.026850
1337.000000	0.026946
1336.000000	0.026990
1335.000000	0.026978
1334.000000	0.026904
1333.000000	0.026774
1332.000000	0.026600
1331.000000	0.026390
1330.000000	0.026151
1329.000000	0.025891
1328.000000	0.025625
1327.000000	0.025372
1326.000000	0.025151
1325.000000	0.024976
1324.000000	0.024847
1323.000000	0.024758
1322.000000	0.024710
1321.000000	0.024704
1320.000000	0.024730
1319.000000	0.024761
1318.000000	0.024783
1317.000000	0.024807
1316.000000	0.024841
1315.000000	0.024872
1314.000000	0.024876
1313.000000	0.024837
1312.000000	0.024752
1311.000000	0.024621
1310.000000	0.024455
1309.000000	0.024270
1308.000000	0.024075
1307.000000	0.023869
1306.000000	0.023649
1305.000000	0.023428
1304.000000	0.023214
1303.000000	0.023001
1302.000000	0.022785
1301.000000	0.022579
1300.000000	0.022409
1299.000000	0.022284
1298.000000	0.022193
1297.000000	0.022128
1296.000000	0.022102
1295.000000	0.022132
1294.000000	0.022227
1293.000000	0.022375
1292.000000	0.022559
1291.000000	0.022755
1290.000000	0.022951
1289.000000	0.023142
1288.000000	0.023322
1287.000000	0.023479
1286.000000	0.023620
1285.000000	0.023770
1284.000000	0.023945
1283.000000	0.024136
1282.000000	0.024314
1281.000000	0.024469
1280.000000	0.024601
1279.000000	0.024706
1278.000000	0.024773
1277.000000	0.024802
1276.000000	0.024809
1275.000000	0.024802
1274.000000	0.024784
1273.000000	0.024762
1272.000000	0.024741
1271.000000	0.024717
1270.000000	0.024684
1269.000000	0.024642
1268.000000	0.024602
1267.000000	0.024574
1266.000000	0.024555
1265.000000	0.024549
1264.000000	0.024563
1263.000000	0.024601
1262.000000	0.024664
1261.000000	0.024758
1260.000000	0.024900
1259.000000	0.025110
1258.000000	0.025391
1257.000000	0.025730
1256.000000	0.026092
1255.000000	0.026440
1254.000000	0.026753
1253.000000	0.027032
1252.000000	0.027289
1251.000000	0.027530
1250.000000	0.027769
1249.000000	0.028027
1248.000000	0.028312
1247.000000	0.028611
1246.000000	0.028911
1245.000000	0.029218
1244.000000	0.029554
1243.000000	0.029923
1242.000000	0.030312
1241.000000	0.030701
1240.000000	0.031063
1239.000000	0.031376
1238.000000	0.031636
1237.000000	0.031856
1236.000000	0.032044
1235.000000	0.032181
1234.000000	0.032241
1233.000000	0.032212
1232.000000	0.032096
1231.000000	0.031896
1230.000000	0.031607
1229.000000	0.031221
1228.000000	0.030732
1227.000000	0.030146
1226.000000	0.029484
1225.000000	0.028778
1224.000000	0.028047
1223.000000	0.027296
1222.000000	0.026533
1221.000000	0.025773
1220.000000	0.025034
1219.000000	0.024340
1218.000000	0.023718
1217.000000	0.023187
1216.000000	0.022750
1215.000000	0.022393
1214.000000	0.022104
1213.000000	0.021876
1212.000000	0.021701
1211.000000	0.021565
1210.000000	0.021452
1209.000000	0.021351
1208.000000	0.021249
1207.000000	0.021130
1206.000000	0.020987
1205.000000	0.020825
1204.000000	0.020639
1203.000000	0.020400
1202.000000	0.020082
1201.000000	0.019676
1200.000000	0.019198
1199.000000	0.018666
1198.000000	0.018096
1197.000000	0.017499
1196.000000	0.016878
1195.000000	0.016239
1194.000000	0.015590
1193.000000	0.014951
1192.000000	0.014341
1191.000000	0.013765
1190.000000	0.013219
1189.000000	0.012698
1188.000000	0.012212
1187.000000	0.011775
1186.000000	0.011406
1185.000000	0.011116
1184.000000	0.010895
1183.000000	0.010719
1182.000000	0.010560
1181.000000	0.010405
1180.000000	0.010247
1179.000000	0.010079
1178.000000	0.009891
1177.000000	0.009683
1176.000000	0.009457
1175.000000	0.009210
1174.000000	0.008944
1173.000000	0.008672
1172.000000	0.008418
1171.000000	0.008188
1170.000000	0.007973
1169.000000	0.007763
1168.000000	0.007561
1167.000000	0.007375
1166.000000	0.007208
1165.000000	0.007067
1164.000000	0.006958
1163.000000	0.006876
1162.000000	0.006805
1161.000000	0.006740
1160.000000	0.006689
1159.000000	0.006652
1158.000000	0.006611
1157.000000	0.006559
1156.000000	0.006506
1155.000000	0.006463
1154.000000	0.006418
1153.000000	0.006362
1152.000000	0.006304
1151.000000	0.006250
1150.000000	0.006182
1149.000000	0.006080
1148.000000	0.005950
1147.000000	0.005824
1146.000000	0.005732
1145.000000	0.005688
1144.000000	0.005698
1143.000000	0.005762
1142.000000	0.005874
1141.000000	0.006036
1140.000000	0.006259
1139.000000	0.006549
1138.000000	0.006905
1137.000000	0.007308
1136.000000	0.007738
1135.000000	0.008168
1134.000000	0.008575
1133.000000	0.008953
1132.000000	0.009300
1131.000000	0.009602
1130.000000	0.009831
1129.000000	0.009972
1128.000000	0.010027
1127.000000	0.010007
1126.000000	0.009922
1125.000000	0.009784
1124.000000	0.009614
1123.000000	0.009428
1122.000000	0.009239
1121.000000	0.009075
1120.000000	0.008966
1119.000000	0.008927
1118.000000	0.008950
1117.000000	0.009032
1116.000000	0.009181
1115.000000	0.009396
1114.000000	0.009640
1113.000000	0.009877
1112.000000	0.010098
1111.000000	0.010313
1110.000000	0.010519
1109.000000	0.010701
1108.000000	0.010851
1107.000000	0.010976
1106.000000	0.011085
1105.000000	0.011186
1104.000000	0.011283
1103.000000	0.011371
1102.000000	0.011439
1101.000000	0.011483
1100.000000	0.011516
1099.000000	0.011563
1098.000000	0.011643
1097.000000	0.011763
1096.000000	0.011930
1095.000000	0.012142
1094.000000	0.012398
1093.000000	0.012695
1092.000000	0.013037
1091.000000	0.013424
1090.000000	0.013849
1089.000000	0.014312
1088.000000	0.014829
1087.000000	0.015418
1086.000000	0.016065
1085.000000	0.016723
1084.000000	0.017320
1083.000000	0.017791
1082.000000	0.018112
1081.000000	0.018297
1080.000000	0.018360
1079.000000	0.018301
1078.000000	0.018128
1077.000000	0.017886
1076.000000	0.017621
1075.000000	0.017350
1074.000000	0.017067
1073.000000	0.016796
1072.000000	0.016575
1071.000000	0.016425
1070.000000	0.016324
1069.000000	0.016252
1068.000000	0.016210
1067.000000	0.016211
1066.000000	0.016255
1065.000000	0.016337
1064.000000	0.016453
1063.000000	0.016596
1062.000000	0.016742
1061.000000	0.016875
1060.000000	0.016997
1059.000000	0.017117
1058.000000	0.017233
1057.000000	0.017340
1056.000000	0.017449
1055.000000	0.017572
1054.000000	0.017705
1053.000000	0.017834
1052.000000	0.017945
1051.000000	0.018038
1050.000000	0.018125
1049.000000	0.018218
1048.000000	0.018317
1047.000000	0.018405
1046.000000	0.018459
1045.000000	0.018471
1044.000000	0.018450
1043.000000	0.018415
1042.000000	0.018388
1041.000000	0.018397
1040.000000	0.018473
1039.000000	0.018619
1038.000000	0.018812
1037.000000	0.019028
1036.000000	0.019262
1035.000000	0.019517
1034.000000	0.019777
1033.000000	0.020013
1032.000000	0.020203
1031.000000	0.020334
1030.000000	0.020410
1029.000000	0.020446
1028.000000	0.020459
1027.000000	0.020456
1026.000000	0.020431
1025.000000	0.020381
1024.000000	0.020325
1023.000000	0.020292
1022.000000	0.020311
1021.000000	0.020392
1020.000000	0.020528
1019.000000	0.020696
1018.000000	0.020859
1017.000000	0.020972
1016.000000	0.020992
1015.000000	0.020890
1014.000000	0.020653
1013.000000	0.020289
1012.000000	0.019827
1011.000000	0.019299
1010.000000	0.018741
1009.000000	0.018182
1008.000000	0.017646
1007.000000	0.017142
1006.000000	0.016672
1005.000000	0.016236
1004.000000	0.015838
1003.000000	0.015470
1002.000000	0.015115
1001.000000	0.014760
1000.000000	0.014415
999.000000	0.014104
998.000000	0.013835
997.000000	0.013594
996.000000	0.013356
995.000000	0.013108
994.000000	0.012846
993.000000	0.012564
992.000000	0.012264
991.000000	0.011956
990.000000	0.011652
989.000000	0.011371
988.000000	0.011130
987.000000	0.010934
986.000000	0.010769
985.000000	0.010606
984.000000	0.010431
983.000000	0.010255
982.000000	0.010098
981.000000	0.009960
980.000000	0.009834
979.000000	0.009720
978.000000	0.009618
977.000000	0.009520
976.000000	0.009403
975.000000	0.009251
974.000000	0.009072
973.000000	0.008882
972.000000	0.008694
971.000000	0.008509
970.000000	0.008318
969.000000	0.008115
968.000000	0.007907
967.000000	0.007714
966.000000	0.007566
965.000000	0.007473
964.000000	0.007420
963.000000	0.007379
962.000000	0.007339
961.000000	0.007318
960.000000	0.007344
959.000000	0.007420
958.000000	0.007518
957.000000	0.007600
956.000000	0.007638
955.000000	0.007629
954.000000	0.007588
953.000000	0.007533
952.000000	0.007476
951.000000	0.007415
950.000000	0.007339
949.000000	0.007253
948.000000	0.007174
947.000000	0.007119
946.000000	0.007080
945.000000	0.007037
944.000000	0.006987
943.000000	0.006949
942.000000	0.006948
941.000000	0.006985
940.000000	0.007038
939.000000	0.007078
938.000000	0.007093
937.000000	0.007093
936.000000	0.007098
935.000000	0.007114
934.000000	0.007130
933.000000	0.007123
932.000000	0.007085
931.000000	0.007025
930.000000	0.006970
929.000000	0.006929
928.000000	0.006891
927.000000	0.006829
926.000000	0.006727
925.000000	0.006598
924.000000	0.006460
923.000000	0.006324
922.000000	0.006188
921.000000	0.006047
920.000000	0.005904
919.000000	0.005762
918.000000	0.005623
917.000000	0.005489
916.000000	0.005364
915.000000	0.005244
914.000000	0.005121
913.000000	0.004996
912.000000	0.004887
911.000000	0.004819
910.000000	0.004802
909.000000	0.004815
908.000000	0.004824
907.000000	0.004796
906.000000	0.004731
905.000000	0.004662
904.000000	0.004630
903.000000	0.004644
902.000000	0.004677
901.000000	0.004693
900.000000	0.004675
899.000000	0.004631
898.000000	0.004567
897.000000	0.004487
896.000000	0.004402
895.000000	0.004323
894.000000	0.004260
893.000000	0.004216
892.000000	0.004191
891.000000	0.004182
890.000000	0.004181
889.000000	0.004186
888.000000	0.004209
887.000000	0.004263
886.000000	0.004345
885.000000	0.004447
884.000000	0.004595
883.000000	0.004841
882.000000	0.005228
881.000000	0.005753
880.000000	0.006386
879.000000	0.007095
878.000000	0.007826
877.000000	0.008477
876.000000	0.008925
875.000000	0.009089
874.000000	0.008967
873.000000	0.008605
872.000000	0.008060
871.000000	0.007401
870.000000	0.006725
869.000000	0.006130
868.000000	0.005665
867.000000	0.005321
866.000000	0.005064
865.000000	0.004877
864.000000	0.004758
863.000000	0.004702
862.000000	0.004699
861.000000	0.004738
860.000000	0.004814
859.000000	0.004917
858.000000	0.005024
857.000000	0.005105
856.000000	0.005141
855.000000	0.005148
854.000000	0.005170
853.000000	0.005238
852.000000	0.005340
851.000000	0.005432
850.000000	0.005481
849.000000	0.005493
848.000000	0.005493
847.000000	0.005511
846.000000	0.005564
845.000000	0.005645
844.000000	0.005738
843.000000	0.005836
842.000000	0.005961
841.000000	0.006138
840.000000	0.006361
839.000000	0.006583
838.000000	0.006764
837.000000	0.006891
836.000000	0.006966
835.000000	0.006987
834.000000	0.006954
833.000000	0.006885
832.000000	0.006801
831.000000	0.006708
830.000000	0.006595
829.000000	0.006461
828.000000	0.006327
827.000000	0.006214
826.000000	0.006125
825.000000	0.006034
824.000000	0.005914
823.000000	0.005774
822.000000	0.005650
821.000000	0.005560
820.000000	0.005480
819.000000	0.005378
818.000000	0.005248
817.000000	0.005104
816.000000	0.004958
815.000000	0.004821
814.000000	0.004716
813.000000	0.004656
812.000000	0.004614
811.000000	0.004548
810.000000	0.004456
809.000000	0.004375
808.000000	0.004332
807.000000	0.004308
806.000000	0.004280
805.000000	0.004247
804.000000	0.004224
803.000000	0.004213
802.000000	0.004217
801.000000	0.004240
800.000000	0.004276
799.000000	0.004307
798.000000	0.004329
797.000000	0.004370
796.000000	0.004454
795.000000	0.004566
794.000000	0.004668
793.000000	0.004738
792.000000	0.004784
791.000000	0.004830
790.000000	0.004892
789.000000	0.004974
788.000000	0.005055
787.000000	0.005112
786.000000	0.005143
785.000000	0.005168
784.000000	0.005193
783.000000	0.005212
782.000000	0.005238
781.000000	0.005299
780.000000	0.005389
779.000000	0.005458
778.000000	0.005474
777.000000	0.005477
776.000000	0.005528
775.000000	0.005622
774.000000	0.005695
773.000000	0.005708
772.000000	0.005673
771.000000	0.005625
770.000000	0.005574
769.000000	0.005520
768.000000	0.005473
767.000000	0.005450
766.000000	0.005462
765.000000	0.005508
764.000000	0.005584
763.000000	0.005680
762.000000	0.005785
761.000000	0.005888
760.000000	0.005987
759.000000	0.006082
758.000000	0.006187
757.000000	0.006316
756.000000	0.006460
755.000000	0.006579
754.000000	0.006645
753.000000	0.006673
752.000000	0.006699
751.000000	0.006743
750.000000	0.006794
749.000000	0.006830
748.000000	0.006839
747.000000	0.006819
746.000000	0.006778
745.000000	0.006724
744.000000	0.006650
743.000000	0.006544
742.000000	0.006414
741.000000	0.006293
740.000000	0.006208
739.000000	0.006150
738.000000	0.006095
737.000000	0.006042
736.000000	0.006009
735.000000	0.005999
734.000000	0.006004
733.000000	0.006020
732.000000	0.006051
731.000000	0.006092
730.000000	0.006116
729.000000	0.006098
728.000000	0.006039
727.000000	0.005961
726.000000	0.005894
725.000000	0.005857
724.000000	0.005850
723.000000	0.005872
722.000000	0.005944
721.000000	0.006103
720.000000	0.006350
719.000000	0.006640
718.000000	0.006938
717.000000	0.007263
716.000000	0.007657
715.000000	0.008122
714.000000	0.008600
713.000000	0.009014
712.000000	0.009315
711.000000	0.009512
710.000000	0.009652
709.000000	0.009787
708.000000	0.009925
707.000000	0.010045
706.000000	0.010139
705.000000	0.010239
704.000000	0.010367
703.000000	0.010505
702.000000	0.010613
701.000000	0.010680
700.000000	0.010734
699.000000	0.010794
698.000000	0.010858
697.000000	0.010916
696.000000	0.010972
695.000000	0.011031
694.000000	0.011092
693.000000	0.011148
692.000000	0.011199
691.000000	0.011252
690.000000	0.011319
689.000000	0.011395
688.000000	0.011467
687.000000	0.011531
686.000000	0.011599
685.000000	0.011680
684.000000	0.011779
683.000000	0.011902
682.000000	0.012067
681.000000	0.012284
680.000000	0.012527
679.000000	0.012750
678.000000	0.012920
677.000000	0.013043
676.000000	0.013146
675.000000	0.013257
674.000000	0.013400
673.000000	0.013579
672.000000	0.013744
671.000000	0.013807
670.000000	0.013719
669.000000	0.013523
668.000000	0.013403
667.000000	0.013591
666.000000	0.013940
665.000000	0.014215
664.000000	0.014343
663.000000	0.014344
662.000000	0.014311
661.000000	0.014345
660.000000	0.014454
659.000000	0.014565
658.000000	0.014625
657.000000	0.014653
656.000000	0.014673
655.000000	0.014670
654.000000	0.014648
653.000000	0.014662
652.000000	0.014734
651.000000	0.014816
650.000000	0.014864
649.000000	0.014900
648.000000	0.014953
647.000000	0.015008
646.000000	0.015039
645.000000	0.015047
644.000000	0.015038
643.000000	0.015006
642.000000	0.014967
641.000000	0.014949
640.000000	0.014941
639.000000	0.014894
638.000000	0.014795
637.000000	0.014691
636.000000	0.014613
635.000000	0.014551
634.000000	0.014515
633.000000	0.014548
632.000000	0.014643
631.000000	0.014730
630.000000	0.014762
629.000000	0.014776
628.000000	0.014824
627.000000	0.014902
626.000000	0.014983
625.000000	0.015055
624.000000	0.015094
623.000000	0.015072
622.000000	0.015011
621.000000	0.014988
620.000000	0.015044
619.000000	0.015128
618.000000	0.015177
617.000000	0.015180
616.000000	0.015153
615.000000	0.015096
614.000000	0.015025
613.000000	0.014987
612.000000	0.014985
611.000000	0.014956
610.000000	0.014864
609.000000	0.014769
608.000000	0.014754
607.000000	0.014826
606.000000	0.014927
605.000000	0.015015
604.000000	0.015075
603.000000	0.015099
602.000000	0.015104
601.000000	0.015128
600.000000	0.015176
599.000000	0.015204
598.000000	0.015190
597.000000	0.015154
596.000000	0.015100
595.000000	0.014987
594.000000	0.014810
593.000000	0.014645
592.000000	0.014577
591.000000	0.014623
590.000000	0.014749
589.000000	0.014916
588.000000	0.015056
587.000000	0.015086
586.000000	0.015000
585.000000	0.014900
584.000000	0.014881
583.000000	0.014925
582.000000	0.014967
581.000000	0.015006
580.000000	0.015077
579.000000	0.015184
578.000000	0.015307
577.000000	0.015444
576.000000	0.015585
575.000000	0.015703
574.000000	0.015806
573.000000	0.015943
572.000000	0.016111
571.000000	0.016234
570.000000	0.016288
569.000000	0.016359
568.000000	0.016521
567.000000	0.016726
566.000000	0.016893
565.000000	0.017020
564.000000	0.017145
563.000000	0.017251
562.000000	0.017314
561.000000	0.017360
560.000000	0.017413
559.000000	0.017452
558.000000	0.017474
557.000000	0.017536
556.000000	0.017655
555.000000	0.017742
554.000000	0.017709
553.000000	0.017566
552.000000	0.017356
551.000000	0.017082
550.000000	0.016762
549.000000	0.016464
548.000000	0.016231
547.000000	0.016042
546.000000	0.015900
545.000000	0.015857
544.000000	0.015899
543.000000	0.015923
542.000000	0.015888
541.000000	0.015860
540.000000	0.015853
539.000000	0.015768
538.000000	0.015578
537.000000	0.015452
536.000000	0.015559
535.000000	0.015840
534.000000	0.016109
533.000000	0.016278
532.000000	0.016377
531.000000	0.016423
530.000000	0.016400
529.000000	0.016329
528.000000	0.016254
527.000000	0.016185
526.000000	0.016112
525.000000	0.016025
524.000000	0.015855
523.000000	0.015512
522.000000	0.015039
521.000000	0.014609
520.000000	0.014308
519.000000	0.014023
518.000000	0.013636
517.000000	0.013216
516.000000	0.012890
515.000000	0.012659
514.000000	0.012468
513.000000	0.012324
512.000000	0.012229
511.000000	0.012103
510.000000	0.011899
509.000000	0.011714
508.000000	0.011668
507.000000	0.011718
506.000000	0.011721
505.000000	0.011617
504.000000	0.011442
503.000000	0.011210
502.000000	0.010931
501.000000	0.010657
500.000000	0.010429
499.000000	0.010231
498.000000	0.010089
497.000000	0.010086
496.000000	0.010208
495.000000	0.010259
494.000000	0.010072
493.000000	0.009717
492.000000	0.009401
491.000000	0.009221
490.000000	0.009134
489.000000	0.009088
488.000000	0.009054
487.000000	0.008969
486.000000	0.008790
485.000000	0.008554
484.000000	0.008305
483.000000	0.008013
482.000000	0.007688
481.000000	0.007472
480.000000	0.007472
479.000000	0.007611
478.000000	0.007749
477.000000	0.007833
476.000000	0.007823
475.000000	0.007607
474.000000	0.007188
473.000000	0.006816
472.000000	0.006740
471.000000	0.006854
470.000000	0.006900
469.000000	0.006855
468.000000	0.006854
467.000000	0.006869
466.000000	0.006722
465.000000	0.006338
464.000000	0.005805
463.000000	0.005246
462.000000	0.004785
461.000000	0.004549
460.000000	0.004535
459.000000	0.004580
458.000000	0.004578
457.000000	0.005643
456.000000	0.005483
455.000000	0.005214
454.000000	0.004798
453.000000	0.004390
452.000000	0.004232
451.000000	0.004310
450.000000	0.004394
