PE IR       SUBTECH     SPECTRUM    ASCII       PEDS        4.00        
   -1
3S-N10-C001_1.ASC
22/02/18
11:34:16.00
22/02/18
11:50:45.00
uco
Sample 041 By uco Date Friday, February 18 2022
450.000000
#HDR
-1
-1
#GR
cm-1
A
1.0
0.0
4000.000000
-1.000000
3551
8
0.080650
-0.003502
#DATA
4000.000000	-0.002850
3999.000000	-0.002830
3998.000000	-0.002831
3997.000000	-0.002827
3996.000000	-0.002831
3995.000000	-0.002836
3994.000000	-0.002836
3993.000000	-0.002834
3992.000000	-0.002838
3991.000000	-0.002850
3990.000000	-0.002862
3989.000000	-0.002863
3988.000000	-0.002847
3987.000000	-0.002820
3986.000000	-0.002792
3985.000000	-0.002770
3984.000000	-0.002754
3983.000000	-0.002742
3982.000000	-0.002735
3981.000000	-0.002737
3980.000000	-0.002750
3979.000000	-0.002770
3978.000000	-0.002784
3977.000000	-0.002780
3976.000000	-0.002757
3975.000000	-0.002725
3974.000000	-0.002703
3973.000000	-0.002701
3972.000000	-0.002716
3971.000000	-0.002730
3970.000000	-0.002729
3969.000000	-0.002709
3968.000000	-0.002683
3967.000000	-0.002663
3966.000000	-0.002657
3965.000000	-0.002658
3964.000000	-0.002663
3963.000000	-0.002667
3962.000000	-0.002674
3961.000000	-0.002683
3960.000000	-0.002690
3959.000000	-0.002685
3958.000000	-0.002668
3957.000000	-0.002645
3956.000000	-0.002628
3955.000000	-0.002623
3954.000000	-0.002626
3953.000000	-0.002621
3952.000000	-0.002599
3951.000000	-0.002569
3950.000000	-0.002548
3949.000000	-0.002543
3948.000000	-0.002550
3947.000000	-0.002556
3946.000000	-0.002554
3945.000000	-0.002553
3944.000000	-0.002567
3943.000000	-0.002600
3942.000000	-0.002643
3941.000000	-0.002677
3940.000000	-0.002693
3939.000000	-0.002692
3938.000000	-0.002679
3937.000000	-0.002661
3936.000000	-0.002644
3935.000000	-0.002631
3934.000000	-0.002627
3933.000000	-0.002631
3932.000000	-0.002637
3931.000000	-0.002636
3930.000000	-0.002623
3929.000000	-0.002603
3928.000000	-0.002587
3927.000000	-0.002584
3926.000000	-0.002592
3925.000000	-0.002601
3924.000000	-0.002595
3923.000000	-0.002568
3922.000000	-0.002534
3921.000000	-0.002513
3920.000000	-0.002519
3919.000000	-0.002548
3918.000000	-0.002578
3917.000000	-0.002592
3916.000000	-0.002582
3915.000000	-0.002558
3914.000000	-0.002537
3913.000000	-0.002533
3912.000000	-0.002550
3911.000000	-0.002575
3910.000000	-0.002594
3909.000000	-0.002598
3908.000000	-0.002589
3907.000000	-0.002573
3906.000000	-0.002554
3905.000000	-0.002535
3904.000000	-0.002518
3903.000000	-0.002507
3902.000000	-0.002506
3901.000000	-0.002514
3900.000000	-0.002527
3899.000000	-0.002537
3898.000000	-0.002530
3897.000000	-0.002507
3896.000000	-0.002479
3895.000000	-0.002465
3894.000000	-0.002475
3893.000000	-0.002506
3892.000000	-0.002538
3891.000000	-0.002552
3890.000000	-0.002541
3889.000000	-0.002510
3888.000000	-0.002473
3887.000000	-0.002449
3886.000000	-0.002455
3885.000000	-0.002481
3884.000000	-0.002504
3883.000000	-0.002515
3882.000000	-0.002523
3881.000000	-0.002537
3880.000000	-0.002549
3879.000000	-0.002546
3878.000000	-0.002521
3877.000000	-0.002481
3876.000000	-0.002441
3875.000000	-0.002418
3874.000000	-0.002418
3873.000000	-0.002432
3872.000000	-0.002447
3871.000000	-0.002461
3870.000000	-0.002475
3869.000000	-0.002481
3868.000000	-0.002475
3867.000000	-0.002464
3866.000000	-0.002466
3865.000000	-0.002492
3864.000000	-0.002528
3863.000000	-0.002550
3862.000000	-0.002553
3861.000000	-0.002540
3860.000000	-0.002516
3859.000000	-0.002487
3858.000000	-0.002458
3857.000000	-0.002429
3856.000000	-0.002403
3855.000000	-0.002386
3854.000000	-0.002378
3853.000000	-0.002371
3852.000000	-0.002361
3851.000000	-0.002353
3850.000000	-0.002350
3849.000000	-0.002357
3848.000000	-0.002373
3847.000000	-0.002388
3846.000000	-0.002398
3845.000000	-0.002403
3844.000000	-0.002411
3843.000000	-0.002426
3842.000000	-0.002440
3841.000000	-0.002445
3840.000000	-0.002441
3839.000000	-0.002436
3838.000000	-0.002434
3837.000000	-0.002434
3836.000000	-0.002433
3835.000000	-0.002435
3834.000000	-0.002440
3833.000000	-0.002451
3832.000000	-0.002463
3831.000000	-0.002467
3830.000000	-0.002459
3829.000000	-0.002444
3828.000000	-0.002434
3827.000000	-0.002436
3826.000000	-0.002448
3825.000000	-0.002460
3824.000000	-0.002469
3823.000000	-0.002484
3822.000000	-0.002516
3821.000000	-0.002546
3820.000000	-0.002542
3819.000000	-0.002500
3818.000000	-0.002446
3817.000000	-0.002413
3816.000000	-0.002411
3815.000000	-0.002418
3814.000000	-0.002409
3813.000000	-0.002386
3812.000000	-0.002364
3811.000000	-0.002351
3810.000000	-0.002341
3809.000000	-0.002329
3808.000000	-0.002324
3807.000000	-0.002338
3806.000000	-0.002360
3805.000000	-0.002366
3804.000000	-0.002345
3803.000000	-0.002320
3802.000000	-0.002324
3801.000000	-0.002361
3800.000000	-0.002399
3799.000000	-0.002416
3798.000000	-0.002413
3797.000000	-0.002401
3796.000000	-0.002393
3795.000000	-0.002390
3794.000000	-0.002390
3793.000000	-0.002395
3792.000000	-0.002404
3791.000000	-0.002419
3790.000000	-0.002436
3789.000000	-0.002453
3788.000000	-0.002469
3787.000000	-0.002480
3786.000000	-0.002486
3785.000000	-0.002486
3784.000000	-0.002479
3783.000000	-0.002466
3782.000000	-0.002451
3781.000000	-0.002440
3780.000000	-0.002436
3779.000000	-0.002431
3778.000000	-0.002420
3777.000000	-0.002412
3776.000000	-0.002417
3775.000000	-0.002438
3774.000000	-0.002465
3773.000000	-0.002487
3772.000000	-0.002498
3771.000000	-0.002506
3770.000000	-0.002510
3769.000000	-0.002502
3768.000000	-0.002477
3767.000000	-0.002447
3766.000000	-0.002426
3765.000000	-0.002421
3764.000000	-0.002424
3763.000000	-0.002427
3762.000000	-0.002437
3761.000000	-0.002468
3760.000000	-0.002516
3759.000000	-0.002549
3758.000000	-0.002544
3757.000000	-0.002501
3756.000000	-0.002437
3755.000000	-0.002362
3754.000000	-0.002290
3753.000000	-0.002232
3752.000000	-0.002196
3751.000000	-0.002178
3750.000000	-0.002178
3749.000000	-0.002199
3748.000000	-0.002232
3747.000000	-0.002256
3746.000000	-0.002263
3745.000000	-0.002268
3744.000000	-0.002279
3743.000000	-0.002290
3742.000000	-0.002292
3741.000000	-0.002288
3740.000000	-0.002284
3739.000000	-0.002286
3738.000000	-0.002289
3737.000000	-0.002294
3736.000000	-0.002308
3735.000000	-0.002330
3734.000000	-0.002348
3733.000000	-0.002362
3732.000000	-0.002379
3731.000000	-0.002400
3730.000000	-0.002417
3729.000000	-0.002421
3728.000000	-0.002409
3727.000000	-0.002385
3726.000000	-0.002351
3725.000000	-0.002319
3724.000000	-0.002310
3723.000000	-0.002336
3722.000000	-0.002386
3721.000000	-0.002425
3720.000000	-0.002433
3719.000000	-0.002409
3718.000000	-0.002374
3717.000000	-0.002344
3716.000000	-0.002321
3715.000000	-0.002300
3714.000000	-0.002280
3713.000000	-0.002269
3712.000000	-0.002274
3711.000000	-0.002289
3710.000000	-0.002309
3709.000000	-0.002326
3708.000000	-0.002340
3707.000000	-0.002350
3706.000000	-0.002350
3705.000000	-0.002340
3704.000000	-0.002325
3703.000000	-0.002310
3702.000000	-0.002300
3701.000000	-0.002295
3700.000000	-0.002295
3699.000000	-0.002298
3698.000000	-0.002301
3697.000000	-0.002304
3696.000000	-0.002307
3695.000000	-0.002309
3694.000000	-0.002305
3693.000000	-0.002297
3692.000000	-0.002286
3691.000000	-0.002272
3690.000000	-0.002252
3689.000000	-0.002227
3688.000000	-0.002202
3687.000000	-0.002179
3686.000000	-0.002153
3685.000000	-0.002122
3684.000000	-0.002093
3683.000000	-0.002075
3682.000000	-0.002067
3681.000000	-0.002056
3680.000000	-0.002029
3679.000000	-0.001973
3678.000000	-0.001879
3677.000000	-0.001765
3676.000000	-0.001683
3675.000000	-0.001669
3674.000000	-0.001698
3673.000000	-0.001730
3672.000000	-0.001743
3671.000000	-0.001744
3670.000000	-0.001742
3669.000000	-0.001730
3668.000000	-0.001706
3667.000000	-0.001673
3666.000000	-0.001632
3665.000000	-0.001587
3664.000000	-0.001541
3663.000000	-0.001500
3662.000000	-0.001470
3661.000000	-0.001453
3660.000000	-0.001449
3659.000000	-0.001451
3658.000000	-0.001448
3657.000000	-0.001425
3656.000000	-0.001370
3655.000000	-0.001286
3654.000000	-0.001184
3653.000000	-0.001074
3652.000000	-0.000962
3651.000000	-0.000860
3650.000000	-0.000780
3649.000000	-0.000731
3648.000000	-0.000716
3647.000000	-0.000718
3646.000000	-0.000710
3645.000000	-0.000679
3644.000000	-0.000630
3643.000000	-0.000580
3642.000000	-0.000539
3641.000000	-0.000501
3640.000000	-0.000457
3639.000000	-0.000402
3638.000000	-0.000335
3637.000000	-0.000256
3636.000000	-0.000166
3635.000000	-0.000075
3634.000000	0.000005
3633.000000	0.000078
3632.000000	0.000156
3631.000000	0.000250
3630.000000	0.000348
3629.000000	0.000429
3628.000000	0.000484
3627.000000	0.000524
3626.000000	0.000560
3625.000000	0.000602
3624.000000	0.000651
3623.000000	0.000700
3622.000000	0.000741
3621.000000	0.000776
3620.000000	0.000813
3619.000000	0.000868
3618.000000	0.000946
3617.000000	0.001036
3616.000000	0.001121
3615.000000	0.001189
3614.000000	0.001238
3613.000000	0.001276
3612.000000	0.001320
3611.000000	0.001380
3610.000000	0.001455
3609.000000	0.001531
3608.000000	0.001597
3607.000000	0.001658
3606.000000	0.001726
3605.000000	0.001810
3604.000000	0.001906
3603.000000	0.002005
3602.000000	0.002100
3601.000000	0.002191
3600.000000	0.002279
3599.000000	0.002359
3598.000000	0.002431
3597.000000	0.002497
3596.000000	0.002567
3595.000000	0.002647
3594.000000	0.002739
3593.000000	0.002836
3592.000000	0.002929
3591.000000	0.003014
3590.000000	0.003095
3589.000000	0.003180
3588.000000	0.003277
3587.000000	0.003385
3586.000000	0.003495
3585.000000	0.003593
3584.000000	0.003671
3583.000000	0.003737
3582.000000	0.003805
3581.000000	0.003884
3580.000000	0.003971
3579.000000	0.004055
3578.000000	0.004130
3577.000000	0.004202
3576.000000	0.004286
3575.000000	0.004391
3574.000000	0.004509
3573.000000	0.004627
3572.000000	0.004733
3571.000000	0.004827
3570.000000	0.004918
3569.000000	0.005015
3568.000000	0.005120
3567.000000	0.005229
3566.000000	0.005340
3565.000000	0.005450
3564.000000	0.005558
3563.000000	0.005666
3562.000000	0.005774
3561.000000	0.005881
3560.000000	0.005984
3559.000000	0.006087
3558.000000	0.006199
3557.000000	0.006323
3556.000000	0.006450
3555.000000	0.006567
3554.000000	0.006668
3553.000000	0.006758
3552.000000	0.006842
3551.000000	0.006925
3550.000000	0.007008
3549.000000	0.007098
3548.000000	0.007198
3547.000000	0.007310
3546.000000	0.007426
3545.000000	0.007532
3544.000000	0.007623
3543.000000	0.007703
3542.000000	0.007785
3541.000000	0.007877
3540.000000	0.007982
3539.000000	0.008100
3538.000000	0.008232
3537.000000	0.008369
3536.000000	0.008502
3535.000000	0.008620
3534.000000	0.008725
3533.000000	0.008819
3532.000000	0.008904
3531.000000	0.008979
3530.000000	0.009053
3529.000000	0.009140
3528.000000	0.009247
3527.000000	0.009367
3526.000000	0.009482
3525.000000	0.009581
3524.000000	0.009665
3523.000000	0.009741
3522.000000	0.009819
3521.000000	0.009904
3520.000000	0.009995
3519.000000	0.010091
3518.000000	0.010192
3517.000000	0.010295
3516.000000	0.010397
3515.000000	0.010487
3514.000000	0.010569
3513.000000	0.010656
3512.000000	0.010766
3511.000000	0.010901
3510.000000	0.011042
3509.000000	0.011163
3508.000000	0.011250
3507.000000	0.011311
3506.000000	0.011368
3505.000000	0.011446
3504.000000	0.011548
3503.000000	0.011662
3502.000000	0.011766
3501.000000	0.011849
3500.000000	0.011915
3499.000000	0.011977
3498.000000	0.012043
3497.000000	0.012112
3496.000000	0.012183
3495.000000	0.012257
3494.000000	0.012339
3493.000000	0.012432
3492.000000	0.012529
3491.000000	0.012621
3490.000000	0.012703
3489.000000	0.012773
3488.000000	0.012835
3487.000000	0.012892
3486.000000	0.012948
3485.000000	0.013009
3484.000000	0.013077
3483.000000	0.013153
3482.000000	0.013239
3481.000000	0.013334
3480.000000	0.013432
3479.000000	0.013523
3478.000000	0.013598
3477.000000	0.013664
3476.000000	0.013736
3475.000000	0.013825
3474.000000	0.013927
3473.000000	0.014026
3472.000000	0.014107
3471.000000	0.014174
3470.000000	0.014242
3469.000000	0.014320
3468.000000	0.014404
3467.000000	0.014485
3466.000000	0.014553
3465.000000	0.014614
3464.000000	0.014676
3463.000000	0.014744
3462.000000	0.014813
3461.000000	0.014874
3460.000000	0.014930
3459.000000	0.014994
3458.000000	0.015078
3457.000000	0.015178
3456.000000	0.015277
3455.000000	0.015365
3454.000000	0.015446
3453.000000	0.015528
3452.000000	0.015612
3451.000000	0.015689
3450.000000	0.015759
3449.000000	0.015827
3448.000000	0.015904
3447.000000	0.016002
3446.000000	0.016114
3445.000000	0.016223
3444.000000	0.016307
3443.000000	0.016366
3442.000000	0.016419
3441.000000	0.016486
3440.000000	0.016572
3439.000000	0.016662
3438.000000	0.016747
3437.000000	0.016831
3436.000000	0.016919
3435.000000	0.017011
3434.000000	0.017098
3433.000000	0.017172
3432.000000	0.017232
3431.000000	0.017284
3430.000000	0.017334
3429.000000	0.017391
3428.000000	0.017459
3427.000000	0.017540
3426.000000	0.017630
3425.000000	0.017721
3424.000000	0.017804
3423.000000	0.017880
3422.000000	0.017952
3421.000000	0.018028
3420.000000	0.018110
3419.000000	0.018197
3418.000000	0.018290
3417.000000	0.018393
3416.000000	0.018500
3415.000000	0.018600
3414.000000	0.018683
3413.000000	0.018750
3412.000000	0.018810
3411.000000	0.018876
3410.000000	0.018948
3409.000000	0.019022
3408.000000	0.019090
3407.000000	0.019153
3406.000000	0.019214
3405.000000	0.019274
3404.000000	0.019331
3403.000000	0.019388
3402.000000	0.019458
3401.000000	0.019549
3400.000000	0.019657
3399.000000	0.019764
3398.000000	0.019858
3397.000000	0.019935
3396.000000	0.020000
3395.000000	0.020059
3394.000000	0.020117
3393.000000	0.020179
3392.000000	0.020247
3391.000000	0.020321
3390.000000	0.020402
3389.000000	0.020495
3388.000000	0.020600
3387.000000	0.020710
3386.000000	0.020816
3385.000000	0.020912
3384.000000	0.021001
3383.000000	0.021089
3382.000000	0.021181
3381.000000	0.021276
3380.000000	0.021371
3379.000000	0.021465
3378.000000	0.021556
3377.000000	0.021641
3376.000000	0.021718
3375.000000	0.021798
3374.000000	0.021894
3373.000000	0.022017
3372.000000	0.022156
3371.000000	0.022290
3370.000000	0.022401
3369.000000	0.022490
3368.000000	0.022569
3367.000000	0.022658
3366.000000	0.022767
3365.000000	0.022897
3364.000000	0.023042
3363.000000	0.023198
3362.000000	0.023359
3361.000000	0.023520
3360.000000	0.023673
3359.000000	0.023811
3358.000000	0.023932
3357.000000	0.024044
3356.000000	0.024157
3355.000000	0.024279
3354.000000	0.024414
3353.000000	0.024560
3352.000000	0.024713
3351.000000	0.024872
3350.000000	0.025034
3349.000000	0.025197
3348.000000	0.025356
3347.000000	0.025510
3346.000000	0.025665
3345.000000	0.025820
3344.000000	0.025971
3343.000000	0.026109
3342.000000	0.026230
3341.000000	0.026341
3340.000000	0.026453
3339.000000	0.026579
3338.000000	0.026720
3337.000000	0.026866
3336.000000	0.026999
3335.000000	0.027112
3334.000000	0.027218
3333.000000	0.027336
3332.000000	0.027476
3331.000000	0.027625
3330.000000	0.027762
3329.000000	0.027867
3328.000000	0.027943
3327.000000	0.028011
3326.000000	0.028093
3325.000000	0.028203
3324.000000	0.028334
3323.000000	0.028470
3322.000000	0.028599
3321.000000	0.028716
3320.000000	0.028826
3319.000000	0.028936
3318.000000	0.029053
3317.000000	0.029167
3316.000000	0.029265
3315.000000	0.029341
3314.000000	0.029407
3313.000000	0.029479
3312.000000	0.029562
3311.000000	0.029643
3310.000000	0.029706
3309.000000	0.029748
3308.000000	0.029780
3307.000000	0.029819
3306.000000	0.029874
3305.000000	0.029938
3304.000000	0.030000
3303.000000	0.030056
3302.000000	0.030108
3301.000000	0.030163
3300.000000	0.030218
3299.000000	0.030272
3298.000000	0.030329
3297.000000	0.030392
3296.000000	0.030456
3295.000000	0.030508
3294.000000	0.030539
3293.000000	0.030551
3292.000000	0.030548
3291.000000	0.030543
3290.000000	0.030546
3289.000000	0.030566
3288.000000	0.030596
3287.000000	0.030625
3286.000000	0.030644
3285.000000	0.030654
3284.000000	0.030661
3283.000000	0.030666
3282.000000	0.030661
3281.000000	0.030639
3280.000000	0.030601
3279.000000	0.030557
3278.000000	0.030518
3277.000000	0.030490
3276.000000	0.030471
3275.000000	0.030457
3274.000000	0.030434
3273.000000	0.030394
3272.000000	0.030343
3271.000000	0.030294
3270.000000	0.030254
3269.000000	0.030218
3268.000000	0.030170
3267.000000	0.030108
3266.000000	0.030038
3265.000000	0.029967
3264.000000	0.029898
3263.000000	0.029828
3262.000000	0.029758
3261.000000	0.029685
3260.000000	0.029608
3259.000000	0.029525
3258.000000	0.029438
3257.000000	0.029340
3256.000000	0.029233
3255.000000	0.029133
3254.000000	0.029058
3253.000000	0.029007
3252.000000	0.028957
3251.000000	0.028886
3250.000000	0.028792
3249.000000	0.028690
3248.000000	0.028599
3247.000000	0.028531
3246.000000	0.028484
3245.000000	0.028444
3244.000000	0.028393
3243.000000	0.028325
3242.000000	0.028245
3241.000000	0.028156
3240.000000	0.028054
3239.000000	0.027943
3238.000000	0.027842
3237.000000	0.027771
3236.000000	0.027733
3235.000000	0.027712
3234.000000	0.027695
3233.000000	0.027676
3232.000000	0.027653
3231.000000	0.027622
3230.000000	0.027576
3229.000000	0.027508
3228.000000	0.027420
3227.000000	0.027323
3226.000000	0.027239
3225.000000	0.027179
3224.000000	0.027138
3223.000000	0.027099
3222.000000	0.027050
3221.000000	0.026993
3220.000000	0.026934
3219.000000	0.026878
3218.000000	0.026827
3217.000000	0.026774
3216.000000	0.026708
3215.000000	0.026629
3214.000000	0.026553
3213.000000	0.026493
3212.000000	0.026447
3211.000000	0.026396
3210.000000	0.026326
3209.000000	0.026238
3208.000000	0.026145
3207.000000	0.026059
3206.000000	0.025991
3205.000000	0.025940
3204.000000	0.025893
3203.000000	0.025839
3202.000000	0.025771
3201.000000	0.025689
3200.000000	0.025597
3199.000000	0.025500
3198.000000	0.025409
3197.000000	0.025332
3196.000000	0.025261
3195.000000	0.025175
3194.000000	0.025067
3193.000000	0.024953
3192.000000	0.024854
3191.000000	0.024779
3190.000000	0.024719
3189.000000	0.024658
3188.000000	0.024586
3187.000000	0.024495
3186.000000	0.024386
3185.000000	0.024268
3184.000000	0.024149
3183.000000	0.024041
3182.000000	0.023948
3181.000000	0.023870
3180.000000	0.023797
3179.000000	0.023711
3178.000000	0.023600
3177.000000	0.023467
3176.000000	0.023327
3175.000000	0.023197
3174.000000	0.023084
3173.000000	0.022982
3172.000000	0.022884
3171.000000	0.022782
3170.000000	0.022677
3169.000000	0.022571
3168.000000	0.022464
3167.000000	0.022359
3166.000000	0.022260
3165.000000	0.022178
3164.000000	0.022110
3163.000000	0.022046
3162.000000	0.021970
3161.000000	0.021876
3160.000000	0.021771
3159.000000	0.021666
3158.000000	0.021568
3157.000000	0.021475
3156.000000	0.021381
3155.000000	0.021277
3154.000000	0.021162
3153.000000	0.021045
3152.000000	0.020937
3151.000000	0.020845
3150.000000	0.020766
3149.000000	0.020693
3148.000000	0.020621
3147.000000	0.020546
3146.000000	0.020465
3145.000000	0.020376
3144.000000	0.020285
3143.000000	0.020203
3142.000000	0.020135
3141.000000	0.020077
3140.000000	0.020020
3139.000000	0.019960
3138.000000	0.019893
3137.000000	0.019819
3136.000000	0.019736
3135.000000	0.019650
3134.000000	0.019566
3133.000000	0.019488
3132.000000	0.019420
3131.000000	0.019368
3130.000000	0.019336
3129.000000	0.019322
3128.000000	0.019315
3127.000000	0.019306
3126.000000	0.019292
3125.000000	0.019270
3124.000000	0.019235
3123.000000	0.019178
3122.000000	0.019099
3121.000000	0.019014
3120.000000	0.018950
3119.000000	0.018924
3118.000000	0.018937
3117.000000	0.018972
3116.000000	0.019006
3115.000000	0.019027
3114.000000	0.019035
3113.000000	0.019034
3112.000000	0.019034
3111.000000	0.019041
3110.000000	0.019058
3109.000000	0.019081
3108.000000	0.019108
3107.000000	0.019140
3106.000000	0.019178
3105.000000	0.019216
3104.000000	0.019246
3103.000000	0.019267
3102.000000	0.019285
3101.000000	0.019312
3100.000000	0.019348
3099.000000	0.019390
3098.000000	0.019436
3097.000000	0.019482
3096.000000	0.019525
3095.000000	0.019558
3094.000000	0.019580
3093.000000	0.019593
3092.000000	0.019604
3091.000000	0.019618
3090.000000	0.019641
3089.000000	0.019669
3088.000000	0.019698
3087.000000	0.019723
3086.000000	0.019748
3085.000000	0.019781
3084.000000	0.019826
3083.000000	0.019873
3082.000000	0.019908
3081.000000	0.019924
3080.000000	0.019925
3079.000000	0.019920
3078.000000	0.019918
3077.000000	0.019923
3076.000000	0.019941
3075.000000	0.019972
3074.000000	0.020009
3073.000000	0.020039
3072.000000	0.020043
3071.000000	0.020015
3070.000000	0.019961
3069.000000	0.019901
3068.000000	0.019856
3067.000000	0.019832
3066.000000	0.019819
3065.000000	0.019800
3064.000000	0.019762
3063.000000	0.019706
3062.000000	0.019636
3061.000000	0.019557
3060.000000	0.019471
3059.000000	0.019382
3058.000000	0.019292
3057.000000	0.019203
3056.000000	0.019115
3055.000000	0.019027
3054.000000	0.018938
3053.000000	0.018846
3052.000000	0.018751
3051.000000	0.018654
3050.000000	0.018553
3049.000000	0.018445
3048.000000	0.018332
3047.000000	0.018223
3046.000000	0.018123
3045.000000	0.018025
3044.000000	0.017920
3043.000000	0.017806
3042.000000	0.017697
3041.000000	0.017602
3040.000000	0.017517
3039.000000	0.017430
3038.000000	0.017335
3037.000000	0.017234
3036.000000	0.017134
3035.000000	0.017036
3034.000000	0.016938
3033.000000	0.016838
3032.000000	0.016736
3031.000000	0.016637
3030.000000	0.016549
3029.000000	0.016472
3028.000000	0.016392
3027.000000	0.016296
3026.000000	0.016177
3025.000000	0.016046
3024.000000	0.015919
3023.000000	0.015809
3022.000000	0.015718
3021.000000	0.015635
3020.000000	0.015540
3019.000000	0.015422
3018.000000	0.015285
3017.000000	0.015149
3016.000000	0.015039
3015.000000	0.014960
3014.000000	0.014901
3013.000000	0.014840
3012.000000	0.014765
3011.000000	0.014676
3010.000000	0.014586
3009.000000	0.014507
3008.000000	0.014445
3007.000000	0.014401
3006.000000	0.014369
3005.000000	0.014345
3004.000000	0.014328
3003.000000	0.014322
3002.000000	0.014331
3001.000000	0.014353
3000.000000	0.014380
2999.000000	0.014408
2998.000000	0.014435
2997.000000	0.014464
2996.000000	0.014493
2995.000000	0.014526
2994.000000	0.014569
2993.000000	0.014627
2992.000000	0.014696
2991.000000	0.014768
2990.000000	0.014837
2989.000000	0.014909
2988.000000	0.014990
2987.000000	0.015079
2986.000000	0.015167
2985.000000	0.015241
2984.000000	0.015293
2983.000000	0.015330
2982.000000	0.015366
2981.000000	0.015408
2980.000000	0.015446
2979.000000	0.015462
2978.000000	0.015457
2977.000000	0.015440
2976.000000	0.015425
2975.000000	0.015409
2974.000000	0.015385
2973.000000	0.015349
2972.000000	0.015304
2971.000000	0.015257
2970.000000	0.015206
2969.000000	0.015144
2968.000000	0.015059
2967.000000	0.014953
2966.000000	0.014831
2965.000000	0.014705
2964.000000	0.014575
2963.000000	0.014440
2962.000000	0.014303
2961.000000	0.014171
2960.000000	0.014051
2959.000000	0.013943
2958.000000	0.013850
2957.000000	0.013770
2956.000000	0.013701
2955.000000	0.013638
2954.000000	0.013576
2953.000000	0.013517
2952.000000	0.013468
2951.000000	0.013427
2950.000000	0.013381
2949.000000	0.013313
2948.000000	0.013210
2947.000000	0.013067
2946.000000	0.012883
2945.000000	0.012659
2944.000000	0.012408
2943.000000	0.012149
2942.000000	0.011890
2941.000000	0.011620
2940.000000	0.011312
2939.000000	0.010951
2938.000000	0.010547
2937.000000	0.010122
2936.000000	0.009692
2935.000000	0.009257
2934.000000	0.008805
2933.000000	0.008333
2932.000000	0.007851
2931.000000	0.007387
2930.000000	0.006965
2929.000000	0.006596
2928.000000	0.006280
2927.000000	0.006021
2926.000000	0.005841
2925.000000	0.005772
2924.000000	0.005840
2923.000000	0.006058
2922.000000	0.006424
2921.000000	0.006923
2920.000000	0.007522
2919.000000	0.008174
2918.000000	0.008832
2917.000000	0.009446
2916.000000	0.009979
2915.000000	0.010409
2914.000000	0.010744
2913.000000	0.011013
2912.000000	0.011243
2911.000000	0.011448
2910.000000	0.011625
2909.000000	0.011776
2908.000000	0.011908
2907.000000	0.012031
2906.000000	0.012157
2905.000000	0.012289
2904.000000	0.012425
2903.000000	0.012559
2902.000000	0.012681
2901.000000	0.012785
2900.000000	0.012873
2899.000000	0.012955
2898.000000	0.013042
2897.000000	0.013137
2896.000000	0.013236
2895.000000	0.013335
2894.000000	0.013432
2893.000000	0.013530
2892.000000	0.013631
2891.000000	0.013732
2890.000000	0.013834
2889.000000	0.013936
2888.000000	0.014035
2887.000000	0.014130
2886.000000	0.014214
2885.000000	0.014283
2884.000000	0.014336
2883.000000	0.014371
2882.000000	0.014386
2881.000000	0.014379
2880.000000	0.014346
2879.000000	0.014290
2878.000000	0.014211
2877.000000	0.014106
2876.000000	0.013967
2875.000000	0.013804
2874.000000	0.013635
2873.000000	0.013478
2872.000000	0.013334
2871.000000	0.013188
2870.000000	0.013026
2869.000000	0.012836
2868.000000	0.012606
2867.000000	0.012324
2866.000000	0.011979
2865.000000	0.011562
2864.000000	0.011075
2863.000000	0.010528
2862.000000	0.009940
2861.000000	0.009333
2860.000000	0.008727
2859.000000	0.008145
2858.000000	0.007620
2857.000000	0.007186
2856.000000	0.006880
2855.000000	0.006741
2854.000000	0.006805
2853.000000	0.007084
2852.000000	0.007553
2851.000000	0.008152
2850.000000	0.008805
2849.000000	0.009443
2848.000000	0.010022
2847.000000	0.010533
2846.000000	0.010989
2845.000000	0.011403
2844.000000	0.011773
2843.000000	0.012087
2842.000000	0.012337
2841.000000	0.012525
2840.000000	0.012657
2839.000000	0.012741
2838.000000	0.012790
2837.000000	0.012819
2836.000000	0.012842
2835.000000	0.012868
2834.000000	0.012896
2833.000000	0.012920
2832.000000	0.012932
2831.000000	0.012929
2830.000000	0.012919
2829.000000	0.012909
2828.000000	0.012907
2827.000000	0.012912
2826.000000	0.012916
2825.000000	0.012906
2824.000000	0.012877
2823.000000	0.012837
2822.000000	0.012800
2821.000000	0.012772
2820.000000	0.012745
2819.000000	0.012712
2818.000000	0.012677
2817.000000	0.012652
2816.000000	0.012638
2815.000000	0.012627
2814.000000	0.012603
2813.000000	0.012563
2812.000000	0.012512
2811.000000	0.012463
2810.000000	0.012424
2809.000000	0.012397
2808.000000	0.012375
2807.000000	0.012349
2806.000000	0.012323
2805.000000	0.012303
2804.000000	0.012292
2803.000000	0.012284
2802.000000	0.012269
2801.000000	0.012246
2800.000000	0.012217
2799.000000	0.012188
2798.000000	0.012162
2797.000000	0.012137
2796.000000	0.012107
2795.000000	0.012068
2794.000000	0.012026
2793.000000	0.011986
2792.000000	0.011951
2791.000000	0.011922
2790.000000	0.011903
2789.000000	0.011893
2788.000000	0.011885
2787.000000	0.011865
2786.000000	0.011827
2785.000000	0.011778
2784.000000	0.011731
2783.000000	0.011694
2782.000000	0.011667
2781.000000	0.011642
2780.000000	0.011614
2779.000000	0.011582
2778.000000	0.011551
2777.000000	0.011525
2776.000000	0.011505
2775.000000	0.011485
2774.000000	0.011464
2773.000000	0.011441
2772.000000	0.011413
2771.000000	0.011379
2770.000000	0.011343
2769.000000	0.011314
2768.000000	0.011295
2767.000000	0.011278
2766.000000	0.011254
2765.000000	0.011221
2764.000000	0.011183
2763.000000	0.011149
2762.000000	0.011124
2761.000000	0.011109
2760.000000	0.011097
2759.000000	0.011079
2758.000000	0.011051
2757.000000	0.011018
2756.000000	0.010992
2755.000000	0.010977
2754.000000	0.010964
2753.000000	0.010941
2752.000000	0.010906
2751.000000	0.010869
2750.000000	0.010841
2749.000000	0.010824
2748.000000	0.010805
2747.000000	0.010778
2746.000000	0.010748
2745.000000	0.010725
2744.000000	0.010710
2743.000000	0.010693
2742.000000	0.010668
2741.000000	0.010636
2740.000000	0.010603
2739.000000	0.010570
2738.000000	0.010536
2737.000000	0.010506
2736.000000	0.010484
2735.000000	0.010469
2734.000000	0.010454
2733.000000	0.010436
2732.000000	0.010416
2731.000000	0.010395
2730.000000	0.010374
2729.000000	0.010353
2728.000000	0.010330
2727.000000	0.010307
2726.000000	0.010287
2725.000000	0.010269
2724.000000	0.010245
2723.000000	0.010214
2722.000000	0.010183
2721.000000	0.010159
2720.000000	0.010139
2719.000000	0.010111
2718.000000	0.010074
2717.000000	0.010038
2716.000000	0.010014
2715.000000	0.010004
2714.000000	0.010003
2713.000000	0.010006
2712.000000	0.010007
2711.000000	0.009999
2710.000000	0.009972
2709.000000	0.009925
2708.000000	0.009867
2707.000000	0.009817
2706.000000	0.009786
2705.000000	0.009774
2704.000000	0.009772
2703.000000	0.009770
2702.000000	0.009763
2701.000000	0.009754
2700.000000	0.009743
2699.000000	0.009725
2698.000000	0.009698
2697.000000	0.009666
2696.000000	0.009642
2695.000000	0.009633
2694.000000	0.009637
2693.000000	0.009639
2692.000000	0.009625
2691.000000	0.009596
2690.000000	0.009572
2689.000000	0.009569
2688.000000	0.009589
2687.000000	0.009610
2686.000000	0.009611
2685.000000	0.009586
2684.000000	0.009546
2683.000000	0.009512
2682.000000	0.009497
2681.000000	0.009505
2680.000000	0.009524
2679.000000	0.009536
2678.000000	0.009537
2677.000000	0.009532
2676.000000	0.009532
2675.000000	0.009540
2674.000000	0.009547
2673.000000	0.009545
2672.000000	0.009527
2671.000000	0.009498
2670.000000	0.009463
2669.000000	0.009435
2668.000000	0.009421
2667.000000	0.009425
2666.000000	0.009442
2665.000000	0.009462
2664.000000	0.009472
2663.000000	0.009466
2662.000000	0.009453
2661.000000	0.009443
2660.000000	0.009444
2659.000000	0.009448
2658.000000	0.009444
2657.000000	0.009425
2656.000000	0.009397
2655.000000	0.009370
2654.000000	0.009350
2653.000000	0.009336
2652.000000	0.009318
2651.000000	0.009292
2650.000000	0.009258
2649.000000	0.009222
2648.000000	0.009191
2647.000000	0.009171
2646.000000	0.009161
2645.000000	0.009150
2644.000000	0.009121
2643.000000	0.009071
2642.000000	0.009016
2641.000000	0.008974
2640.000000	0.008948
2639.000000	0.008932
2638.000000	0.008920
2637.000000	0.008911
2636.000000	0.008902
2635.000000	0.008887
2634.000000	0.008867
2633.000000	0.008844
2632.000000	0.008820
2631.000000	0.008793
2630.000000	0.008764
2629.000000	0.008737
2628.000000	0.008710
2627.000000	0.008675
2626.000000	0.008629
2625.000000	0.008586
2624.000000	0.008559
2623.000000	0.008551
2622.000000	0.008553
2621.000000	0.008552
2620.000000	0.008537
2619.000000	0.008504
2618.000000	0.008461
2617.000000	0.008425
2616.000000	0.008406
2615.000000	0.008398
2614.000000	0.008387
2613.000000	0.008363
2612.000000	0.008336
2611.000000	0.008319
2610.000000	0.008314
2609.000000	0.008311
2608.000000	0.008299
2607.000000	0.008282
2606.000000	0.008274
2605.000000	0.008277
2604.000000	0.008277
2603.000000	0.008259
2602.000000	0.008225
2601.000000	0.008195
2600.000000	0.008179
2599.000000	0.008168
2598.000000	0.008146
2597.000000	0.008110
2596.000000	0.008071
2595.000000	0.008039
2594.000000	0.008018
2593.000000	0.008002
2592.000000	0.007987
2591.000000	0.007976
2590.000000	0.007974
2589.000000	0.007983
2588.000000	0.008001
2587.000000	0.008019
2586.000000	0.008028
2585.000000	0.008019
2584.000000	0.007991
2583.000000	0.007954
2582.000000	0.007928
2581.000000	0.007920
2580.000000	0.007920
2579.000000	0.007910
2578.000000	0.007879
2577.000000	0.007833
2576.000000	0.007780
2575.000000	0.007729
2574.000000	0.007686
2573.000000	0.007664
2572.000000	0.007670
2571.000000	0.007708
2570.000000	0.007766
2569.000000	0.007824
2568.000000	0.007860
2567.000000	0.007867
2566.000000	0.007852
2565.000000	0.007823
2564.000000	0.007778
2563.000000	0.007720
2562.000000	0.007662
2561.000000	0.007624
2560.000000	0.007617
2559.000000	0.007630
2558.000000	0.007641
2557.000000	0.007638
2556.000000	0.007623
2555.000000	0.007605
2554.000000	0.007597
2553.000000	0.007598
2552.000000	0.007599
2551.000000	0.007587
2550.000000	0.007566
2549.000000	0.007551
2548.000000	0.007554
2547.000000	0.007574
2546.000000	0.007597
2545.000000	0.007606
2544.000000	0.007595
2543.000000	0.007567
2542.000000	0.007526
2541.000000	0.007479
2540.000000	0.007436
2539.000000	0.007410
2538.000000	0.007411
2537.000000	0.007435
2536.000000	0.007465
2535.000000	0.007489
2534.000000	0.007499
2533.000000	0.007494
2532.000000	0.007473
2531.000000	0.007445
2530.000000	0.007421
2529.000000	0.007404
2528.000000	0.007387
2527.000000	0.007370
2526.000000	0.007364
2525.000000	0.007381
2524.000000	0.007408
2523.000000	0.007429
2522.000000	0.007439
2521.000000	0.007448
2520.000000	0.007459
2519.000000	0.007466
2518.000000	0.007463
2517.000000	0.007457
2516.000000	0.007461
2515.000000	0.007475
2514.000000	0.007494
2513.000000	0.007505
2512.000000	0.007497
2511.000000	0.007467
2510.000000	0.007428
2509.000000	0.007401
2508.000000	0.007400
2507.000000	0.007422
2506.000000	0.007451
2505.000000	0.007475
2504.000000	0.007478
2503.000000	0.007451
2502.000000	0.007396
2501.000000	0.007334
2500.000000	0.007293
2499.000000	0.007287
2498.000000	0.007307
2497.000000	0.007323
2496.000000	0.007319
2495.000000	0.007303
2494.000000	0.007293
2493.000000	0.007295
2492.000000	0.007301
2491.000000	0.007308
2490.000000	0.007322
2489.000000	0.007340
2488.000000	0.007349
2487.000000	0.007342
2486.000000	0.007330
2485.000000	0.007325
2484.000000	0.007326
2483.000000	0.007322
2482.000000	0.007311
2481.000000	0.007305
2480.000000	0.007304
2479.000000	0.007305
2478.000000	0.007306
2477.000000	0.007307
2476.000000	0.007300
2475.000000	0.007273
2474.000000	0.007230
2473.000000	0.007189
2472.000000	0.007165
2471.000000	0.007160
2470.000000	0.007164
2469.000000	0.007168
2468.000000	0.007166
2467.000000	0.007157
2466.000000	0.007147
2465.000000	0.007146
2464.000000	0.007152
2463.000000	0.007160
2462.000000	0.007167
2461.000000	0.007177
2460.000000	0.007190
2459.000000	0.007197
2458.000000	0.007194
2457.000000	0.007184
2456.000000	0.007178
2455.000000	0.007177
2454.000000	0.007186
2453.000000	0.007202
2452.000000	0.007221
2451.000000	0.007236
2450.000000	0.007244
2449.000000	0.007248
2448.000000	0.007254
2447.000000	0.007262
2446.000000	0.007262
2445.000000	0.007245
2444.000000	0.007210
2443.000000	0.007167
2442.000000	0.007135
2441.000000	0.007124
2440.000000	0.007133
2439.000000	0.007150
2438.000000	0.007164
2437.000000	0.007170
2436.000000	0.007167
2435.000000	0.007152
2434.000000	0.007122
2433.000000	0.007083
2432.000000	0.007045
2431.000000	0.007023
2430.000000	0.007018
2429.000000	0.007027
2428.000000	0.007046
2427.000000	0.007080
2426.000000	0.007122
2425.000000	0.007157
2424.000000	0.007167
2423.000000	0.007154
2422.000000	0.007137
2421.000000	0.007126
2420.000000	0.007115
2419.000000	0.007102
2418.000000	0.007089
2417.000000	0.007081
2416.000000	0.007071
2415.000000	0.007055
2414.000000	0.007036
2413.000000	0.007026
2412.000000	0.007029
2411.000000	0.007043
2410.000000	0.007061
2409.000000	0.007072
2408.000000	0.007075
2407.000000	0.007077
2406.000000	0.007083
2405.000000	0.007086
2404.000000	0.007073
2403.000000	0.007049
2402.000000	0.007035
2401.000000	0.007039
2400.000000	0.007044
2399.000000	0.007036
2398.000000	0.007025
2397.000000	0.007032
2396.000000	0.007058
2395.000000	0.007085
2394.000000	0.007108
2393.000000	0.007132
2392.000000	0.007161
2391.000000	0.007187
2390.000000	0.007203
2389.000000	0.007209
2388.000000	0.007211
2387.000000	0.007212
2386.000000	0.007212
2385.000000	0.007209
2384.000000	0.007197
2383.000000	0.007174
2382.000000	0.007145
2381.000000	0.007116
2380.000000	0.007085
2379.000000	0.007057
2378.000000	0.007054
2377.000000	0.007086
2376.000000	0.007136
2375.000000	0.007177
2374.000000	0.007205
2373.000000	0.007236
2372.000000	0.007270
2371.000000	0.007290
2370.000000	0.007296
2369.000000	0.007308
2368.000000	0.007338
2367.000000	0.007374
2366.000000	0.007402
2365.000000	0.007423
2364.000000	0.007431
2363.000000	0.007412
2362.000000	0.007365
2361.000000	0.007323
2360.000000	0.007317
2359.000000	0.007343
2358.000000	0.007374
2357.000000	0.007391
2356.000000	0.007409
2355.000000	0.007442
2354.000000	0.007471
2353.000000	0.007467
2352.000000	0.007443
2351.000000	0.007445
2350.000000	0.007488
2349.000000	0.007546
2348.000000	0.007584
2347.000000	0.007582
2346.000000	0.007552
2345.000000	0.007538
2344.000000	0.007562
2343.000000	0.007596
2342.000000	0.007599
2341.000000	0.007565
2340.000000	0.007530
2339.000000	0.007530
2338.000000	0.007561
2337.000000	0.007589
2336.000000	0.007597
2335.000000	0.007594
2334.000000	0.007589
2333.000000	0.007575
2332.000000	0.007554
2331.000000	0.007542
2330.000000	0.007559
2329.000000	0.007602
2328.000000	0.007660
2327.000000	0.007726
2326.000000	0.007796
2325.000000	0.007845
2324.000000	0.007848
2323.000000	0.007805
2322.000000	0.007746
2321.000000	0.007704
2320.000000	0.007684
2319.000000	0.007665
2318.000000	0.007630
2317.000000	0.007580
2316.000000	0.007528
2315.000000	0.007493
2314.000000	0.007492
2313.000000	0.007519
2312.000000	0.007553
2311.000000	0.007566
2310.000000	0.007552
2309.000000	0.007524
2308.000000	0.007494
2307.000000	0.007468
2306.000000	0.007443
2305.000000	0.007416
2304.000000	0.007385
2303.000000	0.007359
2302.000000	0.007351
2301.000000	0.007370
2300.000000	0.007410
2299.000000	0.007456
2298.000000	0.007494
2297.000000	0.007509
2296.000000	0.007488
2295.000000	0.007440
2294.000000	0.007393
2293.000000	0.007372
2292.000000	0.007382
2291.000000	0.007406
2290.000000	0.007426
2289.000000	0.007437
2288.000000	0.007447
2287.000000	0.007474
2286.000000	0.007520
2285.000000	0.007552
2284.000000	0.007523
2283.000000	0.007432
2282.000000	0.007332
2281.000000	0.007281
2280.000000	0.007286
2279.000000	0.007317
2278.000000	0.007355
2277.000000	0.007390
2276.000000	0.007401
2275.000000	0.007376
2274.000000	0.007340
2273.000000	0.007333
2272.000000	0.007354
2271.000000	0.007358
2270.000000	0.007308
2269.000000	0.007216
2268.000000	0.007140
2267.000000	0.007134
2266.000000	0.007208
2265.000000	0.007308
2264.000000	0.007345
2263.000000	0.007275
2262.000000	0.007142
2261.000000	0.007029
2260.000000	0.006987
2259.000000	0.007009
2258.000000	0.007063
2257.000000	0.007114
2256.000000	0.007125
2255.000000	0.007074
2254.000000	0.006979
2253.000000	0.006886
2252.000000	0.006842
2251.000000	0.006885
2250.000000	0.007019
2249.000000	0.007194
2248.000000	0.007321
2247.000000	0.007342
2246.000000	0.007286
2245.000000	0.007214
2244.000000	0.007149
2243.000000	0.007086
2242.000000	0.007049
2241.000000	0.007081
2240.000000	0.007180
2239.000000	0.007292
2238.000000	0.007373
2237.000000	0.007416
2236.000000	0.007423
2235.000000	0.007399
2234.000000	0.007370
2233.000000	0.007379
2232.000000	0.007430
2231.000000	0.007481
2230.000000	0.007488
2229.000000	0.007432
2228.000000	0.007323
2227.000000	0.007185
2226.000000	0.007056
2225.000000	0.006958
2224.000000	0.006885
2223.000000	0.006840
2222.000000	0.006848
2221.000000	0.006916
2220.000000	0.006986
2219.000000	0.006996
2218.000000	0.006974
2217.000000	0.007005
2216.000000	0.007101
2215.000000	0.007178
2214.000000	0.007162
2213.000000	0.007072
2212.000000	0.006978
2211.000000	0.006917
2210.000000	0.006881
2209.000000	0.006856
2208.000000	0.006835
2207.000000	0.006816
2206.000000	0.006809
2205.000000	0.006826
2204.000000	0.006870
2203.000000	0.006929
2202.000000	0.006984
2201.000000	0.007005
2200.000000	0.006966
2199.000000	0.006879
2198.000000	0.006808
2197.000000	0.006798
2196.000000	0.006829
2195.000000	0.006859
2194.000000	0.006882
2193.000000	0.006912
2192.000000	0.006918
2191.000000	0.006855
2190.000000	0.006749
2189.000000	0.006691
2188.000000	0.006737
2187.000000	0.006839
2186.000000	0.006905
2185.000000	0.006873
2184.000000	0.006741
2183.000000	0.006586
2182.000000	0.006524
2181.000000	0.006607
2180.000000	0.006760
2179.000000	0.006866
2178.000000	0.006897
2177.000000	0.006913
2176.000000	0.006941
2175.000000	0.006933
2174.000000	0.006837
2173.000000	0.006669
2172.000000	0.006491
2171.000000	0.006366
2170.000000	0.006325
2169.000000	0.006353
2168.000000	0.006404
2167.000000	0.006466
2166.000000	0.006568
2165.000000	0.006702
2164.000000	0.006765
2163.000000	0.006662
2162.000000	0.006420
2161.000000	0.006135
2160.000000	0.005849
2159.000000	0.005566
2158.000000	0.005360
2157.000000	0.005313
2156.000000	0.005378
2155.000000	0.005450
2154.000000	0.005519
2153.000000	0.005647
2152.000000	0.005823
2151.000000	0.005956
2150.000000	0.005999
2149.000000	0.006003
2148.000000	0.006037
2147.000000	0.006125
2146.000000	0.006268
2145.000000	0.006462
2144.000000	0.006667
2143.000000	0.006811
2142.000000	0.006854
2141.000000	0.006822
2140.000000	0.006773
2139.000000	0.006750
2138.000000	0.006760
2137.000000	0.006786
2136.000000	0.006800
2135.000000	0.006781
2134.000000	0.006729
2133.000000	0.006650
2132.000000	0.006562
2131.000000	0.006507
2130.000000	0.006529
2129.000000	0.006627
2128.000000	0.006744
2127.000000	0.006839
2126.000000	0.006923
2125.000000	0.007028
2124.000000	0.007148
2123.000000	0.007240
2122.000000	0.007274
2121.000000	0.007254
2120.000000	0.007212
2119.000000	0.007188
2118.000000	0.007213
2117.000000	0.007267
2116.000000	0.007285
2115.000000	0.007231
2114.000000	0.007149
2113.000000	0.007114
2112.000000	0.007146
2111.000000	0.007200
2110.000000	0.007231
2109.000000	0.007234
2108.000000	0.007226
2107.000000	0.007236
2106.000000	0.007286
2105.000000	0.007359
2104.000000	0.007401
2103.000000	0.007374
2102.000000	0.007314
2101.000000	0.007289
2100.000000	0.007321
2099.000000	0.007364
2098.000000	0.007379
2097.000000	0.007372
2096.000000	0.007357
2095.000000	0.007321
2094.000000	0.007248
2093.000000	0.007151
2092.000000	0.007074
2091.000000	0.007057
2090.000000	0.007098
2089.000000	0.007147
2088.000000	0.007157
2087.000000	0.007143
2086.000000	0.007175
2085.000000	0.007288
2084.000000	0.007420
2083.000000	0.007472
2082.000000	0.007418
2081.000000	0.007322
2080.000000	0.007261
2079.000000	0.007262
2078.000000	0.007289
2077.000000	0.007279
2076.000000	0.007187
2075.000000	0.007029
2074.000000	0.006878
2073.000000	0.006787
2072.000000	0.006751
2071.000000	0.006748
2070.000000	0.006793
2069.000000	0.006893
2068.000000	0.006998
2067.000000	0.007042
2066.000000	0.007026
2065.000000	0.007010
2064.000000	0.007028
2063.000000	0.007054
2062.000000	0.007042
2061.000000	0.006970
2060.000000	0.006852
2059.000000	0.006728
2058.000000	0.006642
2057.000000	0.006591
2056.000000	0.006526
2055.000000	0.006437
2054.000000	0.006393
2053.000000	0.006455
2052.000000	0.006589
2051.000000	0.006711
2050.000000	0.006786
2049.000000	0.006819
2048.000000	0.006792
2047.000000	0.006686
2046.000000	0.006539
2045.000000	0.006413
2044.000000	0.006319
2043.000000	0.006241
2042.000000	0.006211
2041.000000	0.006253
2040.000000	0.006305
2039.000000	0.006277
2038.000000	0.006179
2037.000000	0.006091
2036.000000	0.006029
2035.000000	0.005942
2034.000000	0.005831
2033.000000	0.005778
2032.000000	0.005835
2031.000000	0.005967
2030.000000	0.006086
2029.000000	0.006091
2028.000000	0.005919
2027.000000	0.005649
2026.000000	0.005501
2025.000000	0.005615
2024.000000	0.005883
2023.000000	0.006082
2022.000000	0.006130
2021.000000	0.006097
2020.000000	0.006039
2019.000000	0.005945
2018.000000	0.005832
2017.000000	0.005752
2016.000000	0.005727
2015.000000	0.005738
2014.000000	0.005778
2013.000000	0.005801
2012.000000	0.005699
2011.000000	0.005421
2010.000000	0.005094
2009.000000	0.004905
2008.000000	0.004896
2007.000000	0.004966
2006.000000	0.005039
2005.000000	0.005115
2004.000000	0.005199
2003.000000	0.005305
2002.000000	0.005496
2001.000000	0.005797
2000.000000	0.006101
1999.000000	0.006259
1998.000000	0.006251
1997.000000	0.006196
1996.000000	0.006188
1995.000000	0.006224
1994.000000	0.006259
1993.000000	0.006261
1992.000000	0.006208
1991.000000	0.006102
1990.000000	0.005981
1989.000000	0.005876
1988.000000	0.005780
1987.000000	0.005708
1986.000000	0.005726
1985.000000	0.005862
1984.000000	0.006035
1983.000000	0.006147
1982.000000	0.006214
1981.000000	0.006296
1980.000000	0.006357
1979.000000	0.006293
1978.000000	0.006084
1977.000000	0.005824
1976.000000	0.005584
1975.000000	0.005397
1974.000000	0.005328
1973.000000	0.005436
1972.000000	0.005675
1971.000000	0.005931
1970.000000	0.006123
1969.000000	0.006206
1968.000000	0.006153
1967.000000	0.006027
1966.000000	0.005993
1965.000000	0.006132
1964.000000	0.006322
1963.000000	0.006393
1962.000000	0.006326
1961.000000	0.006214
1960.000000	0.006108
1959.000000	0.006017
1958.000000	0.005994
1957.000000	0.006091
1956.000000	0.006253
1955.000000	0.006365
1954.000000	0.006383
1953.000000	0.006342
1952.000000	0.006274
1951.000000	0.006197
1950.000000	0.006158
1949.000000	0.006184
1948.000000	0.006223
1947.000000	0.006202
1946.000000	0.006131
1945.000000	0.006084
1944.000000	0.006084
1943.000000	0.006086
1942.000000	0.006052
1941.000000	0.005997
1940.000000	0.005951
1939.000000	0.005955
1938.000000	0.006046
1937.000000	0.006207
1936.000000	0.006348
1935.000000	0.006409
1934.000000	0.006432
1933.000000	0.006488
1932.000000	0.006567
1931.000000	0.006594
1930.000000	0.006549
1929.000000	0.006474
1928.000000	0.006411
1927.000000	0.006376
1926.000000	0.006380
1925.000000	0.006422
1924.000000	0.006463
1923.000000	0.006463
1922.000000	0.006442
1921.000000	0.006442
1920.000000	0.006467
1919.000000	0.006486
1918.000000	0.006489
1917.000000	0.006493
1916.000000	0.006505
1915.000000	0.006527
1914.000000	0.006569
1913.000000	0.006638
1912.000000	0.006706
1911.000000	0.006747
1910.000000	0.006771
1909.000000	0.006789
1908.000000	0.006781
1907.000000	0.006729
1906.000000	0.006659
1905.000000	0.006618
1904.000000	0.006612
1903.000000	0.006618
1902.000000	0.006628
1901.000000	0.006643
1900.000000	0.006648
1899.000000	0.006642
1898.000000	0.006650
1897.000000	0.006692
1896.000000	0.006733
1895.000000	0.006732
1894.000000	0.006702
1893.000000	0.006677
1892.000000	0.006653
1891.000000	0.006614
1890.000000	0.006589
1889.000000	0.006622
1888.000000	0.006712
1887.000000	0.006815
1886.000000	0.006897
1885.000000	0.006948
1884.000000	0.006946
1883.000000	0.006880
1882.000000	0.006781
1881.000000	0.006698
1880.000000	0.006649
1879.000000	0.006628
1878.000000	0.006635
1877.000000	0.006664
1876.000000	0.006678
1875.000000	0.006650
1874.000000	0.006602
1873.000000	0.006576
1872.000000	0.006576
1871.000000	0.006592
1870.000000	0.006637
1869.000000	0.006709
1868.000000	0.006757
1867.000000	0.006755
1866.000000	0.006743
1865.000000	0.006753
1864.000000	0.006759
1863.000000	0.006731
1862.000000	0.006699
1861.000000	0.006714
1860.000000	0.006766
1859.000000	0.006787
1858.000000	0.006745
1857.000000	0.006673
1856.000000	0.006618
1855.000000	0.006606
1854.000000	0.006643
1853.000000	0.006709
1852.000000	0.006755
1851.000000	0.006759
1850.000000	0.006755
1849.000000	0.006772
1848.000000	0.006776
1847.000000	0.006723
1846.000000	0.006643
1845.000000	0.006611
1844.000000	0.006643
1843.000000	0.006682
1842.000000	0.006702
1841.000000	0.006730
1840.000000	0.006774
1839.000000	0.006799
1838.000000	0.006790
1837.000000	0.006771
1836.000000	0.006765
1835.000000	0.006764
1834.000000	0.006756
1833.000000	0.006739
1832.000000	0.006704
1831.000000	0.006645
1830.000000	0.006581
1829.000000	0.006550
1828.000000	0.006559
1827.000000	0.006589
1826.000000	0.006634
1825.000000	0.006697
1824.000000	0.006755
1823.000000	0.006781
1822.000000	0.006785
1821.000000	0.006793
1820.000000	0.006808
1819.000000	0.006813
1818.000000	0.006808
1817.000000	0.006807
1816.000000	0.006803
1815.000000	0.006787
1814.000000	0.006773
1813.000000	0.006776
1812.000000	0.006789
1811.000000	0.006799
1810.000000	0.006814
1809.000000	0.006847
1808.000000	0.006883
1807.000000	0.006904
1806.000000	0.006915
1805.000000	0.006938
1804.000000	0.006963
1803.000000	0.006965
1802.000000	0.006943
1801.000000	0.006909
1800.000000	0.006880
1799.000000	0.006874
1798.000000	0.006901
1797.000000	0.006935
1796.000000	0.006926
1795.000000	0.006862
1794.000000	0.006796
1793.000000	0.006793
1792.000000	0.006842
1791.000000	0.006883
1790.000000	0.006899
1789.000000	0.006910
1788.000000	0.006923
1787.000000	0.006929
1786.000000	0.006928
1785.000000	0.006923
1784.000000	0.006910
1783.000000	0.006895
1782.000000	0.006905
1781.000000	0.006937
1780.000000	0.006948
1779.000000	0.006920
1778.000000	0.006889
1777.000000	0.006884
1776.000000	0.006872
1775.000000	0.006805
1774.000000	0.006694
1773.000000	0.006597
1772.000000	0.006538
1771.000000	0.006514
1770.000000	0.006543
1769.000000	0.006614
1768.000000	0.006632
1767.000000	0.006510
1766.000000	0.006278
1765.000000	0.006018
1764.000000	0.005756
1763.000000	0.005452
1762.000000	0.005093
1761.000000	0.004712
1760.000000	0.004319
1759.000000	0.003869
1758.000000	0.003328
1757.000000	0.002700
1756.000000	0.002025
1755.000000	0.001362
1754.000000	0.000743
1753.000000	0.000145
1752.000000	-0.000512
1751.000000	-0.001267
1750.000000	-0.002027
1749.000000	-0.002646
1748.000000	-0.003081
1747.000000	-0.003366
1746.000000	-0.003502
1745.000000	-0.003455
1744.000000	-0.003246
1743.000000	-0.002969
1742.000000	-0.002634
1741.000000	-0.002100
1740.000000	-0.001279
1739.000000	-0.000351
1738.000000	0.000438
1737.000000	0.001078
1736.000000	0.001728
1735.000000	0.002519
1734.000000	0.003413
1733.000000	0.004222
1732.000000	0.004837
1731.000000	0.005287
1730.000000	0.005657
1729.000000	0.006008
1728.000000	0.006333
1727.000000	0.006603
1726.000000	0.006838
1725.000000	0.007098
1724.000000	0.007394
1723.000000	0.007630
1722.000000	0.007748
1721.000000	0.007816
1720.000000	0.007953
1719.000000	0.008222
1718.000000	0.008601
1717.000000	0.009000
1716.000000	0.009332
1715.000000	0.009571
1714.000000	0.009771
1713.000000	0.010019
1712.000000	0.010328
1711.000000	0.010633
1710.000000	0.010900
1709.000000	0.011153
1708.000000	0.011429
1707.000000	0.011784
1706.000000	0.012276
1705.000000	0.012868
1704.000000	0.013409
1703.000000	0.013823
1702.000000	0.014259
1701.000000	0.015068
1700.000000	0.016312
1699.000000	0.017519
1698.000000	0.018501
1697.000000	0.019514
1696.000000	0.020691
1695.000000	0.021818
1694.000000	0.022701
1693.000000	0.023443
1692.000000	0.024250
1691.000000	0.025193
1690.000000	0.026219
1689.000000	0.027225
1688.000000	0.028113
1687.000000	0.028865
1686.000000	0.029635
1685.000000	0.030773
1684.000000	0.032314
1683.000000	0.033758
1682.000000	0.034977
1681.000000	0.036182
1680.000000	0.037415
1679.000000	0.038527
1678.000000	0.039504
1677.000000	0.040593
1676.000000	0.042040
1675.000000	0.043707
1674.000000	0.045219
1673.000000	0.046483
1672.000000	0.047697
1671.000000	0.049066
1670.000000	0.050698
1669.000000	0.052518
1668.000000	0.054260
1667.000000	0.055691
1666.000000	0.056836
1665.000000	0.057935
1664.000000	0.059218
1663.000000	0.060685
1662.000000	0.062153
1661.000000	0.063514
1660.000000	0.064768
1659.000000	0.065880
1658.000000	0.066790
1657.000000	0.067514
1656.000000	0.068142
1655.000000	0.068797
1654.000000	0.069748
1653.000000	0.071150
1652.000000	0.072509
1651.000000	0.073304
1650.000000	0.073648
1649.000000	0.073980
1648.000000	0.074552
1647.000000	0.075289
1646.000000	0.075987
1645.000000	0.076620
1644.000000	0.077190
1643.000000	0.077659
1642.000000	0.078051
1641.000000	0.078409
1640.000000	0.078734
1639.000000	0.078973
1638.000000	0.079119
1637.000000	0.079274
1636.000000	0.079552
1635.000000	0.079913
1634.000000	0.080252
1633.000000	0.080506
1632.000000	0.080650
1631.000000	0.080634
1630.000000	0.080414
1629.000000	0.080026
1628.000000	0.079545
1627.000000	0.078987
1626.000000	0.078311
1625.000000	0.077481
1624.000000	0.076494
1623.000000	0.075380
1622.000000	0.074232
1621.000000	0.073122
1620.000000	0.072021
1619.000000	0.070828
1618.000000	0.069412
1617.000000	0.067757
1616.000000	0.066084
1615.000000	0.064598
1614.000000	0.063251
1613.000000	0.061915
1612.000000	0.060518
1611.000000	0.059066
1610.000000	0.057616
1609.000000	0.056217
1608.000000	0.054892
1607.000000	0.053658
1606.000000	0.052516
1605.000000	0.051433
1604.000000	0.050393
1603.000000	0.049422
1602.000000	0.048542
1601.000000	0.047731
1600.000000	0.046974
1599.000000	0.046296
1598.000000	0.045726
1597.000000	0.045258
1596.000000	0.044865
1595.000000	0.044545
1594.000000	0.044286
1593.000000	0.044056
1592.000000	0.043835
1591.000000	0.043641
1590.000000	0.043484
1589.000000	0.043342
1588.000000	0.043211
1587.000000	0.043137
1586.000000	0.043155
1585.000000	0.043240
1584.000000	0.043358
1583.000000	0.043534
1582.000000	0.043799
1581.000000	0.044113
1580.000000	0.044419
1579.000000	0.044751
1578.000000	0.045205
1577.000000	0.045848
1576.000000	0.046621
1575.000000	0.047339
1574.000000	0.047880
1573.000000	0.048272
1572.000000	0.048635
1571.000000	0.049143
1570.000000	0.049941
1569.000000	0.050934
1568.000000	0.051888
1567.000000	0.052739
1566.000000	0.053586
1565.000000	0.054495
1564.000000	0.055371
1563.000000	0.056083
1562.000000	0.056596
1561.000000	0.057010
1560.000000	0.057712
1559.000000	0.058960
1558.000000	0.060181
1557.000000	0.061155
1556.000000	0.061983
1555.000000	0.062774
1554.000000	0.063554
1553.000000	0.064272
1552.000000	0.064904
1551.000000	0.065477
1550.000000	0.065979
1549.000000	0.066368
1548.000000	0.066650
1547.000000	0.066895
1546.000000	0.067163
1545.000000	0.067430
1544.000000	0.067592
1543.000000	0.067609
1542.000000	0.067580
1541.000000	0.067649
1540.000000	0.067816
1539.000000	0.067979
1538.000000	0.068050
1537.000000	0.067939
1536.000000	0.067677
1535.000000	0.067352
1534.000000	0.067035
1533.000000	0.066764
1532.000000	0.066532
1531.000000	0.066292
1530.000000	0.065989
1529.000000	0.065621
1528.000000	0.065215
1527.000000	0.064760
1526.000000	0.064235
1525.000000	0.063654
1524.000000	0.063068
1523.000000	0.062513
1522.000000	0.061984
1521.000000	0.061467
1520.000000	0.060977
1519.000000	0.060515
1518.000000	0.060084
1517.000000	0.059670
1516.000000	0.059214
1515.000000	0.058676
1514.000000	0.058052
1513.000000	0.057341
1512.000000	0.056549
1511.000000	0.055693
1510.000000	0.054813
1509.000000	0.053937
1508.000000	0.053041
1507.000000	0.052031
1506.000000	0.051013
1505.000000	0.050254
1504.000000	0.049600
1503.000000	0.048845
1502.000000	0.047936
1501.000000	0.046870
1500.000000	0.045695
1499.000000	0.044486
1498.000000	0.043294
1497.000000	0.042140
1496.000000	0.041048
1495.000000	0.040030
1494.000000	0.039080
1493.000000	0.038222
1492.000000	0.037479
1491.000000	0.036835
1490.000000	0.036243
1489.000000	0.035685
1488.000000	0.035187
1487.000000	0.034755
1486.000000	0.034384
1485.000000	0.034097
1484.000000	0.033917
1483.000000	0.033850
1482.000000	0.033894
1481.000000	0.034038
1480.000000	0.034237
1479.000000	0.034444
1478.000000	0.034663
1477.000000	0.034916
1476.000000	0.035173
1475.000000	0.035373
1474.000000	0.035516
1473.000000	0.035644
1472.000000	0.035737
1471.000000	0.035754
1470.000000	0.035727
1469.000000	0.035720
1468.000000	0.035780
1467.000000	0.035938
1466.000000	0.036266
1465.000000	0.036816
1464.000000	0.037493
1463.000000	0.038118
1462.000000	0.038610
1461.000000	0.039018
1460.000000	0.039442
1459.000000	0.040008
1458.000000	0.040875
1457.000000	0.042051
1456.000000	0.043185
1455.000000	0.043983
1454.000000	0.044530
1453.000000	0.045018
1452.000000	0.045476
1451.000000	0.045815
1450.000000	0.046027
1449.000000	0.046189
1448.000000	0.046316
1447.000000	0.046364
1446.000000	0.046346
1445.000000	0.046303
1444.000000	0.046234
1443.000000	0.046105
1442.000000	0.045904
1441.000000	0.045661
1440.000000	0.045391
1439.000000	0.045099
1438.000000	0.044801
1437.000000	0.044531
1436.000000	0.044276
1435.000000	0.043995
1434.000000	0.043680
1433.000000	0.043350
1432.000000	0.043017
1431.000000	0.042687
1430.000000	0.042390
1429.000000	0.042164
1428.000000	0.042012
1427.000000	0.041906
1426.000000	0.041843
1425.000000	0.041826
1424.000000	0.041805
1423.000000	0.041707
1422.000000	0.041540
1421.000000	0.041400
1420.000000	0.041386
1419.000000	0.041499
1418.000000	0.041625
1417.000000	0.041692
1416.000000	0.041716
1415.000000	0.041745
1414.000000	0.041828
1413.000000	0.041998
1412.000000	0.042234
1411.000000	0.042468
1410.000000	0.042660
1409.000000	0.042830
1408.000000	0.043005
1407.000000	0.043189
1406.000000	0.043383
1405.000000	0.043582
1404.000000	0.043736
1403.000000	0.043789
1402.000000	0.043757
1401.000000	0.043711
1400.000000	0.043696
1399.000000	0.043678
1398.000000	0.043607
1397.000000	0.043478
1396.000000	0.043289
1395.000000	0.043020
1394.000000	0.042702
1393.000000	0.042398
1392.000000	0.042115
1391.000000	0.041815
1390.000000	0.041496
1389.000000	0.041183
1388.000000	0.040872
1387.000000	0.040518
1386.000000	0.040097
1385.000000	0.039637
1384.000000	0.039160
1383.000000	0.038668
1382.000000	0.038168
1381.000000	0.037685
1380.000000	0.037223
1379.000000	0.036773
1378.000000	0.036336
1377.000000	0.035940
1376.000000	0.035602
1375.000000	0.035292
1374.000000	0.034960
1373.000000	0.034594
1372.000000	0.034220
1371.000000	0.033858
1370.000000	0.033505
1369.000000	0.033149
1368.000000	0.032771
1367.000000	0.032364
1366.000000	0.031948
1365.000000	0.031552
1364.000000	0.031186
1363.000000	0.030825
1362.000000	0.030433
1361.000000	0.030018
1360.000000	0.029613
1359.000000	0.029243
1358.000000	0.028927
1357.000000	0.028676
1356.000000	0.028493
1355.000000	0.028370
1354.000000	0.028300
1353.000000	0.028286
1352.000000	0.028338
1351.000000	0.028453
1350.000000	0.028615
1349.000000	0.028812
1348.000000	0.029038
1347.000000	0.029296
1346.000000	0.029578
1345.000000	0.029877
1344.000000	0.030186
1343.000000	0.030511
1342.000000	0.030867
1341.000000	0.031255
1340.000000	0.031635
1339.000000	0.031928
1338.000000	0.032082
1337.000000	0.032101
1336.000000	0.032015
1335.000000	0.031847
1334.000000	0.031618
1333.000000	0.031348
1332.000000	0.031045
1331.000000	0.030712
1330.000000	0.030355
1329.000000	0.029989
1328.000000	0.029638
1327.000000	0.029323
1326.000000	0.029060
1325.000000	0.028862
1324.000000	0.028728
1323.000000	0.028648
1322.000000	0.028615
1321.000000	0.028625
1320.000000	0.028670
1319.000000	0.028724
1318.000000	0.028765
1317.000000	0.028784
1316.000000	0.028780
1315.000000	0.028747
1314.000000	0.028672
1313.000000	0.028546
1312.000000	0.028364
1311.000000	0.028124
1310.000000	0.027844
1309.000000	0.027554
1308.000000	0.027274
1307.000000	0.026999
1306.000000	0.026726
1305.000000	0.026464
1304.000000	0.026220
1303.000000	0.025981
1302.000000	0.025723
1301.000000	0.025452
1300.000000	0.025201
1299.000000	0.025006
1298.000000	0.024878
1297.000000	0.024802
1296.000000	0.024764
1295.000000	0.024770
1294.000000	0.024835
1293.000000	0.024976
1292.000000	0.025189
1291.000000	0.025455
1290.000000	0.025746
1289.000000	0.026040
1288.000000	0.026315
1287.000000	0.026559
1286.000000	0.026788
1285.000000	0.027036
1284.000000	0.027317
1283.000000	0.027609
1282.000000	0.027879
1281.000000	0.028117
1280.000000	0.028322
1279.000000	0.028480
1278.000000	0.028575
1277.000000	0.028610
1276.000000	0.028602
1275.000000	0.028568
1274.000000	0.028526
1273.000000	0.028496
1272.000000	0.028491
1271.000000	0.028499
1270.000000	0.028503
1269.000000	0.028507
1268.000000	0.028524
1267.000000	0.028548
1266.000000	0.028566
1265.000000	0.028581
1264.000000	0.028622
1263.000000	0.028708
1262.000000	0.028839
1261.000000	0.029008
1260.000000	0.029224
1259.000000	0.029507
1258.000000	0.029872
1257.000000	0.030305
1256.000000	0.030770
1255.000000	0.031226
1254.000000	0.031653
1253.000000	0.032061
1252.000000	0.032461
1251.000000	0.032861
1250.000000	0.033276
1249.000000	0.033722
1248.000000	0.034195
1247.000000	0.034669
1246.000000	0.035135
1245.000000	0.035610
1244.000000	0.036110
1243.000000	0.036628
1242.000000	0.037144
1241.000000	0.037645
1240.000000	0.038107
1239.000000	0.038500
1238.000000	0.038817
1237.000000	0.039075
1236.000000	0.039274
1235.000000	0.039387
1234.000000	0.039388
1233.000000	0.039289
1232.000000	0.039103
1231.000000	0.038808
1230.000000	0.038375
1229.000000	0.037795
1228.000000	0.037089
1227.000000	0.036290
1226.000000	0.035429
1225.000000	0.034524
1224.000000	0.033573
1223.000000	0.032572
1222.000000	0.031541
1221.000000	0.030531
1220.000000	0.029585
1219.000000	0.028720
1218.000000	0.027945
1217.000000	0.027275
1216.000000	0.026726
1215.000000	0.026292
1214.000000	0.025956
1213.000000	0.025703
1212.000000	0.025516
1211.000000	0.025384
1210.000000	0.025296
1209.000000	0.025244
1208.000000	0.025214
1207.000000	0.025175
1206.000000	0.025108
1205.000000	0.025013
1204.000000	0.024881
1203.000000	0.024680
1202.000000	0.024380
1201.000000	0.023986
1200.000000	0.023523
1199.000000	0.023004
1198.000000	0.022421
1197.000000	0.021776
1196.000000	0.021093
1195.000000	0.020404
1194.000000	0.019730
1193.000000	0.019086
1192.000000	0.018485
1191.000000	0.017929
1190.000000	0.017414
1189.000000	0.016931
1188.000000	0.016480
1187.000000	0.016065
1186.000000	0.015710
1185.000000	0.015444
1184.000000	0.015286
1183.000000	0.015214
1182.000000	0.015182
1181.000000	0.015153
1180.000000	0.015122
1179.000000	0.015091
1178.000000	0.015056
1177.000000	0.015007
1176.000000	0.014947
1175.000000	0.014883
1174.000000	0.014816
1173.000000	0.014746
1172.000000	0.014677
1171.000000	0.014613
1170.000000	0.014557
1169.000000	0.014511
1168.000000	0.014480
1167.000000	0.014456
1166.000000	0.014426
1165.000000	0.014388
1164.000000	0.014358
1163.000000	0.014345
1162.000000	0.014336
1161.000000	0.014309
1160.000000	0.014248
1159.000000	0.014141
1158.000000	0.013984
1157.000000	0.013783
1156.000000	0.013557
1155.000000	0.013315
1154.000000	0.013055
1153.000000	0.012780
1152.000000	0.012501
1151.000000	0.012232
1150.000000	0.011970
1149.000000	0.011702
1148.000000	0.011429
1147.000000	0.011161
1146.000000	0.010904
1145.000000	0.010660
1144.000000	0.010444
1143.000000	0.010280
1142.000000	0.010177
1141.000000	0.010123
1140.000000	0.010090
1139.000000	0.010058
1138.000000	0.010033
1137.000000	0.010034
1136.000000	0.010070
1135.000000	0.010135
1134.000000	0.010208
1133.000000	0.010287
1132.000000	0.010383
1131.000000	0.010494
1130.000000	0.010588
1129.000000	0.010633
1128.000000	0.010626
1127.000000	0.010590
1126.000000	0.010548
1125.000000	0.010504
1124.000000	0.010456
1123.000000	0.010399
1122.000000	0.010338
1121.000000	0.010285
1120.000000	0.010255
1119.000000	0.010255
1118.000000	0.010288
1117.000000	0.010362
1116.000000	0.010488
1115.000000	0.010664
1114.000000	0.010864
1113.000000	0.011060
1112.000000	0.011241
1111.000000	0.011406
1110.000000	0.011557
1109.000000	0.011689
1108.000000	0.011804
1107.000000	0.011910
1106.000000	0.012011
1105.000000	0.012117
1104.000000	0.012240
1103.000000	0.012388
1102.000000	0.012557
1101.000000	0.012729
1100.000000	0.012879
1099.000000	0.012995
1098.000000	0.013093
1097.000000	0.013206
1096.000000	0.013369
1095.000000	0.013591
1094.000000	0.013859
1093.000000	0.014154
1092.000000	0.014474
1091.000000	0.014833
1090.000000	0.015250
1089.000000	0.015740
1088.000000	0.016305
1087.000000	0.016940
1086.000000	0.017625
1085.000000	0.018315
1084.000000	0.018933
1083.000000	0.019399
1082.000000	0.019672
1081.000000	0.019756
1080.000000	0.019667
1079.000000	0.019409
1078.000000	0.019015
1077.000000	0.018548
1076.000000	0.018075
1075.000000	0.017623
1074.000000	0.017191
1073.000000	0.016786
1072.000000	0.016435
1071.000000	0.016168
1070.000000	0.015993
1069.000000	0.015905
1068.000000	0.015882
1067.000000	0.015898
1066.000000	0.015940
1065.000000	0.016011
1064.000000	0.016118
1063.000000	0.016248
1062.000000	0.016368
1061.000000	0.016456
1060.000000	0.016521
1059.000000	0.016580
1058.000000	0.016641
1057.000000	0.016695
1056.000000	0.016731
1055.000000	0.016748
1054.000000	0.016753
1053.000000	0.016747
1052.000000	0.016720
1051.000000	0.016668
1050.000000	0.016613
1049.000000	0.016581
1048.000000	0.016576
1047.000000	0.016572
1046.000000	0.016546
1045.000000	0.016503
1044.000000	0.016460
1043.000000	0.016428
1042.000000	0.016415
1041.000000	0.016440
1040.000000	0.016527
1039.000000	0.016686
1038.000000	0.016915
1037.000000	0.017213
1036.000000	0.017568
1035.000000	0.017948
1034.000000	0.018304
1033.000000	0.018599
1032.000000	0.018817
1031.000000	0.018953
1030.000000	0.019007
1029.000000	0.018991
1028.000000	0.018920
1027.000000	0.018802
1026.000000	0.018637
1025.000000	0.018441
1024.000000	0.018240
1023.000000	0.018066
1022.000000	0.017939
1021.000000	0.017869
1020.000000	0.017857
1019.000000	0.017894
1018.000000	0.017955
1017.000000	0.018000
1016.000000	0.017979
1015.000000	0.017840
1014.000000	0.017560
1013.000000	0.017142
1012.000000	0.016613
1011.000000	0.016006
1010.000000	0.015357
1009.000000	0.014702
1008.000000	0.014069
1007.000000	0.013473
1006.000000	0.012918
1005.000000	0.012406
1004.000000	0.011931
1003.000000	0.011480
1002.000000	0.011028
1001.000000	0.010564
1000.000000	0.010104
999.000000	0.009681
998.000000	0.009316
997.000000	0.008994
996.000000	0.008684
995.000000	0.008366
994.000000	0.008037
993.000000	0.007704
992.000000	0.007362
991.000000	0.007015
990.000000	0.006678
989.000000	0.006374
988.000000	0.006114
987.000000	0.005889
986.000000	0.005686
985.000000	0.005496
984.000000	0.005321
983.000000	0.005167
982.000000	0.005039
981.000000	0.004933
980.000000	0.004845
979.000000	0.004773
978.000000	0.004718
977.000000	0.004667
976.000000	0.004595
975.000000	0.004479
974.000000	0.004326
973.000000	0.004160
972.000000	0.003997
971.000000	0.003823
970.000000	0.003622
969.000000	0.003398
968.000000	0.003168
967.000000	0.002955
966.000000	0.002779
965.000000	0.002652
964.000000	0.002557
963.000000	0.002460
962.000000	0.002340
961.000000	0.002219
960.000000	0.002130
959.000000	0.002081
958.000000	0.002050
957.000000	0.002018
956.000000	0.001982
955.000000	0.001943
954.000000	0.001889
953.000000	0.001811
952.000000	0.001717
951.000000	0.001624
950.000000	0.001538
949.000000	0.001459
948.000000	0.001383
947.000000	0.001313
946.000000	0.001247
945.000000	0.001180
944.000000	0.001108
943.000000	0.001039
942.000000	0.000993
941.000000	0.000986
940.000000	0.001009
939.000000	0.001037
938.000000	0.001055
937.000000	0.001062
936.000000	0.001059
935.000000	0.001032
934.000000	0.000968
933.000000	0.000868
932.000000	0.000754
931.000000	0.000642
930.000000	0.000544
929.000000	0.000467
928.000000	0.000407
927.000000	0.000341
926.000000	0.000242
925.000000	0.000098
924.000000	-0.000079
923.000000	-0.000268
922.000000	-0.000453
921.000000	-0.000629
920.000000	-0.000796
919.000000	-0.000957
918.000000	-0.001112
917.000000	-0.001260
916.000000	-0.001403
915.000000	-0.001554
914.000000	-0.001715
913.000000	-0.001878
912.000000	-0.002034
911.000000	-0.002179
910.000000	-0.002302
909.000000	-0.002381
908.000000	-0.002408
907.000000	-0.002414
906.000000	-0.002443
905.000000	-0.002497
904.000000	-0.002546
903.000000	-0.002572
902.000000	-0.002588
901.000000	-0.002608
900.000000	-0.002626
899.000000	-0.002644
898.000000	-0.002678
897.000000	-0.002738
896.000000	-0.002804
895.000000	-0.002856
894.000000	-0.002894
893.000000	-0.002929
892.000000	-0.002954
891.000000	-0.002963
890.000000	-0.002964
889.000000	-0.002971
888.000000	-0.002977
887.000000	-0.002954
886.000000	-0.002873
885.000000	-0.002716
884.000000	-0.002474
883.000000	-0.002139
882.000000	-0.001710
881.000000	-0.001180
880.000000	-0.000534
879.000000	0.000218
878.000000	0.001022
877.000000	0.001772
876.000000	0.002347
875.000000	0.002638
874.000000	0.002592
873.000000	0.002222
872.000000	0.001598
871.000000	0.000828
870.000000	0.000025
869.000000	-0.000707
868.000000	-0.001295
867.000000	-0.001714
866.000000	-0.001977
865.000000	-0.002121
864.000000	-0.002189
863.000000	-0.002229
862.000000	-0.002272
861.000000	-0.002304
860.000000	-0.002278
859.000000	-0.002171
858.000000	-0.002015
857.000000	-0.001880
856.000000	-0.001809
855.000000	-0.001796
854.000000	-0.001803
853.000000	-0.001789
852.000000	-0.001735
851.000000	-0.001645
850.000000	-0.001547
849.000000	-0.001473
848.000000	-0.001437
847.000000	-0.001428
846.000000	-0.001425
845.000000	-0.001410
844.000000	-0.001379
843.000000	-0.001338
842.000000	-0.001279
841.000000	-0.001180
840.000000	-0.001018
839.000000	-0.000805
838.000000	-0.000589
837.000000	-0.000431
836.000000	-0.000361
835.000000	-0.000369
834.000000	-0.000424
833.000000	-0.000500
832.000000	-0.000590
831.000000	-0.000692
830.000000	-0.000801
829.000000	-0.000910
828.000000	-0.001007
827.000000	-0.001100
826.000000	-0.001216
825.000000	-0.001380
824.000000	-0.001581
823.000000	-0.001771
822.000000	-0.001905
821.000000	-0.001985
820.000000	-0.002036
819.000000	-0.002078
818.000000	-0.002117
817.000000	-0.002177
816.000000	-0.002279
815.000000	-0.002407
814.000000	-0.002509
813.000000	-0.002559
812.000000	-0.002592
811.000000	-0.002651
810.000000	-0.002737
809.000000	-0.002816
808.000000	-0.002874
807.000000	-0.002918
806.000000	-0.002955
805.000000	-0.002979
804.000000	-0.002991
803.000000	-0.002983
802.000000	-0.002934
801.000000	-0.002840
800.000000	-0.002747
799.000000	-0.002703
798.000000	-0.002700
797.000000	-0.002686
796.000000	-0.002641
795.000000	-0.002589
794.000000	-0.002549
793.000000	-0.002501
792.000000	-0.002428
791.000000	-0.002336
790.000000	-0.002228
789.000000	-0.002097
788.000000	-0.001964
787.000000	-0.001879
786.000000	-0.001861
785.000000	-0.001867
784.000000	-0.001843
783.000000	-0.001786
782.000000	-0.001719
781.000000	-0.001654
780.000000	-0.001592
779.000000	-0.001543
778.000000	-0.001505
777.000000	-0.001446
776.000000	-0.001341
775.000000	-0.001213
774.000000	-0.001121
773.000000	-0.001097
772.000000	-0.001125
771.000000	-0.001170
770.000000	-0.001197
769.000000	-0.001193
768.000000	-0.001162
767.000000	-0.001124
766.000000	-0.001084
765.000000	-0.001035
764.000000	-0.000972
763.000000	-0.000906
762.000000	-0.000843
761.000000	-0.000778
760.000000	-0.000706
759.000000	-0.000619
758.000000	-0.000496
757.000000	-0.000310
756.000000	-0.000070
755.000000	0.000165
754.000000	0.000345
753.000000	0.000469
752.000000	0.000567
751.000000	0.000652
750.000000	0.000728
749.000000	0.000807
748.000000	0.000896
747.000000	0.000972
746.000000	0.001009
745.000000	0.001000
744.000000	0.000947
743.000000	0.000844
742.000000	0.000702
741.000000	0.000577
740.000000	0.000532
739.000000	0.000586
738.000000	0.000703
737.000000	0.000829
736.000000	0.000926
735.000000	0.000988
734.000000	0.001040
733.000000	0.001111
732.000000	0.001214
731.000000	0.001330
730.000000	0.001441
729.000000	0.001546
728.000000	0.001646
727.000000	0.001742
726.000000	0.001857
725.000000	0.002022
724.000000	0.002237
723.000000	0.002457
722.000000	0.002653
721.000000	0.002845
720.000000	0.003062
719.000000	0.003297
718.000000	0.003535
717.000000	0.003800
716.000000	0.004139
715.000000	0.004556
714.000000	0.004988
713.000000	0.005346
712.000000	0.005567
711.000000	0.005669
710.000000	0.005745
709.000000	0.005900
708.000000	0.006144
707.000000	0.006386
706.000000	0.006540
705.000000	0.006617
704.000000	0.006682
703.000000	0.006779
702.000000	0.006903
701.000000	0.007036
700.000000	0.007149
699.000000	0.007196
698.000000	0.007168
697.000000	0.007123
696.000000	0.007134
695.000000	0.007204
694.000000	0.007272
693.000000	0.007301
692.000000	0.007315
691.000000	0.007355
690.000000	0.007424
689.000000	0.007499
688.000000	0.007577
687.000000	0.007683
686.000000	0.007836
685.000000	0.008009
684.000000	0.008152
683.000000	0.008249
682.000000	0.008340
681.000000	0.008465
680.000000	0.008618
679.000000	0.008761
678.000000	0.008877
677.000000	0.008990
676.000000	0.009119
675.000000	0.009263
674.000000	0.009427
673.000000	0.009609
672.000000	0.009756
671.000000	0.009804
670.000000	0.009758
669.000000	0.009727
668.000000	0.009865
667.000000	0.010202
666.000000	0.010494
665.000000	0.010634
664.000000	0.010657
663.000000	0.010592
662.000000	0.010508
661.000000	0.010513
660.000000	0.010662
659.000000	0.010897
658.000000	0.011117
657.000000	0.011263
656.000000	0.011318
655.000000	0.011299
654.000000	0.011292
653.000000	0.011392
652.000000	0.011568
651.000000	0.011682
650.000000	0.011673
649.000000	0.011631
648.000000	0.011636
647.000000	0.011660
646.000000	0.011652
645.000000	0.011639
644.000000	0.011653
643.000000	0.011664
642.000000	0.011636
641.000000	0.011584
640.000000	0.011527
639.000000	0.011443
638.000000	0.011338
637.000000	0.011273
636.000000	0.011276
635.000000	0.011279
634.000000	0.011226
633.000000	0.011153
632.000000	0.011116
631.000000	0.011118
630.000000	0.011141
629.000000	0.011190
628.000000	0.011252
627.000000	0.011282
626.000000	0.011282
625.000000	0.011322
624.000000	0.011414
623.000000	0.011479
622.000000	0.011472
621.000000	0.011466
620.000000	0.011534
619.000000	0.011634
618.000000	0.011691
617.000000	0.011713
616.000000	0.011743
615.000000	0.011747
614.000000	0.011680
613.000000	0.011582
612.000000	0.011537
611.000000	0.011562
610.000000	0.011626
609.000000	0.011711
608.000000	0.011779
607.000000	0.011752
606.000000	0.011624
605.000000	0.011521
604.000000	0.011557
603.000000	0.011673
602.000000	0.011734
601.000000	0.011717
600.000000	0.011705
599.000000	0.011733
598.000000	0.011760
597.000000	0.011764
596.000000	0.011771
595.000000	0.011795
594.000000	0.011829
593.000000	0.011869
592.000000	0.011897
591.000000	0.011866
590.000000	0.011782
589.000000	0.011736
588.000000	0.011789
587.000000	0.011873
586.000000	0.011887
585.000000	0.011839
584.000000	0.011803
583.000000	0.011789
582.000000	0.011772
581.000000	0.011794
580.000000	0.011923
579.000000	0.012130
578.000000	0.012304
577.000000	0.012380
576.000000	0.012379
575.000000	0.012350
574.000000	0.012348
573.000000	0.012439
572.000000	0.012631
571.000000	0.012841
570.000000	0.012992
569.000000	0.013118
568.000000	0.013295
567.000000	0.013515
566.000000	0.013722
565.000000	0.013913
564.000000	0.014109
563.000000	0.014272
562.000000	0.014365
561.000000	0.014431
560.000000	0.014536
559.000000	0.014655
558.000000	0.014735
557.000000	0.014783
556.000000	0.014823
555.000000	0.014805
554.000000	0.014670
553.000000	0.014451
552.000000	0.014218
551.000000	0.013979
550.000000	0.013720
549.000000	0.013483
548.000000	0.013308
547.000000	0.013168
546.000000	0.013033
545.000000	0.012913
544.000000	0.012789
543.000000	0.012593
542.000000	0.012355
541.000000	0.012231
540.000000	0.012274
539.000000	0.012305
538.000000	0.012158
537.000000	0.011944
536.000000	0.011909
535.000000	0.012101
534.000000	0.012354
533.000000	0.012549
532.000000	0.012718
531.000000	0.012917
530.000000	0.013124
529.000000	0.013288
528.000000	0.013359
527.000000	0.013299
526.000000	0.013143
525.000000	0.012988
524.000000	0.012830
523.000000	0.012526
522.000000	0.012027
521.000000	0.011518
520.000000	0.011208
519.000000	0.011048
518.000000	0.010810
517.000000	0.010387
516.000000	0.009887
515.000000	0.009462
514.000000	0.009198
513.000000	0.009104
512.000000	0.009074
511.000000	0.008925
510.000000	0.008590
509.000000	0.008236
508.000000	0.008060
507.000000	0.008034
506.000000	0.007965
505.000000	0.007765
504.000000	0.007493
503.000000	0.007215
502.000000	0.006954
501.000000	0.006739
500.000000	0.006567
499.000000	0.006361
498.000000	0.006076
497.000000	0.005781
496.000000	0.005553
495.000000	0.005347
494.000000	0.005054
493.000000	0.004653
492.000000	0.004222
491.000000	0.003867
490.000000	0.003708
489.000000	0.003807
488.000000	0.004047
487.000000	0.004172
486.000000	0.004041
485.000000	0.003768
484.000000	0.003490
483.000000	0.003147
482.000000	0.002670
481.000000	0.002225
480.000000	0.002041
479.000000	0.002105
478.000000	0.002219
477.000000	0.002230
476.000000	0.002084
475.000000	0.001769
474.000000	0.001394
473.000000	0.001223
472.000000	0.001355
471.000000	0.001493
470.000000	0.001336
469.000000	0.000995
468.000000	0.000754
467.000000	0.000648
466.000000	0.000496
465.000000	0.000243
464.000000	-0.000019
463.000000	-0.000290
462.000000	-0.000638
461.000000	-0.000980
460.000000	-0.001156
459.000000	-0.001169
458.000000	-0.001154
457.000000	-0.001163
456.000000	-0.001203
455.000000	-0.001402
454.000000	-0.001831
453.000000	-0.002287
452.000000	-0.002534
451.000000	-0.002678
450.000000	-0.002979
