PE IR       SUBTECH     SPECTRUM    ASCII       PEDS        4.00        
   -1
3S-N10-F025_1.ASC
22/02/18
15:43:46.00
22/02/18
15:59:09.00
uco
Sample 025 By uco Date Friday, February 18 2022
450.000000
#HDR
-1
-1
#GR
cm-1
A
1.0
0.0
4000.000000
-1.000000
3551
8
0.073184
0.007364
#DATA
4000.000000	0.008673
3999.000000	0.008695
3998.000000	0.008727
3997.000000	0.008758
3996.000000	0.008779
3995.000000	0.008780
3994.000000	0.008767
3993.000000	0.008752
3992.000000	0.008749
3991.000000	0.008759
3990.000000	0.008779
3989.000000	0.008800
3988.000000	0.008819
3987.000000	0.008834
3986.000000	0.008841
3985.000000	0.008836
3984.000000	0.008818
3983.000000	0.008797
3982.000000	0.008786
3981.000000	0.008792
3980.000000	0.008810
3979.000000	0.008831
3978.000000	0.008847
3977.000000	0.008861
3976.000000	0.008879
3975.000000	0.008901
3974.000000	0.008920
3973.000000	0.008925
3972.000000	0.008914
3971.000000	0.008895
3970.000000	0.008875
3969.000000	0.008860
3968.000000	0.008851
3967.000000	0.008849
3966.000000	0.008858
3965.000000	0.008876
3964.000000	0.008898
3963.000000	0.008915
3962.000000	0.008925
3961.000000	0.008934
3960.000000	0.008943
3959.000000	0.008954
3958.000000	0.008962
3957.000000	0.008965
3956.000000	0.008964
3955.000000	0.008966
3954.000000	0.008977
3953.000000	0.009000
3952.000000	0.009023
3951.000000	0.009032
3950.000000	0.009016
3949.000000	0.008981
3948.000000	0.008951
3947.000000	0.008950
3946.000000	0.008983
3945.000000	0.009033
3944.000000	0.009073
3943.000000	0.009083
3942.000000	0.009067
3941.000000	0.009041
3940.000000	0.009028
3939.000000	0.009031
3938.000000	0.009045
3937.000000	0.009055
3936.000000	0.009052
3935.000000	0.009038
3934.000000	0.009022
3933.000000	0.009013
3932.000000	0.009009
3931.000000	0.009008
3930.000000	0.009013
3929.000000	0.009031
3928.000000	0.009063
3927.000000	0.009098
3926.000000	0.009119
3925.000000	0.009114
3924.000000	0.009088
3923.000000	0.009058
3922.000000	0.009038
3921.000000	0.009026
3920.000000	0.009014
3919.000000	0.008996
3918.000000	0.008980
3917.000000	0.008980
3916.000000	0.008993
3915.000000	0.009010
3914.000000	0.009021
3913.000000	0.009035
3912.000000	0.009055
3911.000000	0.009078
3910.000000	0.009105
3909.000000	0.009140
3908.000000	0.009192
3907.000000	0.009251
3906.000000	0.009274
3905.000000	0.009213
3904.000000	0.009067
3903.000000	0.008909
3902.000000	0.008828
3901.000000	0.008845
3900.000000	0.008919
3899.000000	0.008984
3898.000000	0.009006
3897.000000	0.008997
3896.000000	0.008986
3895.000000	0.008999
3894.000000	0.009040
3893.000000	0.009095
3892.000000	0.009136
3891.000000	0.009142
3890.000000	0.009110
3889.000000	0.009052
3888.000000	0.008997
3887.000000	0.008975
3886.000000	0.009000
3885.000000	0.009039
3884.000000	0.009055
3883.000000	0.009050
3882.000000	0.009052
3881.000000	0.009076
3880.000000	0.009107
3879.000000	0.009127
3878.000000	0.009129
3877.000000	0.009118
3876.000000	0.009108
3875.000000	0.009100
3874.000000	0.009080
3873.000000	0.009033
3872.000000	0.008965
3871.000000	0.008910
3870.000000	0.008898
3869.000000	0.008921
3868.000000	0.008951
3867.000000	0.008969
3866.000000	0.008993
3865.000000	0.009033
3864.000000	0.009059
3863.000000	0.009049
3862.000000	0.009020
3861.000000	0.009003
3860.000000	0.009022
3859.000000	0.009086
3858.000000	0.009195
3857.000000	0.009333
3856.000000	0.009458
3855.000000	0.009514
3854.000000	0.009435
3853.000000	0.009264
3852.000000	0.009117
3851.000000	0.009032
3850.000000	0.008990
3849.000000	0.008983
3848.000000	0.008998
3847.000000	0.009019
3846.000000	0.009037
3845.000000	0.009048
3844.000000	0.009042
3843.000000	0.009016
3842.000000	0.008973
3841.000000	0.008931
3840.000000	0.008915
3839.000000	0.008934
3838.000000	0.008981
3837.000000	0.009038
3836.000000	0.009087
3835.000000	0.009110
3834.000000	0.009101
3833.000000	0.009071
3832.000000	0.009041
3831.000000	0.009021
3830.000000	0.009013
3829.000000	0.009023
3828.000000	0.009050
3827.000000	0.009085
3826.000000	0.009108
3825.000000	0.009104
3824.000000	0.009077
3823.000000	0.009061
3822.000000	0.009085
3821.000000	0.009127
3820.000000	0.009147
3819.000000	0.009129
3818.000000	0.009101
3817.000000	0.009097
3816.000000	0.009135
3815.000000	0.009191
3814.000000	0.009230
3813.000000	0.009246
3812.000000	0.009249
3811.000000	0.009243
3810.000000	0.009219
3809.000000	0.009180
3808.000000	0.009140
3807.000000	0.009113
3806.000000	0.009092
3805.000000	0.009068
3804.000000	0.009054
3803.000000	0.009083
3802.000000	0.009157
3801.000000	0.009232
3800.000000	0.009252
3799.000000	0.009217
3798.000000	0.009162
3797.000000	0.009121
3796.000000	0.009111
3795.000000	0.009127
3794.000000	0.009155
3793.000000	0.009190
3792.000000	0.009231
3791.000000	0.009272
3790.000000	0.009308
3789.000000	0.009339
3788.000000	0.009370
3787.000000	0.009399
3786.000000	0.009413
3785.000000	0.009404
3784.000000	0.009376
3783.000000	0.009345
3782.000000	0.009325
3781.000000	0.009324
3780.000000	0.009331
3779.000000	0.009326
3778.000000	0.009308
3777.000000	0.009288
3776.000000	0.009277
3775.000000	0.009279
3774.000000	0.009283
3773.000000	0.009276
3772.000000	0.009259
3771.000000	0.009250
3770.000000	0.009257
3769.000000	0.009262
3768.000000	0.009251
3767.000000	0.009227
3766.000000	0.009211
3765.000000	0.009213
3764.000000	0.009219
3763.000000	0.009207
3762.000000	0.009183
3761.000000	0.009169
3760.000000	0.009170
3759.000000	0.009162
3758.000000	0.009137
3757.000000	0.009108
3756.000000	0.009081
3755.000000	0.009046
3754.000000	0.008982
3753.000000	0.008885
3752.000000	0.008776
3751.000000	0.008697
3750.000000	0.008687
3749.000000	0.008745
3748.000000	0.008824
3747.000000	0.008890
3746.000000	0.008942
3745.000000	0.008988
3744.000000	0.009015
3743.000000	0.008988
3742.000000	0.008904
3741.000000	0.008800
3740.000000	0.008726
3739.000000	0.008688
3738.000000	0.008674
3737.000000	0.008670
3736.000000	0.008660
3735.000000	0.008631
3734.000000	0.008599
3733.000000	0.008621
3732.000000	0.008724
3731.000000	0.008856
3730.000000	0.008951
3729.000000	0.008977
3728.000000	0.008954
3727.000000	0.008925
3726.000000	0.008918
3725.000000	0.008931
3724.000000	0.008962
3723.000000	0.009007
3722.000000	0.009047
3721.000000	0.009076
3720.000000	0.009100
3719.000000	0.009123
3718.000000	0.009144
3717.000000	0.009155
3716.000000	0.009145
3715.000000	0.009116
3714.000000	0.009087
3713.000000	0.009084
3712.000000	0.009108
3711.000000	0.009134
3710.000000	0.009147
3709.000000	0.009143
3708.000000	0.009124
3707.000000	0.009095
3706.000000	0.009064
3705.000000	0.009049
3704.000000	0.009068
3703.000000	0.009123
3702.000000	0.009191
3701.000000	0.009245
3700.000000	0.009271
3699.000000	0.009270
3698.000000	0.009250
3697.000000	0.009230
3696.000000	0.009218
3695.000000	0.009212
3694.000000	0.009211
3693.000000	0.009215
3692.000000	0.009211
3691.000000	0.009177
3690.000000	0.009101
3689.000000	0.009024
3688.000000	0.009005
3687.000000	0.009038
3686.000000	0.009082
3685.000000	0.009117
3684.000000	0.009143
3683.000000	0.009163
3682.000000	0.009180
3681.000000	0.009202
3680.000000	0.009235
3679.000000	0.009271
3678.000000	0.009292
3677.000000	0.009316
3676.000000	0.009369
3675.000000	0.009429
3674.000000	0.009437
3673.000000	0.009388
3672.000000	0.009322
3671.000000	0.009304
3670.000000	0.009343
3669.000000	0.009397
3668.000000	0.009437
3667.000000	0.009477
3666.000000	0.009532
3665.000000	0.009603
3664.000000	0.009673
3663.000000	0.009722
3662.000000	0.009744
3661.000000	0.009742
3660.000000	0.009727
3659.000000	0.009716
3658.000000	0.009722
3657.000000	0.009744
3656.000000	0.009762
3655.000000	0.009753
3654.000000	0.009709
3653.000000	0.009647
3652.000000	0.009594
3651.000000	0.009576
3650.000000	0.009596
3649.000000	0.009642
3648.000000	0.009720
3647.000000	0.009823
3646.000000	0.009928
3645.000000	0.010022
3644.000000	0.010109
3643.000000	0.010193
3642.000000	0.010270
3641.000000	0.010331
3640.000000	0.010373
3639.000000	0.010397
3638.000000	0.010403
3637.000000	0.010393
3636.000000	0.010379
3635.000000	0.010377
3634.000000	0.010386
3633.000000	0.010387
3632.000000	0.010371
3631.000000	0.010368
3630.000000	0.010420
3629.000000	0.010527
3628.000000	0.010632
3627.000000	0.010699
3626.000000	0.010746
3625.000000	0.010792
3624.000000	0.010844
3623.000000	0.010891
3622.000000	0.010925
3621.000000	0.010962
3620.000000	0.011020
3619.000000	0.011096
3618.000000	0.011169
3617.000000	0.011220
3616.000000	0.011242
3615.000000	0.011251
3614.000000	0.011265
3613.000000	0.011289
3612.000000	0.011311
3611.000000	0.011331
3610.000000	0.011370
3609.000000	0.011457
3608.000000	0.011592
3607.000000	0.011737
3606.000000	0.011856
3605.000000	0.011939
3604.000000	0.012003
3603.000000	0.012062
3602.000000	0.012125
3601.000000	0.012192
3600.000000	0.012255
3599.000000	0.012306
3598.000000	0.012351
3597.000000	0.012405
3596.000000	0.012476
3595.000000	0.012562
3594.000000	0.012647
3593.000000	0.012719
3592.000000	0.012769
3591.000000	0.012796
3590.000000	0.012814
3589.000000	0.012857
3588.000000	0.012945
3587.000000	0.013059
3586.000000	0.013169
3585.000000	0.013257
3584.000000	0.013332
3583.000000	0.013413
3582.000000	0.013512
3581.000000	0.013634
3580.000000	0.013767
3579.000000	0.013894
3578.000000	0.013999
3577.000000	0.014081
3576.000000	0.014151
3575.000000	0.014222
3574.000000	0.014298
3573.000000	0.014369
3572.000000	0.014422
3571.000000	0.014448
3570.000000	0.014458
3569.000000	0.014480
3568.000000	0.014550
3567.000000	0.014673
3566.000000	0.014819
3565.000000	0.014951
3564.000000	0.015057
3563.000000	0.015144
3562.000000	0.015229
3561.000000	0.015317
3560.000000	0.015405
3559.000000	0.015490
3558.000000	0.015576
3557.000000	0.015669
3556.000000	0.015765
3555.000000	0.015853
3554.000000	0.015923
3553.000000	0.015980
3552.000000	0.016034
3551.000000	0.016097
3550.000000	0.016167
3549.000000	0.016239
3548.000000	0.016316
3547.000000	0.016409
3546.000000	0.016528
3545.000000	0.016666
3544.000000	0.016801
3543.000000	0.016912
3542.000000	0.016998
3541.000000	0.017070
3540.000000	0.017145
3539.000000	0.017231
3538.000000	0.017324
3537.000000	0.017410
3536.000000	0.017480
3535.000000	0.017535
3534.000000	0.017590
3533.000000	0.017659
3532.000000	0.017741
3531.000000	0.017829
3530.000000	0.017909
3529.000000	0.017975
3528.000000	0.018032
3527.000000	0.018091
3526.000000	0.018161
3525.000000	0.018244
3524.000000	0.018333
3523.000000	0.018420
3522.000000	0.018506
3521.000000	0.018593
3520.000000	0.018688
3519.000000	0.018786
3518.000000	0.018881
3517.000000	0.018967
3516.000000	0.019045
3515.000000	0.019119
3514.000000	0.019189
3513.000000	0.019254
3512.000000	0.019312
3511.000000	0.019366
3510.000000	0.019420
3509.000000	0.019476
3508.000000	0.019537
3507.000000	0.019604
3506.000000	0.019681
3505.000000	0.019765
3504.000000	0.019848
3503.000000	0.019924
3502.000000	0.019988
3501.000000	0.020045
3500.000000	0.020104
3499.000000	0.020175
3498.000000	0.020263
3497.000000	0.020360
3496.000000	0.020452
3495.000000	0.020530
3494.000000	0.020596
3493.000000	0.020662
3492.000000	0.020733
3491.000000	0.020810
3490.000000	0.020888
3489.000000	0.020967
3488.000000	0.021048
3487.000000	0.021129
3486.000000	0.021201
3485.000000	0.021263
3484.000000	0.021324
3483.000000	0.021388
3482.000000	0.021453
3481.000000	0.021513
3480.000000	0.021569
3479.000000	0.021625
3478.000000	0.021685
3477.000000	0.021742
3476.000000	0.021791
3475.000000	0.021835
3474.000000	0.021886
3473.000000	0.021952
3472.000000	0.022035
3471.000000	0.022125
3470.000000	0.022210
3469.000000	0.022279
3468.000000	0.022333
3467.000000	0.022382
3466.000000	0.022436
3465.000000	0.022497
3464.000000	0.022556
3463.000000	0.022607
3462.000000	0.022647
3461.000000	0.022683
3460.000000	0.022723
3459.000000	0.022776
3458.000000	0.022846
3457.000000	0.022930
3456.000000	0.023018
3455.000000	0.023100
3454.000000	0.023170
3453.000000	0.023229
3452.000000	0.023277
3451.000000	0.023322
3450.000000	0.023369
3449.000000	0.023420
3448.000000	0.023473
3447.000000	0.023527
3446.000000	0.023584
3445.000000	0.023648
3444.000000	0.023715
3443.000000	0.023780
3442.000000	0.023838
3441.000000	0.023888
3440.000000	0.023938
3439.000000	0.023999
3438.000000	0.024074
3437.000000	0.024155
3436.000000	0.024224
3435.000000	0.024276
3434.000000	0.024324
3433.000000	0.024386
3432.000000	0.024467
3431.000000	0.024562
3430.000000	0.024659
3429.000000	0.024747
3428.000000	0.024820
3427.000000	0.024879
3426.000000	0.024934
3425.000000	0.024991
3424.000000	0.025051
3423.000000	0.025114
3422.000000	0.025184
3421.000000	0.025264
3420.000000	0.025348
3419.000000	0.025434
3418.000000	0.025517
3417.000000	0.025595
3416.000000	0.025665
3415.000000	0.025735
3414.000000	0.025818
3413.000000	0.025920
3412.000000	0.026026
3411.000000	0.026114
3410.000000	0.026175
3409.000000	0.026213
3408.000000	0.026247
3407.000000	0.026295
3406.000000	0.026367
3405.000000	0.026454
3404.000000	0.026540
3403.000000	0.026610
3402.000000	0.026665
3401.000000	0.026714
3400.000000	0.026763
3399.000000	0.026812
3398.000000	0.026860
3397.000000	0.026908
3396.000000	0.026959
3395.000000	0.027019
3394.000000	0.027086
3393.000000	0.027151
3392.000000	0.027203
3391.000000	0.027245
3390.000000	0.027294
3389.000000	0.027362
3388.000000	0.027440
3387.000000	0.027512
3386.000000	0.027569
3385.000000	0.027622
3384.000000	0.027688
3383.000000	0.027771
3382.000000	0.027863
3381.000000	0.027954
3380.000000	0.028037
3379.000000	0.028113
3378.000000	0.028184
3377.000000	0.028255
3376.000000	0.028333
3375.000000	0.028421
3374.000000	0.028517
3373.000000	0.028609
3372.000000	0.028689
3371.000000	0.028762
3370.000000	0.028837
3369.000000	0.028926
3368.000000	0.029029
3367.000000	0.029139
3366.000000	0.029248
3365.000000	0.029349
3364.000000	0.029442
3363.000000	0.029529
3362.000000	0.029620
3361.000000	0.029723
3360.000000	0.029843
3359.000000	0.029970
3358.000000	0.030094
3357.000000	0.030207
3356.000000	0.030313
3355.000000	0.030417
3354.000000	0.030519
3353.000000	0.030616
3352.000000	0.030715
3351.000000	0.030825
3350.000000	0.030950
3349.000000	0.031076
3348.000000	0.031191
3347.000000	0.031296
3346.000000	0.031400
3345.000000	0.031510
3344.000000	0.031624
3343.000000	0.031736
3342.000000	0.031839
3341.000000	0.031925
3340.000000	0.031993
3339.000000	0.032056
3338.000000	0.032138
3337.000000	0.032247
3336.000000	0.032373
3335.000000	0.032500
3334.000000	0.032612
3333.000000	0.032709
3332.000000	0.032794
3331.000000	0.032878
3330.000000	0.032967
3329.000000	0.033061
3328.000000	0.033149
3327.000000	0.033224
3326.000000	0.033292
3325.000000	0.033363
3324.000000	0.033445
3323.000000	0.033537
3322.000000	0.033632
3321.000000	0.033725
3320.000000	0.033809
3319.000000	0.033882
3318.000000	0.033940
3317.000000	0.033979
3316.000000	0.034000
3315.000000	0.034017
3314.000000	0.034044
3313.000000	0.034085
3312.000000	0.034131
3311.000000	0.034175
3310.000000	0.034227
3309.000000	0.034297
3308.000000	0.034386
3307.000000	0.034479
3306.000000	0.034568
3305.000000	0.034644
3304.000000	0.034704
3303.000000	0.034752
3302.000000	0.034794
3301.000000	0.034837
3300.000000	0.034875
3299.000000	0.034895
3298.000000	0.034896
3297.000000	0.034892
3296.000000	0.034897
3295.000000	0.034916
3294.000000	0.034943
3293.000000	0.034971
3292.000000	0.034998
3291.000000	0.035025
3290.000000	0.035054
3289.000000	0.035083
3288.000000	0.035107
3287.000000	0.035119
3286.000000	0.035117
3285.000000	0.035106
3284.000000	0.035095
3283.000000	0.035096
3282.000000	0.035115
3281.000000	0.035143
3280.000000	0.035157
3279.000000	0.035137
3278.000000	0.035082
3277.000000	0.035007
3276.000000	0.034928
3275.000000	0.034850
3274.000000	0.034768
3273.000000	0.034688
3272.000000	0.034623
3271.000000	0.034587
3270.000000	0.034573
3269.000000	0.034564
3268.000000	0.034541
3267.000000	0.034500
3266.000000	0.034445
3265.000000	0.034381
3264.000000	0.034306
3263.000000	0.034218
3262.000000	0.034118
3261.000000	0.034007
3260.000000	0.033891
3259.000000	0.033777
3258.000000	0.033676
3257.000000	0.033598
3256.000000	0.033544
3255.000000	0.033503
3254.000000	0.033454
3253.000000	0.033381
3252.000000	0.033283
3251.000000	0.033173
3250.000000	0.033068
3249.000000	0.032974
3248.000000	0.032889
3247.000000	0.032815
3246.000000	0.032755
3245.000000	0.032708
3244.000000	0.032665
3243.000000	0.032616
3242.000000	0.032557
3241.000000	0.032486
3240.000000	0.032400
3239.000000	0.032300
3238.000000	0.032189
3237.000000	0.032081
3236.000000	0.031990
3235.000000	0.031925
3234.000000	0.031881
3233.000000	0.031844
3232.000000	0.031801
3231.000000	0.031753
3230.000000	0.031706
3229.000000	0.031663
3228.000000	0.031618
3227.000000	0.031564
3226.000000	0.031500
3225.000000	0.031433
3224.000000	0.031370
3223.000000	0.031314
3222.000000	0.031263
3221.000000	0.031213
3220.000000	0.031157
3219.000000	0.031092
3218.000000	0.031024
3217.000000	0.030959
3216.000000	0.030900
3215.000000	0.030846
3214.000000	0.030794
3213.000000	0.030743
3212.000000	0.030684
3211.000000	0.030615
3210.000000	0.030536
3209.000000	0.030454
3208.000000	0.030377
3207.000000	0.030307
3206.000000	0.030246
3205.000000	0.030185
3204.000000	0.030116
3203.000000	0.030034
3202.000000	0.029947
3201.000000	0.029872
3200.000000	0.029818
3199.000000	0.029776
3198.000000	0.029726
3197.000000	0.029657
3196.000000	0.029573
3195.000000	0.029489
3194.000000	0.029411
3193.000000	0.029334
3192.000000	0.029249
3191.000000	0.029156
3190.000000	0.029067
3189.000000	0.028992
3188.000000	0.028923
3187.000000	0.028846
3186.000000	0.028757
3185.000000	0.028664
3184.000000	0.028582
3183.000000	0.028513
3182.000000	0.028449
3181.000000	0.028376
3180.000000	0.028289
3179.000000	0.028193
3178.000000	0.028097
3177.000000	0.028003
3176.000000	0.027906
3175.000000	0.027803
3174.000000	0.027699
3173.000000	0.027601
3172.000000	0.027511
3171.000000	0.027431
3170.000000	0.027362
3169.000000	0.027298
3168.000000	0.027225
3167.000000	0.027131
3166.000000	0.027018
3165.000000	0.026900
3164.000000	0.026789
3163.000000	0.026687
3162.000000	0.026591
3161.000000	0.026503
3160.000000	0.026420
3159.000000	0.026337
3158.000000	0.026254
3157.000000	0.026170
3156.000000	0.026084
3155.000000	0.025992
3154.000000	0.025898
3153.000000	0.025807
3152.000000	0.025727
3151.000000	0.025657
3150.000000	0.025596
3149.000000	0.025545
3148.000000	0.025498
3147.000000	0.025448
3146.000000	0.025386
3145.000000	0.025311
3144.000000	0.025226
3143.000000	0.025134
3142.000000	0.025042
3141.000000	0.024962
3140.000000	0.024902
3139.000000	0.024858
3138.000000	0.024818
3137.000000	0.024772
3136.000000	0.024721
3135.000000	0.024670
3134.000000	0.024623
3133.000000	0.024580
3132.000000	0.024536
3131.000000	0.024488
3130.000000	0.024440
3129.000000	0.024400
3128.000000	0.024367
3127.000000	0.024335
3126.000000	0.024295
3125.000000	0.024248
3124.000000	0.024196
3123.000000	0.024142
3122.000000	0.024093
3121.000000	0.024052
3120.000000	0.024023
3119.000000	0.024001
3118.000000	0.023985
3117.000000	0.023977
3116.000000	0.023972
3115.000000	0.023966
3114.000000	0.023961
3113.000000	0.023967
3112.000000	0.023987
3111.000000	0.024014
3110.000000	0.024037
3109.000000	0.024053
3108.000000	0.024067
3107.000000	0.024081
3106.000000	0.024093
3105.000000	0.024100
3104.000000	0.024103
3103.000000	0.024101
3102.000000	0.024101
3101.000000	0.024112
3100.000000	0.024137
3099.000000	0.024173
3098.000000	0.024206
3097.000000	0.024233
3096.000000	0.024259
3095.000000	0.024294
3094.000000	0.024336
3093.000000	0.024376
3092.000000	0.024398
3091.000000	0.024400
3090.000000	0.024394
3089.000000	0.024393
3088.000000	0.024406
3087.000000	0.024424
3086.000000	0.024434
3085.000000	0.024433
3084.000000	0.024429
3083.000000	0.024435
3082.000000	0.024456
3081.000000	0.024491
3080.000000	0.024531
3079.000000	0.024567
3078.000000	0.024585
3077.000000	0.024581
3076.000000	0.024558
3075.000000	0.024531
3074.000000	0.024518
3073.000000	0.024527
3072.000000	0.024548
3071.000000	0.024564
3070.000000	0.024557
3069.000000	0.024525
3068.000000	0.024478
3067.000000	0.024439
3066.000000	0.024421
3065.000000	0.024421
3064.000000	0.024417
3063.000000	0.024391
3062.000000	0.024339
3061.000000	0.024275
3060.000000	0.024210
3059.000000	0.024148
3058.000000	0.024085
3057.000000	0.024022
3056.000000	0.023966
3055.000000	0.023918
3054.000000	0.023873
3053.000000	0.023821
3052.000000	0.023750
3051.000000	0.023662
3050.000000	0.023563
3049.000000	0.023467
3048.000000	0.023380
3047.000000	0.023302
3046.000000	0.023229
3045.000000	0.023154
3044.000000	0.023076
3043.000000	0.022999
3042.000000	0.022926
3041.000000	0.022858
3040.000000	0.022793
3039.000000	0.022729
3038.000000	0.022656
3037.000000	0.022570
3036.000000	0.022473
3035.000000	0.022379
3034.000000	0.022302
3033.000000	0.022248
3032.000000	0.022210
3031.000000	0.022176
3030.000000	0.022139
3029.000000	0.022094
3028.000000	0.022042
3027.000000	0.021981
3026.000000	0.021913
3025.000000	0.021842
3024.000000	0.021773
3023.000000	0.021712
3022.000000	0.021669
3021.000000	0.021644
3020.000000	0.021638
3019.000000	0.021648
3018.000000	0.021673
3017.000000	0.021709
3016.000000	0.021750
3015.000000	0.021798
3014.000000	0.021863
3013.000000	0.021951
3012.000000	0.022052
3011.000000	0.022152
3010.000000	0.022238
3009.000000	0.022311
3008.000000	0.022374
3007.000000	0.022427
3006.000000	0.022465
3005.000000	0.022481
3004.000000	0.022473
3003.000000	0.022448
3002.000000	0.022410
3001.000000	0.022360
3000.000000	0.022295
2999.000000	0.022220
2998.000000	0.022153
2997.000000	0.022110
2996.000000	0.022092
2995.000000	0.022096
2994.000000	0.022120
2993.000000	0.022165
2992.000000	0.022231
2991.000000	0.022313
2990.000000	0.022406
2989.000000	0.022512
2988.000000	0.022632
2987.000000	0.022770
2986.000000	0.022929
2985.000000	0.023104
2984.000000	0.023280
2983.000000	0.023451
2982.000000	0.023620
2981.000000	0.023804
2980.000000	0.024014
2979.000000	0.024246
2978.000000	0.024490
2977.000000	0.024739
2976.000000	0.024994
2975.000000	0.025264
2974.000000	0.025556
2973.000000	0.025873
2972.000000	0.026224
2971.000000	0.026625
2970.000000	0.027091
2969.000000	0.027621
2968.000000	0.028197
2967.000000	0.028792
2966.000000	0.029390
2965.000000	0.029987
2964.000000	0.030577
2963.000000	0.031156
2962.000000	0.031716
2961.000000	0.032250
2960.000000	0.032752
2959.000000	0.033213
2958.000000	0.033623
2957.000000	0.033971
2956.000000	0.034244
2955.000000	0.034439
2954.000000	0.034566
2953.000000	0.034642
2952.000000	0.034680
2951.000000	0.034701
2950.000000	0.034735
2949.000000	0.034821
2948.000000	0.034995
2947.000000	0.035277
2946.000000	0.035672
2945.000000	0.036179
2944.000000	0.036792
2943.000000	0.037507
2942.000000	0.038324
2941.000000	0.039247
2940.000000	0.040273
2939.000000	0.041394
2938.000000	0.042594
2937.000000	0.043857
2936.000000	0.045172
2935.000000	0.046533
2934.000000	0.047936
2933.000000	0.049371
2932.000000	0.050813
2931.000000	0.052228
2930.000000	0.053584
2929.000000	0.054863
2928.000000	0.056047
2927.000000	0.057114
2926.000000	0.058029
2925.000000	0.058743
2924.000000	0.059209
2923.000000	0.059399
2922.000000	0.059306
2921.000000	0.058934
2920.000000	0.058283
2919.000000	0.057357
2918.000000	0.056178
2917.000000	0.054799
2916.000000	0.053295
2915.000000	0.051747
2914.000000	0.050218
2913.000000	0.048744
2912.000000	0.047348
2911.000000	0.046047
2910.000000	0.044854
2909.000000	0.043770
2908.000000	0.042784
2907.000000	0.041886
2906.000000	0.041071
2905.000000	0.040340
2904.000000	0.039681
2903.000000	0.039073
2902.000000	0.038488
2901.000000	0.037916
2900.000000	0.037356
2899.000000	0.036809
2898.000000	0.036281
2897.000000	0.035774
2896.000000	0.035288
2895.000000	0.034816
2894.000000	0.034355
2893.000000	0.033903
2892.000000	0.033467
2891.000000	0.033050
2890.000000	0.032650
2889.000000	0.032266
2888.000000	0.031903
2887.000000	0.031574
2886.000000	0.031288
2885.000000	0.031046
2884.000000	0.030834
2883.000000	0.030649
2882.000000	0.030501
2881.000000	0.030407
2880.000000	0.030379
2879.000000	0.030417
2878.000000	0.030516
2877.000000	0.030668
2876.000000	0.030864
2875.000000	0.031086
2874.000000	0.031313
2873.000000	0.031521
2872.000000	0.031688
2871.000000	0.031807
2870.000000	0.031895
2869.000000	0.031982
2868.000000	0.032106
2867.000000	0.032301
2866.000000	0.032604
2865.000000	0.033043
2864.000000	0.033641
2863.000000	0.034404
2862.000000	0.035328
2861.000000	0.036402
2860.000000	0.037604
2859.000000	0.038890
2858.000000	0.040202
2857.000000	0.041472
2856.000000	0.042620
2855.000000	0.043563
2854.000000	0.044211
2853.000000	0.044485
2852.000000	0.044330
2851.000000	0.043730
2850.000000	0.042711
2849.000000	0.041340
2848.000000	0.039719
2847.000000	0.037973
2846.000000	0.036221
2845.000000	0.034555
2844.000000	0.033022
2843.000000	0.031643
2842.000000	0.030424
2841.000000	0.029366
2840.000000	0.028457
2839.000000	0.027680
2838.000000	0.027019
2837.000000	0.026460
2836.000000	0.025983
2835.000000	0.025565
2834.000000	0.025187
2833.000000	0.024838
2832.000000	0.024513
2831.000000	0.024209
2830.000000	0.023925
2829.000000	0.023665
2828.000000	0.023429
2827.000000	0.023214
2826.000000	0.023016
2825.000000	0.022832
2824.000000	0.022661
2823.000000	0.022500
2822.000000	0.022344
2821.000000	0.022186
2820.000000	0.022025
2819.000000	0.021866
2818.000000	0.021718
2817.000000	0.021581
2816.000000	0.021453
2815.000000	0.021335
2814.000000	0.021228
2813.000000	0.021134
2812.000000	0.021048
2811.000000	0.020962
2810.000000	0.020870
2809.000000	0.020771
2808.000000	0.020670
2807.000000	0.020577
2806.000000	0.020503
2805.000000	0.020444
2804.000000	0.020391
2803.000000	0.020331
2802.000000	0.020262
2801.000000	0.020187
2800.000000	0.020106
2799.000000	0.020022
2798.000000	0.019941
2797.000000	0.019871
2796.000000	0.019814
2795.000000	0.019765
2794.000000	0.019719
2793.000000	0.019675
2792.000000	0.019631
2791.000000	0.019583
2790.000000	0.019533
2789.000000	0.019483
2788.000000	0.019435
2787.000000	0.019383
2786.000000	0.019320
2785.000000	0.019248
2784.000000	0.019174
2783.000000	0.019103
2782.000000	0.019037
2781.000000	0.018975
2780.000000	0.018917
2779.000000	0.018869
2778.000000	0.018835
2777.000000	0.018813
2776.000000	0.018792
2775.000000	0.018759
2774.000000	0.018710
2773.000000	0.018654
2772.000000	0.018600
2771.000000	0.018554
2770.000000	0.018513
2769.000000	0.018472
2768.000000	0.018432
2767.000000	0.018396
2766.000000	0.018370
2765.000000	0.018350
2764.000000	0.018326
2763.000000	0.018292
2762.000000	0.018251
2761.000000	0.018214
2760.000000	0.018183
2759.000000	0.018155
2758.000000	0.018125
2757.000000	0.018091
2756.000000	0.018052
2755.000000	0.018010
2754.000000	0.017967
2753.000000	0.017930
2752.000000	0.017900
2751.000000	0.017877
2750.000000	0.017861
2749.000000	0.017848
2748.000000	0.017832
2747.000000	0.017804
2746.000000	0.017766
2745.000000	0.017724
2744.000000	0.017685
2743.000000	0.017648
2742.000000	0.017610
2741.000000	0.017576
2740.000000	0.017551
2739.000000	0.017538
2738.000000	0.017531
2737.000000	0.017517
2736.000000	0.017489
2735.000000	0.017451
2734.000000	0.017420
2733.000000	0.017404
2732.000000	0.017401
2731.000000	0.017395
2730.000000	0.017376
2729.000000	0.017346
2728.000000	0.017311
2727.000000	0.017276
2726.000000	0.017243
2725.000000	0.017211
2724.000000	0.017177
2723.000000	0.017143
2722.000000	0.017115
2721.000000	0.017097
2720.000000	0.017084
2719.000000	0.017065
2718.000000	0.017035
2717.000000	0.016997
2716.000000	0.016955
2715.000000	0.016911
2714.000000	0.016869
2713.000000	0.016835
2712.000000	0.016816
2711.000000	0.016811
2710.000000	0.016814
2709.000000	0.016817
2708.000000	0.016810
2707.000000	0.016787
2706.000000	0.016751
2705.000000	0.016708
2704.000000	0.016668
2703.000000	0.016635
2702.000000	0.016612
2701.000000	0.016603
2700.000000	0.016603
2699.000000	0.016603
2698.000000	0.016594
2697.000000	0.016575
2696.000000	0.016556
2695.000000	0.016546
2694.000000	0.016545
2693.000000	0.016548
2692.000000	0.016549
2691.000000	0.016547
2690.000000	0.016539
2689.000000	0.016528
2688.000000	0.016514
2687.000000	0.016500
2686.000000	0.016485
2685.000000	0.016466
2684.000000	0.016438
2683.000000	0.016404
2682.000000	0.016375
2681.000000	0.016364
2680.000000	0.016369
2679.000000	0.016379
2678.000000	0.016382
2677.000000	0.016372
2676.000000	0.016352
2675.000000	0.016330
2674.000000	0.016313
2673.000000	0.016308
2672.000000	0.016308
2671.000000	0.016306
2670.000000	0.016294
2669.000000	0.016272
2668.000000	0.016245
2667.000000	0.016219
2666.000000	0.016198
2665.000000	0.016180
2664.000000	0.016159
2663.000000	0.016130
2662.000000	0.016097
2661.000000	0.016067
2660.000000	0.016046
2659.000000	0.016036
2658.000000	0.016035
2657.000000	0.016037
2656.000000	0.016024
2655.000000	0.015984
2654.000000	0.015918
2653.000000	0.015844
2652.000000	0.015781
2651.000000	0.015737
2650.000000	0.015712
2649.000000	0.015699
2648.000000	0.015693
2647.000000	0.015682
2646.000000	0.015655
2645.000000	0.015609
2644.000000	0.015550
2643.000000	0.015492
2642.000000	0.015449
2641.000000	0.015428
2640.000000	0.015421
2639.000000	0.015416
2638.000000	0.015399
2637.000000	0.015364
2636.000000	0.015313
2635.000000	0.015262
2634.000000	0.015232
2633.000000	0.015232
2632.000000	0.015245
2631.000000	0.015242
2630.000000	0.015208
2629.000000	0.015152
2628.000000	0.015093
2627.000000	0.015040
2626.000000	0.014997
2625.000000	0.014959
2624.000000	0.014922
2623.000000	0.014887
2622.000000	0.014857
2621.000000	0.014839
2620.000000	0.014830
2619.000000	0.014829
2618.000000	0.014833
2617.000000	0.014831
2616.000000	0.014804
2615.000000	0.014748
2614.000000	0.014686
2613.000000	0.014646
2612.000000	0.014630
2611.000000	0.014612
2610.000000	0.014581
2609.000000	0.014552
2608.000000	0.014538
2607.000000	0.014537
2606.000000	0.014536
2605.000000	0.014527
2604.000000	0.014509
2603.000000	0.014482
2602.000000	0.014451
2601.000000	0.014422
2600.000000	0.014395
2599.000000	0.014362
2598.000000	0.014326
2597.000000	0.014300
2596.000000	0.014290
2595.000000	0.014284
2594.000000	0.014264
2593.000000	0.014232
2592.000000	0.014207
2591.000000	0.014204
2590.000000	0.014212
2589.000000	0.014207
2588.000000	0.014170
2587.000000	0.014107
2586.000000	0.014042
2585.000000	0.013991
2584.000000	0.013949
2583.000000	0.013911
2582.000000	0.013888
2581.000000	0.013894
2580.000000	0.013920
2579.000000	0.013943
2578.000000	0.013946
2577.000000	0.013938
2576.000000	0.013933
2575.000000	0.013932
2574.000000	0.013929
2573.000000	0.013921
2572.000000	0.013909
2571.000000	0.013894
2570.000000	0.013875
2569.000000	0.013853
2568.000000	0.013831
2567.000000	0.013815
2566.000000	0.013816
2565.000000	0.013840
2564.000000	0.013867
2563.000000	0.013869
2562.000000	0.013829
2561.000000	0.013763
2560.000000	0.013702
2559.000000	0.013663
2558.000000	0.013645
2557.000000	0.013629
2556.000000	0.013605
2555.000000	0.013579
2554.000000	0.013567
2553.000000	0.013574
2552.000000	0.013586
2551.000000	0.013591
2550.000000	0.013591
2549.000000	0.013595
2548.000000	0.013599
2547.000000	0.013590
2546.000000	0.013563
2545.000000	0.013529
2544.000000	0.013500
2543.000000	0.013488
2542.000000	0.013496
2541.000000	0.013521
2540.000000	0.013549
2539.000000	0.013567
2538.000000	0.013569
2537.000000	0.013559
2536.000000	0.013536
2535.000000	0.013503
2534.000000	0.013470
2533.000000	0.013450
2532.000000	0.013445
2531.000000	0.013445
2530.000000	0.013445
2529.000000	0.013442
2528.000000	0.013432
2527.000000	0.013416
2526.000000	0.013409
2525.000000	0.013417
2524.000000	0.013423
2523.000000	0.013410
2522.000000	0.013383
2521.000000	0.013369
2520.000000	0.013371
2519.000000	0.013366
2518.000000	0.013338
2517.000000	0.013302
2516.000000	0.013283
2515.000000	0.013286
2514.000000	0.013292
2513.000000	0.013275
2512.000000	0.013230
2511.000000	0.013172
2510.000000	0.013135
2509.000000	0.013141
2508.000000	0.013180
2507.000000	0.013221
2506.000000	0.013244
2505.000000	0.013244
2504.000000	0.013222
2503.000000	0.013179
2502.000000	0.013125
2501.000000	0.013076
2500.000000	0.013039
2499.000000	0.013011
2498.000000	0.012993
2497.000000	0.012988
2496.000000	0.012991
2495.000000	0.012999
2494.000000	0.013010
2493.000000	0.013020
2492.000000	0.013014
2491.000000	0.012984
2490.000000	0.012945
2489.000000	0.012916
2488.000000	0.012897
2487.000000	0.012877
2486.000000	0.012859
2485.000000	0.012859
2484.000000	0.012872
2483.000000	0.012878
2482.000000	0.012866
2481.000000	0.012852
2480.000000	0.012853
2479.000000	0.012865
2478.000000	0.012870
2477.000000	0.012856
2476.000000	0.012827
2475.000000	0.012798
2474.000000	0.012790
2473.000000	0.012803
2472.000000	0.012819
2471.000000	0.012821
2470.000000	0.012821
2469.000000	0.012838
2468.000000	0.012867
2467.000000	0.012879
2466.000000	0.012866
2465.000000	0.012853
2464.000000	0.012859
2463.000000	0.012876
2462.000000	0.012882
2461.000000	0.012861
2460.000000	0.012812
2459.000000	0.012748
2458.000000	0.012689
2457.000000	0.012659
2456.000000	0.012662
2455.000000	0.012682
2454.000000	0.012706
2453.000000	0.012724
2452.000000	0.012732
2451.000000	0.012730
2450.000000	0.012731
2449.000000	0.012745
2448.000000	0.012766
2447.000000	0.012773
2446.000000	0.012754
2445.000000	0.012719
2444.000000	0.012678
2443.000000	0.012637
2442.000000	0.012603
2441.000000	0.012586
2440.000000	0.012586
2439.000000	0.012595
2438.000000	0.012604
2437.000000	0.012609
2436.000000	0.012598
2435.000000	0.012562
2434.000000	0.012516
2433.000000	0.012493
2432.000000	0.012502
2431.000000	0.012529
2430.000000	0.012550
2429.000000	0.012555
2428.000000	0.012540
2427.000000	0.012503
2426.000000	0.012454
2425.000000	0.012422
2424.000000	0.012424
2423.000000	0.012453
2422.000000	0.012494
2421.000000	0.012530
2420.000000	0.012550
2419.000000	0.012546
2418.000000	0.012517
2417.000000	0.012479
2416.000000	0.012453
2415.000000	0.012449
2414.000000	0.012464
2413.000000	0.012487
2412.000000	0.012500
2411.000000	0.012503
2410.000000	0.012504
2409.000000	0.012510
2408.000000	0.012511
2407.000000	0.012494
2406.000000	0.012469
2405.000000	0.012453
2404.000000	0.012451
2403.000000	0.012453
2402.000000	0.012451
2401.000000	0.012446
2400.000000	0.012436
2399.000000	0.012423
2398.000000	0.012417
2397.000000	0.012428
2396.000000	0.012444
2395.000000	0.012442
2394.000000	0.012413
2393.000000	0.012372
2392.000000	0.012340
2391.000000	0.012331
2390.000000	0.012348
2389.000000	0.012382
2388.000000	0.012413
2387.000000	0.012425
2386.000000	0.012422
2385.000000	0.012417
2384.000000	0.012408
2383.000000	0.012379
2382.000000	0.012322
2381.000000	0.012248
2380.000000	0.012185
2379.000000	0.012171
2378.000000	0.012234
2377.000000	0.012355
2376.000000	0.012469
2375.000000	0.012514
2374.000000	0.012477
2373.000000	0.012392
2372.000000	0.012288
2371.000000	0.012181
2370.000000	0.012100
2369.000000	0.012075
2368.000000	0.012107
2367.000000	0.012174
2366.000000	0.012243
2365.000000	0.012288
2364.000000	0.012296
2363.000000	0.012290
2362.000000	0.012315
2361.000000	0.012372
2360.000000	0.012425
2359.000000	0.012438
2358.000000	0.012410
2357.000000	0.012368
2356.000000	0.012339
2355.000000	0.012349
2354.000000	0.012362
2353.000000	0.012317
2352.000000	0.012214
2351.000000	0.012130
2350.000000	0.012139
2349.000000	0.012243
2348.000000	0.012382
2347.000000	0.012455
2346.000000	0.012423
2345.000000	0.012365
2344.000000	0.012373
2343.000000	0.012460
2342.000000	0.012556
2341.000000	0.012600
2340.000000	0.012584
2339.000000	0.012532
2338.000000	0.012478
2337.000000	0.012449
2336.000000	0.012453
2335.000000	0.012459
2334.000000	0.012428
2333.000000	0.012354
2332.000000	0.012295
2331.000000	0.012290
2330.000000	0.012342
2329.000000	0.012404
2328.000000	0.012474
2327.000000	0.012557
2326.000000	0.012650
2325.000000	0.012716
2324.000000	0.012719
2323.000000	0.012659
2322.000000	0.012587
2321.000000	0.012562
2320.000000	0.012599
2319.000000	0.012658
2318.000000	0.012700
2317.000000	0.012705
2316.000000	0.012675
2315.000000	0.012601
2314.000000	0.012504
2313.000000	0.012412
2312.000000	0.012346
2311.000000	0.012288
2310.000000	0.012233
2309.000000	0.012192
2308.000000	0.012183
2307.000000	0.012187
2306.000000	0.012176
2305.000000	0.012141
2304.000000	0.012098
2303.000000	0.012063
2302.000000	0.012048
2301.000000	0.012059
2300.000000	0.012096
2299.000000	0.012135
2298.000000	0.012161
2297.000000	0.012169
2296.000000	0.012168
2295.000000	0.012145
2294.000000	0.012095
2293.000000	0.012030
2292.000000	0.011992
2291.000000	0.012012
2290.000000	0.012088
2289.000000	0.012179
2288.000000	0.012235
2287.000000	0.012226
2286.000000	0.012168
2285.000000	0.012102
2284.000000	0.012059
2283.000000	0.012043
2282.000000	0.012038
2281.000000	0.012028
2280.000000	0.012006
2279.000000	0.011968
2278.000000	0.011921
2277.000000	0.011871
2276.000000	0.011824
2275.000000	0.011790
2274.000000	0.011791
2273.000000	0.011825
2272.000000	0.011856
2271.000000	0.011848
2270.000000	0.011813
2269.000000	0.011794
2268.000000	0.011812
2267.000000	0.011841
2266.000000	0.011843
2265.000000	0.011788
2264.000000	0.011676
2263.000000	0.011554
2262.000000	0.011514
2261.000000	0.011601
2260.000000	0.011752
2259.000000	0.011856
2258.000000	0.011864
2257.000000	0.011811
2256.000000	0.011724
2255.000000	0.011601
2254.000000	0.011468
2253.000000	0.011388
2252.000000	0.011392
2251.000000	0.011433
2250.000000	0.011448
2249.000000	0.011418
2248.000000	0.011362
2247.000000	0.011312
2246.000000	0.011296
2245.000000	0.011319
2244.000000	0.011340
2243.000000	0.011319
2242.000000	0.011277
2241.000000	0.011277
2240.000000	0.011335
2239.000000	0.011402
2238.000000	0.011444
2237.000000	0.011476
2236.000000	0.011509
2235.000000	0.011523
2234.000000	0.011517
2233.000000	0.011529
2232.000000	0.011569
2231.000000	0.011593
2230.000000	0.011566
2229.000000	0.011512
2228.000000	0.011459
2227.000000	0.011390
2226.000000	0.011283
2225.000000	0.011157
2224.000000	0.011052
2223.000000	0.010988
2222.000000	0.010963
2221.000000	0.010966
2220.000000	0.010973
2219.000000	0.010972
2218.000000	0.010980
2217.000000	0.011020
2216.000000	0.011068
2215.000000	0.011077
2214.000000	0.011046
2213.000000	0.011023
2212.000000	0.011033
2211.000000	0.011055
2210.000000	0.011071
2209.000000	0.011076
2208.000000	0.011054
2207.000000	0.010999
2206.000000	0.010961
2205.000000	0.010998
2204.000000	0.011077
2203.000000	0.011097
2202.000000	0.011021
2201.000000	0.010919
2200.000000	0.010870
2199.000000	0.010892
2198.000000	0.010980
2197.000000	0.011122
2196.000000	0.011260
2195.000000	0.011320
2194.000000	0.011303
2193.000000	0.011279
2192.000000	0.011263
2191.000000	0.011180
2190.000000	0.010988
2189.000000	0.010752
2188.000000	0.010552
2187.000000	0.010403
2186.000000	0.010311
2185.000000	0.010325
2184.000000	0.010466
2183.000000	0.010652
2182.000000	0.010757
2181.000000	0.010732
2180.000000	0.010621
2179.000000	0.010484
2178.000000	0.010340
2177.000000	0.010165
2176.000000	0.009938
2175.000000	0.009713
2174.000000	0.009608
2173.000000	0.009689
2172.000000	0.009882
2171.000000	0.010073
2170.000000	0.010237
2169.000000	0.010400
2168.000000	0.010530
2167.000000	0.010558
2166.000000	0.010476
2165.000000	0.010327
2164.000000	0.010111
2163.000000	0.009818
2162.000000	0.009525
2161.000000	0.009319
2160.000000	0.009153
2159.000000	0.008934
2158.000000	0.008750
2157.000000	0.008780
2156.000000	0.009010
2155.000000	0.009280
2154.000000	0.009520
2153.000000	0.009749
2152.000000	0.009918
2151.000000	0.009944
2150.000000	0.009865
2149.000000	0.009835
2148.000000	0.009920
2147.000000	0.010053
2146.000000	0.010166
2145.000000	0.010261
2144.000000	0.010338
2143.000000	0.010380
2142.000000	0.010408
2141.000000	0.010452
2140.000000	0.010480
2139.000000	0.010429
2138.000000	0.010336
2137.000000	0.010306
2136.000000	0.010360
2135.000000	0.010412
2134.000000	0.010406
2133.000000	0.010385
2132.000000	0.010398
2131.000000	0.010439
2130.000000	0.010489
2129.000000	0.010542
2128.000000	0.010584
2127.000000	0.010611
2126.000000	0.010667
2125.000000	0.010805
2124.000000	0.010991
2123.000000	0.011122
2122.000000	0.011152
2121.000000	0.011130
2120.000000	0.011120
2119.000000	0.011119
2118.000000	0.011101
2117.000000	0.011066
2116.000000	0.011031
2115.000000	0.011004
2114.000000	0.011001
2113.000000	0.011029
2112.000000	0.011057
2111.000000	0.011037
2110.000000	0.010977
2109.000000	0.010952
2108.000000	0.011006
2107.000000	0.011093
2106.000000	0.011147
2105.000000	0.011147
2104.000000	0.011113
2103.000000	0.011071
2102.000000	0.011042
2101.000000	0.011039
2100.000000	0.011048
2099.000000	0.011047
2098.000000	0.011042
2097.000000	0.011045
2096.000000	0.011033
2095.000000	0.010971
2094.000000	0.010875
2093.000000	0.010808
2092.000000	0.010800
2091.000000	0.010837
2090.000000	0.010903
2089.000000	0.010986
2088.000000	0.011046
2087.000000	0.011046
2086.000000	0.011011
2085.000000	0.010999
2084.000000	0.011004
2083.000000	0.010966
2082.000000	0.010874
2081.000000	0.010805
2080.000000	0.010812
2079.000000	0.010858
2078.000000	0.010870
2077.000000	0.010823
2076.000000	0.010727
2075.000000	0.010602
2074.000000	0.010489
2073.000000	0.010428
2072.000000	0.010416
2071.000000	0.010416
2070.000000	0.010412
2069.000000	0.010415
2068.000000	0.010401
2067.000000	0.010326
2066.000000	0.010198
2065.000000	0.010090
2064.000000	0.010050
2063.000000	0.010068
2062.000000	0.010120
2061.000000	0.010188
2060.000000	0.010234
2059.000000	0.010225
2058.000000	0.010200
2057.000000	0.010223
2056.000000	0.010285
2055.000000	0.010329
2054.000000	0.010349
2053.000000	0.010377
2052.000000	0.010390
2051.000000	0.010317
2050.000000	0.010156
2049.000000	0.010004
2048.000000	0.009920
2047.000000	0.009861
2046.000000	0.009781
2045.000000	0.009686
2044.000000	0.009570
2043.000000	0.009429
2042.000000	0.009343
2041.000000	0.009390
2040.000000	0.009478
2039.000000	0.009427
2038.000000	0.009233
2037.000000	0.009072
2036.000000	0.009027
2035.000000	0.008988
2034.000000	0.008885
2033.000000	0.008816
2032.000000	0.008862
2031.000000	0.008940
2030.000000	0.008953
2029.000000	0.008902
2028.000000	0.008821
2027.000000	0.008734
2026.000000	0.008714
2025.000000	0.008829
2024.000000	0.008989
2023.000000	0.009011
2022.000000	0.008863
2021.000000	0.008687
2020.000000	0.008589
2019.000000	0.008556
2018.000000	0.008586
2017.000000	0.008701
2016.000000	0.008808
2015.000000	0.008774
2014.000000	0.008654
2013.000000	0.008645
2012.000000	0.008799
2011.000000	0.008960
2010.000000	0.009009
2009.000000	0.008989
2008.000000	0.008959
2007.000000	0.008909
2006.000000	0.008860
2005.000000	0.008865
2004.000000	0.008891
2003.000000	0.008858
2002.000000	0.008802
2001.000000	0.008843
2000.000000	0.008978
1999.000000	0.009083
1998.000000	0.009107
1997.000000	0.009111
1996.000000	0.009135
1995.000000	0.009166
1994.000000	0.009245
1993.000000	0.009435
1992.000000	0.009654
1991.000000	0.009718
1990.000000	0.009607
1989.000000	0.009486
1988.000000	0.009461
1987.000000	0.009479
1986.000000	0.009498
1985.000000	0.009567
1984.000000	0.009689
1983.000000	0.009760
1982.000000	0.009721
1981.000000	0.009631
1980.000000	0.009513
1979.000000	0.009302
1978.000000	0.008994
1977.000000	0.008735
1976.000000	0.008641
1975.000000	0.008678
1974.000000	0.008784
1973.000000	0.008930
1972.000000	0.009036
1971.000000	0.009001
1970.000000	0.008865
1969.000000	0.008801
1968.000000	0.008896
1967.000000	0.009051
1966.000000	0.009148
1965.000000	0.009165
1964.000000	0.009108
1963.000000	0.008969
1962.000000	0.008806
1961.000000	0.008735
1960.000000	0.008788
1959.000000	0.008885
1958.000000	0.008957
1957.000000	0.009008
1956.000000	0.009047
1955.000000	0.009067
1954.000000	0.009083
1953.000000	0.009105
1952.000000	0.009081
1951.000000	0.008960
1950.000000	0.008821
1949.000000	0.008808
1948.000000	0.008926
1947.000000	0.009035
1946.000000	0.009039
1945.000000	0.008985
1944.000000	0.008945
1943.000000	0.008932
1942.000000	0.008946
1941.000000	0.008993
1940.000000	0.009047
1939.000000	0.009078
1938.000000	0.009114
1937.000000	0.009218
1936.000000	0.009373
1935.000000	0.009482
1934.000000	0.009499
1933.000000	0.009481
1932.000000	0.009490
1931.000000	0.009511
1930.000000	0.009528
1929.000000	0.009557
1928.000000	0.009579
1927.000000	0.009552
1926.000000	0.009488
1925.000000	0.009478
1924.000000	0.009555
1923.000000	0.009630
1922.000000	0.009620
1921.000000	0.009551
1920.000000	0.009486
1919.000000	0.009448
1918.000000	0.009447
1917.000000	0.009490
1916.000000	0.009536
1915.000000	0.009545
1914.000000	0.009535
1913.000000	0.009554
1912.000000	0.009605
1911.000000	0.009634
1910.000000	0.009620
1909.000000	0.009587
1908.000000	0.009539
1907.000000	0.009481
1906.000000	0.009453
1905.000000	0.009508
1904.000000	0.009610
1903.000000	0.009675
1902.000000	0.009700
1901.000000	0.009728
1900.000000	0.009734
1899.000000	0.009662
1898.000000	0.009534
1897.000000	0.009449
1896.000000	0.009440
1895.000000	0.009449
1894.000000	0.009453
1893.000000	0.009489
1892.000000	0.009549
1891.000000	0.009570
1890.000000	0.009537
1889.000000	0.009493
1888.000000	0.009445
1887.000000	0.009371
1886.000000	0.009303
1885.000000	0.009299
1884.000000	0.009356
1883.000000	0.009417
1882.000000	0.009475
1881.000000	0.009557
1880.000000	0.009633
1879.000000	0.009648
1878.000000	0.009601
1877.000000	0.009542
1876.000000	0.009489
1875.000000	0.009410
1874.000000	0.009317
1873.000000	0.009264
1872.000000	0.009242
1871.000000	0.009181
1870.000000	0.009077
1869.000000	0.009037
1868.000000	0.009094
1867.000000	0.009161
1866.000000	0.009224
1865.000000	0.009327
1864.000000	0.009451
1863.000000	0.009533
1862.000000	0.009565
1861.000000	0.009590
1860.000000	0.009596
1859.000000	0.009544
1858.000000	0.009462
1857.000000	0.009427
1856.000000	0.009432
1855.000000	0.009415
1854.000000	0.009381
1853.000000	0.009383
1852.000000	0.009401
1851.000000	0.009385
1850.000000	0.009320
1849.000000	0.009233
1848.000000	0.009138
1847.000000	0.009046
1846.000000	0.009006
1845.000000	0.009059
1844.000000	0.009143
1843.000000	0.009135
1842.000000	0.009078
1841.000000	0.009096
1840.000000	0.009185
1839.000000	0.009248
1838.000000	0.009253
1837.000000	0.009284
1836.000000	0.009363
1835.000000	0.009412
1834.000000	0.009368
1833.000000	0.009255
1832.000000	0.009128
1831.000000	0.009035
1830.000000	0.008997
1829.000000	0.009005
1828.000000	0.009045
1827.000000	0.009108
1826.000000	0.009173
1825.000000	0.009235
1824.000000	0.009286
1823.000000	0.009307
1822.000000	0.009316
1821.000000	0.009342
1820.000000	0.009381
1819.000000	0.009389
1818.000000	0.009357
1817.000000	0.009351
1816.000000	0.009384
1815.000000	0.009378
1814.000000	0.009301
1813.000000	0.009212
1812.000000	0.009180
1811.000000	0.009164
1810.000000	0.009127
1809.000000	0.009145
1808.000000	0.009245
1807.000000	0.009342
1806.000000	0.009378
1805.000000	0.009395
1804.000000	0.009413
1803.000000	0.009371
1802.000000	0.009248
1801.000000	0.009121
1800.000000	0.009070
1799.000000	0.009058
1798.000000	0.009060
1797.000000	0.009108
1796.000000	0.009174
1795.000000	0.009168
1794.000000	0.009055
1793.000000	0.008927
1792.000000	0.008903
1791.000000	0.008923
1790.000000	0.008931
1789.000000	0.008985
1788.000000	0.009095
1787.000000	0.009185
1786.000000	0.009213
1785.000000	0.009204
1784.000000	0.009156
1783.000000	0.009057
1782.000000	0.008970
1781.000000	0.008943
1780.000000	0.008962
1779.000000	0.008944
1778.000000	0.008871
1777.000000	0.008785
1776.000000	0.008707
1775.000000	0.008635
1774.000000	0.008555
1773.000000	0.008480
1772.000000	0.008478
1771.000000	0.008551
1770.000000	0.008693
1769.000000	0.008941
1768.000000	0.009231
1767.000000	0.009414
1766.000000	0.009481
1765.000000	0.009601
1764.000000	0.009913
1763.000000	0.010398
1762.000000	0.010949
1761.000000	0.011485
1760.000000	0.012067
1759.000000	0.012803
1758.000000	0.013805
1757.000000	0.015064
1756.000000	0.016410
1755.000000	0.017698
1754.000000	0.018971
1753.000000	0.020357
1752.000000	0.021878
1751.000000	0.023412
1750.000000	0.024796
1749.000000	0.026019
1748.000000	0.027076
1747.000000	0.027869
1746.000000	0.028320
1745.000000	0.028426
1744.000000	0.028226
1743.000000	0.027729
1742.000000	0.026951
1741.000000	0.025958
1740.000000	0.024800
1739.000000	0.023525
1738.000000	0.022295
1737.000000	0.021284
1736.000000	0.020406
1735.000000	0.019372
1734.000000	0.018181
1733.000000	0.017062
1732.000000	0.016185
1731.000000	0.015577
1730.000000	0.015139
1729.000000	0.014743
1728.000000	0.014321
1727.000000	0.013899
1726.000000	0.013497
1725.000000	0.013104
1724.000000	0.012724
1723.000000	0.012317
1722.000000	0.011890
1721.000000	0.011530
1720.000000	0.011266
1719.000000	0.010992
1718.000000	0.010656
1717.000000	0.010451
1716.000000	0.010468
1715.000000	0.010606
1714.000000	0.010843
1713.000000	0.011208
1712.000000	0.011633
1711.000000	0.012025
1710.000000	0.012372
1709.000000	0.012720
1708.000000	0.013122
1707.000000	0.013639
1706.000000	0.014299
1705.000000	0.015044
1704.000000	0.015715
1703.000000	0.016322
1702.000000	0.016981
1701.000000	0.017801
1700.000000	0.018724
1699.000000	0.019359
1698.000000	0.019985
1697.000000	0.021151
1696.000000	0.022723
1695.000000	0.023938
1694.000000	0.024585
1693.000000	0.025183
1692.000000	0.026011
1691.000000	0.026940
1690.000000	0.027822
1689.000000	0.028653
1688.000000	0.029469
1687.000000	0.030285
1686.000000	0.031092
1685.000000	0.032047
1684.000000	0.033243
1683.000000	0.034259
1682.000000	0.035150
1681.000000	0.036239
1680.000000	0.037456
1679.000000	0.038552
1678.000000	0.039512
1677.000000	0.040532
1676.000000	0.041722
1675.000000	0.042936
1674.000000	0.043953
1673.000000	0.044847
1672.000000	0.045871
1671.000000	0.047108
1670.000000	0.048564
1669.000000	0.050118
1668.000000	0.051532
1667.000000	0.052724
1666.000000	0.053792
1665.000000	0.054882
1664.000000	0.056068
1663.000000	0.057303
1662.000000	0.058499
1661.000000	0.059604
1660.000000	0.060657
1659.000000	0.061659
1658.000000	0.062548
1657.000000	0.063345
1656.000000	0.064170
1655.000000	0.065101
1654.000000	0.066209
1653.000000	0.067514
1652.000000	0.068153
1651.000000	0.068144
1650.000000	0.068173
1649.000000	0.068545
1648.000000	0.069220
1647.000000	0.070056
1646.000000	0.070797
1645.000000	0.071324
1644.000000	0.071733
1643.000000	0.072098
1642.000000	0.072443
1641.000000	0.072707
1640.000000	0.072829
1639.000000	0.072837
1638.000000	0.072828
1637.000000	0.072895
1636.000000	0.073051
1635.000000	0.073184
1634.000000	0.073168
1633.000000	0.073141
1632.000000	0.073139
1631.000000	0.073031
1630.000000	0.072723
1629.000000	0.072239
1628.000000	0.071630
1627.000000	0.070932
1626.000000	0.070179
1625.000000	0.069341
1624.000000	0.068354
1623.000000	0.067228
1622.000000	0.066093
1621.000000	0.065053
1620.000000	0.064135
1619.000000	0.063251
1618.000000	0.062192
1617.000000	0.060797
1616.000000	0.059166
1615.000000	0.057639
1614.000000	0.056440
1613.000000	0.055443
1612.000000	0.054387
1611.000000	0.053191
1610.000000	0.051998
1609.000000	0.050882
1608.000000	0.049785
1607.000000	0.048720
1606.000000	0.047785
1605.000000	0.046945
1604.000000	0.046110
1603.000000	0.045299
1602.000000	0.044585
1601.000000	0.043947
1600.000000	0.043324
1599.000000	0.042741
1598.000000	0.042257
1597.000000	0.041849
1596.000000	0.041457
1595.000000	0.041103
1594.000000	0.040851
1593.000000	0.040682
1592.000000	0.040526
1591.000000	0.040397
1590.000000	0.040358
1589.000000	0.040386
1588.000000	0.040416
1587.000000	0.040479
1586.000000	0.040656
1585.000000	0.040916
1584.000000	0.041158
1583.000000	0.041423
1582.000000	0.041774
1581.000000	0.042131
1580.000000	0.042408
1579.000000	0.042718
1578.000000	0.043182
1577.000000	0.043730
1576.000000	0.044153
1575.000000	0.044389
1574.000000	0.044628
1573.000000	0.044999
1572.000000	0.045464
1571.000000	0.045950
1570.000000	0.046510
1569.000000	0.047104
1568.000000	0.047603
1567.000000	0.048123
1566.000000	0.048791
1565.000000	0.049540
1564.000000	0.050216
1563.000000	0.050856
1562.000000	0.051551
1561.000000	0.052139
1560.000000	0.052392
1559.000000	0.052926
1558.000000	0.053849
1557.000000	0.054614
1556.000000	0.055375
1555.000000	0.056232
1554.000000	0.057033
1553.000000	0.057620
1552.000000	0.058111
1551.000000	0.058672
1550.000000	0.059279
1549.000000	0.059795
1548.000000	0.060169
1547.000000	0.060497
1546.000000	0.060839
1545.000000	0.061178
1544.000000	0.061461
1543.000000	0.061646
1542.000000	0.061730
1541.000000	0.061860
1540.000000	0.062143
1539.000000	0.062329
1538.000000	0.062274
1537.000000	0.062184
1536.000000	0.062163
1535.000000	0.062102
1534.000000	0.061907
1533.000000	0.061648
1532.000000	0.061418
1531.000000	0.061195
1530.000000	0.060934
1529.000000	0.060644
1528.000000	0.060339
1527.000000	0.059972
1526.000000	0.059489
1525.000000	0.058951
1524.000000	0.058495
1523.000000	0.058132
1522.000000	0.057761
1521.000000	0.057325
1520.000000	0.056806
1519.000000	0.056311
1518.000000	0.055926
1517.000000	0.055632
1516.000000	0.055337
1515.000000	0.054971
1514.000000	0.054544
1513.000000	0.054034
1512.000000	0.053405
1511.000000	0.052652
1510.000000	0.051843
1509.000000	0.051008
1508.000000	0.050113
1507.000000	0.049154
1506.000000	0.048165
1505.000000	0.047272
1504.000000	0.046602
1503.000000	0.046078
1502.000000	0.045539
1501.000000	0.044866
1500.000000	0.044079
1499.000000	0.043262
1498.000000	0.042417
1497.000000	0.041575
1496.000000	0.040791
1495.000000	0.040006
1494.000000	0.039220
1493.000000	0.038499
1492.000000	0.037815
1491.000000	0.037058
1490.000000	0.036258
1489.000000	0.035633
1488.000000	0.035288
1487.000000	0.035070
1486.000000	0.034895
1485.000000	0.034802
1484.000000	0.034769
1483.000000	0.034761
1482.000000	0.034756
1481.000000	0.034805
1480.000000	0.034932
1479.000000	0.035104
1478.000000	0.035305
1477.000000	0.035585
1476.000000	0.035982
1475.000000	0.036455
1474.000000	0.037091
1473.000000	0.038103
1472.000000	0.039496
1471.000000	0.040930
1470.000000	0.042254
1469.000000	0.043532
1468.000000	0.044739
1467.000000	0.045730
1466.000000	0.046467
1465.000000	0.047056
1464.000000	0.047577
1463.000000	0.048001
1462.000000	0.048321
1461.000000	0.048631
1460.000000	0.049020
1459.000000	0.049557
1458.000000	0.050277
1457.000000	0.051098
1456.000000	0.051669
1455.000000	0.051907
1454.000000	0.052086
1453.000000	0.052329
1452.000000	0.052550
1451.000000	0.052637
1450.000000	0.052603
1449.000000	0.052550
1448.000000	0.052536
1447.000000	0.052525
1446.000000	0.052494
1445.000000	0.052433
1444.000000	0.052359
1443.000000	0.052252
1442.000000	0.052064
1441.000000	0.051801
1440.000000	0.051543
1439.000000	0.051340
1438.000000	0.051077
1437.000000	0.050638
1436.000000	0.050066
1435.000000	0.049505
1434.000000	0.049037
1433.000000	0.048644
1432.000000	0.048242
1431.000000	0.047803
1430.000000	0.047363
1429.000000	0.046971
1428.000000	0.046646
1427.000000	0.046374
1426.000000	0.046147
1425.000000	0.045907
1424.000000	0.045676
1423.000000	0.045548
1422.000000	0.045546
1421.000000	0.045592
1420.000000	0.045600
1419.000000	0.045598
1418.000000	0.045555
1417.000000	0.045478
1416.000000	0.045454
1415.000000	0.045463
1414.000000	0.045409
1413.000000	0.045273
1412.000000	0.045143
1411.000000	0.045086
1410.000000	0.045050
1409.000000	0.044982
1408.000000	0.044913
1407.000000	0.044875
1406.000000	0.044878
1405.000000	0.044888
1404.000000	0.044893
1403.000000	0.044889
1402.000000	0.044844
1401.000000	0.044726
1400.000000	0.044526
1399.000000	0.044299
1398.000000	0.044085
1397.000000	0.043902
1396.000000	0.043743
1395.000000	0.043585
1394.000000	0.043393
1393.000000	0.043138
1392.000000	0.042888
1391.000000	0.042698
1390.000000	0.042541
1389.000000	0.042359
1388.000000	0.042134
1387.000000	0.041889
1386.000000	0.041648
1385.000000	0.041422
1384.000000	0.041219
1383.000000	0.041030
1382.000000	0.040840
1381.000000	0.040666
1380.000000	0.040508
1379.000000	0.040319
1378.000000	0.040037
1377.000000	0.039638
1376.000000	0.039147
1375.000000	0.038629
1374.000000	0.038144
1373.000000	0.037685
1372.000000	0.037223
1371.000000	0.036755
1370.000000	0.036300
1369.000000	0.035832
1368.000000	0.035318
1367.000000	0.034775
1366.000000	0.034252
1365.000000	0.033777
1364.000000	0.033340
1363.000000	0.032931
1362.000000	0.032560
1361.000000	0.032248
1360.000000	0.032007
1359.000000	0.031838
1358.000000	0.031732
1357.000000	0.031675
1356.000000	0.031657
1355.000000	0.031683
1354.000000	0.031752
1353.000000	0.031857
1352.000000	0.031996
1351.000000	0.032168
1350.000000	0.032402
1349.000000	0.032689
1348.000000	0.032993
1347.000000	0.033294
1346.000000	0.033602
1345.000000	0.033919
1344.000000	0.034225
1343.000000	0.034504
1342.000000	0.034770
1341.000000	0.035040
1340.000000	0.035311
1339.000000	0.035554
1338.000000	0.035743
1337.000000	0.035865
1336.000000	0.035920
1335.000000	0.035913
1334.000000	0.035851
1333.000000	0.035741
1332.000000	0.035583
1331.000000	0.035383
1330.000000	0.035160
1329.000000	0.034934
1328.000000	0.034719
1327.000000	0.034526
1326.000000	0.034375
1325.000000	0.034263
1324.000000	0.034175
1323.000000	0.034109
1322.000000	0.034071
1321.000000	0.034059
1320.000000	0.034064
1319.000000	0.034077
1318.000000	0.034084
1317.000000	0.034070
1316.000000	0.034034
1315.000000	0.033978
1314.000000	0.033894
1313.000000	0.033763
1312.000000	0.033588
1311.000000	0.033403
1310.000000	0.033237
1309.000000	0.033087
1308.000000	0.032931
1307.000000	0.032760
1306.000000	0.032586
1305.000000	0.032420
1304.000000	0.032261
1303.000000	0.032102
1302.000000	0.031936
1301.000000	0.031753
1300.000000	0.031561
1299.000000	0.031379
1298.000000	0.031227
1297.000000	0.031109
1296.000000	0.031027
1295.000000	0.030988
1294.000000	0.030997
1293.000000	0.031051
1292.000000	0.031143
1291.000000	0.031266
1290.000000	0.031411
1289.000000	0.031570
1288.000000	0.031745
1287.000000	0.031948
1286.000000	0.032177
1285.000000	0.032416
1284.000000	0.032645
1283.000000	0.032850
1282.000000	0.033023
1281.000000	0.033159
1280.000000	0.033261
1279.000000	0.033335
1278.000000	0.033383
1277.000000	0.033407
1276.000000	0.033412
1275.000000	0.033407
1274.000000	0.033404
1273.000000	0.033405
1272.000000	0.033415
1271.000000	0.033437
1270.000000	0.033476
1269.000000	0.033536
1268.000000	0.033625
1267.000000	0.033750
1266.000000	0.033904
1265.000000	0.034066
1264.000000	0.034222
1263.000000	0.034374
1262.000000	0.034536
1261.000000	0.034719
1260.000000	0.034926
1259.000000	0.035152
1258.000000	0.035383
1257.000000	0.035617
1256.000000	0.035867
1255.000000	0.036142
1254.000000	0.036444
1253.000000	0.036769
1252.000000	0.037122
1251.000000	0.037501
1250.000000	0.037897
1249.000000	0.038293
1248.000000	0.038682
1247.000000	0.039062
1246.000000	0.039430
1245.000000	0.039780
1244.000000	0.040114
1243.000000	0.040428
1242.000000	0.040710
1241.000000	0.040947
1240.000000	0.041128
1239.000000	0.041245
1238.000000	0.041288
1237.000000	0.041255
1236.000000	0.041158
1235.000000	0.041013
1234.000000	0.040825
1233.000000	0.040593
1232.000000	0.040321
1231.000000	0.040017
1230.000000	0.039679
1229.000000	0.039294
1228.000000	0.038859
1227.000000	0.038384
1226.000000	0.037877
1225.000000	0.037336
1224.000000	0.036754
1223.000000	0.036126
1222.000000	0.035441
1221.000000	0.034693
1220.000000	0.033906
1219.000000	0.033157
1218.000000	0.032540
1217.000000	0.032119
1216.000000	0.031899
1215.000000	0.031827
1214.000000	0.031823
1213.000000	0.031830
1212.000000	0.031841
1211.000000	0.031877
1210.000000	0.031947
1209.000000	0.032034
1208.000000	0.032126
1207.000000	0.032231
1206.000000	0.032351
1205.000000	0.032477
1204.000000	0.032590
1203.000000	0.032673
1202.000000	0.032715
1201.000000	0.032702
1200.000000	0.032636
1199.000000	0.032536
1198.000000	0.032416
1197.000000	0.032281
1196.000000	0.032128
1195.000000	0.031954
1194.000000	0.031767
1193.000000	0.031577
1192.000000	0.031401
1191.000000	0.031244
1190.000000	0.031100
1189.000000	0.030960
1188.000000	0.030831
1187.000000	0.030723
1186.000000	0.030641
1185.000000	0.030584
1184.000000	0.030561
1183.000000	0.030585
1182.000000	0.030656
1181.000000	0.030762
1180.000000	0.030896
1179.000000	0.031059
1178.000000	0.031259
1177.000000	0.031495
1176.000000	0.031767
1175.000000	0.032065
1174.000000	0.032371
1173.000000	0.032677
1172.000000	0.032994
1171.000000	0.033337
1170.000000	0.033703
1169.000000	0.034066
1168.000000	0.034405
1167.000000	0.034723
1166.000000	0.035024
1165.000000	0.035307
1164.000000	0.035561
1163.000000	0.035774
1162.000000	0.035934
1161.000000	0.036031
1160.000000	0.036060
1159.000000	0.036016
1158.000000	0.035892
1157.000000	0.035687
1156.000000	0.035415
1155.000000	0.035106
1154.000000	0.034780
1153.000000	0.034438
1152.000000	0.034081
1151.000000	0.033720
1150.000000	0.033372
1149.000000	0.033038
1148.000000	0.032710
1147.000000	0.032376
1146.000000	0.032034
1145.000000	0.031682
1144.000000	0.031320
1143.000000	0.030946
1142.000000	0.030552
1141.000000	0.030122
1140.000000	0.029641
1139.000000	0.029110
1138.000000	0.028547
1137.000000	0.027984
1136.000000	0.027458
1135.000000	0.026998
1134.000000	0.026609
1133.000000	0.026277
1132.000000	0.025995
1131.000000	0.025767
1130.000000	0.025603
1129.000000	0.025509
1128.000000	0.025488
1127.000000	0.025545
1126.000000	0.025674
1125.000000	0.025867
1124.000000	0.026107
1123.000000	0.026371
1122.000000	0.026621
1121.000000	0.026834
1120.000000	0.027015
1119.000000	0.027183
1118.000000	0.027341
1117.000000	0.027479
1116.000000	0.027597
1115.000000	0.027702
1114.000000	0.027789
1113.000000	0.027841
1112.000000	0.027856
1111.000000	0.027861
1110.000000	0.027880
1109.000000	0.027924
1108.000000	0.027991
1107.000000	0.028083
1106.000000	0.028191
1105.000000	0.028310
1104.000000	0.028438
1103.000000	0.028576
1102.000000	0.028711
1101.000000	0.028826
1100.000000	0.028929
1099.000000	0.029028
1098.000000	0.029114
1097.000000	0.029163
1096.000000	0.029174
1095.000000	0.029183
1094.000000	0.029231
1093.000000	0.029330
1092.000000	0.029479
1091.000000	0.029680
1090.000000	0.029935
1089.000000	0.030231
1088.000000	0.030555
1087.000000	0.030899
1086.000000	0.031250
1085.000000	0.031575
1084.000000	0.031830
1083.000000	0.031986
1082.000000	0.032045
1081.000000	0.032023
1080.000000	0.031934
1079.000000	0.031783
1078.000000	0.031568
1077.000000	0.031288
1076.000000	0.030959
1075.000000	0.030610
1074.000000	0.030269
1073.000000	0.029950
1072.000000	0.029659
1071.000000	0.029410
1070.000000	0.029227
1069.000000	0.029130
1068.000000	0.029124
1067.000000	0.029198
1066.000000	0.029327
1065.000000	0.029484
1064.000000	0.029647
1063.000000	0.029800
1062.000000	0.029926
1061.000000	0.030014
1060.000000	0.030056
1059.000000	0.030058
1058.000000	0.030029
1057.000000	0.029972
1056.000000	0.029888
1055.000000	0.029781
1054.000000	0.029662
1053.000000	0.029545
1052.000000	0.029439
1051.000000	0.029338
1050.000000	0.029227
1049.000000	0.029108
1048.000000	0.029003
1047.000000	0.028938
1046.000000	0.028919
1045.000000	0.028926
1044.000000	0.028939
1043.000000	0.028946
1042.000000	0.028950
1041.000000	0.028967
1040.000000	0.029026
1039.000000	0.029152
1038.000000	0.029354
1037.000000	0.029628
1036.000000	0.029965
1035.000000	0.030342
1034.000000	0.030715
1033.000000	0.031042
1032.000000	0.031297
1031.000000	0.031472
1030.000000	0.031566
1029.000000	0.031588
1028.000000	0.031564
1027.000000	0.031523
1026.000000	0.031473
1025.000000	0.031408
1024.000000	0.031330
1023.000000	0.031255
1022.000000	0.031192
1021.000000	0.031132
1020.000000	0.031059
1019.000000	0.030963
1018.000000	0.030841
1017.000000	0.030680
1016.000000	0.030465
1015.000000	0.030186
1014.000000	0.029841
1013.000000	0.029437
1012.000000	0.028989
1011.000000	0.028525
1010.000000	0.028067
1009.000000	0.027627
1008.000000	0.027203
1007.000000	0.026790
1006.000000	0.026381
1005.000000	0.025973
1004.000000	0.025572
1003.000000	0.025179
1002.000000	0.024789
1001.000000	0.024396
1000.000000	0.024011
999.000000	0.023648
998.000000	0.023310
997.000000	0.022993
996.000000	0.022707
995.000000	0.022464
994.000000	0.022244
993.000000	0.021998
992.000000	0.021693
991.000000	0.021350
990.000000	0.021027
989.000000	0.020766
988.000000	0.020575
987.000000	0.020420
986.000000	0.020255
985.000000	0.020046
984.000000	0.019808
983.000000	0.019584
982.000000	0.019406
981.000000	0.019266
980.000000	0.019144
979.000000	0.019039
978.000000	0.018952
977.000000	0.018870
976.000000	0.018769
975.000000	0.018643
974.000000	0.018509
973.000000	0.018387
972.000000	0.018289
971.000000	0.018207
970.000000	0.018114
969.000000	0.017983
968.000000	0.017805
967.000000	0.017599
966.000000	0.017378
965.000000	0.017143
964.000000	0.016897
963.000000	0.016651
962.000000	0.016416
961.000000	0.016184
960.000000	0.015940
959.000000	0.015682
958.000000	0.015423
957.000000	0.015166
956.000000	0.014914
955.000000	0.014673
954.000000	0.014453
953.000000	0.014248
952.000000	0.014043
951.000000	0.013822
950.000000	0.013597
949.000000	0.013390
948.000000	0.013226
947.000000	0.013111
946.000000	0.013033
945.000000	0.012973
944.000000	0.012920
943.000000	0.012872
942.000000	0.012828
941.000000	0.012782
940.000000	0.012727
939.000000	0.012661
938.000000	0.012585
937.000000	0.012499
936.000000	0.012406
935.000000	0.012305
934.000000	0.012196
933.000000	0.012086
932.000000	0.011982
931.000000	0.011881
930.000000	0.011773
929.000000	0.011665
928.000000	0.011585
927.000000	0.011545
926.000000	0.011518
925.000000	0.011465
924.000000	0.011375
923.000000	0.011271
922.000000	0.011174
921.000000	0.011085
920.000000	0.010999
919.000000	0.010902
918.000000	0.010779
917.000000	0.010623
916.000000	0.010456
915.000000	0.010308
914.000000	0.010180
913.000000	0.010055
912.000000	0.009926
911.000000	0.009805
910.000000	0.009696
909.000000	0.009587
908.000000	0.009474
907.000000	0.009364
906.000000	0.009260
905.000000	0.009164
904.000000	0.009090
903.000000	0.009052
902.000000	0.009034
901.000000	0.009001
900.000000	0.008948
899.000000	0.008902
898.000000	0.008881
897.000000	0.008864
896.000000	0.008823
895.000000	0.008757
894.000000	0.008688
893.000000	0.008632
892.000000	0.008599
891.000000	0.008591
890.000000	0.008606
889.000000	0.008634
888.000000	0.008672
887.000000	0.008725
886.000000	0.008807
885.000000	0.008941
884.000000	0.009158
883.000000	0.009479
882.000000	0.009893
881.000000	0.010377
880.000000	0.010924
879.000000	0.011534
878.000000	0.012165
877.000000	0.012726
876.000000	0.013117
875.000000	0.013273
874.000000	0.013161
873.000000	0.012791
872.000000	0.012228
871.000000	0.011598
870.000000	0.011025
869.000000	0.010576
868.000000	0.010256
867.000000	0.010033
866.000000	0.009873
865.000000	0.009747
864.000000	0.009643
863.000000	0.009566
862.000000	0.009517
861.000000	0.009492
860.000000	0.009485
859.000000	0.009493
858.000000	0.009508
857.000000	0.009522
856.000000	0.009533
855.000000	0.009538
854.000000	0.009533
853.000000	0.009520
852.000000	0.009519
851.000000	0.009545
850.000000	0.009574
849.000000	0.009557
848.000000	0.009470
847.000000	0.009335
846.000000	0.009194
845.000000	0.009082
844.000000	0.009017
843.000000	0.008995
842.000000	0.008991
841.000000	0.008976
840.000000	0.008939
839.000000	0.008895
838.000000	0.008853
837.000000	0.008810
836.000000	0.008768
835.000000	0.008747
834.000000	0.008753
833.000000	0.008765
832.000000	0.008749
831.000000	0.008688
830.000000	0.008601
829.000000	0.008535
828.000000	0.008537
827.000000	0.008600
826.000000	0.008664
825.000000	0.008671
824.000000	0.008633
823.000000	0.008606
822.000000	0.008622
821.000000	0.008666
820.000000	0.008721
819.000000	0.008789
818.000000	0.008862
817.000000	0.008917
816.000000	0.008942
815.000000	0.008941
814.000000	0.008912
813.000000	0.008848
812.000000	0.008763
811.000000	0.008704
810.000000	0.008691
809.000000	0.008700
808.000000	0.008695
807.000000	0.008678
806.000000	0.008666
805.000000	0.008659
804.000000	0.008647
803.000000	0.008644
802.000000	0.008663
801.000000	0.008679
800.000000	0.008657
799.000000	0.008606
798.000000	0.008581
797.000000	0.008623
796.000000	0.008714
795.000000	0.008804
794.000000	0.008860
793.000000	0.008872
792.000000	0.008843
791.000000	0.008789
790.000000	0.008744
789.000000	0.008733
788.000000	0.008742
787.000000	0.008725
786.000000	0.008665
785.000000	0.008613
784.000000	0.008644
783.000000	0.008773
782.000000	0.008933
781.000000	0.009032
780.000000	0.009024
779.000000	0.008931
778.000000	0.008814
777.000000	0.008733
776.000000	0.008729
775.000000	0.008800
774.000000	0.008902
773.000000	0.008979
772.000000	0.009013
771.000000	0.009027
770.000000	0.009056
769.000000	0.009115
768.000000	0.009193
767.000000	0.009255
766.000000	0.009272
765.000000	0.009234
764.000000	0.009164
763.000000	0.009104
762.000000	0.009082
761.000000	0.009107
760.000000	0.009172
759.000000	0.009268
758.000000	0.009380
757.000000	0.009493
756.000000	0.009588
755.000000	0.009651
754.000000	0.009674
753.000000	0.009670
752.000000	0.009671
751.000000	0.009707
750.000000	0.009777
749.000000	0.009858
748.000000	0.009933
747.000000	0.010000
746.000000	0.010066
745.000000	0.010132
744.000000	0.010207
743.000000	0.010296
742.000000	0.010395
741.000000	0.010490
740.000000	0.010576
739.000000	0.010667
738.000000	0.010777
737.000000	0.010908
736.000000	0.011054
735.000000	0.011210
734.000000	0.011376
733.000000	0.011559
732.000000	0.011777
731.000000	0.012037
730.000000	0.012319
729.000000	0.012598
728.000000	0.012874
727.000000	0.013168
726.000000	0.013491
725.000000	0.013827
724.000000	0.014152
723.000000	0.014442
722.000000	0.014679
721.000000	0.014845
720.000000	0.014926
719.000000	0.014944
718.000000	0.014944
717.000000	0.014961
716.000000	0.014991
715.000000	0.015009
714.000000	0.015001
713.000000	0.014980
712.000000	0.014962
711.000000	0.014942
710.000000	0.014911
709.000000	0.014883
708.000000	0.014886
707.000000	0.014926
706.000000	0.014984
705.000000	0.015063
704.000000	0.015180
703.000000	0.015328
702.000000	0.015463
701.000000	0.015545
700.000000	0.015584
699.000000	0.015602
698.000000	0.015599
697.000000	0.015572
696.000000	0.015548
695.000000	0.015561
694.000000	0.015590
693.000000	0.015568
692.000000	0.015480
691.000000	0.015381
690.000000	0.015322
689.000000	0.015302
688.000000	0.015290
687.000000	0.015293
686.000000	0.015335
685.000000	0.015420
684.000000	0.015542
683.000000	0.015690
682.000000	0.015820
681.000000	0.015876
680.000000	0.015860
679.000000	0.015846
678.000000	0.015896
677.000000	0.016018
676.000000	0.016175
675.000000	0.016322
674.000000	0.016435
673.000000	0.016521
672.000000	0.016582
671.000000	0.016585
670.000000	0.016449
669.000000	0.016158
668.000000	0.016074
667.000000	0.016538
666.000000	0.016982
665.000000	0.017254
664.000000	0.017451
663.000000	0.017525
662.000000	0.017456
661.000000	0.017352
660.000000	0.017314
659.000000	0.017325
658.000000	0.017314
657.000000	0.017283
656.000000	0.017241
655.000000	0.017143
654.000000	0.016982
653.000000	0.016843
652.000000	0.016774
651.000000	0.016735
650.000000	0.016696
649.000000	0.016696
648.000000	0.016736
647.000000	0.016754
646.000000	0.016737
645.000000	0.016740
644.000000	0.016767
643.000000	0.016752
642.000000	0.016664
641.000000	0.016561
640.000000	0.016494
639.000000	0.016456
638.000000	0.016443
637.000000	0.016477
636.000000	0.016513
635.000000	0.016468
634.000000	0.016364
633.000000	0.016338
632.000000	0.016458
631.000000	0.016633
630.000000	0.016750
629.000000	0.016826
628.000000	0.016915
627.000000	0.016994
626.000000	0.017013
625.000000	0.017003
624.000000	0.017018
623.000000	0.017044
622.000000	0.017031
621.000000	0.016970
620.000000	0.016898
619.000000	0.016847
618.000000	0.016842
617.000000	0.016908
616.000000	0.017024
615.000000	0.017101
614.000000	0.017062
613.000000	0.016931
612.000000	0.016801
611.000000	0.016746
610.000000	0.016791
609.000000	0.016928
608.000000	0.017096
607.000000	0.017209
606.000000	0.017237
605.000000	0.017219
604.000000	0.017181
603.000000	0.017105
602.000000	0.017013
601.000000	0.016990
600.000000	0.017073
599.000000	0.017193
598.000000	0.017252
597.000000	0.017232
596.000000	0.017184
595.000000	0.017142
594.000000	0.017115
593.000000	0.017099
592.000000	0.017084
591.000000	0.017055
590.000000	0.017011
589.000000	0.016955
588.000000	0.016871
587.000000	0.016753
586.000000	0.016665
585.000000	0.016700
584.000000	0.016864
583.000000	0.017066
582.000000	0.017226
581.000000	0.017332
580.000000	0.017371
579.000000	0.017314
578.000000	0.017192
577.000000	0.017122
576.000000	0.017188
575.000000	0.017333
574.000000	0.017440
573.000000	0.017475
572.000000	0.017485
571.000000	0.017504
570.000000	0.017541
569.000000	0.017620
568.000000	0.017756
567.000000	0.017922
566.000000	0.018079
565.000000	0.018241
564.000000	0.018412
563.000000	0.018528
562.000000	0.018518
561.000000	0.018429
560.000000	0.018383
559.000000	0.018442
558.000000	0.018546
557.000000	0.018614
556.000000	0.018604
555.000000	0.018517
554.000000	0.018407
553.000000	0.018356
552.000000	0.018379
551.000000	0.018383
550.000000	0.018285
549.000000	0.018118
548.000000	0.017961
547.000000	0.017809
546.000000	0.017615
545.000000	0.017394
544.000000	0.017210
543.000000	0.017082
542.000000	0.017007
541.000000	0.017026
540.000000	0.017166
539.000000	0.017369
538.000000	0.017539
537.000000	0.017666
536.000000	0.017791
535.000000	0.017905
534.000000	0.017980
533.000000	0.018085
532.000000	0.018284
531.000000	0.018476
530.000000	0.018479
529.000000	0.018259
528.000000	0.017937
527.000000	0.017643
526.000000	0.017461
525.000000	0.017448
524.000000	0.017592
523.000000	0.017746
522.000000	0.017723
521.000000	0.017496
520.000000	0.017198
519.000000	0.016942
518.000000	0.016730
517.000000	0.016537
516.000000	0.016364
515.000000	0.016170
514.000000	0.015889
513.000000	0.015554
512.000000	0.015276
511.000000	0.015089
510.000000	0.014917
509.000000	0.014708
508.000000	0.014475
507.000000	0.014251
506.000000	0.014059
505.000000	0.013915
504.000000	0.013824
503.000000	0.013759
502.000000	0.013703
501.000000	0.013687
500.000000	0.013724
499.000000	0.013782
498.000000	0.013831
497.000000	0.013867
496.000000	0.013852
495.000000	0.013709
494.000000	0.013472
493.000000	0.013311
492.000000	0.013304
491.000000	0.013321
490.000000	0.013197
489.000000	0.012951
488.000000	0.012687
487.000000	0.012409
486.000000	0.012086
485.000000	0.011793
484.000000	0.011654
483.000000	0.011689
482.000000	0.011831
481.000000	0.011998
480.000000	0.012124
479.000000	0.012172
478.000000	0.012159
477.000000	0.012156
476.000000	0.012169
475.000000	0.012088
474.000000	0.011828
473.000000	0.011517
472.000000	0.011386
471.000000	0.011523
470.000000	0.011825
469.000000	0.012187
468.000000	0.012569
467.000000	0.012879
466.000000	0.012984
465.000000	0.012899
464.000000	0.012713
463.000000	0.012369
462.000000	0.011760
461.000000	0.010987
460.000000	0.010331
459.000000	0.009926
458.000000	0.009649
457.000000	0.009389
456.000000	0.007364
455.000000	0.008001
454.000000	0.008178
453.000000	0.008096
452.000000	0.008280
451.000000	0.008861
450.000000	0.009378
