PE IR       SUBTECH     SPECTRUM    ASCII       PEDS        4.00        
   -1
3S-N10-C017_1.ASC
22/02/18
14:30:35.00
22/02/18
14:55:43.00
uco
Sample 017 By uco Date Friday, February 18 2022
450.000000
#HDR
-1
-1
#GR
cm-1
A
1.0
0.0
4000.000000
-1.000000
3551
8
0.022780
0.000531
#DATA
4000.000000	0.001240
3999.000000	0.001257
3998.000000	0.001277
3997.000000	0.001299
3996.000000	0.001316
3995.000000	0.001328
3994.000000	0.001336
3993.000000	0.001347
3992.000000	0.001366
3991.000000	0.001394
3990.000000	0.001419
3989.000000	0.001433
3988.000000	0.001431
3987.000000	0.001418
3986.000000	0.001401
3985.000000	0.001379
3984.000000	0.001350
3983.000000	0.001318
3982.000000	0.001291
3981.000000	0.001282
3980.000000	0.001295
3979.000000	0.001324
3978.000000	0.001355
3977.000000	0.001377
3976.000000	0.001386
3975.000000	0.001388
3974.000000	0.001387
3973.000000	0.001383
3972.000000	0.001375
3971.000000	0.001365
3970.000000	0.001357
3969.000000	0.001353
3968.000000	0.001346
3967.000000	0.001335
3966.000000	0.001321
3965.000000	0.001314
3964.000000	0.001319
3963.000000	0.001335
3962.000000	0.001355
3961.000000	0.001369
3960.000000	0.001373
3959.000000	0.001367
3958.000000	0.001357
3957.000000	0.001351
3956.000000	0.001354
3955.000000	0.001362
3954.000000	0.001372
3953.000000	0.001379
3952.000000	0.001388
3951.000000	0.001402
3950.000000	0.001422
3949.000000	0.001445
3948.000000	0.001464
3947.000000	0.001477
3946.000000	0.001485
3945.000000	0.001491
3944.000000	0.001493
3943.000000	0.001492
3942.000000	0.001484
3941.000000	0.001468
3940.000000	0.001450
3939.000000	0.001436
3938.000000	0.001431
3937.000000	0.001438
3936.000000	0.001456
3935.000000	0.001476
3934.000000	0.001488
3933.000000	0.001488
3932.000000	0.001478
3931.000000	0.001469
3930.000000	0.001470
3929.000000	0.001480
3928.000000	0.001494
3927.000000	0.001502
3926.000000	0.001501
3925.000000	0.001490
3924.000000	0.001476
3923.000000	0.001465
3922.000000	0.001458
3921.000000	0.001454
3920.000000	0.001448
3919.000000	0.001439
3918.000000	0.001429
3917.000000	0.001422
3916.000000	0.001414
3915.000000	0.001403
3914.000000	0.001386
3913.000000	0.001371
3912.000000	0.001365
3911.000000	0.001375
3910.000000	0.001399
3909.000000	0.001430
3908.000000	0.001458
3907.000000	0.001477
3906.000000	0.001488
3905.000000	0.001489
3904.000000	0.001485
3903.000000	0.001479
3902.000000	0.001476
3901.000000	0.001476
3900.000000	0.001473
3899.000000	0.001462
3898.000000	0.001446
3897.000000	0.001428
3896.000000	0.001414
3895.000000	0.001404
3894.000000	0.001398
3893.000000	0.001397
3892.000000	0.001401
3891.000000	0.001409
3890.000000	0.001413
3889.000000	0.001412
3888.000000	0.001409
3887.000000	0.001409
3886.000000	0.001417
3885.000000	0.001431
3884.000000	0.001440
3883.000000	0.001442
3882.000000	0.001443
3881.000000	0.001454
3880.000000	0.001477
3879.000000	0.001499
3878.000000	0.001511
3877.000000	0.001507
3876.000000	0.001492
3875.000000	0.001478
3874.000000	0.001471
3873.000000	0.001468
3872.000000	0.001459
3871.000000	0.001443
3870.000000	0.001431
3869.000000	0.001427
3868.000000	0.001430
3867.000000	0.001436
3866.000000	0.001447
3865.000000	0.001465
3864.000000	0.001483
3863.000000	0.001485
3862.000000	0.001465
3861.000000	0.001440
3860.000000	0.001432
3859.000000	0.001456
3858.000000	0.001503
3857.000000	0.001545
3856.000000	0.001550
3855.000000	0.001503
3854.000000	0.001436
3853.000000	0.001392
3852.000000	0.001376
3851.000000	0.001373
3850.000000	0.001375
3849.000000	0.001383
3848.000000	0.001393
3847.000000	0.001404
3846.000000	0.001416
3845.000000	0.001430
3844.000000	0.001446
3843.000000	0.001460
3842.000000	0.001464
3841.000000	0.001457
3840.000000	0.001444
3839.000000	0.001438
3838.000000	0.001445
3837.000000	0.001458
3836.000000	0.001468
3835.000000	0.001464
3834.000000	0.001444
3833.000000	0.001413
3832.000000	0.001384
3831.000000	0.001364
3830.000000	0.001359
3829.000000	0.001367
3828.000000	0.001383
3827.000000	0.001400
3826.000000	0.001409
3825.000000	0.001402
3824.000000	0.001377
3823.000000	0.001348
3822.000000	0.001343
3821.000000	0.001380
3820.000000	0.001434
3819.000000	0.001474
3818.000000	0.001490
3817.000000	0.001486
3816.000000	0.001475
3815.000000	0.001463
3814.000000	0.001449
3813.000000	0.001435
3812.000000	0.001426
3811.000000	0.001423
3810.000000	0.001421
3809.000000	0.001413
3808.000000	0.001403
3807.000000	0.001396
3806.000000	0.001390
3805.000000	0.001382
3804.000000	0.001376
3803.000000	0.001386
3802.000000	0.001425
3801.000000	0.001477
3800.000000	0.001508
3799.000000	0.001504
3798.000000	0.001474
3797.000000	0.001434
3796.000000	0.001402
3795.000000	0.001381
3794.000000	0.001367
3793.000000	0.001358
3792.000000	0.001355
3791.000000	0.001365
3790.000000	0.001385
3789.000000	0.001406
3788.000000	0.001416
3787.000000	0.001409
3786.000000	0.001391
3785.000000	0.001377
3784.000000	0.001379
3783.000000	0.001398
3782.000000	0.001422
3781.000000	0.001436
3780.000000	0.001434
3779.000000	0.001420
3778.000000	0.001406
3777.000000	0.001396
3776.000000	0.001389
3775.000000	0.001380
3774.000000	0.001371
3773.000000	0.001369
3772.000000	0.001378
3771.000000	0.001398
3770.000000	0.001417
3769.000000	0.001425
3768.000000	0.001422
3767.000000	0.001416
3766.000000	0.001413
3765.000000	0.001412
3764.000000	0.001407
3763.000000	0.001395
3762.000000	0.001382
3761.000000	0.001379
3760.000000	0.001391
3759.000000	0.001406
3758.000000	0.001412
3757.000000	0.001407
3756.000000	0.001401
3755.000000	0.001399
3754.000000	0.001398
3753.000000	0.001396
3752.000000	0.001400
3751.000000	0.001413
3750.000000	0.001428
3749.000000	0.001439
3748.000000	0.001447
3747.000000	0.001452
3746.000000	0.001451
3745.000000	0.001447
3744.000000	0.001442
3743.000000	0.001429
3742.000000	0.001404
3741.000000	0.001375
3740.000000	0.001358
3739.000000	0.001364
3738.000000	0.001392
3737.000000	0.001430
3736.000000	0.001458
3735.000000	0.001461
3734.000000	0.001441
3733.000000	0.001417
3732.000000	0.001404
3731.000000	0.001395
3730.000000	0.001377
3729.000000	0.001341
3728.000000	0.001292
3727.000000	0.001247
3726.000000	0.001221
3725.000000	0.001215
3724.000000	0.001222
3723.000000	0.001240
3722.000000	0.001266
3721.000000	0.001291
3720.000000	0.001303
3719.000000	0.001298
3718.000000	0.001282
3717.000000	0.001267
3716.000000	0.001261
3715.000000	0.001265
3714.000000	0.001278
3713.000000	0.001299
3712.000000	0.001320
3711.000000	0.001330
3710.000000	0.001320
3709.000000	0.001297
3708.000000	0.001274
3707.000000	0.001257
3706.000000	0.001250
3705.000000	0.001250
3704.000000	0.001257
3703.000000	0.001266
3702.000000	0.001270
3701.000000	0.001266
3700.000000	0.001258
3699.000000	0.001257
3698.000000	0.001269
3697.000000	0.001291
3696.000000	0.001315
3695.000000	0.001329
3694.000000	0.001326
3693.000000	0.001307
3692.000000	0.001284
3691.000000	0.001271
3690.000000	0.001277
3689.000000	0.001293
3688.000000	0.001301
3687.000000	0.001296
3686.000000	0.001283
3685.000000	0.001274
3684.000000	0.001273
3683.000000	0.001277
3682.000000	0.001276
3681.000000	0.001269
3680.000000	0.001259
3679.000000	0.001249
3678.000000	0.001237
3677.000000	0.001228
3676.000000	0.001240
3675.000000	0.001270
3674.000000	0.001297
3673.000000	0.001309
3672.000000	0.001308
3671.000000	0.001304
3670.000000	0.001306
3669.000000	0.001310
3668.000000	0.001312
3667.000000	0.001319
3666.000000	0.001336
3665.000000	0.001361
3664.000000	0.001384
3663.000000	0.001397
3662.000000	0.001401
3661.000000	0.001398
3660.000000	0.001386
3659.000000	0.001364
3658.000000	0.001334
3657.000000	0.001310
3656.000000	0.001299
3655.000000	0.001301
3654.000000	0.001310
3653.000000	0.001322
3652.000000	0.001340
3651.000000	0.001368
3650.000000	0.001410
3649.000000	0.001454
3648.000000	0.001485
3647.000000	0.001497
3646.000000	0.001494
3645.000000	0.001482
3644.000000	0.001463
3643.000000	0.001442
3642.000000	0.001427
3641.000000	0.001426
3640.000000	0.001437
3639.000000	0.001450
3638.000000	0.001459
3637.000000	0.001463
3636.000000	0.001470
3635.000000	0.001482
3634.000000	0.001493
3633.000000	0.001494
3632.000000	0.001486
3631.000000	0.001481
3630.000000	0.001496
3629.000000	0.001537
3628.000000	0.001578
3627.000000	0.001599
3626.000000	0.001603
3625.000000	0.001600
3624.000000	0.001600
3623.000000	0.001605
3622.000000	0.001612
3621.000000	0.001618
3620.000000	0.001634
3619.000000	0.001670
3618.000000	0.001719
3617.000000	0.001764
3616.000000	0.001791
3615.000000	0.001805
3614.000000	0.001819
3613.000000	0.001837
3612.000000	0.001846
3611.000000	0.001835
3610.000000	0.001816
3609.000000	0.001817
3608.000000	0.001853
3607.000000	0.001914
3606.000000	0.001971
3605.000000	0.002001
3604.000000	0.002003
3603.000000	0.001992
3602.000000	0.001988
3601.000000	0.002001
3600.000000	0.002025
3599.000000	0.002052
3598.000000	0.002071
3597.000000	0.002082
3596.000000	0.002086
3595.000000	0.002089
3594.000000	0.002100
3593.000000	0.002123
3592.000000	0.002150
3591.000000	0.002171
3590.000000	0.002179
3589.000000	0.002183
3588.000000	0.002201
3587.000000	0.002234
3586.000000	0.002270
3585.000000	0.002297
3584.000000	0.002319
3583.000000	0.002343
3582.000000	0.002374
3581.000000	0.002412
3580.000000	0.002448
3579.000000	0.002470
3578.000000	0.002475
3577.000000	0.002467
3576.000000	0.002463
3575.000000	0.002476
3574.000000	0.002509
3573.000000	0.002549
3572.000000	0.002580
3571.000000	0.002593
3570.000000	0.002598
3569.000000	0.002612
3568.000000	0.002650
3567.000000	0.002704
3566.000000	0.002750
3565.000000	0.002776
3564.000000	0.002786
3563.000000	0.002792
3562.000000	0.002802
3561.000000	0.002819
3560.000000	0.002837
3559.000000	0.002847
3558.000000	0.002853
3557.000000	0.002863
3556.000000	0.002881
3555.000000	0.002905
3554.000000	0.002929
3553.000000	0.002955
3552.000000	0.002990
3551.000000	0.003038
3550.000000	0.003091
3549.000000	0.003135
3548.000000	0.003164
3547.000000	0.003181
3546.000000	0.003198
3545.000000	0.003224
3544.000000	0.003259
3543.000000	0.003296
3542.000000	0.003331
3541.000000	0.003358
3540.000000	0.003372
3539.000000	0.003373
3538.000000	0.003365
3537.000000	0.003354
3536.000000	0.003347
3535.000000	0.003349
3534.000000	0.003361
3533.000000	0.003386
3532.000000	0.003426
3531.000000	0.003478
3530.000000	0.003534
3529.000000	0.003584
3528.000000	0.003621
3527.000000	0.003650
3526.000000	0.003677
3525.000000	0.003704
3524.000000	0.003723
3523.000000	0.003728
3522.000000	0.003724
3521.000000	0.003728
3520.000000	0.003752
3519.000000	0.003794
3518.000000	0.003841
3517.000000	0.003882
3516.000000	0.003913
3515.000000	0.003934
3514.000000	0.003947
3513.000000	0.003954
3512.000000	0.003956
3511.000000	0.003960
3510.000000	0.003973
3509.000000	0.003999
3508.000000	0.004034
3507.000000	0.004071
3506.000000	0.004102
3505.000000	0.004124
3504.000000	0.004137
3503.000000	0.004144
3502.000000	0.004149
3501.000000	0.004159
3500.000000	0.004177
3499.000000	0.004204
3498.000000	0.004238
3497.000000	0.004277
3496.000000	0.004313
3495.000000	0.004338
3494.000000	0.004347
3493.000000	0.004346
3492.000000	0.004340
3491.000000	0.004335
3490.000000	0.004335
3489.000000	0.004350
3488.000000	0.004385
3487.000000	0.004432
3486.000000	0.004469
3485.000000	0.004482
3484.000000	0.004476
3483.000000	0.004470
3482.000000	0.004480
3481.000000	0.004509
3480.000000	0.004554
3479.000000	0.004604
3478.000000	0.004647
3477.000000	0.004674
3476.000000	0.004684
3475.000000	0.004685
3474.000000	0.004684
3473.000000	0.004685
3472.000000	0.004690
3471.000000	0.004708
3470.000000	0.004738
3469.000000	0.004771
3468.000000	0.004795
3467.000000	0.004806
3466.000000	0.004809
3465.000000	0.004814
3464.000000	0.004826
3463.000000	0.004841
3462.000000	0.004853
3461.000000	0.004857
3460.000000	0.004856
3459.000000	0.004859
3458.000000	0.004872
3457.000000	0.004895
3456.000000	0.004923
3455.000000	0.004950
3454.000000	0.004973
3453.000000	0.004991
3452.000000	0.005004
3451.000000	0.005012
3450.000000	0.005021
3449.000000	0.005035
3448.000000	0.005055
3447.000000	0.005077
3446.000000	0.005096
3445.000000	0.005111
3444.000000	0.005125
3443.000000	0.005143
3442.000000	0.005163
3441.000000	0.005181
3440.000000	0.005196
3439.000000	0.005215
3438.000000	0.005242
3437.000000	0.005275
3436.000000	0.005306
3435.000000	0.005325
3434.000000	0.005334
3433.000000	0.005341
3432.000000	0.005352
3431.000000	0.005367
3430.000000	0.005382
3429.000000	0.005392
3428.000000	0.005400
3427.000000	0.005416
3426.000000	0.005442
3425.000000	0.005472
3424.000000	0.005492
3423.000000	0.005496
3422.000000	0.005494
3421.000000	0.005502
3420.000000	0.005526
3419.000000	0.005556
3418.000000	0.005579
3417.000000	0.005591
3416.000000	0.005600
3415.000000	0.005621
3414.000000	0.005662
3413.000000	0.005717
3412.000000	0.005768
3411.000000	0.005800
3410.000000	0.005810
3409.000000	0.005813
3408.000000	0.005823
3407.000000	0.005850
3406.000000	0.005886
3405.000000	0.005919
3404.000000	0.005935
3403.000000	0.005938
3402.000000	0.005943
3401.000000	0.005960
3400.000000	0.005986
3399.000000	0.006003
3398.000000	0.006003
3397.000000	0.005996
3396.000000	0.006000
3395.000000	0.006028
3394.000000	0.006073
3393.000000	0.006116
3392.000000	0.006138
3391.000000	0.006136
3390.000000	0.006122
3389.000000	0.006114
3388.000000	0.006117
3387.000000	0.006124
3386.000000	0.006131
3385.000000	0.006140
3384.000000	0.006160
3383.000000	0.006193
3382.000000	0.006231
3381.000000	0.006265
3380.000000	0.006292
3379.000000	0.006316
3378.000000	0.006337
3377.000000	0.006351
3376.000000	0.006356
3375.000000	0.006360
3374.000000	0.006368
3373.000000	0.006383
3372.000000	0.006401
3371.000000	0.006424
3370.000000	0.006455
3369.000000	0.006499
3368.000000	0.006555
3367.000000	0.006615
3366.000000	0.006668
3365.000000	0.006705
3364.000000	0.006724
3363.000000	0.006727
3362.000000	0.006728
3361.000000	0.006739
3360.000000	0.006767
3359.000000	0.006813
3358.000000	0.006868
3357.000000	0.006919
3356.000000	0.006954
3355.000000	0.006972
3354.000000	0.006977
3353.000000	0.006982
3352.000000	0.006998
3351.000000	0.007035
3350.000000	0.007092
3349.000000	0.007155
3348.000000	0.007207
3347.000000	0.007239
3346.000000	0.007260
3345.000000	0.007283
3344.000000	0.007317
3343.000000	0.007359
3342.000000	0.007398
3341.000000	0.007428
3340.000000	0.007451
3339.000000	0.007479
3338.000000	0.007519
3337.000000	0.007570
3336.000000	0.007624
3335.000000	0.007674
3334.000000	0.007719
3333.000000	0.007761
3332.000000	0.007796
3331.000000	0.007821
3330.000000	0.007836
3329.000000	0.007843
3328.000000	0.007840
3327.000000	0.007831
3326.000000	0.007828
3325.000000	0.007846
3324.000000	0.007887
3323.000000	0.007941
3322.000000	0.007994
3321.000000	0.008041
3320.000000	0.008079
3319.000000	0.008106
3318.000000	0.008123
3317.000000	0.008129
3316.000000	0.008131
3315.000000	0.008135
3314.000000	0.008146
3313.000000	0.008162
3312.000000	0.008177
3311.000000	0.008190
3310.000000	0.008203
3309.000000	0.008220
3308.000000	0.008244
3307.000000	0.008271
3306.000000	0.008300
3305.000000	0.008329
3304.000000	0.008353
3303.000000	0.008367
3302.000000	0.008373
3301.000000	0.008375
3300.000000	0.008377
3299.000000	0.008379
3298.000000	0.008383
3297.000000	0.008390
3296.000000	0.008400
3295.000000	0.008408
3294.000000	0.008413
3293.000000	0.008420
3292.000000	0.008431
3291.000000	0.008444
3290.000000	0.008453
3289.000000	0.008455
3288.000000	0.008451
3287.000000	0.008443
3286.000000	0.008437
3285.000000	0.008439
3284.000000	0.008448
3283.000000	0.008461
3282.000000	0.008474
3281.000000	0.008487
3280.000000	0.008496
3279.000000	0.008492
3278.000000	0.008473
3277.000000	0.008445
3276.000000	0.008418
3275.000000	0.008398
3274.000000	0.008383
3273.000000	0.008370
3272.000000	0.008362
3271.000000	0.008359
3270.000000	0.008363
3269.000000	0.008370
3268.000000	0.008376
3267.000000	0.008373
3266.000000	0.008357
3265.000000	0.008335
3264.000000	0.008313
3263.000000	0.008295
3262.000000	0.008274
3261.000000	0.008246
3260.000000	0.008214
3259.000000	0.008186
3258.000000	0.008169
3257.000000	0.008162
3256.000000	0.008163
3255.000000	0.008165
3254.000000	0.008162
3253.000000	0.008150
3252.000000	0.008131
3251.000000	0.008111
3250.000000	0.008092
3249.000000	0.008079
3248.000000	0.008074
3247.000000	0.008078
3246.000000	0.008085
3245.000000	0.008084
3244.000000	0.008066
3243.000000	0.008036
3242.000000	0.008006
3241.000000	0.007980
3240.000000	0.007956
3239.000000	0.007924
3238.000000	0.007886
3237.000000	0.007854
3236.000000	0.007839
3235.000000	0.007842
3234.000000	0.007853
3233.000000	0.007859
3232.000000	0.007854
3231.000000	0.007839
3230.000000	0.007824
3229.000000	0.007813
3228.000000	0.007808
3227.000000	0.007804
3226.000000	0.007796
3225.000000	0.007782
3224.000000	0.007767
3223.000000	0.007756
3222.000000	0.007750
3221.000000	0.007743
3220.000000	0.007728
3219.000000	0.007702
3218.000000	0.007676
3217.000000	0.007660
3216.000000	0.007658
3215.000000	0.007659
3214.000000	0.007649
3213.000000	0.007627
3212.000000	0.007599
3211.000000	0.007578
3210.000000	0.007567
3209.000000	0.007560
3208.000000	0.007550
3207.000000	0.007542
3206.000000	0.007537
3205.000000	0.007530
3204.000000	0.007507
3203.000000	0.007467
3202.000000	0.007428
3201.000000	0.007411
3200.000000	0.007422
3199.000000	0.007441
3198.000000	0.007443
3197.000000	0.007423
3196.000000	0.007394
3195.000000	0.007374
3194.000000	0.007364
3193.000000	0.007354
3192.000000	0.007333
3191.000000	0.007303
3190.000000	0.007280
3189.000000	0.007274
3188.000000	0.007282
3187.000000	0.007285
3186.000000	0.007273
3185.000000	0.007247
3184.000000	0.007218
3183.000000	0.007191
3182.000000	0.007169
3181.000000	0.007152
3180.000000	0.007143
3179.000000	0.007143
3178.000000	0.007141
3177.000000	0.007124
3176.000000	0.007089
3175.000000	0.007044
3174.000000	0.007001
3173.000000	0.006962
3172.000000	0.006926
3171.000000	0.006891
3170.000000	0.006864
3169.000000	0.006847
3168.000000	0.006834
3167.000000	0.006813
3166.000000	0.006781
3165.000000	0.006744
3164.000000	0.006712
3163.000000	0.006686
3162.000000	0.006667
3161.000000	0.006651
3160.000000	0.006637
3159.000000	0.006623
3158.000000	0.006613
3157.000000	0.006609
3156.000000	0.006606
3155.000000	0.006594
3154.000000	0.006565
3153.000000	0.006516
3152.000000	0.006459
3151.000000	0.006405
3150.000000	0.006369
3149.000000	0.006352
3148.000000	0.006348
3147.000000	0.006345
3146.000000	0.006337
3145.000000	0.006330
3144.000000	0.006336
3143.000000	0.006358
3142.000000	0.006383
3141.000000	0.006393
3140.000000	0.006379
3139.000000	0.006344
3138.000000	0.006300
3137.000000	0.006259
3136.000000	0.006228
3135.000000	0.006209
3134.000000	0.006198
3133.000000	0.006190
3132.000000	0.006178
3131.000000	0.006162
3130.000000	0.006147
3129.000000	0.006141
3128.000000	0.006145
3127.000000	0.006151
3126.000000	0.006154
3125.000000	0.006154
3124.000000	0.006154
3123.000000	0.006149
3122.000000	0.006134
3121.000000	0.006105
3120.000000	0.006071
3119.000000	0.006042
3118.000000	0.006025
3117.000000	0.006017
3116.000000	0.006016
3115.000000	0.006018
3114.000000	0.006022
3113.000000	0.006029
3112.000000	0.006038
3111.000000	0.006046
3110.000000	0.006060
3109.000000	0.006081
3108.000000	0.006106
3107.000000	0.006122
3106.000000	0.006118
3105.000000	0.006099
3104.000000	0.006078
3103.000000	0.006070
3102.000000	0.006077
3101.000000	0.006093
3100.000000	0.006112
3099.000000	0.006128
3098.000000	0.006136
3097.000000	0.006136
3096.000000	0.006137
3095.000000	0.006147
3094.000000	0.006170
3093.000000	0.006199
3092.000000	0.006224
3091.000000	0.006237
3090.000000	0.006238
3089.000000	0.006231
3088.000000	0.006222
3087.000000	0.006217
3086.000000	0.006215
3085.000000	0.006215
3084.000000	0.006216
3083.000000	0.006225
3082.000000	0.006241
3081.000000	0.006262
3080.000000	0.006285
3079.000000	0.006304
3078.000000	0.006312
3077.000000	0.006305
3076.000000	0.006284
3075.000000	0.006257
3074.000000	0.006237
3073.000000	0.006227
3072.000000	0.006230
3071.000000	0.006245
3070.000000	0.006270
3069.000000	0.006297
3068.000000	0.006312
3067.000000	0.006313
3066.000000	0.006307
3065.000000	0.006305
3064.000000	0.006306
3063.000000	0.006305
3062.000000	0.006299
3061.000000	0.006285
3060.000000	0.006267
3059.000000	0.006242
3058.000000	0.006213
3057.000000	0.006185
3056.000000	0.006163
3055.000000	0.006146
3054.000000	0.006126
3053.000000	0.006100
3052.000000	0.006068
3051.000000	0.006037
3050.000000	0.006012
3049.000000	0.005994
3048.000000	0.005977
3047.000000	0.005960
3046.000000	0.005941
3045.000000	0.005917
3044.000000	0.005890
3043.000000	0.005860
3042.000000	0.005826
3041.000000	0.005791
3040.000000	0.005757
3039.000000	0.005725
3038.000000	0.005693
3037.000000	0.005660
3036.000000	0.005630
3035.000000	0.005605
3034.000000	0.005591
3033.000000	0.005585
3032.000000	0.005579
3031.000000	0.005572
3030.000000	0.005561
3029.000000	0.005549
3028.000000	0.005530
3027.000000	0.005503
3026.000000	0.005470
3025.000000	0.005436
3024.000000	0.005408
3023.000000	0.005391
3022.000000	0.005385
3021.000000	0.005392
3020.000000	0.005406
3019.000000	0.005416
3018.000000	0.005414
3017.000000	0.005400
3016.000000	0.005382
3015.000000	0.005373
3014.000000	0.005379
3013.000000	0.005400
3012.000000	0.005423
3011.000000	0.005441
3010.000000	0.005452
3009.000000	0.005459
3008.000000	0.005463
3007.000000	0.005460
3006.000000	0.005449
3005.000000	0.005434
3004.000000	0.005427
3003.000000	0.005432
3002.000000	0.005446
3001.000000	0.005457
3000.000000	0.005453
2999.000000	0.005430
2998.000000	0.005396
2997.000000	0.005367
2996.000000	0.005355
2995.000000	0.005368
2994.000000	0.005405
2993.000000	0.005451
2992.000000	0.005488
2991.000000	0.005501
2990.000000	0.005496
2989.000000	0.005491
2988.000000	0.005501
2987.000000	0.005534
2986.000000	0.005583
2985.000000	0.005641
2984.000000	0.005696
2983.000000	0.005739
2982.000000	0.005767
2981.000000	0.005784
2980.000000	0.005797
2979.000000	0.005806
2978.000000	0.005814
2977.000000	0.005823
2976.000000	0.005840
2975.000000	0.005865
2974.000000	0.005891
2973.000000	0.005914
2972.000000	0.005942
2971.000000	0.005997
2970.000000	0.006095
2969.000000	0.006237
2968.000000	0.006394
2967.000000	0.006535
2966.000000	0.006643
2965.000000	0.006731
2964.000000	0.006819
2963.000000	0.006920
2962.000000	0.007029
2961.000000	0.007140
2960.000000	0.007242
2959.000000	0.007329
2958.000000	0.007395
2957.000000	0.007443
2956.000000	0.007484
2955.000000	0.007521
2954.000000	0.007547
2953.000000	0.007553
2952.000000	0.007545
2951.000000	0.007538
2950.000000	0.007545
2949.000000	0.007569
2948.000000	0.007609
2947.000000	0.007665
2946.000000	0.007742
2945.000000	0.007847
2944.000000	0.007976
2943.000000	0.008125
2942.000000	0.008282
2941.000000	0.008445
2940.000000	0.008620
2939.000000	0.008819
2938.000000	0.009042
2937.000000	0.009279
2936.000000	0.009514
2935.000000	0.009746
2934.000000	0.009992
2933.000000	0.010264
2932.000000	0.010551
2931.000000	0.010826
2930.000000	0.011070
2929.000000	0.011282
2928.000000	0.011475
2927.000000	0.011656
2926.000000	0.011819
2925.000000	0.011947
2924.000000	0.012024
2923.000000	0.012043
2922.000000	0.012006
2921.000000	0.011919
2920.000000	0.011783
2919.000000	0.011592
2918.000000	0.011345
2917.000000	0.011058
2916.000000	0.010758
2915.000000	0.010464
2914.000000	0.010184
2913.000000	0.009916
2912.000000	0.009662
2911.000000	0.009428
2910.000000	0.009212
2909.000000	0.009011
2908.000000	0.008821
2907.000000	0.008649
2906.000000	0.008502
2905.000000	0.008383
2904.000000	0.008282
2903.000000	0.008186
2902.000000	0.008089
2901.000000	0.007992
2900.000000	0.007899
2899.000000	0.007809
2898.000000	0.007723
2897.000000	0.007644
2896.000000	0.007573
2895.000000	0.007503
2894.000000	0.007425
2893.000000	0.007342
2892.000000	0.007263
2891.000000	0.007195
2890.000000	0.007138
2889.000000	0.007086
2888.000000	0.007041
2887.000000	0.007008
2886.000000	0.006984
2885.000000	0.006959
2884.000000	0.006929
2883.000000	0.006895
2882.000000	0.006864
2881.000000	0.006848
2880.000000	0.006853
2879.000000	0.006878
2878.000000	0.006915
2877.000000	0.006946
2876.000000	0.006965
2875.000000	0.006981
2874.000000	0.007004
2873.000000	0.007033
2872.000000	0.007059
2871.000000	0.007075
2870.000000	0.007084
2869.000000	0.007095
2868.000000	0.007115
2867.000000	0.007148
2866.000000	0.007194
2865.000000	0.007257
2864.000000	0.007342
2863.000000	0.007457
2862.000000	0.007608
2861.000000	0.007791
2860.000000	0.007996
2859.000000	0.008212
2858.000000	0.008423
2857.000000	0.008621
2856.000000	0.008800
2855.000000	0.008952
2854.000000	0.009060
2853.000000	0.009107
2852.000000	0.009081
2851.000000	0.008982
2850.000000	0.008816
2849.000000	0.008587
2848.000000	0.008308
2847.000000	0.008003
2846.000000	0.007706
2845.000000	0.007438
2844.000000	0.007204
2843.000000	0.006997
2842.000000	0.006813
2841.000000	0.006649
2840.000000	0.006496
2839.000000	0.006353
2838.000000	0.006223
2837.000000	0.006117
2836.000000	0.006038
2835.000000	0.005982
2834.000000	0.005933
2833.000000	0.005877
2832.000000	0.005815
2831.000000	0.005759
2830.000000	0.005721
2829.000000	0.005702
2828.000000	0.005687
2827.000000	0.005659
2826.000000	0.005618
2825.000000	0.005577
2824.000000	0.005547
2823.000000	0.005530
2822.000000	0.005520
2821.000000	0.005507
2820.000000	0.005488
2819.000000	0.005464
2818.000000	0.005436
2817.000000	0.005406
2816.000000	0.005371
2815.000000	0.005336
2814.000000	0.005309
2813.000000	0.005299
2812.000000	0.005306
2811.000000	0.005317
2810.000000	0.005316
2809.000000	0.005296
2808.000000	0.005265
2807.000000	0.005239
2806.000000	0.005230
2805.000000	0.005233
2804.000000	0.005241
2803.000000	0.005247
2802.000000	0.005246
2801.000000	0.005235
2800.000000	0.005207
2799.000000	0.005168
2798.000000	0.005130
2797.000000	0.005112
2796.000000	0.005114
2795.000000	0.005123
2794.000000	0.005125
2793.000000	0.005115
2792.000000	0.005101
2791.000000	0.005095
2790.000000	0.005098
2789.000000	0.005110
2788.000000	0.005123
2787.000000	0.005128
2786.000000	0.005116
2785.000000	0.005087
2784.000000	0.005049
2783.000000	0.005015
2782.000000	0.004991
2781.000000	0.004975
2780.000000	0.004960
2779.000000	0.004943
2778.000000	0.004928
2777.000000	0.004921
2776.000000	0.004919
2775.000000	0.004921
2774.000000	0.004923
2773.000000	0.004926
2772.000000	0.004929
2771.000000	0.004931
2770.000000	0.004929
2769.000000	0.004922
2768.000000	0.004909
2767.000000	0.004895
2766.000000	0.004887
2765.000000	0.004890
2764.000000	0.004901
2763.000000	0.004912
2762.000000	0.004914
2761.000000	0.004902
2760.000000	0.004883
2759.000000	0.004866
2758.000000	0.004857
2757.000000	0.004847
2756.000000	0.004828
2755.000000	0.004800
2754.000000	0.004778
2753.000000	0.004772
2752.000000	0.004782
2751.000000	0.004798
2750.000000	0.004810
2749.000000	0.004812
2748.000000	0.004804
2747.000000	0.004786
2746.000000	0.004767
2745.000000	0.004753
2744.000000	0.004743
2743.000000	0.004733
2742.000000	0.004723
2741.000000	0.004711
2740.000000	0.004698
2739.000000	0.004682
2738.000000	0.004666
2737.000000	0.004652
2736.000000	0.004641
2735.000000	0.004634
2734.000000	0.004636
2733.000000	0.004651
2732.000000	0.004673
2731.000000	0.004692
2730.000000	0.004707
2729.000000	0.004717
2728.000000	0.004722
2727.000000	0.004715
2726.000000	0.004696
2725.000000	0.004673
2724.000000	0.004652
2723.000000	0.004637
2722.000000	0.004626
2721.000000	0.004621
2720.000000	0.004616
2719.000000	0.004608
2718.000000	0.004596
2717.000000	0.004582
2716.000000	0.004573
2715.000000	0.004567
2714.000000	0.004562
2713.000000	0.004558
2712.000000	0.004556
2711.000000	0.004558
2710.000000	0.004564
2709.000000	0.004573
2708.000000	0.004583
2707.000000	0.004589
2706.000000	0.004588
2705.000000	0.004583
2704.000000	0.004576
2703.000000	0.004564
2702.000000	0.004542
2701.000000	0.004518
2700.000000	0.004507
2699.000000	0.004518
2698.000000	0.004542
2697.000000	0.004563
2696.000000	0.004572
2695.000000	0.004568
2694.000000	0.004558
2693.000000	0.004545
2692.000000	0.004532
2691.000000	0.004524
2690.000000	0.004522
2689.000000	0.004523
2688.000000	0.004522
2687.000000	0.004517
2686.000000	0.004513
2685.000000	0.004513
2684.000000	0.004513
2683.000000	0.004509
2682.000000	0.004505
2681.000000	0.004508
2680.000000	0.004518
2679.000000	0.004528
2678.000000	0.004528
2677.000000	0.004517
2676.000000	0.004504
2675.000000	0.004492
2674.000000	0.004481
2673.000000	0.004470
2672.000000	0.004462
2671.000000	0.004464
2670.000000	0.004475
2669.000000	0.004486
2668.000000	0.004482
2667.000000	0.004464
2666.000000	0.004442
2665.000000	0.004431
2664.000000	0.004436
2663.000000	0.004449
2662.000000	0.004461
2661.000000	0.004464
2660.000000	0.004460
2659.000000	0.004454
2658.000000	0.004453
2657.000000	0.004460
2656.000000	0.004470
2655.000000	0.004471
2654.000000	0.004456
2653.000000	0.004424
2652.000000	0.004381
2651.000000	0.004336
2650.000000	0.004302
2649.000000	0.004287
2648.000000	0.004286
2647.000000	0.004286
2646.000000	0.004276
2645.000000	0.004258
2644.000000	0.004238
2643.000000	0.004223
2642.000000	0.004213
2641.000000	0.004211
2640.000000	0.004214
2639.000000	0.004214
2638.000000	0.004200
2637.000000	0.004168
2636.000000	0.004128
2635.000000	0.004096
2634.000000	0.004084
2633.000000	0.004092
2632.000000	0.004108
2631.000000	0.004115
2630.000000	0.004104
2629.000000	0.004078
2628.000000	0.004047
2627.000000	0.004018
2626.000000	0.003994
2625.000000	0.003978
2624.000000	0.003970
2623.000000	0.003971
2622.000000	0.003976
2621.000000	0.003978
2620.000000	0.003972
2619.000000	0.003957
2618.000000	0.003938
2617.000000	0.003924
2616.000000	0.003917
2615.000000	0.003912
2614.000000	0.003904
2613.000000	0.003892
2612.000000	0.003884
2611.000000	0.003885
2610.000000	0.003894
2609.000000	0.003901
2608.000000	0.003899
2607.000000	0.003884
2606.000000	0.003861
2605.000000	0.003838
2604.000000	0.003824
2603.000000	0.003824
2602.000000	0.003833
2601.000000	0.003842
2600.000000	0.003840
2599.000000	0.003827
2598.000000	0.003813
2597.000000	0.003804
2596.000000	0.003797
2595.000000	0.003783
2594.000000	0.003762
2593.000000	0.003745
2592.000000	0.003738
2591.000000	0.003736
2590.000000	0.003731
2589.000000	0.003725
2588.000000	0.003724
2587.000000	0.003725
2586.000000	0.003715
2585.000000	0.003683
2584.000000	0.003635
2583.000000	0.003593
2582.000000	0.003575
2581.000000	0.003588
2580.000000	0.003615
2579.000000	0.003637
2578.000000	0.003645
2577.000000	0.003638
2576.000000	0.003618
2575.000000	0.003586
2574.000000	0.003551
2573.000000	0.003529
2572.000000	0.003539
2571.000000	0.003575
2570.000000	0.003613
2569.000000	0.003629
2568.000000	0.003620
2567.000000	0.003607
2566.000000	0.003620
2565.000000	0.003668
2564.000000	0.003727
2563.000000	0.003760
2562.000000	0.003746
2561.000000	0.003698
2560.000000	0.003647
2559.000000	0.003614
2558.000000	0.003597
2557.000000	0.003584
2556.000000	0.003570
2555.000000	0.003563
2554.000000	0.003568
2553.000000	0.003580
2552.000000	0.003591
2551.000000	0.003598
2550.000000	0.003605
2549.000000	0.003609
2548.000000	0.003605
2547.000000	0.003592
2546.000000	0.003579
2545.000000	0.003568
2544.000000	0.003553
2543.000000	0.003526
2542.000000	0.003495
2541.000000	0.003478
2540.000000	0.003480
2539.000000	0.003492
2538.000000	0.003501
2537.000000	0.003506
2536.000000	0.003513
2535.000000	0.003525
2534.000000	0.003540
2533.000000	0.003553
2532.000000	0.003562
2531.000000	0.003564
2530.000000	0.003549
2529.000000	0.003514
2528.000000	0.003471
2527.000000	0.003444
2526.000000	0.003446
2525.000000	0.003468
2524.000000	0.003488
2523.000000	0.003492
2522.000000	0.003492
2521.000000	0.003508
2520.000000	0.003539
2519.000000	0.003567
2518.000000	0.003574
2517.000000	0.003566
2516.000000	0.003562
2515.000000	0.003573
2514.000000	0.003582
2513.000000	0.003562
2512.000000	0.003502
2511.000000	0.003428
2510.000000	0.003385
2509.000000	0.003401
2508.000000	0.003464
2507.000000	0.003535
2506.000000	0.003587
2505.000000	0.003608
2504.000000	0.003601
2503.000000	0.003570
2502.000000	0.003526
2501.000000	0.003484
2500.000000	0.003454
2499.000000	0.003436
2498.000000	0.003427
2497.000000	0.003421
2496.000000	0.003419
2495.000000	0.003425
2494.000000	0.003444
2493.000000	0.003471
2492.000000	0.003482
2491.000000	0.003458
2490.000000	0.003406
2489.000000	0.003356
2488.000000	0.003336
2487.000000	0.003349
2486.000000	0.003377
2485.000000	0.003401
2484.000000	0.003408
2483.000000	0.003398
2482.000000	0.003385
2481.000000	0.003386
2480.000000	0.003401
2479.000000	0.003409
2478.000000	0.003392
2477.000000	0.003353
2476.000000	0.003314
2475.000000	0.003290
2474.000000	0.003278
2473.000000	0.003269
2472.000000	0.003261
2471.000000	0.003265
2470.000000	0.003298
2469.000000	0.003355
2468.000000	0.003407
2467.000000	0.003427
2466.000000	0.003414
2465.000000	0.003394
2464.000000	0.003395
2463.000000	0.003420
2462.000000	0.003453
2461.000000	0.003476
2460.000000	0.003479
2459.000000	0.003462
2458.000000	0.003438
2457.000000	0.003426
2456.000000	0.003433
2455.000000	0.003450
2454.000000	0.003462
2453.000000	0.003464
2452.000000	0.003459
2451.000000	0.003450
2450.000000	0.003439
2449.000000	0.003430
2448.000000	0.003427
2447.000000	0.003427
2446.000000	0.003427
2445.000000	0.003424
2444.000000	0.003416
2443.000000	0.003397
2442.000000	0.003368
2441.000000	0.003344
2440.000000	0.003341
2439.000000	0.003362
2438.000000	0.003391
2437.000000	0.003403
2436.000000	0.003386
2435.000000	0.003350
2434.000000	0.003317
2433.000000	0.003306
2432.000000	0.003318
2431.000000	0.003334
2430.000000	0.003338
2429.000000	0.003329
2428.000000	0.003317
2427.000000	0.003305
2426.000000	0.003294
2425.000000	0.003283
2424.000000	0.003280
2423.000000	0.003288
2422.000000	0.003300
2421.000000	0.003312
2420.000000	0.003319
2419.000000	0.003326
2418.000000	0.003333
2417.000000	0.003338
2416.000000	0.003342
2415.000000	0.003347
2414.000000	0.003356
2413.000000	0.003365
2412.000000	0.003368
2411.000000	0.003366
2410.000000	0.003367
2409.000000	0.003374
2408.000000	0.003380
2407.000000	0.003368
2406.000000	0.003337
2405.000000	0.003310
2404.000000	0.003315
2403.000000	0.003353
2402.000000	0.003401
2401.000000	0.003434
2400.000000	0.003444
2399.000000	0.003443
2398.000000	0.003443
2397.000000	0.003449
2396.000000	0.003453
2395.000000	0.003441
2394.000000	0.003407
2393.000000	0.003363
2392.000000	0.003333
2391.000000	0.003336
2390.000000	0.003369
2389.000000	0.003413
2388.000000	0.003446
2387.000000	0.003462
2386.000000	0.003465
2385.000000	0.003460
2384.000000	0.003449
2383.000000	0.003428
2382.000000	0.003397
2381.000000	0.003355
2380.000000	0.003314
2379.000000	0.003291
2378.000000	0.003301
2377.000000	0.003334
2376.000000	0.003363
2375.000000	0.003366
2374.000000	0.003349
2373.000000	0.003325
2372.000000	0.003298
2371.000000	0.003267
2370.000000	0.003239
2369.000000	0.003228
2368.000000	0.003238
2367.000000	0.003264
2366.000000	0.003307
2365.000000	0.003363
2364.000000	0.003417
2363.000000	0.003450
2362.000000	0.003462
2361.000000	0.003460
2360.000000	0.003452
2359.000000	0.003423
2358.000000	0.003368
2357.000000	0.003310
2356.000000	0.003289
2355.000000	0.003327
2354.000000	0.003393
2353.000000	0.003427
2352.000000	0.003406
2351.000000	0.003363
2350.000000	0.003348
2349.000000	0.003373
2348.000000	0.003418
2347.000000	0.003442
2346.000000	0.003429
2345.000000	0.003410
2344.000000	0.003430
2343.000000	0.003499
2342.000000	0.003564
2341.000000	0.003570
2340.000000	0.003511
2339.000000	0.003434
2338.000000	0.003392
2337.000000	0.003404
2336.000000	0.003450
2335.000000	0.003496
2334.000000	0.003523
2333.000000	0.003532
2332.000000	0.003534
2331.000000	0.003528
2330.000000	0.003514
2329.000000	0.003496
2328.000000	0.003508
2327.000000	0.003566
2326.000000	0.003661
2325.000000	0.003747
2324.000000	0.003783
2323.000000	0.003764
2322.000000	0.003724
2321.000000	0.003701
2320.000000	0.003708
2319.000000	0.003730
2318.000000	0.003755
2317.000000	0.003769
2316.000000	0.003770
2315.000000	0.003745
2314.000000	0.003696
2313.000000	0.003625
2312.000000	0.003546
2311.000000	0.003474
2310.000000	0.003437
2309.000000	0.003454
2308.000000	0.003509
2307.000000	0.003553
2306.000000	0.003552
2305.000000	0.003516
2304.000000	0.003487
2303.000000	0.003487
2302.000000	0.003503
2301.000000	0.003512
2300.000000	0.003507
2299.000000	0.003488
2298.000000	0.003463
2297.000000	0.003443
2296.000000	0.003444
2295.000000	0.003466
2294.000000	0.003490
2293.000000	0.003492
2292.000000	0.003474
2291.000000	0.003460
2290.000000	0.003474
2289.000000	0.003513
2288.000000	0.003550
2287.000000	0.003552
2286.000000	0.003516
2285.000000	0.003476
2284.000000	0.003472
2283.000000	0.003517
2282.000000	0.003576
2281.000000	0.003599
2280.000000	0.003565
2279.000000	0.003500
2278.000000	0.003452
2277.000000	0.003434
2276.000000	0.003422
2275.000000	0.003393
2274.000000	0.003358
2273.000000	0.003348
2272.000000	0.003372
2271.000000	0.003413
2270.000000	0.003460
2269.000000	0.003519
2268.000000	0.003590
2267.000000	0.003648
2266.000000	0.003651
2265.000000	0.003583
2264.000000	0.003461
2263.000000	0.003336
2262.000000	0.003272
2261.000000	0.003307
2260.000000	0.003412
2259.000000	0.003513
2258.000000	0.003546
2257.000000	0.003503
2256.000000	0.003412
2255.000000	0.003308
2254.000000	0.003230
2253.000000	0.003225
2252.000000	0.003306
2251.000000	0.003414
2250.000000	0.003466
2249.000000	0.003429
2248.000000	0.003345
2247.000000	0.003271
2246.000000	0.003228
2245.000000	0.003206
2244.000000	0.003194
2243.000000	0.003194
2242.000000	0.003210
2241.000000	0.003239
2240.000000	0.003275
2239.000000	0.003308
2238.000000	0.003333
2237.000000	0.003351
2236.000000	0.003361
2235.000000	0.003354
2234.000000	0.003330
2233.000000	0.003316
2232.000000	0.003350
2231.000000	0.003434
2230.000000	0.003525
2229.000000	0.003581
2228.000000	0.003596
2227.000000	0.003581
2226.000000	0.003521
2225.000000	0.003403
2224.000000	0.003263
2223.000000	0.003167
2222.000000	0.003138
2221.000000	0.003123
2220.000000	0.003075
2219.000000	0.003020
2218.000000	0.003021
2217.000000	0.003081
2216.000000	0.003141
2215.000000	0.003154
2214.000000	0.003131
2213.000000	0.003110
2212.000000	0.003114
2211.000000	0.003148
2210.000000	0.003202
2209.000000	0.003233
2208.000000	0.003191
2207.000000	0.003079
2206.000000	0.002977
2205.000000	0.002969
2204.000000	0.003052
2203.000000	0.003155
2202.000000	0.003217
2201.000000	0.003233
2200.000000	0.003237
2199.000000	0.003271
2198.000000	0.003362
2197.000000	0.003494
2196.000000	0.003603
2195.000000	0.003634
2194.000000	0.003591
2193.000000	0.003521
2192.000000	0.003448
2191.000000	0.003344
2190.000000	0.003184
2189.000000	0.002999
2188.000000	0.002861
2187.000000	0.002823
2186.000000	0.002871
2185.000000	0.002949
2184.000000	0.003014
2183.000000	0.003066
2182.000000	0.003123
2181.000000	0.003160
2180.000000	0.003122
2179.000000	0.002986
2178.000000	0.002795
2177.000000	0.002618
2176.000000	0.002509
2175.000000	0.002496
2174.000000	0.002567
2173.000000	0.002662
2172.000000	0.002711
2171.000000	0.002712
2170.000000	0.002734
2169.000000	0.002814
2168.000000	0.002912
2167.000000	0.002971
2166.000000	0.002988
2165.000000	0.002967
2164.000000	0.002868
2163.000000	0.002676
2162.000000	0.002486
2161.000000	0.002419
2160.000000	0.002467
2159.000000	0.002511
2158.000000	0.002501
2157.000000	0.002493
2156.000000	0.002524
2155.000000	0.002564
2154.000000	0.002596
2153.000000	0.002629
2152.000000	0.002647
2151.000000	0.002623
2150.000000	0.002574
2149.000000	0.002553
2148.000000	0.002584
2147.000000	0.002659
2146.000000	0.002780
2145.000000	0.002938
2144.000000	0.003068
2143.000000	0.003093
2142.000000	0.003022
2141.000000	0.002948
2140.000000	0.002937
2139.000000	0.002973
2138.000000	0.003011
2137.000000	0.003024
2136.000000	0.002998
2135.000000	0.002921
2134.000000	0.002815
2133.000000	0.002745
2132.000000	0.002757
2131.000000	0.002837
2130.000000	0.002935
2129.000000	0.003007
2128.000000	0.003035
2127.000000	0.003029
2126.000000	0.003026
2125.000000	0.003059
2124.000000	0.003116
2123.000000	0.003145
2122.000000	0.003119
2121.000000	0.003061
2120.000000	0.003017
2119.000000	0.003005
2118.000000	0.003011
2117.000000	0.003018
2116.000000	0.003025
2115.000000	0.003044
2114.000000	0.003094
2113.000000	0.003168
2112.000000	0.003226
2111.000000	0.003238
2110.000000	0.003221
2109.000000	0.003224
2108.000000	0.003264
2107.000000	0.003303
2106.000000	0.003304
2105.000000	0.003272
2104.000000	0.003226
2103.000000	0.003176
2102.000000	0.003124
2101.000000	0.003083
2100.000000	0.003067
2099.000000	0.003073
2098.000000	0.003093
2097.000000	0.003122
2096.000000	0.003138
2095.000000	0.003111
2094.000000	0.003044
2093.000000	0.002982
2092.000000	0.002969
2091.000000	0.003003
2090.000000	0.003059
2089.000000	0.003122
2088.000000	0.003179
2087.000000	0.003213
2086.000000	0.003213
2085.000000	0.003192
2084.000000	0.003159
2083.000000	0.003093
2082.000000	0.002982
2081.000000	0.002866
2080.000000	0.002814
2079.000000	0.002853
2078.000000	0.002946
2077.000000	0.003038
2076.000000	0.003098
2075.000000	0.003113
2074.000000	0.003079
2073.000000	0.003011
2072.000000	0.002953
2071.000000	0.002959
2070.000000	0.003048
2069.000000	0.003177
2068.000000	0.003254
2067.000000	0.003207
2066.000000	0.003039
2065.000000	0.002834
2064.000000	0.002709
2063.000000	0.002732
2062.000000	0.002891
2061.000000	0.003102
2060.000000	0.003250
2059.000000	0.003267
2058.000000	0.003179
2057.000000	0.003077
2056.000000	0.003031
2055.000000	0.003049
2054.000000	0.003098
2053.000000	0.003146
2052.000000	0.003168
2051.000000	0.003139
2050.000000	0.003057
2049.000000	0.002962
2048.000000	0.002892
2047.000000	0.002842
2046.000000	0.002787
2045.000000	0.002729
2044.000000	0.002700
2043.000000	0.002713
2042.000000	0.002759
2041.000000	0.002820
2040.000000	0.002879
2039.000000	0.002914
2038.000000	0.002906
2037.000000	0.002850
2036.000000	0.002754
2035.000000	0.002643
2034.000000	0.002568
2033.000000	0.002572
2032.000000	0.002634
2031.000000	0.002668
2030.000000	0.002599
2029.000000	0.002442
2028.000000	0.002288
2027.000000	0.002224
2026.000000	0.002266
2025.000000	0.002354
2024.000000	0.002399
2023.000000	0.002359
2022.000000	0.002266
2021.000000	0.002183
2020.000000	0.002158
2019.000000	0.002226
2018.000000	0.002412
2017.000000	0.002663
2016.000000	0.002839
2015.000000	0.002837
2014.000000	0.002712
2013.000000	0.002616
2012.000000	0.002623
2011.000000	0.002658
2010.000000	0.002611
2009.000000	0.002456
2008.000000	0.002272
2007.000000	0.002174
2006.000000	0.002246
2005.000000	0.002473
2004.000000	0.002723
2003.000000	0.002855
2002.000000	0.002833
2001.000000	0.002730
2000.000000	0.002631
1999.000000	0.002564
1998.000000	0.002524
1997.000000	0.002505
1996.000000	0.002497
1995.000000	0.002509
1994.000000	0.002586
1993.000000	0.002753
1992.000000	0.002952
1991.000000	0.003081
1990.000000	0.003127
1989.000000	0.003158
1988.000000	0.003208
1987.000000	0.003245
1986.000000	0.003257
1985.000000	0.003287
1984.000000	0.003336
1983.000000	0.003317
1982.000000	0.003181
1981.000000	0.003009
1980.000000	0.002917
1979.000000	0.002900
1978.000000	0.002860
1977.000000	0.002756
1976.000000	0.002640
1975.000000	0.002551
1974.000000	0.002494
1973.000000	0.002494
1972.000000	0.002561
1971.000000	0.002624
1970.000000	0.002591
1969.000000	0.002468
1968.000000	0.002373
1967.000000	0.002394
1966.000000	0.002499
1965.000000	0.002581
1964.000000	0.002574
1963.000000	0.002480
1962.000000	0.002354
1961.000000	0.002268
1960.000000	0.002272
1959.000000	0.002359
1958.000000	0.002471
1957.000000	0.002553
1956.000000	0.002592
1955.000000	0.002612
1954.000000	0.002641
1953.000000	0.002677
1952.000000	0.002685
1951.000000	0.002637
1950.000000	0.002555
1949.000000	0.002496
1948.000000	0.002496
1947.000000	0.002545
1946.000000	0.002605
1945.000000	0.002647
1944.000000	0.002659
1943.000000	0.002648
1942.000000	0.002626
1941.000000	0.002596
1940.000000	0.002550
1939.000000	0.002504
1938.000000	0.002502
1937.000000	0.002566
1936.000000	0.002642
1935.000000	0.002651
1934.000000	0.002583
1933.000000	0.002509
1932.000000	0.002491
1931.000000	0.002522
1930.000000	0.002570
1929.000000	0.002632
1928.000000	0.002720
1927.000000	0.002803
1926.000000	0.002830
1925.000000	0.002794
1924.000000	0.002747
1923.000000	0.002745
1922.000000	0.002791
1921.000000	0.002842
1920.000000	0.002856
1919.000000	0.002813
1918.000000	0.002725
1917.000000	0.002628
1916.000000	0.002553
1915.000000	0.002517
1914.000000	0.002523
1913.000000	0.002565
1912.000000	0.002624
1911.000000	0.002676
1910.000000	0.002703
1909.000000	0.002694
1908.000000	0.002657
1907.000000	0.002613
1906.000000	0.002592
1905.000000	0.002611
1904.000000	0.002659
1903.000000	0.002713
1902.000000	0.002757
1901.000000	0.002786
1900.000000	0.002791
1899.000000	0.002767
1898.000000	0.002719
1897.000000	0.002659
1896.000000	0.002602
1895.000000	0.002563
1894.000000	0.002561
1893.000000	0.002594
1892.000000	0.002632
1891.000000	0.002642
1890.000000	0.002632
1889.000000	0.002643
1888.000000	0.002682
1887.000000	0.002709
1886.000000	0.002684
1885.000000	0.002611
1884.000000	0.002536
1883.000000	0.002502
1882.000000	0.002529
1881.000000	0.002596
1880.000000	0.002665
1879.000000	0.002705
1878.000000	0.002716
1877.000000	0.002712
1876.000000	0.002694
1875.000000	0.002656
1874.000000	0.002608
1873.000000	0.002576
1872.000000	0.002574
1871.000000	0.002592
1870.000000	0.002617
1869.000000	0.002645
1868.000000	0.002669
1867.000000	0.002675
1866.000000	0.002665
1865.000000	0.002660
1864.000000	0.002670
1863.000000	0.002690
1862.000000	0.002714
1861.000000	0.002730
1860.000000	0.002722
1859.000000	0.002684
1858.000000	0.002642
1857.000000	0.002631
1856.000000	0.002649
1855.000000	0.002664
1854.000000	0.002660
1853.000000	0.002657
1852.000000	0.002676
1851.000000	0.002706
1850.000000	0.002722
1849.000000	0.002708
1848.000000	0.002674
1847.000000	0.002637
1846.000000	0.002613
1845.000000	0.002602
1844.000000	0.002595
1843.000000	0.002582
1842.000000	0.002559
1841.000000	0.002552
1840.000000	0.002577
1839.000000	0.002618
1838.000000	0.002649
1837.000000	0.002666
1836.000000	0.002680
1835.000000	0.002691
1834.000000	0.002684
1833.000000	0.002648
1832.000000	0.002585
1831.000000	0.002513
1830.000000	0.002467
1829.000000	0.002468
1828.000000	0.002501
1827.000000	0.002540
1826.000000	0.002572
1825.000000	0.002598
1824.000000	0.002619
1823.000000	0.002640
1822.000000	0.002664
1821.000000	0.002689
1820.000000	0.002700
1819.000000	0.002684
1818.000000	0.002647
1817.000000	0.002610
1816.000000	0.002588
1815.000000	0.002580
1814.000000	0.002584
1813.000000	0.002602
1812.000000	0.002625
1811.000000	0.002643
1810.000000	0.002656
1809.000000	0.002677
1808.000000	0.002711
1807.000000	0.002744
1806.000000	0.002767
1805.000000	0.002774
1804.000000	0.002760
1803.000000	0.002718
1802.000000	0.002656
1801.000000	0.002598
1800.000000	0.002560
1799.000000	0.002546
1798.000000	0.002557
1797.000000	0.002590
1796.000000	0.002625
1795.000000	0.002631
1794.000000	0.002591
1793.000000	0.002522
1792.000000	0.002471
1791.000000	0.002459
1790.000000	0.002464
1789.000000	0.002476
1788.000000	0.002495
1787.000000	0.002516
1786.000000	0.002526
1785.000000	0.002516
1784.000000	0.002478
1783.000000	0.002417
1782.000000	0.002350
1781.000000	0.002300
1780.000000	0.002274
1779.000000	0.002262
1778.000000	0.002251
1777.000000	0.002237
1776.000000	0.002222
1775.000000	0.002206
1774.000000	0.002175
1773.000000	0.002120
1772.000000	0.002073
1771.000000	0.002072
1770.000000	0.002112
1769.000000	0.002164
1768.000000	0.002185
1767.000000	0.002148
1766.000000	0.002081
1765.000000	0.002043
1764.000000	0.002057
1763.000000	0.002093
1762.000000	0.002122
1761.000000	0.002159
1760.000000	0.002220
1759.000000	0.002304
1758.000000	0.002412
1757.000000	0.002546
1756.000000	0.002703
1755.000000	0.002882
1754.000000	0.003102
1753.000000	0.003368
1752.000000	0.003629
1751.000000	0.003809
1750.000000	0.003895
1749.000000	0.003941
1748.000000	0.003984
1747.000000	0.004017
1746.000000	0.004024
1745.000000	0.003997
1744.000000	0.003930
1743.000000	0.003808
1742.000000	0.003626
1741.000000	0.003397
1740.000000	0.003142
1739.000000	0.002898
1738.000000	0.002718
1737.000000	0.002643
1736.000000	0.002649
1735.000000	0.002624
1734.000000	0.002510
1733.000000	0.002358
1732.000000	0.002183
1731.000000	0.002000
1730.000000	0.001855
1729.000000	0.001761
1728.000000	0.001695
1727.000000	0.001637
1726.000000	0.001581
1725.000000	0.001524
1724.000000	0.001456
1723.000000	0.001364
1722.000000	0.001263
1721.000000	0.001195
1720.000000	0.001183
1719.000000	0.001188
1718.000000	0.001177
1717.000000	0.001181
1716.000000	0.001215
1715.000000	0.001261
1714.000000	0.001345
1713.000000	0.001491
1712.000000	0.001675
1711.000000	0.001856
1710.000000	0.002034
1709.000000	0.002225
1708.000000	0.002425
1707.000000	0.002628
1706.000000	0.002854
1705.000000	0.003126
1704.000000	0.003431
1703.000000	0.003760
1702.000000	0.004116
1701.000000	0.004465
1700.000000	0.004791
1699.000000	0.005068
1698.000000	0.005330
1697.000000	0.005678
1696.000000	0.006099
1695.000000	0.006430
1694.000000	0.006590
1693.000000	0.006685
1692.000000	0.006845
1691.000000	0.007089
1690.000000	0.007365
1689.000000	0.007651
1688.000000	0.007966
1687.000000	0.008328
1686.000000	0.008706
1685.000000	0.009041
1684.000000	0.009339
1683.000000	0.009592
1682.000000	0.009817
1681.000000	0.010095
1680.000000	0.010450
1679.000000	0.010817
1678.000000	0.011162
1677.000000	0.011527
1676.000000	0.011943
1675.000000	0.012386
1674.000000	0.012799
1673.000000	0.013175
1672.000000	0.013556
1671.000000	0.013964
1670.000000	0.014407
1669.000000	0.014899
1668.000000	0.015402
1667.000000	0.015846
1666.000000	0.016226
1665.000000	0.016595
1664.000000	0.016987
1663.000000	0.017393
1662.000000	0.017793
1661.000000	0.018174
1660.000000	0.018527
1659.000000	0.018847
1658.000000	0.019127
1657.000000	0.019407
1656.000000	0.019759
1655.000000	0.020173
1654.000000	0.020534
1653.000000	0.020837
1652.000000	0.021079
1651.000000	0.021114
1650.000000	0.021023
1649.000000	0.021018
1648.000000	0.021158
1647.000000	0.021379
1646.000000	0.021612
1645.000000	0.021805
1644.000000	0.021931
1643.000000	0.022018
1642.000000	0.022122
1641.000000	0.022249
1640.000000	0.022361
1639.000000	0.022444
1638.000000	0.022512
1637.000000	0.022570
1636.000000	0.022623
1635.000000	0.022691
1634.000000	0.022752
1633.000000	0.022777
1632.000000	0.022780
1631.000000	0.022762
1630.000000	0.022689
1629.000000	0.022547
1628.000000	0.022364
1627.000000	0.022166
1626.000000	0.021948
1625.000000	0.021674
1624.000000	0.021316
1623.000000	0.020904
1622.000000	0.020515
1621.000000	0.020188
1620.000000	0.019916
1619.000000	0.019666
1618.000000	0.019346
1617.000000	0.018878
1616.000000	0.018327
1615.000000	0.017810
1614.000000	0.017365
1613.000000	0.016969
1612.000000	0.016580
1611.000000	0.016171
1610.000000	0.015763
1609.000000	0.015379
1608.000000	0.015015
1607.000000	0.014669
1606.000000	0.014357
1605.000000	0.014076
1604.000000	0.013808
1603.000000	0.013544
1602.000000	0.013294
1601.000000	0.013061
1600.000000	0.012846
1599.000000	0.012656
1598.000000	0.012499
1597.000000	0.012370
1596.000000	0.012255
1595.000000	0.012159
1594.000000	0.012087
1593.000000	0.012028
1592.000000	0.011972
1591.000000	0.011923
1590.000000	0.011895
1589.000000	0.011886
1588.000000	0.011891
1587.000000	0.011919
1586.000000	0.011981
1585.000000	0.012067
1584.000000	0.012161
1583.000000	0.012267
1582.000000	0.012394
1581.000000	0.012520
1580.000000	0.012640
1579.000000	0.012798
1578.000000	0.013022
1577.000000	0.013266
1576.000000	0.013459
1575.000000	0.013585
1574.000000	0.013669
1573.000000	0.013774
1572.000000	0.013948
1571.000000	0.014170
1570.000000	0.014404
1569.000000	0.014637
1568.000000	0.014861
1567.000000	0.015093
1566.000000	0.015359
1565.000000	0.015657
1564.000000	0.015964
1563.000000	0.016298
1562.000000	0.016701
1561.000000	0.017113
1560.000000	0.017372
1559.000000	0.017537
1558.000000	0.017800
1557.000000	0.018072
1556.000000	0.018297
1555.000000	0.018519
1554.000000	0.018736
1553.000000	0.018900
1552.000000	0.019016
1551.000000	0.019131
1550.000000	0.019263
1549.000000	0.019403
1548.000000	0.019543
1547.000000	0.019682
1546.000000	0.019808
1545.000000	0.019889
1544.000000	0.019917
1543.000000	0.019923
1542.000000	0.019926
1541.000000	0.019917
1540.000000	0.019904
1539.000000	0.019900
1538.000000	0.019852
1537.000000	0.019742
1536.000000	0.019633
1535.000000	0.019535
1534.000000	0.019396
1533.000000	0.019238
1532.000000	0.019120
1531.000000	0.019030
1530.000000	0.018929
1529.000000	0.018812
1528.000000	0.018693
1527.000000	0.018563
1526.000000	0.018401
1525.000000	0.018213
1524.000000	0.018029
1523.000000	0.017852
1522.000000	0.017647
1521.000000	0.017431
1520.000000	0.017227
1519.000000	0.017006
1518.000000	0.016771
1517.000000	0.016562
1516.000000	0.016417
1515.000000	0.016325
1514.000000	0.016238
1513.000000	0.016118
1512.000000	0.015947
1511.000000	0.015743
1510.000000	0.015558
1509.000000	0.015404
1508.000000	0.015196
1507.000000	0.014860
1506.000000	0.014512
1505.000000	0.014249
1504.000000	0.014004
1503.000000	0.013756
1502.000000	0.013532
1501.000000	0.013321
1500.000000	0.013108
1499.000000	0.012900
1498.000000	0.012697
1497.000000	0.012487
1496.000000	0.012268
1495.000000	0.012040
1494.000000	0.011814
1493.000000	0.011619
1492.000000	0.011449
1491.000000	0.011253
1490.000000	0.011025
1489.000000	0.010823
1488.000000	0.010686
1487.000000	0.010602
1486.000000	0.010568
1485.000000	0.010590
1484.000000	0.010643
1483.000000	0.010688
1482.000000	0.010707
1481.000000	0.010723
1480.000000	0.010761
1479.000000	0.010823
1478.000000	0.010899
1477.000000	0.010994
1476.000000	0.011125
1475.000000	0.011295
1474.000000	0.011500
1473.000000	0.011747
1472.000000	0.012023
1471.000000	0.012285
1470.000000	0.012523
1469.000000	0.012774
1468.000000	0.013046
1467.000000	0.013298
1466.000000	0.013497
1465.000000	0.013661
1464.000000	0.013826
1463.000000	0.013990
1462.000000	0.014137
1461.000000	0.014289
1460.000000	0.014483
1459.000000	0.014730
1458.000000	0.014998
1457.000000	0.015246
1456.000000	0.015422
1455.000000	0.015483
1454.000000	0.015501
1453.000000	0.015566
1452.000000	0.015667
1451.000000	0.015735
1450.000000	0.015741
1449.000000	0.015707
1448.000000	0.015657
1447.000000	0.015608
1446.000000	0.015574
1445.000000	0.015553
1444.000000	0.015529
1443.000000	0.015490
1442.000000	0.015424
1441.000000	0.015336
1440.000000	0.015257
1439.000000	0.015205
1438.000000	0.015141
1437.000000	0.014996
1436.000000	0.014776
1435.000000	0.014546
1434.000000	0.014359
1433.000000	0.014228
1432.000000	0.014124
1431.000000	0.014004
1430.000000	0.013871
1429.000000	0.013760
1428.000000	0.013692
1427.000000	0.013651
1426.000000	0.013617
1425.000000	0.013573
1424.000000	0.013522
1423.000000	0.013498
1422.000000	0.013527
1421.000000	0.013590
1420.000000	0.013618
1419.000000	0.013580
1418.000000	0.013518
1417.000000	0.013468
1416.000000	0.013444
1415.000000	0.013441
1414.000000	0.013439
1413.000000	0.013432
1412.000000	0.013430
1411.000000	0.013441
1410.000000	0.013458
1409.000000	0.013482
1408.000000	0.013519
1407.000000	0.013563
1406.000000	0.013600
1405.000000	0.013622
1404.000000	0.013637
1403.000000	0.013657
1402.000000	0.013680
1401.000000	0.013693
1400.000000	0.013679
1399.000000	0.013642
1398.000000	0.013604
1397.000000	0.013568
1396.000000	0.013512
1395.000000	0.013412
1394.000000	0.013279
1393.000000	0.013143
1392.000000	0.013020
1391.000000	0.012915
1390.000000	0.012818
1389.000000	0.012709
1388.000000	0.012567
1387.000000	0.012399
1386.000000	0.012224
1385.000000	0.012047
1384.000000	0.011871
1383.000000	0.011697
1382.000000	0.011531
1381.000000	0.011377
1380.000000	0.011232
1379.000000	0.011086
1378.000000	0.010934
1377.000000	0.010768
1376.000000	0.010577
1375.000000	0.010367
1374.000000	0.010162
1373.000000	0.009980
1372.000000	0.009810
1371.000000	0.009635
1370.000000	0.009450
1369.000000	0.009244
1368.000000	0.009010
1367.000000	0.008763
1366.000000	0.008540
1365.000000	0.008369
1364.000000	0.008238
1363.000000	0.008121
1362.000000	0.008009
1361.000000	0.007925
1360.000000	0.007887
1359.000000	0.007884
1358.000000	0.007886
1357.000000	0.007882
1356.000000	0.007888
1355.000000	0.007930
1354.000000	0.008014
1353.000000	0.008123
1352.000000	0.008240
1351.000000	0.008368
1350.000000	0.008519
1349.000000	0.008701
1348.000000	0.008899
1347.000000	0.009095
1346.000000	0.009281
1345.000000	0.009456
1344.000000	0.009625
1343.000000	0.009790
1342.000000	0.009957
1341.000000	0.010128
1340.000000	0.010293
1339.000000	0.010434
1338.000000	0.010531
1337.000000	0.010581
1336.000000	0.010594
1335.000000	0.010582
1334.000000	0.010553
1333.000000	0.010508
1332.000000	0.010448
1331.000000	0.010376
1330.000000	0.010300
1329.000000	0.010229
1328.000000	0.010160
1327.000000	0.010087
1326.000000	0.010011
1325.000000	0.009943
1324.000000	0.009891
1323.000000	0.009858
1322.000000	0.009844
1321.000000	0.009838
1320.000000	0.009829
1319.000000	0.009811
1318.000000	0.009790
1317.000000	0.009777
1316.000000	0.009770
1315.000000	0.009755
1314.000000	0.009723
1313.000000	0.009677
1312.000000	0.009621
1311.000000	0.009559
1310.000000	0.009491
1309.000000	0.009425
1308.000000	0.009365
1307.000000	0.009310
1306.000000	0.009249
1305.000000	0.009180
1304.000000	0.009107
1303.000000	0.009034
1302.000000	0.008965
1301.000000	0.008907
1300.000000	0.008860
1299.000000	0.008821
1298.000000	0.008785
1297.000000	0.008755
1296.000000	0.008742
1295.000000	0.008751
1294.000000	0.008776
1293.000000	0.008815
1292.000000	0.008872
1291.000000	0.008949
1290.000000	0.009039
1289.000000	0.009131
1288.000000	0.009216
1287.000000	0.009293
1286.000000	0.009366
1285.000000	0.009441
1284.000000	0.009518
1283.000000	0.009585
1282.000000	0.009626
1281.000000	0.009645
1280.000000	0.009658
1279.000000	0.009679
1278.000000	0.009701
1277.000000	0.009707
1276.000000	0.009687
1275.000000	0.009646
1274.000000	0.009598
1273.000000	0.009558
1272.000000	0.009535
1271.000000	0.009530
1270.000000	0.009537
1269.000000	0.009550
1268.000000	0.009573
1267.000000	0.009611
1266.000000	0.009662
1265.000000	0.009713
1264.000000	0.009752
1263.000000	0.009777
1262.000000	0.009800
1261.000000	0.009839
1260.000000	0.009902
1259.000000	0.009985
1258.000000	0.010076
1257.000000	0.010174
1256.000000	0.010285
1255.000000	0.010412
1254.000000	0.010552
1253.000000	0.010696
1252.000000	0.010841
1251.000000	0.010987
1250.000000	0.011132
1249.000000	0.011273
1248.000000	0.011401
1247.000000	0.011512
1246.000000	0.011613
1245.000000	0.011716
1244.000000	0.011832
1243.000000	0.011958
1242.000000	0.012084
1241.000000	0.012196
1240.000000	0.012269
1239.000000	0.012282
1238.000000	0.012230
1237.000000	0.012131
1236.000000	0.012012
1235.000000	0.011883
1234.000000	0.011740
1233.000000	0.011578
1232.000000	0.011403
1231.000000	0.011221
1230.000000	0.011035
1229.000000	0.010837
1228.000000	0.010623
1227.000000	0.010395
1226.000000	0.010156
1225.000000	0.009901
1224.000000	0.009619
1223.000000	0.009303
1222.000000	0.008952
1221.000000	0.008569
1220.000000	0.008172
1219.000000	0.007805
1218.000000	0.007533
1217.000000	0.007406
1216.000000	0.007428
1215.000000	0.007547
1214.000000	0.007697
1213.000000	0.007837
1212.000000	0.007964
1211.000000	0.008085
1210.000000	0.008201
1209.000000	0.008307
1208.000000	0.008403
1207.000000	0.008494
1206.000000	0.008583
1205.000000	0.008664
1204.000000	0.008729
1203.000000	0.008770
1202.000000	0.008788
1201.000000	0.008787
1200.000000	0.008772
1199.000000	0.008748
1198.000000	0.008717
1197.000000	0.008671
1196.000000	0.008600
1195.000000	0.008500
1194.000000	0.008386
1193.000000	0.008282
1192.000000	0.008205
1191.000000	0.008145
1190.000000	0.008081
1189.000000	0.008000
1188.000000	0.007904
1187.000000	0.007801
1186.000000	0.007703
1185.000000	0.007622
1184.000000	0.007570
1183.000000	0.007545
1182.000000	0.007535
1181.000000	0.007531
1180.000000	0.007536
1179.000000	0.007554
1178.000000	0.007579
1177.000000	0.007601
1176.000000	0.007617
1175.000000	0.007630
1174.000000	0.007640
1173.000000	0.007649
1172.000000	0.007663
1171.000000	0.007689
1170.000000	0.007726
1169.000000	0.007766
1168.000000	0.007806
1167.000000	0.007843
1166.000000	0.007883
1165.000000	0.007931
1164.000000	0.007986
1163.000000	0.008036
1162.000000	0.008059
1161.000000	0.008046
1160.000000	0.008005
1159.000000	0.007949
1158.000000	0.007881
1157.000000	0.007793
1156.000000	0.007685
1155.000000	0.007566
1154.000000	0.007448
1153.000000	0.007336
1152.000000	0.007232
1151.000000	0.007131
1150.000000	0.007027
1149.000000	0.006918
1148.000000	0.006811
1147.000000	0.006708
1146.000000	0.006609
1145.000000	0.006507
1144.000000	0.006409
1143.000000	0.006326
1142.000000	0.006256
1141.000000	0.006178
1140.000000	0.006072
1139.000000	0.005943
1138.000000	0.005819
1137.000000	0.005723
1136.000000	0.005655
1135.000000	0.005607
1134.000000	0.005569
1133.000000	0.005537
1132.000000	0.005505
1131.000000	0.005468
1130.000000	0.005427
1129.000000	0.005395
1128.000000	0.005383
1127.000000	0.005385
1126.000000	0.005385
1125.000000	0.005378
1124.000000	0.005368
1123.000000	0.005363
1122.000000	0.005362
1121.000000	0.005366
1120.000000	0.005376
1119.000000	0.005393
1118.000000	0.005413
1117.000000	0.005434
1116.000000	0.005459
1115.000000	0.005481
1114.000000	0.005483
1113.000000	0.005465
1112.000000	0.005447
1111.000000	0.005449
1110.000000	0.005462
1109.000000	0.005471
1108.000000	0.005476
1107.000000	0.005494
1106.000000	0.005529
1105.000000	0.005572
1104.000000	0.005615
1103.000000	0.005656
1102.000000	0.005688
1101.000000	0.005702
1100.000000	0.005704
1099.000000	0.005715
1098.000000	0.005744
1097.000000	0.005769
1096.000000	0.005768
1095.000000	0.005741
1094.000000	0.005720
1093.000000	0.005739
1092.000000	0.005816
1091.000000	0.005944
1090.000000	0.006103
1089.000000	0.006267
1088.000000	0.006424
1087.000000	0.006580
1086.000000	0.006738
1085.000000	0.006887
1084.000000	0.007008
1083.000000	0.007085
1082.000000	0.007119
1081.000000	0.007118
1080.000000	0.007085
1079.000000	0.007017
1078.000000	0.006919
1077.000000	0.006803
1076.000000	0.006688
1075.000000	0.006584
1074.000000	0.006495
1073.000000	0.006415
1072.000000	0.006338
1071.000000	0.006264
1070.000000	0.006207
1069.000000	0.006179
1068.000000	0.006189
1067.000000	0.006229
1066.000000	0.006283
1065.000000	0.006330
1064.000000	0.006359
1063.000000	0.006367
1062.000000	0.006359
1061.000000	0.006342
1060.000000	0.006319
1059.000000	0.006290
1058.000000	0.006251
1057.000000	0.006202
1056.000000	0.006147
1055.000000	0.006095
1054.000000	0.006057
1053.000000	0.006037
1052.000000	0.006027
1051.000000	0.006003
1050.000000	0.005947
1049.000000	0.005864
1048.000000	0.005782
1047.000000	0.005725
1046.000000	0.005696
1045.000000	0.005689
1044.000000	0.005700
1043.000000	0.005723
1042.000000	0.005743
1041.000000	0.005754
1040.000000	0.005767
1039.000000	0.005803
1038.000000	0.005870
1037.000000	0.005955
1036.000000	0.006049
1035.000000	0.006149
1034.000000	0.006251
1033.000000	0.006345
1032.000000	0.006408
1031.000000	0.006424
1030.000000	0.006392
1029.000000	0.006328
1028.000000	0.006257
1027.000000	0.006194
1026.000000	0.006132
1025.000000	0.006058
1024.000000	0.005974
1023.000000	0.005893
1022.000000	0.005823
1021.000000	0.005755
1020.000000	0.005677
1019.000000	0.005592
1018.000000	0.005509
1017.000000	0.005435
1016.000000	0.005369
1015.000000	0.005310
1014.000000	0.005253
1013.000000	0.005191
1012.000000	0.005111
1011.000000	0.005011
1010.000000	0.004906
1009.000000	0.004820
1008.000000	0.004757
1007.000000	0.004701
1006.000000	0.004627
1005.000000	0.004535
1004.000000	0.004445
1003.000000	0.004371
1002.000000	0.004301
1001.000000	0.004216
1000.000000	0.004114
999.000000	0.004013
998.000000	0.003930
997.000000	0.003870
996.000000	0.003837
995.000000	0.003824
994.000000	0.003808
993.000000	0.003760
992.000000	0.003670
991.000000	0.003559
990.000000	0.003460
989.000000	0.003397
988.000000	0.003376
987.000000	0.003379
986.000000	0.003368
985.000000	0.003308
984.000000	0.003208
983.000000	0.003121
982.000000	0.003091
981.000000	0.003121
980.000000	0.003178
979.000000	0.003228
978.000000	0.003259
977.000000	0.003272
976.000000	0.003273
975.000000	0.003265
974.000000	0.003246
973.000000	0.003215
972.000000	0.003175
971.000000	0.003134
970.000000	0.003093
969.000000	0.003050
968.000000	0.003005
967.000000	0.002966
966.000000	0.002934
965.000000	0.002904
964.000000	0.002875
963.000000	0.002853
962.000000	0.002834
961.000000	0.002799
960.000000	0.002734
959.000000	0.002646
958.000000	0.002562
957.000000	0.002500
956.000000	0.002462
955.000000	0.002443
954.000000	0.002425
953.000000	0.002394
952.000000	0.002343
951.000000	0.002285
950.000000	0.002245
949.000000	0.002231
948.000000	0.002239
947.000000	0.002257
946.000000	0.002278
945.000000	0.002299
944.000000	0.002321
943.000000	0.002343
942.000000	0.002357
941.000000	0.002344
940.000000	0.002293
939.000000	0.002217
938.000000	0.002150
937.000000	0.002116
936.000000	0.002119
935.000000	0.002139
934.000000	0.002156
933.000000	0.002154
932.000000	0.002131
931.000000	0.002092
930.000000	0.002050
929.000000	0.002022
928.000000	0.002018
927.000000	0.002032
926.000000	0.002046
925.000000	0.002043
924.000000	0.002023
923.000000	0.002001
922.000000	0.001980
921.000000	0.001952
920.000000	0.001902
919.000000	0.001827
918.000000	0.001738
917.000000	0.001656
916.000000	0.001607
915.000000	0.001602
914.000000	0.001623
913.000000	0.001632
912.000000	0.001606
911.000000	0.001558
910.000000	0.001501
909.000000	0.001429
908.000000	0.001335
907.000000	0.001240
906.000000	0.001194
905.000000	0.001223
904.000000	0.001302
903.000000	0.001376
902.000000	0.001404
901.000000	0.001380
900.000000	0.001325
899.000000	0.001276
898.000000	0.001257
897.000000	0.001266
896.000000	0.001286
895.000000	0.001295
894.000000	0.001289
893.000000	0.001273
892.000000	0.001253
891.000000	0.001236
890.000000	0.001224
889.000000	0.001214
888.000000	0.001197
887.000000	0.001181
886.000000	0.001199
885.000000	0.001290
884.000000	0.001466
883.000000	0.001708
882.000000	0.001981
881.000000	0.002264
880.000000	0.002548
879.000000	0.002827
878.000000	0.003088
877.000000	0.003312
876.000000	0.003476
875.000000	0.003547
874.000000	0.003494
873.000000	0.003308
872.000000	0.003021
871.000000	0.002699
870.000000	0.002409
869.000000	0.002192
868.000000	0.002050
867.000000	0.001964
866.000000	0.001906
865.000000	0.001857
864.000000	0.001809
863.000000	0.001761
862.000000	0.001726
861.000000	0.001714
860.000000	0.001726
859.000000	0.001744
858.000000	0.001746
857.000000	0.001724
856.000000	0.001687
855.000000	0.001651
854.000000	0.001630
853.000000	0.001637
852.000000	0.001683
851.000000	0.001761
850.000000	0.001831
849.000000	0.001844
848.000000	0.001784
847.000000	0.001681
846.000000	0.001584
845.000000	0.001515
844.000000	0.001469
843.000000	0.001441
842.000000	0.001436
841.000000	0.001453
840.000000	0.001467
839.000000	0.001451
838.000000	0.001396
837.000000	0.001318
836.000000	0.001245
835.000000	0.001196
834.000000	0.001182
833.000000	0.001204
832.000000	0.001246
831.000000	0.001271
830.000000	0.001253
829.000000	0.001206
828.000000	0.001184
827.000000	0.001215
826.000000	0.001269
825.000000	0.001288
824.000000	0.001264
823.000000	0.001248
822.000000	0.001284
821.000000	0.001348
820.000000	0.001381
819.000000	0.001354
818.000000	0.001303
817.000000	0.001286
816.000000	0.001334
815.000000	0.001430
814.000000	0.001516
813.000000	0.001540
812.000000	0.001492
811.000000	0.001411
810.000000	0.001351
809.000000	0.001331
808.000000	0.001329
807.000000	0.001317
806.000000	0.001285
805.000000	0.001240
804.000000	0.001196
803.000000	0.001176
802.000000	0.001195
801.000000	0.001240
800.000000	0.001283
799.000000	0.001315
798.000000	0.001360
797.000000	0.001425
796.000000	0.001485
795.000000	0.001506
794.000000	0.001495
793.000000	0.001483
792.000000	0.001486
791.000000	0.001499
790.000000	0.001519
789.000000	0.001543
788.000000	0.001553
787.000000	0.001526
786.000000	0.001477
785.000000	0.001458
784.000000	0.001508
783.000000	0.001609
782.000000	0.001712
781.000000	0.001784
780.000000	0.001813
779.000000	0.001791
778.000000	0.001726
777.000000	0.001654
776.000000	0.001615
775.000000	0.001618
774.000000	0.001633
773.000000	0.001633
772.000000	0.001616
771.000000	0.001608
770.000000	0.001632
769.000000	0.001699
768.000000	0.001797
767.000000	0.001898
766.000000	0.001972
765.000000	0.002004
764.000000	0.001998
763.000000	0.001973
762.000000	0.001948
761.000000	0.001944
760.000000	0.001970
759.000000	0.002019
758.000000	0.002074
757.000000	0.002126
756.000000	0.002173
755.000000	0.002206
754.000000	0.002213
753.000000	0.002200
752.000000	0.002192
751.000000	0.002220
750.000000	0.002290
749.000000	0.002372
748.000000	0.002418
747.000000	0.002409
746.000000	0.002371
745.000000	0.002356
744.000000	0.002394
743.000000	0.002466
742.000000	0.002523
741.000000	0.002538
740.000000	0.002532
739.000000	0.002551
738.000000	0.002622
737.000000	0.002721
736.000000	0.002803
735.000000	0.002843
734.000000	0.002861
733.000000	0.002898
732.000000	0.002966
731.000000	0.003048
730.000000	0.003130
729.000000	0.003213
728.000000	0.003297
727.000000	0.003363
726.000000	0.003406
725.000000	0.003451
724.000000	0.003525
723.000000	0.003620
722.000000	0.003700
721.000000	0.003744
720.000000	0.003767
719.000000	0.003800
718.000000	0.003866
717.000000	0.003970
716.000000	0.004089
715.000000	0.004190
714.000000	0.004250
713.000000	0.004275
712.000000	0.004287
711.000000	0.004293
710.000000	0.004284
709.000000	0.004263
708.000000	0.004249
707.000000	0.004260
706.000000	0.004305
705.000000	0.004387
704.000000	0.004501
703.000000	0.004610
702.000000	0.004661
701.000000	0.004631
700.000000	0.004546
699.000000	0.004464
698.000000	0.004428
697.000000	0.004454
696.000000	0.004531
695.000000	0.004627
694.000000	0.004705
693.000000	0.004741
692.000000	0.004742
691.000000	0.004727
690.000000	0.004714
689.000000	0.004720
688.000000	0.004765
687.000000	0.004845
686.000000	0.004927
685.000000	0.004974
684.000000	0.004995
683.000000	0.005031
682.000000	0.005098
681.000000	0.005167
680.000000	0.005195
679.000000	0.005172
678.000000	0.005126
677.000000	0.005101
676.000000	0.005124
675.000000	0.005183
674.000000	0.005253
673.000000	0.005320
672.000000	0.005380
671.000000	0.005411
670.000000	0.005357
669.000000	0.005189
668.000000	0.005052
667.000000	0.005167
666.000000	0.005380
665.000000	0.005541
664.000000	0.005643
663.000000	0.005696
662.000000	0.005735
661.000000	0.005800
660.000000	0.005890
659.000000	0.005953
658.000000	0.005951
657.000000	0.005916
656.000000	0.005902
655.000000	0.005926
654.000000	0.005963
653.000000	0.005993
652.000000	0.005999
651.000000	0.005969
650.000000	0.005907
649.000000	0.005856
648.000000	0.005862
647.000000	0.005926
646.000000	0.006012
645.000000	0.006077
644.000000	0.006100
643.000000	0.006086
642.000000	0.006045
641.000000	0.005992
640.000000	0.005950
639.000000	0.005957
638.000000	0.006034
637.000000	0.006150
636.000000	0.006221
635.000000	0.006196
634.000000	0.006120
633.000000	0.006073
632.000000	0.006072
631.000000	0.006056
630.000000	0.005985
629.000000	0.005903
628.000000	0.005882
627.000000	0.005936
626.000000	0.006027
625.000000	0.006121
624.000000	0.006203
623.000000	0.006249
622.000000	0.006229
621.000000	0.006146
620.000000	0.006044
619.000000	0.005981
618.000000	0.005989
617.000000	0.006070
616.000000	0.006196
615.000000	0.006317
614.000000	0.006375
613.000000	0.006338
612.000000	0.006235
611.000000	0.006134
610.000000	0.006091
609.000000	0.006103
608.000000	0.006123
607.000000	0.006121
606.000000	0.006108
605.000000	0.006099
604.000000	0.006082
603.000000	0.006045
602.000000	0.006005
601.000000	0.005990
600.000000	0.006005
599.000000	0.006040
598.000000	0.006098
597.000000	0.006183
596.000000	0.006278
595.000000	0.006355
594.000000	0.006409
593.000000	0.006451
592.000000	0.006468
591.000000	0.006436
590.000000	0.006355
589.000000	0.006249
588.000000	0.006132
587.000000	0.006013
586.000000	0.005936
585.000000	0.005958
584.000000	0.006082
583.000000	0.006235
582.000000	0.006336
581.000000	0.006362
580.000000	0.006332
579.000000	0.006271
578.000000	0.006212
577.000000	0.006187
576.000000	0.006206
575.000000	0.006253
574.000000	0.006314
573.000000	0.006394
572.000000	0.006481
571.000000	0.006528
570.000000	0.006504
569.000000	0.006445
568.000000	0.006438
567.000000	0.006541
566.000000	0.006743
565.000000	0.006981
564.000000	0.007168
563.000000	0.007240
562.000000	0.007192
561.000000	0.007069
560.000000	0.006918
559.000000	0.006765
558.000000	0.006643
557.000000	0.006595
556.000000	0.006632
555.000000	0.006704
554.000000	0.006739
553.000000	0.006692
552.000000	0.006551
551.000000	0.006332
550.000000	0.006102
549.000000	0.005952
548.000000	0.005917
547.000000	0.005939
546.000000	0.005942
545.000000	0.005912
544.000000	0.005886
543.000000	0.005892
542.000000	0.005923
541.000000	0.005961
540.000000	0.005998
539.000000	0.006032
538.000000	0.006070
537.000000	0.006126
536.000000	0.006208
535.000000	0.006313
534.000000	0.006431
533.000000	0.006534
532.000000	0.006548
531.000000	0.006391
530.000000	0.006076
529.000000	0.005730
528.000000	0.005487
527.000000	0.005406
526.000000	0.005482
525.000000	0.005684
524.000000	0.005943
523.000000	0.006144
522.000000	0.006187
521.000000	0.006048
520.000000	0.005785
519.000000	0.005489
518.000000	0.005227
517.000000	0.005028
516.000000	0.004878
515.000000	0.004757
514.000000	0.004665
513.000000	0.004615
512.000000	0.004582
511.000000	0.004523
510.000000	0.004446
509.000000	0.004413
508.000000	0.004441
507.000000	0.004434
506.000000	0.004293
505.000000	0.004074
504.000000	0.003951
503.000000	0.004052
502.000000	0.004311
501.000000	0.004514
500.000000	0.004516
499.000000	0.004371
498.000000	0.004269
497.000000	0.004338
496.000000	0.004528
495.000000	0.004686
494.000000	0.004726
493.000000	0.004679
492.000000	0.004591
491.000000	0.004469
490.000000	0.004319
489.000000	0.004177
488.000000	0.004048
487.000000	0.003904
486.000000	0.003756
485.000000	0.003666
484.000000	0.003645
483.000000	0.003607
482.000000	0.003495
481.000000	0.003366
480.000000	0.003291
479.000000	0.003267
478.000000	0.003257
477.000000	0.003253
476.000000	0.003209
475.000000	0.003026
474.000000	0.002701
473.000000	0.002437
472.000000	0.002443
471.000000	0.002634
470.000000	0.002751
469.000000	0.002724
468.000000	0.002707
467.000000	0.002824
466.000000	0.003009
465.000000	0.003120
464.000000	0.003102
463.000000	0.002989
462.000000	0.002874
461.000000	0.002878
460.000000	0.003022
459.000000	0.003108
458.000000	0.002822
457.000000	0.002114
456.000000	0.001317
455.000000	0.000760
454.000000	0.000539
453.000000	0.000531
452.000000	0.000827
451.000000	0.001248
450.000000	0.001633
