PE IR       SUBTECH     SPECTRUM    ASCII       PEDS        4.00        
   -1
3S-N10-C032_1.ASC
22/02/18
14:47:27.00
22/02/18
14:55:43.00
uco
Sample 032 By uco Date Friday, February 18 2022
450.000000
#HDR
-1
-1
#GR
cm-1
A
1.0
0.0
4000.000000
-1.000000
3551
8
0.032560
0.002794
#DATA
4000.000000	0.002981
3999.000000	0.003019
3998.000000	0.003054
3997.000000	0.003074
3996.000000	0.003074
3995.000000	0.003056
3994.000000	0.003079
3993.000000	0.003065
3992.000000	0.003063
3991.000000	0.003070
3990.000000	0.003081
3989.000000	0.003093
3988.000000	0.003108
3987.000000	0.003125
3986.000000	0.003139
3985.000000	0.003143
3984.000000	0.003133
3983.000000	0.003114
3982.000000	0.003094
3981.000000	0.003077
3980.000000	0.003063
3979.000000	0.003050
3978.000000	0.003040
3977.000000	0.003040
3976.000000	0.003049
3975.000000	0.003065
3974.000000	0.003079
3973.000000	0.003088
3972.000000	0.003092
3971.000000	0.003095
3970.000000	0.003098
3969.000000	0.003101
3968.000000	0.003102
3967.000000	0.003105
3966.000000	0.003110
3965.000000	0.003116
3964.000000	0.003120
3963.000000	0.003124
3962.000000	0.003130
3961.000000	0.003141
3960.000000	0.003153
3959.000000	0.003162
3958.000000	0.003170
3957.000000	0.003182
3956.000000	0.003195
3955.000000	0.003203
3954.000000	0.003199
3953.000000	0.003186
3952.000000	0.003173
3951.000000	0.003166
3950.000000	0.003166
3949.000000	0.003171
3948.000000	0.003177
3947.000000	0.003183
3946.000000	0.003188
3945.000000	0.003191
3944.000000	0.003192
3943.000000	0.003189
3942.000000	0.003182
3941.000000	0.003171
3940.000000	0.003159
3939.000000	0.003152
3938.000000	0.003154
3937.000000	0.003161
3936.000000	0.003167
3935.000000	0.003170
3934.000000	0.003168
3933.000000	0.003162
3932.000000	0.003153
3931.000000	0.003144
3930.000000	0.003140
3929.000000	0.003145
3928.000000	0.003156
3927.000000	0.003165
3926.000000	0.003164
3925.000000	0.003154
3924.000000	0.003143
3923.000000	0.003141
3922.000000	0.003152
3921.000000	0.003172
3920.000000	0.003189
3919.000000	0.003194
3918.000000	0.003185
3917.000000	0.003173
3916.000000	0.003163
3915.000000	0.003153
3914.000000	0.003141
3913.000000	0.003133
3912.000000	0.003136
3911.000000	0.003150
3910.000000	0.003171
3909.000000	0.003194
3908.000000	0.003217
3907.000000	0.003239
3906.000000	0.003250
3905.000000	0.003239
3904.000000	0.003205
3903.000000	0.003166
3902.000000	0.003146
3901.000000	0.003155
3900.000000	0.003181
3899.000000	0.003201
3898.000000	0.003201
3897.000000	0.003184
3896.000000	0.003163
3895.000000	0.003151
3894.000000	0.003155
3893.000000	0.003174
3892.000000	0.003202
3891.000000	0.003230
3890.000000	0.003248
3889.000000	0.003250
3888.000000	0.003239
3887.000000	0.003220
3886.000000	0.003205
3885.000000	0.003197
3884.000000	0.003191
3883.000000	0.003187
3882.000000	0.003194
3881.000000	0.003217
3880.000000	0.003251
3879.000000	0.003279
3878.000000	0.003289
3877.000000	0.003278
3876.000000	0.003257
3875.000000	0.003241
3874.000000	0.003233
3873.000000	0.003226
3872.000000	0.003206
3871.000000	0.003178
3870.000000	0.003159
3869.000000	0.003162
3868.000000	0.003180
3867.000000	0.003202
3866.000000	0.003227
3865.000000	0.003252
3864.000000	0.003263
3863.000000	0.003250
3862.000000	0.003222
3861.000000	0.003201
3860.000000	0.003206
3859.000000	0.003241
3858.000000	0.003297
3857.000000	0.003360
3856.000000	0.003405
3855.000000	0.003411
3854.000000	0.003366
3853.000000	0.003294
3852.000000	0.003229
3851.000000	0.003185
3850.000000	0.003161
3849.000000	0.003154
3848.000000	0.003158
3847.000000	0.003161
3846.000000	0.003159
3845.000000	0.003154
3844.000000	0.003151
3843.000000	0.003151
3842.000000	0.003151
3841.000000	0.003147
3840.000000	0.003148
3839.000000	0.003167
3838.000000	0.003202
3837.000000	0.003239
3836.000000	0.003255
3835.000000	0.003244
3834.000000	0.003213
3833.000000	0.003177
3832.000000	0.003151
3831.000000	0.003141
3830.000000	0.003143
3829.000000	0.003155
3828.000000	0.003175
3827.000000	0.003202
3826.000000	0.003230
3825.000000	0.003250
3824.000000	0.003249
3823.000000	0.003229
3822.000000	0.003204
3821.000000	0.003196
3820.000000	0.003197
3819.000000	0.003187
3818.000000	0.003159
3817.000000	0.003129
3816.000000	0.003120
3815.000000	0.003140
3814.000000	0.003172
3813.000000	0.003202
3812.000000	0.003222
3811.000000	0.003229
3810.000000	0.003217
3809.000000	0.003193
3808.000000	0.003170
3807.000000	0.003161
3806.000000	0.003160
3805.000000	0.003157
3804.000000	0.003158
3803.000000	0.003182
3802.000000	0.003242
3801.000000	0.003311
3800.000000	0.003347
3799.000000	0.003337
3798.000000	0.003302
3797.000000	0.003268
3796.000000	0.003246
3795.000000	0.003233
3794.000000	0.003220
3793.000000	0.003207
3792.000000	0.003198
3791.000000	0.003191
3790.000000	0.003185
3789.000000	0.003181
3788.000000	0.003184
3787.000000	0.003194
3786.000000	0.003206
3785.000000	0.003214
3784.000000	0.003214
3783.000000	0.003208
3782.000000	0.003197
3781.000000	0.003186
3780.000000	0.003177
3779.000000	0.003169
3778.000000	0.003162
3777.000000	0.003157
3776.000000	0.003157
3775.000000	0.003164
3774.000000	0.003172
3773.000000	0.003175
3772.000000	0.003176
3771.000000	0.003187
3770.000000	0.003213
3769.000000	0.003238
3768.000000	0.003238
3767.000000	0.003206
3766.000000	0.003159
3765.000000	0.003119
3764.000000	0.003093
3763.000000	0.003077
3762.000000	0.003065
3761.000000	0.003062
3760.000000	0.003067
3759.000000	0.003073
3758.000000	0.003076
3757.000000	0.003080
3756.000000	0.003082
3755.000000	0.003079
3754.000000	0.003068
3753.000000	0.003055
3752.000000	0.003052
3751.000000	0.003067
3750.000000	0.003096
3749.000000	0.003131
3748.000000	0.003164
3747.000000	0.003184
3746.000000	0.003191
3745.000000	0.003197
3744.000000	0.003208
3743.000000	0.003209
3742.000000	0.003188
3741.000000	0.003152
3740.000000	0.003118
3739.000000	0.003088
3738.000000	0.003059
3737.000000	0.003028
3736.000000	0.002998
3735.000000	0.002974
3734.000000	0.002962
3733.000000	0.002969
3732.000000	0.002996
3731.000000	0.003030
3730.000000	0.003052
3729.000000	0.003051
3728.000000	0.003029
3727.000000	0.002999
3726.000000	0.002974
3725.000000	0.002964
3724.000000	0.002976
3723.000000	0.003011
3722.000000	0.003052
3721.000000	0.003080
3720.000000	0.003085
3719.000000	0.003069
3718.000000	0.003046
3717.000000	0.003028
3716.000000	0.003017
3715.000000	0.003014
3714.000000	0.003024
3713.000000	0.003054
3712.000000	0.003100
3711.000000	0.003136
3710.000000	0.003141
3709.000000	0.003116
3708.000000	0.003077
3707.000000	0.003040
3706.000000	0.003014
3705.000000	0.003006
3704.000000	0.003014
3703.000000	0.003039
3702.000000	0.003073
3701.000000	0.003102
3700.000000	0.003112
3699.000000	0.003100
3698.000000	0.003073
3697.000000	0.003050
3696.000000	0.003046
3695.000000	0.003063
3694.000000	0.003090
3693.000000	0.003113
3692.000000	0.003119
3691.000000	0.003099
3690.000000	0.003059
3689.000000	0.003020
3688.000000	0.003003
3687.000000	0.003008
3686.000000	0.003021
3685.000000	0.003030
3684.000000	0.003032
3683.000000	0.003023
3682.000000	0.003006
3681.000000	0.002991
3680.000000	0.002994
3679.000000	0.003021
3678.000000	0.003065
3677.000000	0.003122
3676.000000	0.003187
3675.000000	0.003236
3674.000000	0.003243
3673.000000	0.003204
3672.000000	0.003140
3671.000000	0.003088
3670.000000	0.003073
3669.000000	0.003086
3668.000000	0.003102
3667.000000	0.003111
3666.000000	0.003120
3665.000000	0.003136
3664.000000	0.003157
3663.000000	0.003176
3662.000000	0.003183
3661.000000	0.003177
3660.000000	0.003167
3659.000000	0.003162
3658.000000	0.003170
3657.000000	0.003186
3656.000000	0.003199
3655.000000	0.003202
3654.000000	0.003197
3653.000000	0.003191
3652.000000	0.003188
3651.000000	0.003190
3650.000000	0.003190
3649.000000	0.003184
3648.000000	0.003177
3647.000000	0.003175
3646.000000	0.003182
3645.000000	0.003202
3644.000000	0.003233
3643.000000	0.003270
3642.000000	0.003308
3641.000000	0.003343
3640.000000	0.003378
3639.000000	0.003412
3638.000000	0.003443
3637.000000	0.003462
3636.000000	0.003466
3635.000000	0.003457
3634.000000	0.003439
3633.000000	0.003419
3632.000000	0.003401
3631.000000	0.003398
3630.000000	0.003427
3629.000000	0.003494
3628.000000	0.003569
3627.000000	0.003618
3626.000000	0.003637
3625.000000	0.003641
3624.000000	0.003647
3623.000000	0.003661
3622.000000	0.003680
3621.000000	0.003696
3620.000000	0.003710
3619.000000	0.003729
3618.000000	0.003758
3617.000000	0.003789
3616.000000	0.003813
3615.000000	0.003827
3614.000000	0.003837
3613.000000	0.003850
3612.000000	0.003862
3611.000000	0.003870
3610.000000	0.003878
3609.000000	0.003901
3608.000000	0.003944
3607.000000	0.003993
3606.000000	0.004035
3605.000000	0.004064
3604.000000	0.004085
3603.000000	0.004106
3602.000000	0.004132
3601.000000	0.004164
3600.000000	0.004193
3599.000000	0.004212
3598.000000	0.004223
3597.000000	0.004235
3596.000000	0.004251
3595.000000	0.004271
3594.000000	0.004292
3593.000000	0.004316
3592.000000	0.004349
3591.000000	0.004386
3590.000000	0.004420
3589.000000	0.004447
3588.000000	0.004477
3587.000000	0.004518
3586.000000	0.004567
3585.000000	0.004613
3584.000000	0.004652
3583.000000	0.004687
3582.000000	0.004726
3581.000000	0.004776
3580.000000	0.004830
3579.000000	0.004875
3578.000000	0.004899
3577.000000	0.004903
3576.000000	0.004907
3575.000000	0.004929
3574.000000	0.004971
3573.000000	0.005020
3572.000000	0.005058
3571.000000	0.005077
3570.000000	0.005084
3569.000000	0.005097
3568.000000	0.005134
3567.000000	0.005204
3566.000000	0.005289
3565.000000	0.005361
3564.000000	0.005401
3563.000000	0.005410
3562.000000	0.005403
3561.000000	0.005396
3560.000000	0.005404
3559.000000	0.005432
3558.000000	0.005476
3557.000000	0.005530
3556.000000	0.005584
3555.000000	0.005629
3554.000000	0.005660
3553.000000	0.005684
3552.000000	0.005714
3551.000000	0.005758
3550.000000	0.005811
3549.000000	0.005861
3548.000000	0.005899
3547.000000	0.005927
3546.000000	0.005955
3545.000000	0.005991
3544.000000	0.006033
3543.000000	0.006076
3542.000000	0.006121
3541.000000	0.006172
3540.000000	0.006225
3539.000000	0.006271
3538.000000	0.006299
3537.000000	0.006308
3536.000000	0.006307
3535.000000	0.006311
3534.000000	0.006330
3533.000000	0.006364
3532.000000	0.006409
3531.000000	0.006460
3530.000000	0.006519
3529.000000	0.006584
3528.000000	0.006649
3527.000000	0.006705
3526.000000	0.006744
3525.000000	0.006763
3524.000000	0.006769
3523.000000	0.006772
3522.000000	0.006781
3521.000000	0.006806
3520.000000	0.006850
3519.000000	0.006908
3518.000000	0.006969
3517.000000	0.007020
3516.000000	0.007052
3515.000000	0.007064
3514.000000	0.007067
3513.000000	0.007069
3512.000000	0.007078
3511.000000	0.007099
3510.000000	0.007131
3509.000000	0.007170
3508.000000	0.007209
3507.000000	0.007245
3506.000000	0.007282
3505.000000	0.007326
3504.000000	0.007376
3503.000000	0.007421
3502.000000	0.007449
3501.000000	0.007458
3500.000000	0.007457
3499.000000	0.007460
3498.000000	0.007476
3497.000000	0.007509
3496.000000	0.007551
3495.000000	0.007596
3494.000000	0.007643
3493.000000	0.007697
3492.000000	0.007757
3491.000000	0.007812
3490.000000	0.007851
3489.000000	0.007871
3488.000000	0.007881
3487.000000	0.007889
3486.000000	0.007903
3485.000000	0.007926
3484.000000	0.007962
3483.000000	0.008007
3482.000000	0.008048
3481.000000	0.008077
3480.000000	0.008097
3479.000000	0.008117
3478.000000	0.008144
3477.000000	0.008177
3476.000000	0.008208
3475.000000	0.008233
3474.000000	0.008248
3473.000000	0.008258
3472.000000	0.008273
3471.000000	0.008306
3470.000000	0.008358
3469.000000	0.008415
3468.000000	0.008461
3467.000000	0.008489
3466.000000	0.008504
3465.000000	0.008514
3464.000000	0.008525
3463.000000	0.008539
3462.000000	0.008556
3461.000000	0.008576
3460.000000	0.008598
3459.000000	0.008623
3458.000000	0.008652
3457.000000	0.008688
3456.000000	0.008729
3455.000000	0.008774
3454.000000	0.008818
3453.000000	0.008860
3452.000000	0.008893
3451.000000	0.008916
3450.000000	0.008925
3449.000000	0.008923
3448.000000	0.008915
3447.000000	0.008915
3446.000000	0.008935
3445.000000	0.008977
3444.000000	0.009030
3443.000000	0.009077
3442.000000	0.009109
3441.000000	0.009131
3440.000000	0.009151
3439.000000	0.009176
3438.000000	0.009205
3437.000000	0.009230
3436.000000	0.009248
3435.000000	0.009258
3434.000000	0.009271
3433.000000	0.009297
3432.000000	0.009342
3431.000000	0.009397
3430.000000	0.009447
3429.000000	0.009480
3428.000000	0.009499
3427.000000	0.009515
3426.000000	0.009534
3425.000000	0.009553
3424.000000	0.009562
3423.000000	0.009566
3422.000000	0.009581
3421.000000	0.009620
3420.000000	0.009678
3419.000000	0.009738
3418.000000	0.009793
3417.000000	0.009839
3416.000000	0.009876
3415.000000	0.009903
3414.000000	0.009921
3413.000000	0.009939
3412.000000	0.009965
3411.000000	0.010000
3410.000000	0.010040
3409.000000	0.010079
3408.000000	0.010112
3407.000000	0.010137
3406.000000	0.010158
3405.000000	0.010183
3404.000000	0.010213
3403.000000	0.010250
3402.000000	0.010291
3401.000000	0.010329
3400.000000	0.010355
3399.000000	0.010359
3398.000000	0.010346
3397.000000	0.010335
3396.000000	0.010349
3395.000000	0.010394
3394.000000	0.010454
3393.000000	0.010507
3392.000000	0.010534
3391.000000	0.010539
3390.000000	0.010541
3389.000000	0.010555
3388.000000	0.010578
3387.000000	0.010600
3386.000000	0.010614
3385.000000	0.010633
3384.000000	0.010671
3383.000000	0.010728
3382.000000	0.010789
3381.000000	0.010836
3380.000000	0.010865
3379.000000	0.010881
3378.000000	0.010895
3377.000000	0.010913
3376.000000	0.010940
3375.000000	0.010979
3374.000000	0.011027
3373.000000	0.011077
3372.000000	0.011118
3371.000000	0.011147
3370.000000	0.011172
3369.000000	0.011203
3368.000000	0.011247
3367.000000	0.011300
3366.000000	0.011359
3365.000000	0.011423
3364.000000	0.011492
3363.000000	0.011560
3362.000000	0.011614
3361.000000	0.011651
3360.000000	0.011677
3359.000000	0.011701
3358.000000	0.011732
3357.000000	0.011774
3356.000000	0.011828
3355.000000	0.011887
3354.000000	0.011940
3353.000000	0.011980
3352.000000	0.012014
3351.000000	0.012058
3350.000000	0.012116
3349.000000	0.012181
3348.000000	0.012237
3347.000000	0.012277
3346.000000	0.012304
3345.000000	0.012332
3344.000000	0.012370
3343.000000	0.012425
3342.000000	0.012490
3341.000000	0.012554
3340.000000	0.012609
3339.000000	0.012660
3338.000000	0.012718
3337.000000	0.012788
3336.000000	0.012864
3335.000000	0.012937
3334.000000	0.012998
3333.000000	0.013042
3332.000000	0.013072
3331.000000	0.013098
3330.000000	0.013134
3329.000000	0.013181
3328.000000	0.013226
3327.000000	0.013257
3326.000000	0.013274
3325.000000	0.013289
3324.000000	0.013315
3323.000000	0.013357
3322.000000	0.013406
3321.000000	0.013452
3320.000000	0.013491
3319.000000	0.013528
3318.000000	0.013566
3317.000000	0.013604
3316.000000	0.013635
3315.000000	0.013654
3314.000000	0.013665
3313.000000	0.013679
3312.000000	0.013702
3311.000000	0.013738
3310.000000	0.013782
3309.000000	0.013824
3308.000000	0.013854
3307.000000	0.013876
3306.000000	0.013905
3305.000000	0.013947
3304.000000	0.013993
3303.000000	0.014032
3302.000000	0.014060
3301.000000	0.014084
3300.000000	0.014105
3299.000000	0.014114
3298.000000	0.014110
3297.000000	0.014099
3296.000000	0.014094
3295.000000	0.014103
3294.000000	0.014120
3293.000000	0.014136
3292.000000	0.014148
3291.000000	0.014156
3290.000000	0.014163
3289.000000	0.014168
3288.000000	0.014165
3287.000000	0.014152
3286.000000	0.014135
3285.000000	0.014129
3284.000000	0.014147
3283.000000	0.014186
3282.000000	0.014229
3281.000000	0.014257
3280.000000	0.014259
3279.000000	0.014236
3278.000000	0.014196
3277.000000	0.014154
3276.000000	0.014125
3275.000000	0.014114
3274.000000	0.014114
3273.000000	0.014112
3272.000000	0.014105
3271.000000	0.014093
3270.000000	0.014083
3269.000000	0.014075
3268.000000	0.014067
3267.000000	0.014056
3266.000000	0.014040
3265.000000	0.014017
3264.000000	0.013986
3263.000000	0.013951
3262.000000	0.013915
3261.000000	0.013875
3260.000000	0.013829
3259.000000	0.013779
3258.000000	0.013733
3257.000000	0.013699
3256.000000	0.013676
3255.000000	0.013658
3254.000000	0.013634
3253.000000	0.013606
3252.000000	0.013576
3251.000000	0.013546
3250.000000	0.013515
3249.000000	0.013484
3248.000000	0.013458
3247.000000	0.013440
3246.000000	0.013426
3245.000000	0.013402
3244.000000	0.013368
3243.000000	0.013331
3242.000000	0.013298
3241.000000	0.013272
3240.000000	0.013246
3239.000000	0.013216
3238.000000	0.013179
3237.000000	0.013137
3236.000000	0.013093
3235.000000	0.013057
3234.000000	0.013037
3233.000000	0.013029
3232.000000	0.013023
3231.000000	0.013009
3230.000000	0.012983
3229.000000	0.012952
3228.000000	0.012926
3227.000000	0.012915
3226.000000	0.012922
3225.000000	0.012935
3224.000000	0.012938
3223.000000	0.012924
3222.000000	0.012892
3221.000000	0.012851
3220.000000	0.012807
3219.000000	0.012765
3218.000000	0.012733
3217.000000	0.012716
3216.000000	0.012711
3215.000000	0.012708
3214.000000	0.012701
3213.000000	0.012690
3212.000000	0.012680
3211.000000	0.012672
3210.000000	0.012657
3209.000000	0.012625
3208.000000	0.012576
3207.000000	0.012523
3206.000000	0.012482
3205.000000	0.012457
3204.000000	0.012431
3203.000000	0.012393
3202.000000	0.012350
3201.000000	0.012322
3200.000000	0.012317
3199.000000	0.012320
3198.000000	0.012315
3197.000000	0.012295
3196.000000	0.012270
3195.000000	0.012248
3194.000000	0.012230
3193.000000	0.012209
3192.000000	0.012177
3191.000000	0.012132
3190.000000	0.012079
3189.000000	0.012029
3188.000000	0.011991
3187.000000	0.011959
3186.000000	0.011926
3185.000000	0.011886
3184.000000	0.011847
3183.000000	0.011817
3182.000000	0.011800
3181.000000	0.011790
3180.000000	0.011781
3179.000000	0.011768
3178.000000	0.011749
3177.000000	0.011726
3176.000000	0.011703
3175.000000	0.011682
3174.000000	0.011660
3173.000000	0.011629
3172.000000	0.011583
3171.000000	0.011528
3170.000000	0.011475
3169.000000	0.011428
3168.000000	0.011380
3167.000000	0.011325
3166.000000	0.011268
3165.000000	0.011217
3164.000000	0.011177
3163.000000	0.011146
3162.000000	0.011116
3161.000000	0.011087
3160.000000	0.011060
3159.000000	0.011037
3158.000000	0.011016
3157.000000	0.010992
3156.000000	0.010960
3155.000000	0.010920
3154.000000	0.010878
3153.000000	0.010839
3152.000000	0.010803
3151.000000	0.010772
3150.000000	0.010748
3149.000000	0.010735
3148.000000	0.010729
3147.000000	0.010721
3146.000000	0.010704
3145.000000	0.010681
3144.000000	0.010658
3143.000000	0.010635
3142.000000	0.010607
3141.000000	0.010573
3140.000000	0.010538
3139.000000	0.010507
3138.000000	0.010478
3137.000000	0.010449
3136.000000	0.010418
3135.000000	0.010389
3134.000000	0.010368
3133.000000	0.010355
3132.000000	0.010345
3131.000000	0.010331
3130.000000	0.010314
3129.000000	0.010299
3128.000000	0.010290
3127.000000	0.010280
3126.000000	0.010261
3125.000000	0.010233
3124.000000	0.010204
3123.000000	0.010179
3122.000000	0.010157
3121.000000	0.010132
3120.000000	0.010104
3119.000000	0.010083
3118.000000	0.010076
3117.000000	0.010082
3116.000000	0.010090
3115.000000	0.010094
3114.000000	0.010096
3113.000000	0.010100
3112.000000	0.010107
3111.000000	0.010114
3110.000000	0.010121
3109.000000	0.010130
3108.000000	0.010144
3107.000000	0.010162
3106.000000	0.010179
3105.000000	0.010192
3104.000000	0.010199
3103.000000	0.010202
3102.000000	0.010203
3101.000000	0.010206
3100.000000	0.010213
3099.000000	0.010215
3098.000000	0.010206
3097.000000	0.010191
3096.000000	0.010182
3095.000000	0.010192
3094.000000	0.010224
3093.000000	0.010271
3092.000000	0.010316
3091.000000	0.010343
3090.000000	0.010346
3089.000000	0.010328
3088.000000	0.010298
3087.000000	0.010266
3086.000000	0.010239
3085.000000	0.010221
3084.000000	0.010219
3083.000000	0.010232
3082.000000	0.010258
3081.000000	0.010287
3080.000000	0.010313
3079.000000	0.010334
3078.000000	0.010349
3077.000000	0.010354
3076.000000	0.010349
3075.000000	0.010336
3074.000000	0.010323
3073.000000	0.010315
3072.000000	0.010313
3071.000000	0.010312
3070.000000	0.010308
3069.000000	0.010302
3068.000000	0.010294
3067.000000	0.010287
3066.000000	0.010285
3065.000000	0.010286
3064.000000	0.010287
3063.000000	0.010280
3062.000000	0.010264
3061.000000	0.010244
3060.000000	0.010227
3059.000000	0.010213
3058.000000	0.010202
3057.000000	0.010191
3056.000000	0.010182
3055.000000	0.010169
3054.000000	0.010144
3053.000000	0.010104
3052.000000	0.010055
3051.000000	0.010007
3050.000000	0.009966
3049.000000	0.009930
3048.000000	0.009898
3047.000000	0.009867
3046.000000	0.009837
3045.000000	0.009807
3044.000000	0.009772
3043.000000	0.009729
3042.000000	0.009675
3041.000000	0.009616
3040.000000	0.009566
3039.000000	0.009535
3038.000000	0.009516
3037.000000	0.009492
3036.000000	0.009456
3035.000000	0.009412
3034.000000	0.009371
3033.000000	0.009337
3032.000000	0.009308
3031.000000	0.009285
3030.000000	0.009270
3029.000000	0.009256
3028.000000	0.009237
3027.000000	0.009212
3026.000000	0.009184
3025.000000	0.009160
3024.000000	0.009143
3023.000000	0.009134
3022.000000	0.009127
3021.000000	0.009110
3020.000000	0.009075
3019.000000	0.009025
3018.000000	0.008979
3017.000000	0.008951
3016.000000	0.008948
3015.000000	0.008965
3014.000000	0.008994
3013.000000	0.009027
3012.000000	0.009053
3011.000000	0.009066
3010.000000	0.009067
3009.000000	0.009070
3008.000000	0.009080
3007.000000	0.009097
3006.000000	0.009108
3005.000000	0.009106
3004.000000	0.009090
3003.000000	0.009067
3002.000000	0.009044
3001.000000	0.009026
3000.000000	0.009012
2999.000000	0.009001
2998.000000	0.008994
2997.000000	0.008996
2996.000000	0.009008
2995.000000	0.009025
2994.000000	0.009043
2993.000000	0.009060
2992.000000	0.009074
2991.000000	0.009088
2990.000000	0.009101
2989.000000	0.009116
2988.000000	0.009138
2987.000000	0.009175
2986.000000	0.009228
2985.000000	0.009291
2984.000000	0.009353
2983.000000	0.009405
2982.000000	0.009448
2981.000000	0.009486
2980.000000	0.009522
2979.000000	0.009556
2978.000000	0.009589
2977.000000	0.009622
2976.000000	0.009664
2975.000000	0.009714
2974.000000	0.009767
2973.000000	0.009816
2972.000000	0.009870
2971.000000	0.009947
2970.000000	0.010066
2969.000000	0.010228
2968.000000	0.010411
2967.000000	0.010591
2966.000000	0.010753
2965.000000	0.010902
2964.000000	0.011048
2963.000000	0.011197
2962.000000	0.011351
2961.000000	0.011504
2960.000000	0.011650
2959.000000	0.011781
2958.000000	0.011892
2957.000000	0.011979
2956.000000	0.012037
2955.000000	0.012065
2954.000000	0.012069
2953.000000	0.012063
2952.000000	0.012058
2951.000000	0.012057
2950.000000	0.012060
2949.000000	0.012073
2948.000000	0.012108
2947.000000	0.012176
2946.000000	0.012279
2945.000000	0.012412
2944.000000	0.012569
2943.000000	0.012749
2942.000000	0.012955
2941.000000	0.013195
2940.000000	0.013475
2939.000000	0.013788
2938.000000	0.014125
2937.000000	0.014474
2936.000000	0.014831
2935.000000	0.015197
2934.000000	0.015575
2933.000000	0.015970
2932.000000	0.016379
2931.000000	0.016794
2930.000000	0.017201
2929.000000	0.017588
2928.000000	0.017951
2927.000000	0.018289
2926.000000	0.018597
2925.000000	0.018865
2924.000000	0.019077
2923.000000	0.019218
2922.000000	0.019284
2921.000000	0.019273
2920.000000	0.019182
2919.000000	0.018998
2918.000000	0.018709
2917.000000	0.018315
2916.000000	0.017844
2915.000000	0.017335
2914.000000	0.016827
2913.000000	0.016340
2912.000000	0.015886
2911.000000	0.015470
2910.000000	0.015091
2909.000000	0.014747
2908.000000	0.014436
2907.000000	0.014167
2906.000000	0.013946
2905.000000	0.013766
2904.000000	0.013606
2903.000000	0.013448
2902.000000	0.013285
2901.000000	0.013122
2900.000000	0.012966
2899.000000	0.012817
2898.000000	0.012673
2897.000000	0.012537
2896.000000	0.012408
2895.000000	0.012290
2894.000000	0.012180
2893.000000	0.012077
2892.000000	0.011978
2891.000000	0.011882
2890.000000	0.011784
2889.000000	0.011685
2888.000000	0.011586
2887.000000	0.011495
2886.000000	0.011417
2885.000000	0.011355
2884.000000	0.011305
2883.000000	0.011263
2882.000000	0.011233
2881.000000	0.011222
2880.000000	0.011236
2879.000000	0.011271
2878.000000	0.011313
2877.000000	0.011345
2876.000000	0.011365
2875.000000	0.011380
2874.000000	0.011399
2873.000000	0.011424
2872.000000	0.011450
2871.000000	0.011472
2870.000000	0.011484
2869.000000	0.011485
2868.000000	0.011489
2867.000000	0.011514
2866.000000	0.011575
2865.000000	0.011678
2864.000000	0.011820
2863.000000	0.012002
2862.000000	0.012226
2861.000000	0.012490
2860.000000	0.012785
2859.000000	0.013102
2858.000000	0.013431
2857.000000	0.013768
2856.000000	0.014100
2855.000000	0.014409
2854.000000	0.014670
2853.000000	0.014854
2852.000000	0.014930
2851.000000	0.014874
2850.000000	0.014675
2849.000000	0.014342
2848.000000	0.013907
2847.000000	0.013416
2846.000000	0.012917
2845.000000	0.012446
2844.000000	0.012017
2843.000000	0.011638
2842.000000	0.011312
2841.000000	0.011038
2840.000000	0.010811
2839.000000	0.010617
2838.000000	0.010447
2837.000000	0.010291
2836.000000	0.010148
2835.000000	0.010019
2834.000000	0.009909
2833.000000	0.009815
2832.000000	0.009733
2831.000000	0.009660
2830.000000	0.009595
2829.000000	0.009542
2828.000000	0.009493
2827.000000	0.009443
2826.000000	0.009389
2825.000000	0.009336
2824.000000	0.009292
2823.000000	0.009253
2822.000000	0.009212
2821.000000	0.009162
2820.000000	0.009107
2819.000000	0.009057
2818.000000	0.009016
2817.000000	0.008981
2816.000000	0.008945
2815.000000	0.008905
2814.000000	0.008869
2813.000000	0.008844
2812.000000	0.008834
2811.000000	0.008832
2810.000000	0.008823
2809.000000	0.008799
2808.000000	0.008762
2807.000000	0.008730
2806.000000	0.008715
2805.000000	0.008718
2804.000000	0.008723
2803.000000	0.008719
2802.000000	0.008706
2801.000000	0.008689
2800.000000	0.008664
2799.000000	0.008626
2798.000000	0.008583
2797.000000	0.008550
2796.000000	0.008536
2795.000000	0.008535
2794.000000	0.008533
2793.000000	0.008519
2792.000000	0.008497
2791.000000	0.008477
2790.000000	0.008465
2789.000000	0.008460
2788.000000	0.008452
2787.000000	0.008436
2786.000000	0.008410
2785.000000	0.008378
2784.000000	0.008345
2783.000000	0.008317
2782.000000	0.008299
2781.000000	0.008289
2780.000000	0.008281
2779.000000	0.008270
2778.000000	0.008257
2777.000000	0.008246
2776.000000	0.008237
2775.000000	0.008227
2774.000000	0.008208
2773.000000	0.008179
2772.000000	0.008146
2771.000000	0.008123
2770.000000	0.008117
2769.000000	0.008125
2768.000000	0.008132
2767.000000	0.008127
2766.000000	0.008111
2765.000000	0.008091
2764.000000	0.008077
2763.000000	0.008070
2762.000000	0.008067
2761.000000	0.008061
2760.000000	0.008051
2759.000000	0.008039
2758.000000	0.008033
2757.000000	0.008035
2756.000000	0.008039
2755.000000	0.008035
2754.000000	0.008020
2753.000000	0.008001
2752.000000	0.007989
2751.000000	0.007987
2750.000000	0.007992
2749.000000	0.007994
2748.000000	0.007985
2747.000000	0.007966
2746.000000	0.007943
2745.000000	0.007924
2744.000000	0.007909
2743.000000	0.007894
2742.000000	0.007875
2741.000000	0.007857
2740.000000	0.007842
2739.000000	0.007836
2738.000000	0.007840
2737.000000	0.007852
2736.000000	0.007859
2735.000000	0.007852
2734.000000	0.007835
2733.000000	0.007819
2732.000000	0.007813
2731.000000	0.007816
2730.000000	0.007821
2729.000000	0.007825
2728.000000	0.007825
2727.000000	0.007817
2726.000000	0.007801
2725.000000	0.007779
2724.000000	0.007755
2723.000000	0.007731
2722.000000	0.007710
2721.000000	0.007696
2720.000000	0.007688
2719.000000	0.007682
2718.000000	0.007672
2717.000000	0.007658
2716.000000	0.007645
2715.000000	0.007629
2714.000000	0.007611
2713.000000	0.007595
2712.000000	0.007590
2711.000000	0.007600
2710.000000	0.007616
2709.000000	0.007633
2708.000000	0.007644
2707.000000	0.007649
2706.000000	0.007645
2705.000000	0.007632
2704.000000	0.007615
2703.000000	0.007603
2702.000000	0.007597
2701.000000	0.007595
2700.000000	0.007595
2699.000000	0.007596
2698.000000	0.007595
2697.000000	0.007587
2696.000000	0.007576
2695.000000	0.007566
2694.000000	0.007560
2693.000000	0.007554
2692.000000	0.007547
2691.000000	0.007543
2690.000000	0.007544
2689.000000	0.007544
2688.000000	0.007531
2687.000000	0.007504
2686.000000	0.007474
2685.000000	0.007454
2684.000000	0.007446
2683.000000	0.007447
2682.000000	0.007453
2681.000000	0.007465
2680.000000	0.007479
2679.000000	0.007487
2678.000000	0.007483
2677.000000	0.007465
2676.000000	0.007438
2675.000000	0.007410
2674.000000	0.007393
2673.000000	0.007395
2672.000000	0.007410
2671.000000	0.007428
2670.000000	0.007438
2669.000000	0.007435
2668.000000	0.007421
2667.000000	0.007403
2666.000000	0.007392
2665.000000	0.007394
2664.000000	0.007405
2663.000000	0.007412
2662.000000	0.007408
2661.000000	0.007396
2660.000000	0.007383
2659.000000	0.007372
2658.000000	0.007362
2657.000000	0.007351
2656.000000	0.007332
2655.000000	0.007303
2654.000000	0.007266
2653.000000	0.007231
2652.000000	0.007207
2651.000000	0.007192
2650.000000	0.007184
2649.000000	0.007182
2648.000000	0.007186
2647.000000	0.007187
2646.000000	0.007177
2645.000000	0.007156
2644.000000	0.007132
2643.000000	0.007109
2642.000000	0.007087
2641.000000	0.007070
2640.000000	0.007061
2639.000000	0.007058
2638.000000	0.007052
2637.000000	0.007034
2636.000000	0.007009
2635.000000	0.006991
2634.000000	0.006993
2633.000000	0.007012
2632.000000	0.007033
2631.000000	0.007039
2630.000000	0.007026
2629.000000	0.007004
2628.000000	0.006981
2627.000000	0.006958
2626.000000	0.006926
2625.000000	0.006884
2624.000000	0.006839
2623.000000	0.006804
2622.000000	0.006788
2621.000000	0.006792
2620.000000	0.006806
2619.000000	0.006820
2618.000000	0.006828
2617.000000	0.006826
2616.000000	0.006812
2615.000000	0.006790
2614.000000	0.006770
2613.000000	0.006766
2612.000000	0.006780
2611.000000	0.006796
2610.000000	0.006798
2609.000000	0.006785
2608.000000	0.006766
2607.000000	0.006749
2606.000000	0.006734
2605.000000	0.006717
2604.000000	0.006708
2603.000000	0.006709
2602.000000	0.006713
2601.000000	0.006703
2600.000000	0.006674
2599.000000	0.006634
2598.000000	0.006600
2597.000000	0.006577
2596.000000	0.006559
2595.000000	0.006543
2594.000000	0.006533
2593.000000	0.006530
2592.000000	0.006535
2591.000000	0.006543
2590.000000	0.006549
2589.000000	0.006551
2588.000000	0.006550
2587.000000	0.006548
2586.000000	0.006543
2585.000000	0.006527
2584.000000	0.006495
2583.000000	0.006455
2582.000000	0.006428
2581.000000	0.006428
2580.000000	0.006448
2579.000000	0.006474
2578.000000	0.006494
2577.000000	0.006504
2576.000000	0.006497
2575.000000	0.006471
2574.000000	0.006436
2573.000000	0.006413
2572.000000	0.006411
2571.000000	0.006422
2570.000000	0.006433
2569.000000	0.006439
2568.000000	0.006447
2567.000000	0.006462
2566.000000	0.006483
2565.000000	0.006506
2564.000000	0.006518
2563.000000	0.006510
2562.000000	0.006476
2561.000000	0.006427
2560.000000	0.006377
2559.000000	0.006337
2558.000000	0.006306
2557.000000	0.006278
2556.000000	0.006258
2555.000000	0.006257
2554.000000	0.006280
2553.000000	0.006314
2552.000000	0.006335
2551.000000	0.006331
2550.000000	0.006313
2549.000000	0.006302
2548.000000	0.006314
2547.000000	0.006347
2546.000000	0.006381
2545.000000	0.006394
2544.000000	0.006373
2543.000000	0.006327
2542.000000	0.006287
2541.000000	0.006284
2540.000000	0.006323
2539.000000	0.006371
2538.000000	0.006388
2537.000000	0.006361
2536.000000	0.006314
2535.000000	0.006279
2534.000000	0.006267
2533.000000	0.006263
2532.000000	0.006252
2531.000000	0.006240
2530.000000	0.006241
2529.000000	0.006256
2528.000000	0.006275
2527.000000	0.006285
2526.000000	0.006285
2525.000000	0.006273
2524.000000	0.006251
2523.000000	0.006229
2522.000000	0.006227
2521.000000	0.006255
2520.000000	0.006299
2519.000000	0.006334
2518.000000	0.006345
2517.000000	0.006339
2516.000000	0.006327
2515.000000	0.006314
2514.000000	0.006288
2513.000000	0.006236
2512.000000	0.006160
2511.000000	0.006091
2510.000000	0.006070
2509.000000	0.006115
2508.000000	0.006202
2507.000000	0.006282
2506.000000	0.006325
2505.000000	0.006331
2504.000000	0.006321
2503.000000	0.006316
2502.000000	0.006318
2501.000000	0.006315
2500.000000	0.006296
2499.000000	0.006260
2498.000000	0.006213
2497.000000	0.006164
2496.000000	0.006121
2495.000000	0.006097
2494.000000	0.006109
2493.000000	0.006151
2492.000000	0.006198
2491.000000	0.006218
2490.000000	0.006207
2489.000000	0.006178
2488.000000	0.006149
2487.000000	0.006129
2486.000000	0.006128
2485.000000	0.006141
2484.000000	0.006153
2483.000000	0.006146
2482.000000	0.006121
2481.000000	0.006099
2480.000000	0.006094
2479.000000	0.006102
2478.000000	0.006099
2477.000000	0.006072
2476.000000	0.006027
2475.000000	0.005992
2474.000000	0.005988
2473.000000	0.006008
2472.000000	0.006028
2471.000000	0.006036
2470.000000	0.006044
2469.000000	0.006065
2468.000000	0.006089
2467.000000	0.006096
2466.000000	0.006085
2465.000000	0.006077
2464.000000	0.006089
2463.000000	0.006120
2462.000000	0.006151
2461.000000	0.006164
2460.000000	0.006151
2459.000000	0.006120
2458.000000	0.006088
2457.000000	0.006070
2456.000000	0.006065
2455.000000	0.006066
2454.000000	0.006070
2453.000000	0.006078
2452.000000	0.006079
2451.000000	0.006067
2450.000000	0.006047
2449.000000	0.006034
2448.000000	0.006034
2447.000000	0.006044
2446.000000	0.006059
2445.000000	0.006076
2444.000000	0.006085
2443.000000	0.006066
2442.000000	0.006022
2441.000000	0.005979
2440.000000	0.005961
2439.000000	0.005963
2438.000000	0.005958
2437.000000	0.005929
2436.000000	0.005878
2435.000000	0.005824
2434.000000	0.005791
2433.000000	0.005794
2432.000000	0.005835
2431.000000	0.005903
2430.000000	0.005969
2429.000000	0.006007
2428.000000	0.006005
2427.000000	0.005972
2426.000000	0.005935
2425.000000	0.005916
2424.000000	0.005920
2423.000000	0.005931
2422.000000	0.005931
2421.000000	0.005912
2420.000000	0.005882
2419.000000	0.005858
2418.000000	0.005854
2417.000000	0.005866
2416.000000	0.005885
2415.000000	0.005909
2414.000000	0.005947
2413.000000	0.005997
2412.000000	0.006040
2411.000000	0.006054
2410.000000	0.006043
2409.000000	0.006021
2408.000000	0.005996
2407.000000	0.005966
2406.000000	0.005935
2405.000000	0.005910
2404.000000	0.005892
2403.000000	0.005874
2402.000000	0.005862
2401.000000	0.005869
2400.000000	0.005897
2399.000000	0.005934
2398.000000	0.005962
2397.000000	0.005977
2396.000000	0.005976
2395.000000	0.005958
2394.000000	0.005924
2393.000000	0.005887
2392.000000	0.005863
2391.000000	0.005862
2390.000000	0.005886
2389.000000	0.005923
2388.000000	0.005961
2387.000000	0.005990
2386.000000	0.006005
2385.000000	0.006006
2384.000000	0.005986
2383.000000	0.005942
2382.000000	0.005882
2381.000000	0.005823
2380.000000	0.005775
2379.000000	0.005745
2378.000000	0.005739
2377.000000	0.005756
2376.000000	0.005787
2375.000000	0.005819
2374.000000	0.005846
2373.000000	0.005856
2372.000000	0.005833
2371.000000	0.005773
2370.000000	0.005695
2369.000000	0.005629
2368.000000	0.005594
2367.000000	0.005595
2366.000000	0.005630
2365.000000	0.005685
2364.000000	0.005737
2363.000000	0.005781
2362.000000	0.005830
2361.000000	0.005880
2360.000000	0.005911
2359.000000	0.005899
2358.000000	0.005844
2357.000000	0.005778
2356.000000	0.005736
2355.000000	0.005748
2354.000000	0.005778
2353.000000	0.005766
2352.000000	0.005702
2351.000000	0.005643
2350.000000	0.005638
2349.000000	0.005686
2348.000000	0.005752
2347.000000	0.005790
2346.000000	0.005796
2345.000000	0.005813
2344.000000	0.005861
2343.000000	0.005923
2342.000000	0.005955
2341.000000	0.005940
2340.000000	0.005900
2339.000000	0.005869
2338.000000	0.005861
2337.000000	0.005871
2336.000000	0.005881
2335.000000	0.005865
2334.000000	0.005811
2333.000000	0.005738
2332.000000	0.005693
2331.000000	0.005693
2330.000000	0.005731
2329.000000	0.005781
2328.000000	0.005854
2327.000000	0.005947
2326.000000	0.006045
2325.000000	0.006110
2324.000000	0.006124
2323.000000	0.006098
2322.000000	0.006071
2321.000000	0.006081
2320.000000	0.006132
2319.000000	0.006185
2318.000000	0.006204
2317.000000	0.006174
2316.000000	0.006119
2315.000000	0.006061
2314.000000	0.006021
2313.000000	0.006001
2312.000000	0.005996
2311.000000	0.005979
2310.000000	0.005948
2309.000000	0.005920
2308.000000	0.005922
2307.000000	0.005943
2306.000000	0.005953
2305.000000	0.005938
2304.000000	0.005919
2303.000000	0.005916
2302.000000	0.005929
2301.000000	0.005944
2300.000000	0.005952
2299.000000	0.005945
2298.000000	0.005924
2297.000000	0.005896
2296.000000	0.005877
2295.000000	0.005872
2294.000000	0.005874
2293.000000	0.005876
2292.000000	0.005886
2291.000000	0.005914
2290.000000	0.005967
2289.000000	0.006032
2288.000000	0.006085
2287.000000	0.006099
2286.000000	0.006062
2285.000000	0.005993
2284.000000	0.005927
2283.000000	0.005893
2282.000000	0.005892
2281.000000	0.005908
2280.000000	0.005919
2279.000000	0.005909
2278.000000	0.005871
2277.000000	0.005815
2276.000000	0.005763
2275.000000	0.005734
2274.000000	0.005735
2273.000000	0.005767
2272.000000	0.005828
2271.000000	0.005902
2270.000000	0.005961
2269.000000	0.005986
2268.000000	0.005982
2267.000000	0.005966
2266.000000	0.005940
2265.000000	0.005890
2264.000000	0.005815
2263.000000	0.005743
2262.000000	0.005717
2261.000000	0.005761
2260.000000	0.005860
2259.000000	0.005967
2258.000000	0.006026
2257.000000	0.005993
2256.000000	0.005869
2255.000000	0.005716
2254.000000	0.005620
2253.000000	0.005632
2252.000000	0.005724
2251.000000	0.005813
2250.000000	0.005830
2249.000000	0.005755
2248.000000	0.005625
2247.000000	0.005508
2246.000000	0.005461
2245.000000	0.005494
2244.000000	0.005558
2243.000000	0.005592
2242.000000	0.005579
2241.000000	0.005548
2240.000000	0.005536
2239.000000	0.005569
2238.000000	0.005655
2237.000000	0.005778
2236.000000	0.005875
2235.000000	0.005874
2234.000000	0.005767
2233.000000	0.005631
2232.000000	0.005559
2231.000000	0.005569
2230.000000	0.005605
2229.000000	0.005611
2228.000000	0.005579
2227.000000	0.005535
2226.000000	0.005488
2225.000000	0.005434
2224.000000	0.005372
2223.000000	0.005323
2222.000000	0.005307
2221.000000	0.005323
2220.000000	0.005353
2219.000000	0.005385
2218.000000	0.005424
2217.000000	0.005465
2216.000000	0.005480
2215.000000	0.005436
2214.000000	0.005341
2213.000000	0.005247
2212.000000	0.005216
2211.000000	0.005270
2210.000000	0.005366
2209.000000	0.005420
2208.000000	0.005380
2207.000000	0.005278
2206.000000	0.005208
2205.000000	0.005214
2204.000000	0.005253
2203.000000	0.005272
2202.000000	0.005289
2201.000000	0.005358
2200.000000	0.005472
2199.000000	0.005563
2198.000000	0.005594
2197.000000	0.005597
2196.000000	0.005619
2195.000000	0.005670
2194.000000	0.005743
2193.000000	0.005833
2192.000000	0.005915
2191.000000	0.005925
2190.000000	0.005826
2189.000000	0.005664
2188.000000	0.005535
2187.000000	0.005502
2186.000000	0.005559
2185.000000	0.005669
2184.000000	0.005790
2183.000000	0.005876
2182.000000	0.005872
2181.000000	0.005744
2180.000000	0.005513
2179.000000	0.005254
2178.000000	0.005040
2177.000000	0.004891
2176.000000	0.004790
2175.000000	0.004731
2174.000000	0.004728
2173.000000	0.004769
2172.000000	0.004818
2171.000000	0.004876
2170.000000	0.004981
2169.000000	0.005125
2168.000000	0.005216
2167.000000	0.005179
2166.000000	0.005050
2165.000000	0.004915
2164.000000	0.004803
2163.000000	0.004707
2162.000000	0.004679
2161.000000	0.004772
2160.000000	0.004903
2159.000000	0.004911
2158.000000	0.004775
2157.000000	0.004633
2156.000000	0.004558
2155.000000	0.004497
2154.000000	0.004421
2153.000000	0.004388
2152.000000	0.004451
2151.000000	0.004577
2150.000000	0.004712
2149.000000	0.004854
2148.000000	0.005012
2147.000000	0.005156
2146.000000	0.005238
2145.000000	0.005243
2144.000000	0.005195
2143.000000	0.005131
2142.000000	0.005082
2141.000000	0.005063
2140.000000	0.005068
2139.000000	0.005090
2138.000000	0.005132
2137.000000	0.005188
2136.000000	0.005218
2135.000000	0.005195
2134.000000	0.005152
2133.000000	0.005149
2132.000000	0.005194
2131.000000	0.005233
2130.000000	0.005228
2129.000000	0.005191
2128.000000	0.005157
2127.000000	0.005145
2126.000000	0.005165
2125.000000	0.005218
2124.000000	0.005279
2123.000000	0.005308
2122.000000	0.005296
2121.000000	0.005280
2120.000000	0.005301
2119.000000	0.005357
2118.000000	0.005416
2117.000000	0.005459
2116.000000	0.005480
2115.000000	0.005474
2114.000000	0.005440
2113.000000	0.005385
2112.000000	0.005330
2111.000000	0.005293
2110.000000	0.005296
2109.000000	0.005357
2108.000000	0.005467
2107.000000	0.005579
2106.000000	0.005639
2105.000000	0.005628
2104.000000	0.005572
2103.000000	0.005506
2102.000000	0.005449
2101.000000	0.005399
2100.000000	0.005347
2099.000000	0.005297
2098.000000	0.005269
2097.000000	0.005275
2096.000000	0.005307
2095.000000	0.005354
2094.000000	0.005411
2093.000000	0.005474
2092.000000	0.005526
2091.000000	0.005554
2090.000000	0.005569
2089.000000	0.005581
2088.000000	0.005576
2087.000000	0.005526
2086.000000	0.005433
2085.000000	0.005341
2084.000000	0.005289
2083.000000	0.005275
2082.000000	0.005270
2081.000000	0.005254
2080.000000	0.005231
2079.000000	0.005223
2078.000000	0.005244
2077.000000	0.005289
2076.000000	0.005330
2075.000000	0.005341
2074.000000	0.005323
2073.000000	0.005291
2072.000000	0.005258
2071.000000	0.005228
2070.000000	0.005198
2069.000000	0.005154
2068.000000	0.005069
2067.000000	0.004934
2066.000000	0.004764
2065.000000	0.004596
2064.000000	0.004465
2063.000000	0.004414
2062.000000	0.004484
2061.000000	0.004664
2060.000000	0.004871
2059.000000	0.005021
2058.000000	0.005108
2057.000000	0.005173
2056.000000	0.005231
2055.000000	0.005265
2054.000000	0.005272
2053.000000	0.005264
2052.000000	0.005223
2051.000000	0.005120
2050.000000	0.004982
2049.000000	0.004887
2048.000000	0.004878
2047.000000	0.004914
2046.000000	0.004925
2045.000000	0.004866
2044.000000	0.004734
2043.000000	0.004580
2042.000000	0.004514
2041.000000	0.004604
2040.000000	0.004770
2039.000000	0.004847
2038.000000	0.004778
2037.000000	0.004664
2036.000000	0.004612
2035.000000	0.004620
2034.000000	0.004644
2033.000000	0.004687
2032.000000	0.004747
2031.000000	0.004763
2030.000000	0.004675
2029.000000	0.004504
2028.000000	0.004330
2027.000000	0.004221
2026.000000	0.004195
2025.000000	0.004225
2024.000000	0.004252
2023.000000	0.004240
2022.000000	0.004208
2021.000000	0.004191
2020.000000	0.004178
2019.000000	0.004161
2018.000000	0.004187
2017.000000	0.004295
2016.000000	0.004404
2015.000000	0.004389
2014.000000	0.004259
2013.000000	0.004168
2012.000000	0.004239
2011.000000	0.004436
2010.000000	0.004617
2009.000000	0.004664
2008.000000	0.004549
2007.000000	0.004358
2006.000000	0.004231
2005.000000	0.004239
2004.000000	0.004314
2003.000000	0.004348
2002.000000	0.004339
2001.000000	0.004361
2000.000000	0.004429
1999.000000	0.004477
1998.000000	0.004456
1997.000000	0.004394
1996.000000	0.004349
1995.000000	0.004374
1994.000000	0.004505
1993.000000	0.004728
1992.000000	0.004937
1991.000000	0.005019
1990.000000	0.004977
1989.000000	0.004904
1988.000000	0.004854
1987.000000	0.004823
1986.000000	0.004828
1985.000000	0.004906
1984.000000	0.005017
1983.000000	0.005046
1982.000000	0.004938
1981.000000	0.004760
1980.000000	0.004585
1979.000000	0.004417
1978.000000	0.004275
1977.000000	0.004251
1976.000000	0.004394
1975.000000	0.004621
1974.000000	0.004816
1973.000000	0.004940
1972.000000	0.005005
1971.000000	0.004995
1970.000000	0.004878
1969.000000	0.004666
1968.000000	0.004434
1967.000000	0.004280
1966.000000	0.004266
1965.000000	0.004361
1964.000000	0.004436
1963.000000	0.004372
1962.000000	0.004183
1961.000000	0.003999
1960.000000	0.003937
1959.000000	0.004020
1958.000000	0.004209
1957.000000	0.004440
1956.000000	0.004626
1955.000000	0.004706
1954.000000	0.004711
1953.000000	0.004720
1952.000000	0.004759
1951.000000	0.004776
1950.000000	0.004747
1949.000000	0.004719
1948.000000	0.004719
1947.000000	0.004713
1946.000000	0.004671
1945.000000	0.004634
1944.000000	0.004659
1943.000000	0.004735
1942.000000	0.004797
1941.000000	0.004802
1940.000000	0.004760
1939.000000	0.004704
1938.000000	0.004669
1937.000000	0.004683
1936.000000	0.004736
1935.000000	0.004791
1934.000000	0.004814
1933.000000	0.004803
1932.000000	0.004763
1931.000000	0.004685
1930.000000	0.004577
1929.000000	0.004485
1928.000000	0.004447
1927.000000	0.004464
1926.000000	0.004507
1925.000000	0.004572
1924.000000	0.004659
1923.000000	0.004748
1922.000000	0.004818
1921.000000	0.004871
1920.000000	0.004918
1919.000000	0.004945
1918.000000	0.004929
1917.000000	0.004876
1916.000000	0.004815
1915.000000	0.004777
1914.000000	0.004773
1913.000000	0.004788
1912.000000	0.004794
1911.000000	0.004774
1910.000000	0.004737
1909.000000	0.004703
1908.000000	0.004675
1907.000000	0.004652
1906.000000	0.004638
1905.000000	0.004648
1904.000000	0.004680
1903.000000	0.004720
1902.000000	0.004773
1901.000000	0.004839
1900.000000	0.004884
1899.000000	0.004867
1898.000000	0.004789
1897.000000	0.004705
1896.000000	0.004662
1895.000000	0.004661
1894.000000	0.004678
1893.000000	0.004702
1892.000000	0.004723
1891.000000	0.004732
1890.000000	0.004736
1889.000000	0.004743
1888.000000	0.004737
1887.000000	0.004699
1886.000000	0.004642
1885.000000	0.004598
1884.000000	0.004589
1883.000000	0.004612
1882.000000	0.004661
1881.000000	0.004726
1880.000000	0.004783
1879.000000	0.004818
1878.000000	0.004835
1877.000000	0.004836
1876.000000	0.004804
1875.000000	0.004716
1874.000000	0.004591
1873.000000	0.004491
1872.000000	0.004455
1871.000000	0.004468
1870.000000	0.004489
1869.000000	0.004500
1868.000000	0.004500
1867.000000	0.004501
1866.000000	0.004535
1865.000000	0.004617
1864.000000	0.004713
1863.000000	0.004774
1862.000000	0.004795
1861.000000	0.004801
1860.000000	0.004794
1859.000000	0.004760
1858.000000	0.004710
1857.000000	0.004679
1856.000000	0.004676
1855.000000	0.004685
1854.000000	0.004701
1853.000000	0.004732
1852.000000	0.004750
1851.000000	0.004724
1850.000000	0.004646
1849.000000	0.004540
1848.000000	0.004444
1847.000000	0.004395
1846.000000	0.004414
1845.000000	0.004490
1844.000000	0.004572
1843.000000	0.004604
1842.000000	0.004600
1841.000000	0.004617
1840.000000	0.004667
1839.000000	0.004706
1838.000000	0.004707
1837.000000	0.004688
1836.000000	0.004665
1835.000000	0.004624
1834.000000	0.004561
1833.000000	0.004496
1832.000000	0.004445
1831.000000	0.004413
1830.000000	0.004398
1829.000000	0.004406
1828.000000	0.004439
1827.000000	0.004493
1826.000000	0.004544
1825.000000	0.004565
1824.000000	0.004562
1823.000000	0.004557
1822.000000	0.004566
1821.000000	0.004575
1820.000000	0.004564
1819.000000	0.004534
1818.000000	0.004506
1817.000000	0.004507
1816.000000	0.004525
1815.000000	0.004525
1814.000000	0.004505
1813.000000	0.004481
1812.000000	0.004470
1811.000000	0.004467
1810.000000	0.004472
1809.000000	0.004502
1808.000000	0.004551
1807.000000	0.004580
1806.000000	0.004578
1805.000000	0.004566
1804.000000	0.004550
1803.000000	0.004508
1802.000000	0.004437
1801.000000	0.004366
1800.000000	0.004335
1799.000000	0.004338
1798.000000	0.004361
1797.000000	0.004392
1796.000000	0.004412
1795.000000	0.004398
1794.000000	0.004353
1793.000000	0.004298
1792.000000	0.004269
1791.000000	0.004262
1790.000000	0.004260
1789.000000	0.004277
1788.000000	0.004316
1787.000000	0.004349
1786.000000	0.004358
1785.000000	0.004338
1784.000000	0.004279
1783.000000	0.004182
1782.000000	0.004098
1781.000000	0.004051
1780.000000	0.004035
1779.000000	0.004018
1778.000000	0.003986
1777.000000	0.003941
1776.000000	0.003874
1775.000000	0.003791
1774.000000	0.003702
1773.000000	0.003604
1772.000000	0.003532
1771.000000	0.003533
1770.000000	0.003623
1769.000000	0.003782
1768.000000	0.003913
1767.000000	0.003909
1766.000000	0.003799
1765.000000	0.003715
1764.000000	0.003740
1763.000000	0.003832
1762.000000	0.003913
1761.000000	0.003954
1760.000000	0.003994
1759.000000	0.004085
1758.000000	0.004269
1757.000000	0.004523
1756.000000	0.004770
1755.000000	0.004987
1754.000000	0.005238
1753.000000	0.005565
1752.000000	0.005903
1751.000000	0.006145
1750.000000	0.006273
1749.000000	0.006382
1748.000000	0.006515
1747.000000	0.006624
1746.000000	0.006671
1745.000000	0.006652
1744.000000	0.006569
1743.000000	0.006401
1742.000000	0.006152
1741.000000	0.005873
1740.000000	0.005594
1739.000000	0.005285
1738.000000	0.004979
1737.000000	0.004801
1736.000000	0.004789
1735.000000	0.004787
1734.000000	0.004641
1733.000000	0.004366
1732.000000	0.004076
1731.000000	0.003883
1730.000000	0.003805
1729.000000	0.003779
1728.000000	0.003744
1727.000000	0.003692
1726.000000	0.003628
1725.000000	0.003548
1724.000000	0.003460
1723.000000	0.003333
1722.000000	0.003160
1721.000000	0.003003
1720.000000	0.002921
1719.000000	0.002877
1718.000000	0.002815
1717.000000	0.002798
1716.000000	0.002876
1715.000000	0.003017
1714.000000	0.003202
1713.000000	0.003428
1712.000000	0.003674
1711.000000	0.003916
1710.000000	0.004142
1709.000000	0.004343
1708.000000	0.004531
1707.000000	0.004756
1706.000000	0.005053
1705.000000	0.005400
1704.000000	0.005742
1703.000000	0.006130
1702.000000	0.006630
1701.000000	0.007169
1700.000000	0.007583
1699.000000	0.007782
1698.000000	0.008015
1697.000000	0.008576
1696.000000	0.009366
1695.000000	0.009972
1694.000000	0.010249
1693.000000	0.010460
1692.000000	0.010805
1691.000000	0.011232
1690.000000	0.011633
1689.000000	0.011989
1688.000000	0.012346
1687.000000	0.012760
1686.000000	0.013209
1685.000000	0.013660
1684.000000	0.014129
1683.000000	0.014550
1682.000000	0.014954
1681.000000	0.015477
1680.000000	0.016080
1679.000000	0.016635
1678.000000	0.017143
1677.000000	0.017703
1676.000000	0.018325
1675.000000	0.018892
1674.000000	0.019336
1673.000000	0.019746
1672.000000	0.020259
1671.000000	0.020872
1670.000000	0.021537
1669.000000	0.022239
1668.000000	0.022930
1667.000000	0.023557
1666.000000	0.024142
1665.000000	0.024736
1664.000000	0.025346
1663.000000	0.025917
1662.000000	0.026438
1661.000000	0.026944
1660.000000	0.027460
1659.000000	0.027958
1658.000000	0.028385
1657.000000	0.028772
1656.000000	0.029228
1655.000000	0.029744
1654.000000	0.030116
1653.000000	0.030351
1652.000000	0.030488
1651.000000	0.030469
1650.000000	0.030499
1649.000000	0.030719
1648.000000	0.031036
1647.000000	0.031322
1646.000000	0.031562
1645.000000	0.031774
1644.000000	0.031962
1643.000000	0.032134
1642.000000	0.032301
1641.000000	0.032421
1640.000000	0.032471
1639.000000	0.032495
1638.000000	0.032536
1637.000000	0.032560
1636.000000	0.032507
1635.000000	0.032435
1634.000000	0.032393
1633.000000	0.032413
1632.000000	0.032473
1631.000000	0.032478
1630.000000	0.032340
1629.000000	0.032060
1628.000000	0.031700
1627.000000	0.031319
1626.000000	0.030940
1625.000000	0.030516
1624.000000	0.029986
1623.000000	0.029364
1622.000000	0.028765
1621.000000	0.028271
1620.000000	0.027893
1619.000000	0.027564
1618.000000	0.027110
1617.000000	0.026398
1616.000000	0.025540
1615.000000	0.024775
1614.000000	0.024216
1613.000000	0.023803
1612.000000	0.023389
1611.000000	0.022884
1610.000000	0.022336
1609.000000	0.021809
1608.000000	0.021308
1607.000000	0.020834
1606.000000	0.020418
1605.000000	0.020052
1604.000000	0.019702
1603.000000	0.019368
1602.000000	0.019071
1601.000000	0.018808
1600.000000	0.018563
1599.000000	0.018341
1598.000000	0.018155
1597.000000	0.017991
1596.000000	0.017830
1595.000000	0.017690
1594.000000	0.017603
1593.000000	0.017561
1592.000000	0.017529
1591.000000	0.017497
1590.000000	0.017485
1589.000000	0.017500
1588.000000	0.017544
1587.000000	0.017630
1586.000000	0.017773
1585.000000	0.017950
1584.000000	0.018117
1583.000000	0.018292
1582.000000	0.018493
1581.000000	0.018681
1580.000000	0.018829
1579.000000	0.019006
1578.000000	0.019262
1577.000000	0.019535
1576.000000	0.019734
1575.000000	0.019845
1574.000000	0.019939
1573.000000	0.020101
1572.000000	0.020336
1571.000000	0.020570
1570.000000	0.020779
1569.000000	0.021002
1568.000000	0.021239
1567.000000	0.021522
1566.000000	0.021872
1565.000000	0.022250
1564.000000	0.022593
1563.000000	0.022955
1562.000000	0.023414
1561.000000	0.023857
1560.000000	0.023982
1559.000000	0.023961
1558.000000	0.024239
1557.000000	0.024673
1556.000000	0.025147
1555.000000	0.025635
1554.000000	0.026039
1553.000000	0.026307
1552.000000	0.026531
1551.000000	0.026790
1550.000000	0.027040
1549.000000	0.027239
1548.000000	0.027414
1547.000000	0.027623
1546.000000	0.027839
1545.000000	0.027982
1544.000000	0.028024
1543.000000	0.028022
1542.000000	0.028000
1541.000000	0.027959
1540.000000	0.027939
1539.000000	0.027937
1538.000000	0.027872
1537.000000	0.027787
1536.000000	0.027758
1535.000000	0.027697
1534.000000	0.027472
1533.000000	0.027145
1532.000000	0.026892
1531.000000	0.026736
1530.000000	0.026598
1529.000000	0.026443
1528.000000	0.026270
1527.000000	0.026050
1526.000000	0.025744
1525.000000	0.025387
1524.000000	0.025086
1523.000000	0.024860
1522.000000	0.024613
1521.000000	0.024313
1520.000000	0.024010
1519.000000	0.023757
1518.000000	0.023577
1517.000000	0.023441
1516.000000	0.023324
1515.000000	0.023212
1514.000000	0.023094
1513.000000	0.022923
1512.000000	0.022656
1511.000000	0.022316
1510.000000	0.021991
1509.000000	0.021700
1508.000000	0.021330
1507.000000	0.020826
1506.000000	0.020377
1505.000000	0.020063
1504.000000	0.019830
1503.000000	0.019667
1502.000000	0.019532
1501.000000	0.019344
1500.000000	0.019087
1499.000000	0.018819
1498.000000	0.018572
1497.000000	0.018337
1496.000000	0.018098
1495.000000	0.017830
1494.000000	0.017567
1493.000000	0.017368
1492.000000	0.017213
1491.000000	0.017003
1490.000000	0.016723
1489.000000	0.016492
1488.000000	0.016400
1487.000000	0.016400
1486.000000	0.016449
1485.000000	0.016547
1484.000000	0.016666
1483.000000	0.016784
1482.000000	0.016882
1481.000000	0.016973
1480.000000	0.017081
1479.000000	0.017213
1478.000000	0.017358
1477.000000	0.017519
1476.000000	0.017719
1475.000000	0.017967
1474.000000	0.018283
1473.000000	0.018679
1472.000000	0.019129
1471.000000	0.019546
1470.000000	0.019916
1469.000000	0.020292
1468.000000	0.020683
1467.000000	0.021031
1466.000000	0.021305
1465.000000	0.021530
1464.000000	0.021743
1463.000000	0.021943
1462.000000	0.022123
1461.000000	0.022314
1460.000000	0.022553
1459.000000	0.022859
1458.000000	0.023206
1457.000000	0.023545
1456.000000	0.023773
1455.000000	0.023872
1454.000000	0.023993
1453.000000	0.024203
1452.000000	0.024420
1451.000000	0.024554
1450.000000	0.024617
1449.000000	0.024655
1448.000000	0.024670
1447.000000	0.024648
1446.000000	0.024628
1445.000000	0.024620
1444.000000	0.024618
1443.000000	0.024597
1442.000000	0.024536
1441.000000	0.024447
1440.000000	0.024381
1439.000000	0.024372
1438.000000	0.024336
1437.000000	0.024153
1436.000000	0.023836
1435.000000	0.023528
1434.000000	0.023335
1433.000000	0.023258
1432.000000	0.023206
1431.000000	0.023107
1430.000000	0.022975
1429.000000	0.022865
1428.000000	0.022791
1427.000000	0.022736
1426.000000	0.022695
1425.000000	0.022630
1424.000000	0.022532
1423.000000	0.022472
1422.000000	0.022522
1421.000000	0.022645
1420.000000	0.022698
1419.000000	0.022599
1418.000000	0.022417
1417.000000	0.022268
1416.000000	0.022206
1415.000000	0.022204
1414.000000	0.022207
1413.000000	0.022186
1412.000000	0.022147
1411.000000	0.022098
1410.000000	0.022037
1409.000000	0.021975
1408.000000	0.021930
1407.000000	0.021890
1406.000000	0.021838
1405.000000	0.021766
1404.000000	0.021691
1403.000000	0.021636
1402.000000	0.021601
1401.000000	0.021552
1400.000000	0.021442
1399.000000	0.021277
1398.000000	0.021112
1397.000000	0.020989
1396.000000	0.020886
1395.000000	0.020759
1394.000000	0.020599
1393.000000	0.020413
1392.000000	0.020228
1391.000000	0.020067
1390.000000	0.019925
1389.000000	0.019763
1388.000000	0.019541
1387.000000	0.019263
1386.000000	0.018979
1385.000000	0.018728
1384.000000	0.018510
1383.000000	0.018304
1382.000000	0.018097
1381.000000	0.017901
1380.000000	0.017716
1379.000000	0.017518
1378.000000	0.017284
1377.000000	0.017017
1376.000000	0.016728
1375.000000	0.016433
1374.000000	0.016156
1373.000000	0.015904
1372.000000	0.015664
1371.000000	0.015424
1370.000000	0.015186
1369.000000	0.014929
1368.000000	0.014637
1367.000000	0.014330
1366.000000	0.014050
1365.000000	0.013819
1364.000000	0.013623
1363.000000	0.013440
1362.000000	0.013276
1361.000000	0.013150
1360.000000	0.013070
1359.000000	0.013025
1358.000000	0.012992
1357.000000	0.012961
1356.000000	0.012946
1355.000000	0.012973
1354.000000	0.013050
1353.000000	0.013161
1352.000000	0.013284
1351.000000	0.013412
1350.000000	0.013564
1349.000000	0.013742
1348.000000	0.013933
1347.000000	0.014121
1346.000000	0.014305
1345.000000	0.014483
1344.000000	0.014651
1343.000000	0.014814
1342.000000	0.014983
1341.000000	0.015160
1340.000000	0.015324
1339.000000	0.015454
1338.000000	0.015547
1337.000000	0.015609
1336.000000	0.015646
1335.000000	0.015654
1334.000000	0.015636
1333.000000	0.015594
1332.000000	0.015527
1331.000000	0.015434
1330.000000	0.015323
1329.000000	0.015211
1328.000000	0.015109
1327.000000	0.015013
1326.000000	0.014923
1325.000000	0.014842
1324.000000	0.014776
1323.000000	0.014732
1322.000000	0.014709
1321.000000	0.014701
1320.000000	0.014692
1319.000000	0.014673
1318.000000	0.014643
1317.000000	0.014615
1316.000000	0.014599
1315.000000	0.014587
1314.000000	0.014555
1313.000000	0.014483
1312.000000	0.014378
1311.000000	0.014271
1310.000000	0.014183
1309.000000	0.014111
1308.000000	0.014037
1307.000000	0.013947
1306.000000	0.013845
1305.000000	0.013740
1304.000000	0.013648
1303.000000	0.013578
1302.000000	0.013526
1301.000000	0.013477
1300.000000	0.013415
1299.000000	0.013342
1298.000000	0.013268
1297.000000	0.013206
1296.000000	0.013168
1295.000000	0.013161
1294.000000	0.013187
1293.000000	0.013240
1292.000000	0.013312
1291.000000	0.013391
1290.000000	0.013471
1289.000000	0.013551
1288.000000	0.013637
1287.000000	0.013734
1286.000000	0.013837
1285.000000	0.013934
1284.000000	0.014014
1283.000000	0.014073
1282.000000	0.014110
1281.000000	0.014133
1280.000000	0.014149
1279.000000	0.014167
1278.000000	0.014182
1277.000000	0.014185
1276.000000	0.014172
1275.000000	0.014147
1274.000000	0.014115
1273.000000	0.014077
1272.000000	0.014036
1271.000000	0.014003
1270.000000	0.013994
1269.000000	0.014015
1268.000000	0.014065
1267.000000	0.014131
1266.000000	0.014202
1265.000000	0.014267
1264.000000	0.014320
1263.000000	0.014365
1262.000000	0.014409
1261.000000	0.014466
1260.000000	0.014543
1259.000000	0.014636
1258.000000	0.014738
1257.000000	0.014840
1256.000000	0.014945
1255.000000	0.015057
1254.000000	0.015180
1253.000000	0.015317
1252.000000	0.015473
1251.000000	0.015648
1250.000000	0.015832
1249.000000	0.016002
1248.000000	0.016143
1247.000000	0.016261
1246.000000	0.016375
1245.000000	0.016496
1244.000000	0.016625
1243.000000	0.016751
1242.000000	0.016862
1241.000000	0.016953
1240.000000	0.017013
1239.000000	0.017025
1238.000000	0.016975
1237.000000	0.016865
1236.000000	0.016713
1235.000000	0.016539
1234.000000	0.016360
1233.000000	0.016181
1232.000000	0.016000
1231.000000	0.015807
1230.000000	0.015587
1229.000000	0.015334
1228.000000	0.015056
1227.000000	0.014776
1226.000000	0.014506
1225.000000	0.014236
1224.000000	0.013944
1223.000000	0.013612
1222.000000	0.013235
1221.000000	0.012815
1220.000000	0.012371
1219.000000	0.011954
1218.000000	0.011637
1217.000000	0.011477
1216.000000	0.011475
1215.000000	0.011580
1214.000000	0.011724
1213.000000	0.011866
1212.000000	0.011993
1211.000000	0.012098
1210.000000	0.012169
1209.000000	0.012209
1208.000000	0.012246
1207.000000	0.012312
1206.000000	0.012411
1205.000000	0.012519
1204.000000	0.012610
1203.000000	0.012672
1202.000000	0.012701
1201.000000	0.012700
1200.000000	0.012675
1199.000000	0.012641
1198.000000	0.012596
1197.000000	0.012531
1196.000000	0.012436
1195.000000	0.012321
1194.000000	0.012202
1193.000000	0.012092
1192.000000	0.011990
1191.000000	0.011892
1190.000000	0.011799
1189.000000	0.011712
1188.000000	0.011629
1187.000000	0.011541
1186.000000	0.011445
1185.000000	0.011351
1184.000000	0.011279
1183.000000	0.011242
1182.000000	0.011239
1181.000000	0.011256
1180.000000	0.011277
1179.000000	0.011295
1178.000000	0.011312
1177.000000	0.011337
1176.000000	0.011376
1175.000000	0.011424
1174.000000	0.011472
1173.000000	0.011519
1172.000000	0.011573
1171.000000	0.011642
1170.000000	0.011715
1169.000000	0.011779
1168.000000	0.011838
1167.000000	0.011912
1166.000000	0.012010
1165.000000	0.012119
1164.000000	0.012216
1163.000000	0.012287
1162.000000	0.012331
1161.000000	0.012350
1160.000000	0.012346
1159.000000	0.012316
1158.000000	0.012255
1157.000000	0.012161
1156.000000	0.012044
1155.000000	0.011919
1154.000000	0.011796
1153.000000	0.011676
1152.000000	0.011552
1151.000000	0.011426
1150.000000	0.011303
1149.000000	0.011182
1148.000000	0.011056
1147.000000	0.010919
1146.000000	0.010776
1145.000000	0.010644
1144.000000	0.010534
1143.000000	0.010442
1142.000000	0.010353
1141.000000	0.010256
1140.000000	0.010148
1139.000000	0.010027
1138.000000	0.009888
1137.000000	0.009740
1136.000000	0.009606
1135.000000	0.009507
1134.000000	0.009446
1133.000000	0.009405
1132.000000	0.009372
1131.000000	0.009342
1130.000000	0.009318
1129.000000	0.009300
1128.000000	0.009286
1127.000000	0.009277
1126.000000	0.009280
1125.000000	0.009306
1124.000000	0.009364
1123.000000	0.009439
1122.000000	0.009502
1121.000000	0.009540
1120.000000	0.009563
1119.000000	0.009587
1118.000000	0.009613
1117.000000	0.009635
1116.000000	0.009656
1115.000000	0.009684
1114.000000	0.009720
1113.000000	0.009752
1112.000000	0.009775
1111.000000	0.009787
1110.000000	0.009790
1109.000000	0.009788
1108.000000	0.009794
1107.000000	0.009825
1106.000000	0.009881
1105.000000	0.009946
1104.000000	0.010006
1103.000000	0.010052
1102.000000	0.010080
1101.000000	0.010093
1100.000000	0.010103
1099.000000	0.010124
1098.000000	0.010151
1097.000000	0.010176
1096.000000	0.010195
1095.000000	0.010217
1094.000000	0.010249
1093.000000	0.010302
1092.000000	0.010390
1091.000000	0.010525
1090.000000	0.010700
1089.000000	0.010901
1088.000000	0.011122
1087.000000	0.011357
1086.000000	0.011583
1085.000000	0.011774
1084.000000	0.011917
1083.000000	0.012019
1082.000000	0.012080
1081.000000	0.012094
1080.000000	0.012064
1079.000000	0.012007
1078.000000	0.011929
1077.000000	0.011822
1076.000000	0.011689
1075.000000	0.011548
1074.000000	0.011413
1073.000000	0.011275
1072.000000	0.011129
1071.000000	0.010996
1070.000000	0.010903
1069.000000	0.010858
1068.000000	0.010859
1067.000000	0.010899
1066.000000	0.010971
1065.000000	0.011051
1064.000000	0.011115
1063.000000	0.011156
1062.000000	0.011177
1061.000000	0.011181
1060.000000	0.011166
1059.000000	0.011146
1058.000000	0.011138
1057.000000	0.011132
1056.000000	0.011100
1055.000000	0.011025
1054.000000	0.010932
1053.000000	0.010864
1052.000000	0.010844
1051.000000	0.010849
1050.000000	0.010845
1049.000000	0.010819
1048.000000	0.010790
1047.000000	0.010775
1046.000000	0.010775
1045.000000	0.010773
1044.000000	0.010765
1043.000000	0.010761
1042.000000	0.010772
1041.000000	0.010804
1040.000000	0.010855
1039.000000	0.010924
1038.000000	0.011015
1037.000000	0.011134
1036.000000	0.011283
1035.000000	0.011458
1034.000000	0.011639
1033.000000	0.011798
1032.000000	0.011910
1031.000000	0.011967
1030.000000	0.011975
1029.000000	0.011950
1028.000000	0.011911
1027.000000	0.011876
1026.000000	0.011844
1025.000000	0.011802
1024.000000	0.011738
1023.000000	0.011658
1022.000000	0.011577
1021.000000	0.011504
1020.000000	0.011437
1019.000000	0.011367
1018.000000	0.011292
1017.000000	0.011212
1016.000000	0.011129
1015.000000	0.011042
1014.000000	0.010946
1013.000000	0.010830
1012.000000	0.010689
1011.000000	0.010525
1010.000000	0.010346
1009.000000	0.010162
1008.000000	0.009990
1007.000000	0.009839
1006.000000	0.009706
1005.000000	0.009577
1004.000000	0.009445
1003.000000	0.009312
1002.000000	0.009178
1001.000000	0.009034
1000.000000	0.008880
999.000000	0.008729
998.000000	0.008597
997.000000	0.008483
996.000000	0.008374
995.000000	0.008260
994.000000	0.008140
993.000000	0.008013
992.000000	0.007880
991.000000	0.007750
990.000000	0.007639
989.000000	0.007561
988.000000	0.007516
987.000000	0.007479
986.000000	0.007419
985.000000	0.007317
984.000000	0.007198
983.000000	0.007104
982.000000	0.007056
981.000000	0.007030
980.000000	0.006989
979.000000	0.006929
978.000000	0.006870
977.000000	0.006833
976.000000	0.006810
975.000000	0.006786
974.000000	0.006752
973.000000	0.006712
972.000000	0.006666
971.000000	0.006608
970.000000	0.006538
969.000000	0.006463
968.000000	0.006393
967.000000	0.006326
966.000000	0.006248
965.000000	0.006152
964.000000	0.006049
963.000000	0.005957
962.000000	0.005873
961.000000	0.005782
960.000000	0.005676
959.000000	0.005569
958.000000	0.005482
957.000000	0.005425
956.000000	0.005390
955.000000	0.005358
954.000000	0.005310
953.000000	0.005244
952.000000	0.005178
951.000000	0.005125
950.000000	0.005081
949.000000	0.005024
948.000000	0.004951
947.000000	0.004885
946.000000	0.004853
945.000000	0.004855
944.000000	0.004868
943.000000	0.004865
942.000000	0.004841
941.000000	0.004806
940.000000	0.004777
939.000000	0.004756
938.000000	0.004729
937.000000	0.004689
936.000000	0.004644
935.000000	0.004609
934.000000	0.004580
933.000000	0.004536
932.000000	0.004466
931.000000	0.004379
930.000000	0.004294
929.000000	0.004228
928.000000	0.004193
927.000000	0.004192
926.000000	0.004210
925.000000	0.004217
924.000000	0.004198
923.000000	0.004158
922.000000	0.004116
921.000000	0.004080
920.000000	0.004044
919.000000	0.003996
918.000000	0.003930
917.000000	0.003856
916.000000	0.003797
915.000000	0.003765
914.000000	0.003750
913.000000	0.003721
912.000000	0.003665
911.000000	0.003593
910.000000	0.003523
909.000000	0.003464
908.000000	0.003416
907.000000	0.003376
906.000000	0.003335
905.000000	0.003287
904.000000	0.003241
903.000000	0.003208
902.000000	0.003180
901.000000	0.003136
900.000000	0.003080
899.000000	0.003047
898.000000	0.003061
897.000000	0.003099
896.000000	0.003114
895.000000	0.003084
894.000000	0.003030
893.000000	0.002981
892.000000	0.002954
891.000000	0.002946
890.000000	0.002946
889.000000	0.002945
888.000000	0.002946
887.000000	0.002970
886.000000	0.003042
885.000000	0.003186
884.000000	0.003416
883.000000	0.003736
882.000000	0.004146
881.000000	0.004641
880.000000	0.005215
879.000000	0.005854
878.000000	0.006509
877.000000	0.007100
876.000000	0.007528
875.000000	0.007713
874.000000	0.007615
873.000000	0.007252
872.000000	0.006703
871.000000	0.006080
870.000000	0.005487
869.000000	0.004987
868.000000	0.004611
867.000000	0.004362
866.000000	0.004213
865.000000	0.004116
864.000000	0.004033
863.000000	0.003958
862.000000	0.003901
861.000000	0.003862
860.000000	0.003837
859.000000	0.003826
858.000000	0.003831
857.000000	0.003833
856.000000	0.003807
855.000000	0.003747
854.000000	0.003674
853.000000	0.003623
852.000000	0.003618
851.000000	0.003660
850.000000	0.003717
849.000000	0.003736
848.000000	0.003680
847.000000	0.003564
846.000000	0.003441
845.000000	0.003349
844.000000	0.003286
843.000000	0.003231
842.000000	0.003178
841.000000	0.003140
840.000000	0.003129
839.000000	0.003136
838.000000	0.003133
837.000000	0.003099
836.000000	0.003038
835.000000	0.002983
834.000000	0.002965
833.000000	0.002980
832.000000	0.002995
831.000000	0.002980
830.000000	0.002940
829.000000	0.002911
828.000000	0.002932
827.000000	0.002999
826.000000	0.003064
825.000000	0.003077
824.000000	0.003037
823.000000	0.002992
822.000000	0.002996
821.000000	0.003054
820.000000	0.003123
819.000000	0.003156
818.000000	0.003147
817.000000	0.003134
816.000000	0.003163
815.000000	0.003235
814.000000	0.003305
813.000000	0.003317
812.000000	0.003266
811.000000	0.003190
810.000000	0.003129
809.000000	0.003093
808.000000	0.003074
807.000000	0.003059
806.000000	0.003035
805.000000	0.002993
804.000000	0.002946
803.000000	0.002929
802.000000	0.002959
801.000000	0.003009
800.000000	0.003034
799.000000	0.003032
798.000000	0.003048
797.000000	0.003114
796.000000	0.003207
795.000000	0.003279
794.000000	0.003312
793.000000	0.003326
792.000000	0.003340
791.000000	0.003353
790.000000	0.003358
789.000000	0.003358
788.000000	0.003361
787.000000	0.003357
786.000000	0.003339
785.000000	0.003325
784.000000	0.003351
783.000000	0.003428
782.000000	0.003524
781.000000	0.003594
780.000000	0.003627
779.000000	0.003644
778.000000	0.003656
777.000000	0.003652
776.000000	0.003615
775.000000	0.003554
774.000000	0.003504
773.000000	0.003491
772.000000	0.003513
771.000000	0.003557
770.000000	0.003617
769.000000	0.003700
768.000000	0.003793
767.000000	0.003864
766.000000	0.003882
765.000000	0.003849
764.000000	0.003798
763.000000	0.003754
762.000000	0.003728
761.000000	0.003733
760.000000	0.003794
759.000000	0.003916
758.000000	0.004065
757.000000	0.004190
756.000000	0.004264
755.000000	0.004294
754.000000	0.004289
753.000000	0.004258
752.000000	0.004220
751.000000	0.004207
750.000000	0.004230
749.000000	0.004272
748.000000	0.004309
747.000000	0.004338
746.000000	0.004366
745.000000	0.004404
744.000000	0.004457
743.000000	0.004532
742.000000	0.004619
741.000000	0.004697
740.000000	0.004755
739.000000	0.004802
738.000000	0.004837
737.000000	0.004840
736.000000	0.004799
735.000000	0.004750
734.000000	0.004752
733.000000	0.004830
732.000000	0.004960
731.000000	0.005100
730.000000	0.005234
729.000000	0.005371
728.000000	0.005524
727.000000	0.005690
726.000000	0.005851
725.000000	0.005982
724.000000	0.006065
723.000000	0.006106
722.000000	0.006138
721.000000	0.006194
720.000000	0.006278
719.000000	0.006377
718.000000	0.006483
717.000000	0.006603
716.000000	0.006741
715.000000	0.006886
714.000000	0.007012
713.000000	0.007101
712.000000	0.007142
711.000000	0.007132
710.000000	0.007073
709.000000	0.006988
708.000000	0.006916
707.000000	0.006880
706.000000	0.006880
705.000000	0.006918
704.000000	0.007005
703.000000	0.007130
702.000000	0.007235
701.000000	0.007259
700.000000	0.007198
699.000000	0.007110
698.000000	0.007052
697.000000	0.007045
696.000000	0.007079
695.000000	0.007146
694.000000	0.007228
693.000000	0.007290
692.000000	0.007320
691.000000	0.007337
690.000000	0.007360
689.000000	0.007381
688.000000	0.007384
687.000000	0.007380
686.000000	0.007389
685.000000	0.007416
684.000000	0.007467
683.000000	0.007555
682.000000	0.007667
681.000000	0.007756
680.000000	0.007802
679.000000	0.007835
678.000000	0.007884
677.000000	0.007945
676.000000	0.007994
675.000000	0.008020
674.000000	0.008034
673.000000	0.008053
672.000000	0.008065
671.000000	0.008010
670.000000	0.007798
669.000000	0.007398
668.000000	0.007100
667.000000	0.007322
666.000000	0.007739
665.000000	0.008103
664.000000	0.008389
663.000000	0.008544
662.000000	0.008560
661.000000	0.008515
660.000000	0.008479
659.000000	0.008457
658.000000	0.008429
657.000000	0.008429
656.000000	0.008477
655.000000	0.008529
654.000000	0.008550
653.000000	0.008566
652.000000	0.008600
651.000000	0.008625
650.000000	0.008613
649.000000	0.008583
648.000000	0.008556
647.000000	0.008526
646.000000	0.008509
645.000000	0.008540
644.000000	0.008614
643.000000	0.008668
642.000000	0.008649
641.000000	0.008566
640.000000	0.008473
639.000000	0.008419
638.000000	0.008432
637.000000	0.008494
636.000000	0.008542
635.000000	0.008535
634.000000	0.008524
633.000000	0.008588
632.000000	0.008716
631.000000	0.008811
630.000000	0.008820
629.000000	0.008804
628.000000	0.008828
627.000000	0.008875
626.000000	0.008886
625.000000	0.008856
624.000000	0.008825
623.000000	0.008818
622.000000	0.008825
621.000000	0.008814
620.000000	0.008765
619.000000	0.008684
618.000000	0.008626
617.000000	0.008649
616.000000	0.008752
615.000000	0.008864
614.000000	0.008912
613.000000	0.008893
612.000000	0.008855
611.000000	0.008839
610.000000	0.008855
609.000000	0.008881
608.000000	0.008888
607.000000	0.008865
606.000000	0.008843
605.000000	0.008843
604.000000	0.008848
603.000000	0.008829
602.000000	0.008798
601.000000	0.008793
600.000000	0.008819
599.000000	0.008845
598.000000	0.008855
597.000000	0.008862
596.000000	0.008876
595.000000	0.008878
594.000000	0.008848
593.000000	0.008785
592.000000	0.008708
591.000000	0.008650
590.000000	0.008635
589.000000	0.008644
588.000000	0.008620
587.000000	0.008545
586.000000	0.008487
585.000000	0.008526
584.000000	0.008657
583.000000	0.008794
582.000000	0.008870
581.000000	0.008868
580.000000	0.008797
579.000000	0.008684
578.000000	0.008595
577.000000	0.008599
576.000000	0.008693
575.000000	0.008821
574.000000	0.008944
573.000000	0.009043
572.000000	0.009064
571.000000	0.008962
570.000000	0.008804
569.000000	0.008749
568.000000	0.008870
567.000000	0.009076
566.000000	0.009256
565.000000	0.009400
564.000000	0.009543
563.000000	0.009663
562.000000	0.009710
561.000000	0.009696
560.000000	0.009673
559.000000	0.009658
558.000000	0.009636
557.000000	0.009602
556.000000	0.009559
555.000000	0.009497
554.000000	0.009419
553.000000	0.009354
552.000000	0.009311
551.000000	0.009246
550.000000	0.009139
549.000000	0.009036
548.000000	0.008985
547.000000	0.008954
546.000000	0.008875
545.000000	0.008739
544.000000	0.008595
543.000000	0.008484
542.000000	0.008417
541.000000	0.008396
540.000000	0.008412
539.000000	0.008429
538.000000	0.008420
537.000000	0.008393
536.000000	0.008390
535.000000	0.008453
534.000000	0.008607
533.000000	0.008827
532.000000	0.009004
531.000000	0.008988
530.000000	0.008741
529.000000	0.008392
528.000000	0.008102
527.000000	0.007949
526.000000	0.007930
525.000000	0.008011
524.000000	0.008126
523.000000	0.008180
522.000000	0.008118
521.000000	0.007977
520.000000	0.007835
519.000000	0.007720
518.000000	0.007601
517.000000	0.007441
516.000000	0.007224
515.000000	0.006968
514.000000	0.006753
513.000000	0.006688
512.000000	0.006796
511.000000	0.006941
510.000000	0.006956
509.000000	0.006818
508.000000	0.006624
507.000000	0.006439
506.000000	0.006256
505.000000	0.006075
504.000000	0.005960
503.000000	0.005965
502.000000	0.006050
501.000000	0.006112
500.000000	0.006097
499.000000	0.006072
498.000000	0.006151
497.000000	0.006354
496.000000	0.006562
495.000000	0.006619
494.000000	0.006495
493.000000	0.006283
492.000000	0.006072
491.000000	0.005890
490.000000	0.005764
489.000000	0.005737
488.000000	0.005770
487.000000	0.005729
486.000000	0.005537
485.000000	0.005277
484.000000	0.005093
483.000000	0.005044
482.000000	0.005097
481.000000	0.005202
480.000000	0.005315
479.000000	0.005394
478.000000	0.005443
477.000000	0.005505
476.000000	0.005564
475.000000	0.005527
474.000000	0.005367
473.000000	0.005239
472.000000	0.005311
471.000000	0.005512
470.000000	0.005605
469.000000	0.005510
468.000000	0.005385
467.000000	0.005445
466.000000	0.005760
465.000000	0.006192
464.000000	0.006443
463.000000	0.006206
462.000000	0.005466
461.000000	0.004620
460.000000	0.004118
459.000000	0.004038
458.000000	0.004095
457.000000	0.004053
456.000000	0.003956
455.000000	0.003877
454.000000	0.003517
453.000000	0.003141
452.000000	0.002799
451.000000	0.002794
450.000000	0.003055
