PE IR       SUBTECH     SPECTRUM    ASCII       PEDS        4.00        
   -1
3S-N10-F019_1.ASC
22/02/18
15:37:46.00
22/02/18
15:59:09.00
uco
Sample 019 By uco Date Friday, February 18 2022
450.000000
#HDR
-1
-1
#GR
cm-1
A
1.0
0.0
4000.000000
-1.000000
3551
8
0.052632
0.006179
#DATA
4000.000000	0.007602
3999.000000	0.007617
3998.000000	0.007640
3997.000000	0.007667
3996.000000	0.007693
3995.000000	0.007713
3994.000000	0.007725
3993.000000	0.007733
3992.000000	0.007738
3991.000000	0.007742
3990.000000	0.007743
3989.000000	0.007743
3988.000000	0.007743
3987.000000	0.007750
3986.000000	0.007760
3985.000000	0.007766
3984.000000	0.007763
3983.000000	0.007751
3982.000000	0.007737
3981.000000	0.007731
3980.000000	0.007731
3979.000000	0.007733
3978.000000	0.007735
3977.000000	0.007741
3976.000000	0.007758
3975.000000	0.007785
3974.000000	0.007815
3973.000000	0.007834
3972.000000	0.007837
3971.000000	0.007826
3970.000000	0.007813
3969.000000	0.007803
3968.000000	0.007798
3967.000000	0.007795
3966.000000	0.007791
3965.000000	0.007790
3964.000000	0.007790
3963.000000	0.007794
3962.000000	0.007800
3961.000000	0.007809
3960.000000	0.007817
3959.000000	0.007822
3958.000000	0.007825
3957.000000	0.007830
3956.000000	0.007837
3955.000000	0.007848
3954.000000	0.007861
3953.000000	0.007876
3952.000000	0.007889
3951.000000	0.007893
3950.000000	0.007884
3949.000000	0.007864
3948.000000	0.007851
3947.000000	0.007861
3946.000000	0.007892
3945.000000	0.007931
3944.000000	0.007957
3943.000000	0.007964
3942.000000	0.007952
3941.000000	0.007936
3940.000000	0.007927
3939.000000	0.007929
3938.000000	0.007937
3937.000000	0.007939
3936.000000	0.007924
3935.000000	0.007891
3934.000000	0.007858
3933.000000	0.007841
3932.000000	0.007847
3931.000000	0.007868
3930.000000	0.007898
3929.000000	0.007934
3928.000000	0.007975
3927.000000	0.008009
3926.000000	0.008025
3925.000000	0.008018
3924.000000	0.007995
3923.000000	0.007963
3922.000000	0.007928
3921.000000	0.007890
3920.000000	0.007849
3919.000000	0.007808
3918.000000	0.007784
3917.000000	0.007789
3916.000000	0.007815
3915.000000	0.007841
3914.000000	0.007856
3913.000000	0.007869
3912.000000	0.007894
3911.000000	0.007933
3910.000000	0.007980
3909.000000	0.008027
3908.000000	0.008073
3907.000000	0.008106
3906.000000	0.008099
3905.000000	0.008028
3904.000000	0.007903
3903.000000	0.007781
3902.000000	0.007725
3901.000000	0.007749
3900.000000	0.007818
3899.000000	0.007884
3898.000000	0.007915
3897.000000	0.007923
3896.000000	0.007930
3895.000000	0.007951
3894.000000	0.007982
3893.000000	0.008004
3892.000000	0.008004
3891.000000	0.007991
3890.000000	0.007974
3889.000000	0.007946
3888.000000	0.007900
3887.000000	0.007855
3886.000000	0.007844
3885.000000	0.007863
3884.000000	0.007880
3883.000000	0.007878
3882.000000	0.007873
3881.000000	0.007876
3880.000000	0.007888
3879.000000	0.007904
3878.000000	0.007917
3877.000000	0.007925
3876.000000	0.007939
3875.000000	0.007970
3874.000000	0.008000
3873.000000	0.007994
3872.000000	0.007936
3871.000000	0.007864
3870.000000	0.007835
3869.000000	0.007862
3868.000000	0.007906
3867.000000	0.007934
3866.000000	0.007959
3865.000000	0.007997
3864.000000	0.008014
3863.000000	0.007980
3862.000000	0.007918
3861.000000	0.007873
3860.000000	0.007885
3859.000000	0.007968
3858.000000	0.008115
3857.000000	0.008287
3856.000000	0.008422
3855.000000	0.008460
3854.000000	0.008361
3853.000000	0.008180
3852.000000	0.008018
3851.000000	0.007908
3850.000000	0.007834
3849.000000	0.007798
3848.000000	0.007792
3847.000000	0.007799
3846.000000	0.007813
3845.000000	0.007835
3844.000000	0.007868
3843.000000	0.007908
3842.000000	0.007938
3841.000000	0.007951
3840.000000	0.007956
3839.000000	0.007964
3838.000000	0.007981
3837.000000	0.008003
3836.000000	0.008015
3835.000000	0.008001
3834.000000	0.007954
3833.000000	0.007896
3832.000000	0.007862
3831.000000	0.007864
3830.000000	0.007892
3829.000000	0.007927
3828.000000	0.007957
3827.000000	0.007985
3826.000000	0.008012
3825.000000	0.008022
3824.000000	0.008003
3823.000000	0.007980
3822.000000	0.007994
3821.000000	0.008045
3820.000000	0.008087
3819.000000	0.008077
3818.000000	0.008021
3817.000000	0.007960
3816.000000	0.007945
3815.000000	0.007975
3814.000000	0.008008
3813.000000	0.008024
3812.000000	0.008036
3811.000000	0.008048
3810.000000	0.008047
3809.000000	0.008019
3808.000000	0.007983
3807.000000	0.007968
3806.000000	0.007975
3805.000000	0.007979
3804.000000	0.007970
3803.000000	0.007974
3802.000000	0.008021
3801.000000	0.008089
3800.000000	0.008120
3799.000000	0.008096
3798.000000	0.008039
3797.000000	0.007992
3796.000000	0.007978
3795.000000	0.007990
3794.000000	0.008013
3793.000000	0.008041
3792.000000	0.008074
3791.000000	0.008106
3790.000000	0.008127
3789.000000	0.008133
3788.000000	0.008133
3787.000000	0.008134
3786.000000	0.008134
3785.000000	0.008132
3784.000000	0.008129
3783.000000	0.008125
3782.000000	0.008121
3781.000000	0.008118
3780.000000	0.008111
3779.000000	0.008093
3778.000000	0.008066
3777.000000	0.008042
3776.000000	0.008034
3775.000000	0.008048
3774.000000	0.008073
3773.000000	0.008084
3772.000000	0.008066
3771.000000	0.008031
3770.000000	0.008004
3769.000000	0.007990
3768.000000	0.007982
3767.000000	0.007970
3766.000000	0.007960
3765.000000	0.007960
3764.000000	0.007967
3763.000000	0.007965
3762.000000	0.007957
3761.000000	0.007963
3760.000000	0.007982
3759.000000	0.007987
3758.000000	0.007969
3757.000000	0.007946
3756.000000	0.007929
3755.000000	0.007910
3754.000000	0.007878
3753.000000	0.007834
3752.000000	0.007779
3751.000000	0.007715
3750.000000	0.007676
3749.000000	0.007696
3748.000000	0.007748
3747.000000	0.007770
3746.000000	0.007743
3745.000000	0.007710
3744.000000	0.007721
3743.000000	0.007746
3742.000000	0.007734
3741.000000	0.007691
3740.000000	0.007652
3739.000000	0.007626
3738.000000	0.007603
3737.000000	0.007587
3736.000000	0.007590
3735.000000	0.007595
3734.000000	0.007580
3733.000000	0.007579
3732.000000	0.007627
3731.000000	0.007705
3730.000000	0.007765
3729.000000	0.007774
3728.000000	0.007749
3727.000000	0.007733
3726.000000	0.007743
3725.000000	0.007763
3724.000000	0.007778
3723.000000	0.007798
3722.000000	0.007824
3721.000000	0.007852
3720.000000	0.007878
3719.000000	0.007893
3718.000000	0.007898
3717.000000	0.007897
3716.000000	0.007885
3715.000000	0.007865
3714.000000	0.007853
3713.000000	0.007868
3712.000000	0.007898
3711.000000	0.007910
3710.000000	0.007893
3709.000000	0.007863
3708.000000	0.007833
3707.000000	0.007808
3706.000000	0.007790
3705.000000	0.007786
3704.000000	0.007806
3703.000000	0.007850
3702.000000	0.007898
3701.000000	0.007927
3700.000000	0.007936
3699.000000	0.007934
3698.000000	0.007936
3697.000000	0.007953
3696.000000	0.007979
3695.000000	0.007996
3694.000000	0.008001
3693.000000	0.008015
3692.000000	0.008040
3691.000000	0.008045
3690.000000	0.007984
3689.000000	0.007874
3688.000000	0.007797
3687.000000	0.007781
3686.000000	0.007797
3685.000000	0.007816
3684.000000	0.007838
3683.000000	0.007864
3682.000000	0.007899
3681.000000	0.007951
3680.000000	0.008031
3679.000000	0.008124
3678.000000	0.008191
3677.000000	0.008228
3676.000000	0.008262
3675.000000	0.008294
3674.000000	0.008286
3673.000000	0.008224
3672.000000	0.008125
3671.000000	0.008050
3670.000000	0.008030
3669.000000	0.008030
3668.000000	0.008023
3667.000000	0.008015
3666.000000	0.008024
3665.000000	0.008064
3664.000000	0.008125
3663.000000	0.008189
3662.000000	0.008238
3661.000000	0.008266
3660.000000	0.008278
3659.000000	0.008280
3658.000000	0.008284
3657.000000	0.008299
3656.000000	0.008317
3655.000000	0.008321
3654.000000	0.008294
3653.000000	0.008243
3652.000000	0.008195
3651.000000	0.008185
3650.000000	0.008207
3649.000000	0.008232
3648.000000	0.008265
3647.000000	0.008324
3646.000000	0.008392
3645.000000	0.008446
3644.000000	0.008484
3643.000000	0.008521
3642.000000	0.008573
3641.000000	0.008633
3640.000000	0.008684
3639.000000	0.008715
3638.000000	0.008719
3637.000000	0.008698
3636.000000	0.008664
3635.000000	0.008641
3634.000000	0.008642
3633.000000	0.008647
3632.000000	0.008627
3631.000000	0.008590
3630.000000	0.008584
3629.000000	0.008639
3628.000000	0.008711
3627.000000	0.008758
3626.000000	0.008787
3625.000000	0.008821
3624.000000	0.008877
3623.000000	0.008941
3622.000000	0.008988
3621.000000	0.009012
3620.000000	0.009029
3619.000000	0.009056
3618.000000	0.009105
3617.000000	0.009168
3616.000000	0.009223
3615.000000	0.009254
3614.000000	0.009261
3613.000000	0.009252
3612.000000	0.009234
3611.000000	0.009219
3610.000000	0.009225
3609.000000	0.009274
3608.000000	0.009369
3607.000000	0.009483
3606.000000	0.009596
3605.000000	0.009695
3604.000000	0.009777
3603.000000	0.009838
3602.000000	0.009884
3601.000000	0.009924
3600.000000	0.009964
3599.000000	0.010000
3598.000000	0.010030
3597.000000	0.010052
3596.000000	0.010064
3595.000000	0.010071
3594.000000	0.010084
3593.000000	0.010113
3592.000000	0.010156
3591.000000	0.010195
3590.000000	0.010226
3589.000000	0.010277
3588.000000	0.010364
3587.000000	0.010473
3586.000000	0.010572
3585.000000	0.010653
3584.000000	0.010720
3583.000000	0.010784
3582.000000	0.010848
3581.000000	0.010917
3580.000000	0.010990
3579.000000	0.011062
3578.000000	0.011127
3577.000000	0.011183
3576.000000	0.011230
3575.000000	0.011272
3574.000000	0.011311
3573.000000	0.011342
3572.000000	0.011357
3571.000000	0.011350
3570.000000	0.011332
3569.000000	0.011338
3568.000000	0.011408
3567.000000	0.011540
3566.000000	0.011685
3565.000000	0.011799
3564.000000	0.011866
3563.000000	0.011901
3562.000000	0.011924
3561.000000	0.011951
3560.000000	0.011991
3559.000000	0.012048
3558.000000	0.012126
3557.000000	0.012220
3556.000000	0.012314
3555.000000	0.012386
3554.000000	0.012433
3553.000000	0.012462
3552.000000	0.012486
3551.000000	0.012513
3550.000000	0.012540
3549.000000	0.012569
3548.000000	0.012610
3547.000000	0.012679
3546.000000	0.012779
3545.000000	0.012896
3544.000000	0.013004
3543.000000	0.013090
3542.000000	0.013158
3541.000000	0.013218
3540.000000	0.013278
3539.000000	0.013333
3538.000000	0.013379
3537.000000	0.013413
3536.000000	0.013439
3535.000000	0.013463
3534.000000	0.013493
3533.000000	0.013536
3532.000000	0.013600
3531.000000	0.013683
3530.000000	0.013773
3529.000000	0.013848
3528.000000	0.013894
3527.000000	0.013917
3526.000000	0.013935
3525.000000	0.013968
3524.000000	0.014024
3523.000000	0.014095
3522.000000	0.014169
3521.000000	0.014240
3520.000000	0.014312
3519.000000	0.014386
3518.000000	0.014454
3517.000000	0.014509
3516.000000	0.014549
3515.000000	0.014584
3514.000000	0.014618
3513.000000	0.014649
3512.000000	0.014674
3511.000000	0.014699
3510.000000	0.014730
3509.000000	0.014773
3508.000000	0.014829
3507.000000	0.014891
3506.000000	0.014948
3505.000000	0.014997
3504.000000	0.015041
3503.000000	0.015089
3502.000000	0.015144
3501.000000	0.015201
3500.000000	0.015250
3499.000000	0.015292
3498.000000	0.015336
3497.000000	0.015392
3496.000000	0.015457
3495.000000	0.015518
3494.000000	0.015570
3493.000000	0.015622
3492.000000	0.015682
3491.000000	0.015749
3490.000000	0.015814
3489.000000	0.015871
3488.000000	0.015920
3487.000000	0.015959
3486.000000	0.015987
3485.000000	0.016009
3484.000000	0.016036
3483.000000	0.016073
3482.000000	0.016113
3481.000000	0.016148
3480.000000	0.016184
3479.000000	0.016228
3478.000000	0.016281
3477.000000	0.016332
3476.000000	0.016371
3475.000000	0.016403
3474.000000	0.016434
3473.000000	0.016472
3472.000000	0.016519
3471.000000	0.016574
3470.000000	0.016631
3469.000000	0.016678
3468.000000	0.016712
3467.000000	0.016742
3466.000000	0.016780
3465.000000	0.016829
3464.000000	0.016885
3463.000000	0.016938
3462.000000	0.016981
3461.000000	0.017012
3460.000000	0.017030
3459.000000	0.017040
3458.000000	0.017052
3457.000000	0.017072
3456.000000	0.017108
3455.000000	0.017165
3454.000000	0.017240
3453.000000	0.017319
3452.000000	0.017382
3451.000000	0.017424
3450.000000	0.017454
3449.000000	0.017481
3448.000000	0.017511
3447.000000	0.017544
3446.000000	0.017582
3445.000000	0.017629
3444.000000	0.017686
3443.000000	0.017745
3442.000000	0.017797
3441.000000	0.017836
3440.000000	0.017873
3439.000000	0.017919
3438.000000	0.017981
3437.000000	0.018046
3436.000000	0.018098
3435.000000	0.018133
3434.000000	0.018163
3433.000000	0.018203
3432.000000	0.018254
3431.000000	0.018307
3430.000000	0.018354
3429.000000	0.018392
3428.000000	0.018424
3427.000000	0.018458
3426.000000	0.018501
3425.000000	0.018553
3424.000000	0.018606
3423.000000	0.018650
3422.000000	0.018689
3421.000000	0.018729
3420.000000	0.018775
3419.000000	0.018826
3418.000000	0.018881
3417.000000	0.018937
3416.000000	0.018992
3415.000000	0.019044
3414.000000	0.019090
3413.000000	0.019134
3412.000000	0.019179
3411.000000	0.019233
3410.000000	0.019298
3409.000000	0.019367
3408.000000	0.019436
3407.000000	0.019498
3406.000000	0.019552
3405.000000	0.019598
3404.000000	0.019635
3403.000000	0.019667
3402.000000	0.019700
3401.000000	0.019744
3400.000000	0.019795
3399.000000	0.019844
3398.000000	0.019878
3397.000000	0.019898
3396.000000	0.019921
3395.000000	0.019965
3394.000000	0.020030
3393.000000	0.020094
3392.000000	0.020136
3391.000000	0.020155
3390.000000	0.020172
3389.000000	0.020206
3388.000000	0.020263
3387.000000	0.020331
3386.000000	0.020396
3385.000000	0.020452
3384.000000	0.020502
3383.000000	0.020549
3382.000000	0.020593
3381.000000	0.020634
3380.000000	0.020676
3379.000000	0.020723
3378.000000	0.020775
3377.000000	0.020823
3376.000000	0.020864
3375.000000	0.020904
3374.000000	0.020950
3373.000000	0.021003
3372.000000	0.021061
3371.000000	0.021126
3370.000000	0.021197
3369.000000	0.021270
3368.000000	0.021341
3367.000000	0.021415
3366.000000	0.021493
3365.000000	0.021573
3364.000000	0.021640
3363.000000	0.021691
3362.000000	0.021735
3361.000000	0.021789
3360.000000	0.021860
3359.000000	0.021946
3358.000000	0.022034
3357.000000	0.022116
3356.000000	0.022184
3355.000000	0.022238
3354.000000	0.022278
3353.000000	0.022310
3352.000000	0.022344
3351.000000	0.022397
3350.000000	0.022478
3349.000000	0.022580
3348.000000	0.022686
3347.000000	0.022781
3346.000000	0.022857
3345.000000	0.022921
3344.000000	0.022986
3343.000000	0.023056
3342.000000	0.023128
3341.000000	0.023188
3340.000000	0.023234
3339.000000	0.023276
3338.000000	0.023331
3337.000000	0.023403
3336.000000	0.023490
3335.000000	0.023582
3334.000000	0.023672
3333.000000	0.023750
3332.000000	0.023816
3331.000000	0.023876
3330.000000	0.023940
3329.000000	0.024004
3328.000000	0.024055
3327.000000	0.024090
3326.000000	0.024119
3325.000000	0.024157
3324.000000	0.024211
3323.000000	0.024276
3322.000000	0.024346
3321.000000	0.024413
3320.000000	0.024474
3319.000000	0.024531
3318.000000	0.024584
3317.000000	0.024627
3316.000000	0.024654
3315.000000	0.024672
3314.000000	0.024693
3313.000000	0.024725
3312.000000	0.024761
3311.000000	0.024793
3310.000000	0.024825
3309.000000	0.024866
3308.000000	0.024922
3307.000000	0.024992
3306.000000	0.025067
3305.000000	0.025135
3304.000000	0.025181
3303.000000	0.025203
3302.000000	0.025215
3301.000000	0.025233
3300.000000	0.025262
3299.000000	0.025292
3298.000000	0.025312
3297.000000	0.025320
3296.000000	0.025321
3295.000000	0.025322
3294.000000	0.025324
3293.000000	0.025328
3292.000000	0.025333
3291.000000	0.025343
3290.000000	0.025359
3289.000000	0.025380
3288.000000	0.025401
3287.000000	0.025410
3286.000000	0.025407
3285.000000	0.025399
3284.000000	0.025399
3283.000000	0.025414
3282.000000	0.025440
3281.000000	0.025463
3280.000000	0.025465
3279.000000	0.025441
3278.000000	0.025398
3277.000000	0.025354
3276.000000	0.025321
3275.000000	0.025297
3274.000000	0.025267
3273.000000	0.025227
3272.000000	0.025182
3271.000000	0.025142
3270.000000	0.025113
3269.000000	0.025091
3268.000000	0.025069
3267.000000	0.025041
3266.000000	0.025003
3265.000000	0.024957
3264.000000	0.024913
3263.000000	0.024878
3262.000000	0.024849
3261.000000	0.024811
3260.000000	0.024751
3259.000000	0.024669
3258.000000	0.024583
3257.000000	0.024510
3256.000000	0.024460
3255.000000	0.024424
3254.000000	0.024380
3253.000000	0.024314
3252.000000	0.024229
3251.000000	0.024146
3250.000000	0.024084
3249.000000	0.024047
3248.000000	0.024027
3247.000000	0.024013
3246.000000	0.023997
3245.000000	0.023970
3244.000000	0.023929
3243.000000	0.023881
3242.000000	0.023835
3241.000000	0.023787
3240.000000	0.023728
3239.000000	0.023652
3238.000000	0.023565
3237.000000	0.023478
3236.000000	0.023402
3235.000000	0.023343
3234.000000	0.023301
3233.000000	0.023278
3232.000000	0.023268
3231.000000	0.023260
3230.000000	0.023242
3229.000000	0.023208
3228.000000	0.023164
3227.000000	0.023125
3226.000000	0.023093
3225.000000	0.023064
3224.000000	0.023030
3223.000000	0.022995
3222.000000	0.022964
3221.000000	0.022935
3220.000000	0.022897
3219.000000	0.022844
3218.000000	0.022782
3217.000000	0.022724
3216.000000	0.022679
3215.000000	0.022643
3214.000000	0.022609
3213.000000	0.022571
3212.000000	0.022531
3211.000000	0.022494
3210.000000	0.022456
3209.000000	0.022408
3208.000000	0.022347
3207.000000	0.022283
3206.000000	0.022234
3205.000000	0.022200
3204.000000	0.022164
3203.000000	0.022110
3202.000000	0.022047
3201.000000	0.021994
3200.000000	0.021962
3199.000000	0.021942
3198.000000	0.021916
3197.000000	0.021879
3196.000000	0.021833
3195.000000	0.021784
3194.000000	0.021729
3193.000000	0.021667
3192.000000	0.021599
3191.000000	0.021531
3190.000000	0.021471
3189.000000	0.021420
3188.000000	0.021374
3187.000000	0.021327
3186.000000	0.021275
3185.000000	0.021215
3184.000000	0.021148
3183.000000	0.021078
3182.000000	0.021017
3181.000000	0.020971
3180.000000	0.020937
3179.000000	0.020902
3178.000000	0.020857
3177.000000	0.020800
3176.000000	0.020740
3175.000000	0.020683
3174.000000	0.020632
3173.000000	0.020582
3172.000000	0.020532
3171.000000	0.020477
3170.000000	0.020417
3169.000000	0.020350
3168.000000	0.020273
3167.000000	0.020187
3166.000000	0.020097
3165.000000	0.020006
3164.000000	0.019919
3163.000000	0.019846
3162.000000	0.019794
3161.000000	0.019760
3160.000000	0.019729
3159.000000	0.019686
3158.000000	0.019635
3157.000000	0.019584
3156.000000	0.019539
3155.000000	0.019489
3154.000000	0.019427
3153.000000	0.019354
3152.000000	0.019277
3151.000000	0.019209
3150.000000	0.019154
3149.000000	0.019115
3148.000000	0.019083
3147.000000	0.019049
3146.000000	0.019010
3145.000000	0.018974
3144.000000	0.018942
3143.000000	0.018913
3142.000000	0.018879
3141.000000	0.018835
3140.000000	0.018779
3139.000000	0.018714
3138.000000	0.018647
3137.000000	0.018590
3136.000000	0.018548
3135.000000	0.018519
3134.000000	0.018495
3133.000000	0.018466
3132.000000	0.018424
3131.000000	0.018368
3130.000000	0.018312
3129.000000	0.018273
3128.000000	0.018256
3127.000000	0.018256
3126.000000	0.018266
3125.000000	0.018276
3124.000000	0.018274
3123.000000	0.018246
3122.000000	0.018193
3121.000000	0.018131
3120.000000	0.018082
3119.000000	0.018054
3118.000000	0.018044
3117.000000	0.018041
3116.000000	0.018038
3115.000000	0.018035
3114.000000	0.018039
3113.000000	0.018054
3112.000000	0.018076
3111.000000	0.018093
3110.000000	0.018104
3109.000000	0.018117
3108.000000	0.018135
3107.000000	0.018153
3106.000000	0.018162
3105.000000	0.018161
3104.000000	0.018155
3103.000000	0.018153
3102.000000	0.018158
3101.000000	0.018172
3100.000000	0.018192
3099.000000	0.018209
3098.000000	0.018214
3097.000000	0.018214
3096.000000	0.018220
3095.000000	0.018243
3094.000000	0.018278
3093.000000	0.018312
3092.000000	0.018335
3091.000000	0.018347
3090.000000	0.018351
3089.000000	0.018351
3088.000000	0.018351
3087.000000	0.018354
3086.000000	0.018361
3085.000000	0.018368
3084.000000	0.018375
3083.000000	0.018384
3082.000000	0.018397
3081.000000	0.018414
3080.000000	0.018429
3079.000000	0.018438
3078.000000	0.018440
3077.000000	0.018435
3076.000000	0.018421
3075.000000	0.018402
3074.000000	0.018383
3073.000000	0.018370
3072.000000	0.018365
3071.000000	0.018367
3070.000000	0.018371
3069.000000	0.018367
3068.000000	0.018354
3067.000000	0.018342
3066.000000	0.018343
3065.000000	0.018353
3064.000000	0.018355
3063.000000	0.018336
3062.000000	0.018299
3061.000000	0.018258
3060.000000	0.018220
3059.000000	0.018183
3058.000000	0.018140
3057.000000	0.018091
3056.000000	0.018043
3055.000000	0.018003
3054.000000	0.017970
3053.000000	0.017937
3052.000000	0.017894
3051.000000	0.017837
3050.000000	0.017777
3049.000000	0.017722
3048.000000	0.017677
3047.000000	0.017636
3046.000000	0.017593
3045.000000	0.017546
3044.000000	0.017495
3043.000000	0.017443
3042.000000	0.017391
3041.000000	0.017337
3040.000000	0.017280
3039.000000	0.017216
3038.000000	0.017143
3037.000000	0.017067
3036.000000	0.016999
3035.000000	0.016947
3034.000000	0.016914
3033.000000	0.016890
3032.000000	0.016863
3031.000000	0.016825
3030.000000	0.016778
3029.000000	0.016731
3028.000000	0.016689
3027.000000	0.016651
3026.000000	0.016613
3025.000000	0.016574
3024.000000	0.016542
3023.000000	0.016524
3022.000000	0.016524
3021.000000	0.016534
3020.000000	0.016544
3019.000000	0.016550
3018.000000	0.016558
3017.000000	0.016580
3016.000000	0.016617
3015.000000	0.016666
3014.000000	0.016720
3013.000000	0.016776
3012.000000	0.016835
3011.000000	0.016895
3010.000000	0.016955
3009.000000	0.017011
3008.000000	0.017058
3007.000000	0.017098
3006.000000	0.017134
3005.000000	0.017161
3004.000000	0.017174
3003.000000	0.017166
3002.000000	0.017140
3001.000000	0.017099
3000.000000	0.017047
2999.000000	0.016987
2998.000000	0.016927
2997.000000	0.016881
2996.000000	0.016858
2995.000000	0.016864
2994.000000	0.016892
2993.000000	0.016932
2992.000000	0.016974
2991.000000	0.017021
2990.000000	0.017077
2989.000000	0.017149
2988.000000	0.017236
2987.000000	0.017339
2986.000000	0.017458
2985.000000	0.017588
2984.000000	0.017720
2983.000000	0.017849
2982.000000	0.017978
2981.000000	0.018117
2980.000000	0.018271
2979.000000	0.018439
2978.000000	0.018618
2977.000000	0.018804
2976.000000	0.018997
2975.000000	0.019195
2974.000000	0.019401
2973.000000	0.019623
2972.000000	0.019877
2971.000000	0.020184
2970.000000	0.020559
2969.000000	0.020997
2968.000000	0.021472
2967.000000	0.021958
2966.000000	0.022445
2965.000000	0.022927
2964.000000	0.023395
2963.000000	0.023842
2962.000000	0.024270
2961.000000	0.024684
2960.000000	0.025080
2959.000000	0.025441
2958.000000	0.025754
2957.000000	0.026010
2956.000000	0.026209
2955.000000	0.026351
2954.000000	0.026442
2953.000000	0.026495
2952.000000	0.026529
2951.000000	0.026566
2950.000000	0.026630
2949.000000	0.026739
2948.000000	0.026902
2947.000000	0.027122
2946.000000	0.027405
2945.000000	0.027763
2944.000000	0.028212
2943.000000	0.028761
2942.000000	0.029409
2941.000000	0.030153
2940.000000	0.030982
2939.000000	0.031886
2938.000000	0.032851
2937.000000	0.033866
2936.000000	0.034920
2935.000000	0.036009
2934.000000	0.037129
2933.000000	0.038265
2932.000000	0.039390
2931.000000	0.040481
2930.000000	0.041528
2929.000000	0.042528
2928.000000	0.043472
2927.000000	0.044338
2926.000000	0.045087
2925.000000	0.045672
2924.000000	0.046046
2923.000000	0.046174
2922.000000	0.046051
2921.000000	0.045695
2920.000000	0.045132
2919.000000	0.044376
2918.000000	0.043438
2917.000000	0.042341
2916.000000	0.041135
2915.000000	0.039888
2914.000000	0.038663
2913.000000	0.037499
2912.000000	0.036414
2911.000000	0.035416
2910.000000	0.034504
2909.000000	0.033675
2908.000000	0.032921
2907.000000	0.032236
2906.000000	0.031615
2905.000000	0.031048
2904.000000	0.030522
2903.000000	0.030025
2902.000000	0.029556
2901.000000	0.029115
2900.000000	0.028696
2899.000000	0.028288
2898.000000	0.027887
2897.000000	0.027499
2896.000000	0.027128
2895.000000	0.026772
2894.000000	0.026426
2893.000000	0.026084
2892.000000	0.025747
2891.000000	0.025416
2890.000000	0.025096
2889.000000	0.024795
2888.000000	0.024519
2887.000000	0.024273
2886.000000	0.024054
2885.000000	0.023861
2884.000000	0.023696
2883.000000	0.023562
2882.000000	0.023464
2881.000000	0.023405
2880.000000	0.023389
2879.000000	0.023416
2878.000000	0.023485
2877.000000	0.023594
2876.000000	0.023741
2875.000000	0.023923
2874.000000	0.024124
2873.000000	0.024318
2872.000000	0.024475
2871.000000	0.024579
2870.000000	0.024639
2869.000000	0.024692
2868.000000	0.024785
2867.000000	0.024953
2866.000000	0.025221
2865.000000	0.025598
2864.000000	0.026085
2863.000000	0.026681
2862.000000	0.027392
2861.000000	0.028220
2860.000000	0.029155
2859.000000	0.030164
2858.000000	0.031197
2857.000000	0.032198
2856.000000	0.033105
2855.000000	0.033853
2854.000000	0.034366
2853.000000	0.034579
2852.000000	0.034447
2851.000000	0.033962
2850.000000	0.033151
2849.000000	0.032074
2848.000000	0.030810
2847.000000	0.029456
2846.000000	0.028107
2845.000000	0.026835
2844.000000	0.025677
2843.000000	0.024641
2842.000000	0.023723
2841.000000	0.022918
2840.000000	0.022225
2839.000000	0.021638
2838.000000	0.021142
2837.000000	0.020718
2836.000000	0.020344
2835.000000	0.020009
2834.000000	0.019708
2833.000000	0.019438
2832.000000	0.019194
2831.000000	0.018972
2830.000000	0.018767
2829.000000	0.018578
2828.000000	0.018403
2827.000000	0.018240
2826.000000	0.018090
2825.000000	0.017957
2824.000000	0.017841
2823.000000	0.017734
2822.000000	0.017623
2821.000000	0.017502
2820.000000	0.017374
2819.000000	0.017250
2818.000000	0.017139
2817.000000	0.017042
2816.000000	0.016955
2815.000000	0.016871
2814.000000	0.016793
2813.000000	0.016723
2812.000000	0.016661
2811.000000	0.016601
2810.000000	0.016533
2809.000000	0.016452
2808.000000	0.016363
2807.000000	0.016281
2806.000000	0.016221
2805.000000	0.016186
2804.000000	0.016165
2803.000000	0.016143
2802.000000	0.016108
2801.000000	0.016058
2800.000000	0.015997
2799.000000	0.015935
2798.000000	0.015884
2797.000000	0.015847
2796.000000	0.015819
2795.000000	0.015785
2794.000000	0.015743
2793.000000	0.015699
2792.000000	0.015658
2791.000000	0.015622
2790.000000	0.015590
2789.000000	0.015560
2788.000000	0.015529
2787.000000	0.015494
2786.000000	0.015450
2785.000000	0.015398
2784.000000	0.015344
2783.000000	0.015291
2782.000000	0.015243
2781.000000	0.015202
2780.000000	0.015163
2779.000000	0.015123
2778.000000	0.015081
2777.000000	0.015043
2776.000000	0.015013
2775.000000	0.014990
2774.000000	0.014967
2773.000000	0.014941
2772.000000	0.014912
2771.000000	0.014880
2770.000000	0.014847
2769.000000	0.014813
2768.000000	0.014780
2767.000000	0.014754
2766.000000	0.014742
2765.000000	0.014741
2764.000000	0.014738
2763.000000	0.014719
2762.000000	0.014684
2761.000000	0.014647
2760.000000	0.014618
2759.000000	0.014597
2758.000000	0.014576
2757.000000	0.014552
2756.000000	0.014528
2755.000000	0.014506
2754.000000	0.014490
2753.000000	0.014478
2752.000000	0.014467
2751.000000	0.014453
2750.000000	0.014436
2749.000000	0.014418
2748.000000	0.014399
2747.000000	0.014376
2746.000000	0.014345
2745.000000	0.014310
2744.000000	0.014277
2743.000000	0.014249
2742.000000	0.014227
2741.000000	0.014205
2740.000000	0.014187
2739.000000	0.014174
2738.000000	0.014165
2737.000000	0.014153
2736.000000	0.014132
2735.000000	0.014104
2734.000000	0.014083
2733.000000	0.014072
2732.000000	0.014066
2731.000000	0.014055
2730.000000	0.014040
2729.000000	0.014024
2728.000000	0.014007
2727.000000	0.013986
2726.000000	0.013963
2725.000000	0.013940
2724.000000	0.013917
2723.000000	0.013896
2722.000000	0.013882
2721.000000	0.013878
2720.000000	0.013877
2719.000000	0.013864
2718.000000	0.013834
2717.000000	0.013795
2716.000000	0.013760
2715.000000	0.013732
2714.000000	0.013712
2713.000000	0.013698
2712.000000	0.013690
2711.000000	0.013687
2710.000000	0.013688
2709.000000	0.013693
2708.000000	0.013696
2707.000000	0.013688
2706.000000	0.013668
2705.000000	0.013645
2704.000000	0.013626
2703.000000	0.013609
2702.000000	0.013589
2701.000000	0.013568
2700.000000	0.013551
2699.000000	0.013542
2698.000000	0.013540
2697.000000	0.013538
2696.000000	0.013535
2695.000000	0.013529
2694.000000	0.013522
2693.000000	0.013509
2692.000000	0.013493
2691.000000	0.013479
2690.000000	0.013476
2689.000000	0.013481
2688.000000	0.013482
2687.000000	0.013471
2686.000000	0.013451
2685.000000	0.013431
2684.000000	0.013414
2683.000000	0.013403
2682.000000	0.013401
2681.000000	0.013409
2680.000000	0.013419
2679.000000	0.013420
2678.000000	0.013408
2677.000000	0.013389
2676.000000	0.013372
2675.000000	0.013363
2674.000000	0.013363
2673.000000	0.013370
2672.000000	0.013377
2671.000000	0.013378
2670.000000	0.013371
2669.000000	0.013353
2668.000000	0.013324
2667.000000	0.013285
2666.000000	0.013245
2665.000000	0.013217
2664.000000	0.013202
2663.000000	0.013192
2662.000000	0.013183
2661.000000	0.013177
2660.000000	0.013174
2659.000000	0.013172
2658.000000	0.013169
2657.000000	0.013168
2656.000000	0.013163
2655.000000	0.013145
2654.000000	0.013109
2653.000000	0.013061
2652.000000	0.013014
2651.000000	0.012976
2650.000000	0.012953
2649.000000	0.012945
2648.000000	0.012944
2647.000000	0.012935
2646.000000	0.012903
2645.000000	0.012850
2644.000000	0.012793
2643.000000	0.012749
2642.000000	0.012727
2641.000000	0.012726
2640.000000	0.012736
2639.000000	0.012740
2638.000000	0.012727
2637.000000	0.012696
2636.000000	0.012654
2635.000000	0.012610
2634.000000	0.012571
2633.000000	0.012540
2632.000000	0.012519
2631.000000	0.012501
2630.000000	0.012483
2629.000000	0.012466
2628.000000	0.012457
2627.000000	0.012450
2626.000000	0.012429
2625.000000	0.012389
2624.000000	0.012339
2623.000000	0.012299
2622.000000	0.012276
2621.000000	0.012260
2620.000000	0.012241
2619.000000	0.012227
2618.000000	0.012231
2617.000000	0.012250
2616.000000	0.012260
2615.000000	0.012238
2614.000000	0.012187
2613.000000	0.012126
2612.000000	0.012072
2611.000000	0.012030
2610.000000	0.012005
2609.000000	0.012001
2608.000000	0.012016
2607.000000	0.012037
2606.000000	0.012051
2605.000000	0.012058
2604.000000	0.012060
2603.000000	0.012056
2602.000000	0.012039
2601.000000	0.012006
2600.000000	0.011958
2599.000000	0.011906
2598.000000	0.011863
2597.000000	0.011840
2596.000000	0.011840
2595.000000	0.011854
2594.000000	0.011866
2593.000000	0.011861
2592.000000	0.011831
2591.000000	0.011786
2590.000000	0.011749
2589.000000	0.011739
2588.000000	0.011751
2587.000000	0.011762
2586.000000	0.011752
2585.000000	0.011721
2584.000000	0.011677
2583.000000	0.011635
2582.000000	0.011607
2581.000000	0.011595
2580.000000	0.011594
2579.000000	0.011588
2578.000000	0.011575
2577.000000	0.011560
2576.000000	0.011553
2575.000000	0.011556
2574.000000	0.011565
2573.000000	0.011572
2572.000000	0.011572
2571.000000	0.011559
2570.000000	0.011535
2569.000000	0.011502
2568.000000	0.011469
2567.000000	0.011451
2566.000000	0.011463
2565.000000	0.011502
2564.000000	0.011542
2563.000000	0.011557
2562.000000	0.011543
2561.000000	0.011515
2560.000000	0.011486
2559.000000	0.011453
2558.000000	0.011409
2557.000000	0.011359
2556.000000	0.011320
2555.000000	0.011303
2554.000000	0.011311
2553.000000	0.011335
2552.000000	0.011360
2551.000000	0.011376
2550.000000	0.011387
2549.000000	0.011398
2548.000000	0.011404
2547.000000	0.011392
2546.000000	0.011362
2545.000000	0.011321
2544.000000	0.011281
2543.000000	0.011255
2542.000000	0.011258
2541.000000	0.011290
2540.000000	0.011328
2539.000000	0.011339
2538.000000	0.011309
2537.000000	0.011258
2536.000000	0.011209
2535.000000	0.011172
2534.000000	0.011150
2533.000000	0.011149
2532.000000	0.011171
2531.000000	0.011203
2530.000000	0.011220
2529.000000	0.011208
2528.000000	0.011179
2527.000000	0.011156
2526.000000	0.011153
2525.000000	0.011164
2524.000000	0.011167
2523.000000	0.011155
2522.000000	0.011145
2521.000000	0.011154
2520.000000	0.011181
2519.000000	0.011204
2518.000000	0.011210
2517.000000	0.011201
2516.000000	0.011187
2515.000000	0.011168
2514.000000	0.011137
2513.000000	0.011090
2512.000000	0.011037
2511.000000	0.011001
2510.000000	0.011001
2509.000000	0.011042
2508.000000	0.011103
2507.000000	0.011155
2506.000000	0.011185
2505.000000	0.011192
2504.000000	0.011179
2503.000000	0.011153
2502.000000	0.011121
2501.000000	0.011090
2500.000000	0.011060
2499.000000	0.011027
2498.000000	0.010992
2497.000000	0.010962
2496.000000	0.010936
2495.000000	0.010919
2494.000000	0.010910
2493.000000	0.010908
2492.000000	0.010898
2491.000000	0.010873
2490.000000	0.010843
2489.000000	0.010824
2488.000000	0.010822
2487.000000	0.010832
2486.000000	0.010848
2485.000000	0.010870
2484.000000	0.010888
2483.000000	0.010889
2482.000000	0.010876
2481.000000	0.010864
2480.000000	0.010864
2479.000000	0.010869
2478.000000	0.010862
2477.000000	0.010834
2476.000000	0.010793
2475.000000	0.010756
2474.000000	0.010743
2473.000000	0.010752
2472.000000	0.010769
2471.000000	0.010781
2470.000000	0.010794
2469.000000	0.010818
2468.000000	0.010843
2467.000000	0.010854
2466.000000	0.010848
2465.000000	0.010836
2464.000000	0.010832
2463.000000	0.010836
2462.000000	0.010840
2461.000000	0.010829
2460.000000	0.010789
2459.000000	0.010727
2458.000000	0.010668
2457.000000	0.010642
2456.000000	0.010652
2455.000000	0.010687
2454.000000	0.010727
2453.000000	0.010755
2452.000000	0.010759
2451.000000	0.010745
2450.000000	0.010740
2449.000000	0.010758
2448.000000	0.010777
2447.000000	0.010769
2446.000000	0.010732
2445.000000	0.010690
2444.000000	0.010653
2443.000000	0.010611
2442.000000	0.010567
2441.000000	0.010549
2440.000000	0.010571
2439.000000	0.010619
2438.000000	0.010663
2437.000000	0.010681
2436.000000	0.010667
2435.000000	0.010626
2434.000000	0.010581
2433.000000	0.010563
2432.000000	0.010588
2431.000000	0.010636
2430.000000	0.010680
2429.000000	0.010703
2428.000000	0.010704
2427.000000	0.010690
2426.000000	0.010667
2425.000000	0.010638
2424.000000	0.010600
2423.000000	0.010551
2422.000000	0.010503
2421.000000	0.010477
2420.000000	0.010483
2419.000000	0.010509
2418.000000	0.010534
2417.000000	0.010547
2416.000000	0.010551
2415.000000	0.010559
2414.000000	0.010578
2413.000000	0.010598
2412.000000	0.010595
2411.000000	0.010559
2410.000000	0.010514
2409.000000	0.010495
2408.000000	0.010513
2407.000000	0.010544
2406.000000	0.010557
2405.000000	0.010546
2404.000000	0.010525
2403.000000	0.010514
2402.000000	0.010523
2401.000000	0.010541
2400.000000	0.010548
2399.000000	0.010537
2398.000000	0.010518
2397.000000	0.010512
2396.000000	0.010520
2395.000000	0.010527
2394.000000	0.010520
2393.000000	0.010497
2392.000000	0.010473
2391.000000	0.010465
2390.000000	0.010481
2389.000000	0.010512
2388.000000	0.010534
2387.000000	0.010536
2386.000000	0.010527
2385.000000	0.010519
2384.000000	0.010507
2383.000000	0.010472
2382.000000	0.010412
2381.000000	0.010342
2380.000000	0.010288
2379.000000	0.010273
2378.000000	0.010311
2377.000000	0.010389
2376.000000	0.010467
2375.000000	0.010513
2374.000000	0.010523
2373.000000	0.010506
2372.000000	0.010451
2371.000000	0.010351
2370.000000	0.010232
2369.000000	0.010139
2368.000000	0.010096
2367.000000	0.010100
2366.000000	0.010142
2365.000000	0.010207
2364.000000	0.010276
2363.000000	0.010343
2362.000000	0.010417
2361.000000	0.010484
2360.000000	0.010523
2359.000000	0.010517
2358.000000	0.010466
2357.000000	0.010398
2356.000000	0.010343
2355.000000	0.010346
2354.000000	0.010378
2353.000000	0.010362
2352.000000	0.010264
2351.000000	0.010148
2350.000000	0.010104
2349.000000	0.010161
2348.000000	0.010277
2347.000000	0.010367
2346.000000	0.010382
2345.000000	0.010369
2344.000000	0.010392
2343.000000	0.010469
2342.000000	0.010539
2341.000000	0.010553
2340.000000	0.010519
2339.000000	0.010478
2338.000000	0.010447
2337.000000	0.010420
2336.000000	0.010385
2335.000000	0.010334
2334.000000	0.010273
2333.000000	0.010219
2332.000000	0.010209
2331.000000	0.010242
2330.000000	0.010313
2329.000000	0.010384
2328.000000	0.010463
2327.000000	0.010544
2326.000000	0.010618
2325.000000	0.010648
2324.000000	0.010618
2323.000000	0.010553
2322.000000	0.010511
2321.000000	0.010534
2320.000000	0.010613
2319.000000	0.010695
2318.000000	0.010747
2317.000000	0.010753
2316.000000	0.010728
2315.000000	0.010666
2314.000000	0.010592
2313.000000	0.010519
2312.000000	0.010465
2311.000000	0.010418
2310.000000	0.010391
2309.000000	0.010399
2308.000000	0.010448
2307.000000	0.010491
2306.000000	0.010486
2305.000000	0.010429
2304.000000	0.010359
2303.000000	0.010307
2302.000000	0.010286
2301.000000	0.010286
2300.000000	0.010297
2299.000000	0.010303
2298.000000	0.010311
2297.000000	0.010325
2296.000000	0.010345
2295.000000	0.010351
2294.000000	0.010336
2293.000000	0.010307
2292.000000	0.010286
2291.000000	0.010288
2290.000000	0.010325
2289.000000	0.010388
2288.000000	0.010442
2287.000000	0.010436
2286.000000	0.010363
2285.000000	0.010274
2284.000000	0.010231
2283.000000	0.010246
2282.000000	0.010277
2281.000000	0.010274
2280.000000	0.010217
2279.000000	0.010121
2278.000000	0.010023
2277.000000	0.009955
2276.000000	0.009923
2275.000000	0.009909
2274.000000	0.009904
2273.000000	0.009913
2272.000000	0.009943
2271.000000	0.009990
2270.000000	0.010052
2269.000000	0.010129
2268.000000	0.010205
2267.000000	0.010245
2266.000000	0.010220
2265.000000	0.010124
2264.000000	0.009981
2263.000000	0.009838
2262.000000	0.009758
2261.000000	0.009788
2260.000000	0.009902
2259.000000	0.010021
2258.000000	0.010074
2257.000000	0.010044
2256.000000	0.009952
2255.000000	0.009837
2254.000000	0.009747
2253.000000	0.009727
2252.000000	0.009785
2251.000000	0.009879
2250.000000	0.009947
2249.000000	0.009946
2248.000000	0.009867
2247.000000	0.009745
2246.000000	0.009645
2245.000000	0.009604
2244.000000	0.009594
2243.000000	0.009571
2242.000000	0.009544
2241.000000	0.009560
2240.000000	0.009617
2239.000000	0.009672
2238.000000	0.009710
2237.000000	0.009763
2236.000000	0.009836
2235.000000	0.009869
2234.000000	0.009821
2233.000000	0.009733
2232.000000	0.009671
2231.000000	0.009656
2230.000000	0.009672
2229.000000	0.009712
2228.000000	0.009763
2227.000000	0.009771
2226.000000	0.009688
2225.000000	0.009532
2224.000000	0.009394
2223.000000	0.009350
2222.000000	0.009407
2221.000000	0.009510
2220.000000	0.009594
2219.000000	0.009628
2218.000000	0.009620
2217.000000	0.009587
2216.000000	0.009535
2215.000000	0.009467
2214.000000	0.009400
2213.000000	0.009357
2212.000000	0.009348
2211.000000	0.009366
2210.000000	0.009407
2209.000000	0.009462
2208.000000	0.009507
2207.000000	0.009534
2206.000000	0.009557
2205.000000	0.009582
2204.000000	0.009582
2203.000000	0.009538
2202.000000	0.009475
2201.000000	0.009432
2200.000000	0.009409
2199.000000	0.009397
2198.000000	0.009419
2197.000000	0.009491
2196.000000	0.009561
2195.000000	0.009564
2194.000000	0.009522
2193.000000	0.009512
2192.000000	0.009545
2191.000000	0.009551
2190.000000	0.009497
2189.000000	0.009440
2188.000000	0.009427
2187.000000	0.009417
2186.000000	0.009354
2185.000000	0.009256
2184.000000	0.009196
2183.000000	0.009223
2182.000000	0.009309
2181.000000	0.009368
2180.000000	0.009330
2179.000000	0.009207
2178.000000	0.009086
2177.000000	0.009015
2176.000000	0.008944
2175.000000	0.008815
2174.000000	0.008668
2173.000000	0.008586
2172.000000	0.008579
2171.000000	0.008591
2170.000000	0.008607
2169.000000	0.008644
2168.000000	0.008685
2167.000000	0.008683
2166.000000	0.008641
2165.000000	0.008594
2164.000000	0.008547
2163.000000	0.008492
2162.000000	0.008478
2161.000000	0.008527
2160.000000	0.008518
2159.000000	0.008323
2158.000000	0.008032
2157.000000	0.007869
2156.000000	0.007887
2155.000000	0.007971
2154.000000	0.008039
2153.000000	0.008091
2152.000000	0.008113
2151.000000	0.008086
2150.000000	0.008066
2149.000000	0.008139
2148.000000	0.008299
2147.000000	0.008471
2146.000000	0.008638
2145.000000	0.008835
2144.000000	0.009030
2143.000000	0.009129
2142.000000	0.009105
2141.000000	0.009024
2140.000000	0.008955
2139.000000	0.008925
2138.000000	0.008964
2137.000000	0.009087
2136.000000	0.009211
2135.000000	0.009218
2134.000000	0.009101
2133.000000	0.008987
2132.000000	0.008977
2131.000000	0.009045
2130.000000	0.009121
2129.000000	0.009177
2128.000000	0.009225
2127.000000	0.009276
2126.000000	0.009339
2125.000000	0.009410
2124.000000	0.009460
2123.000000	0.009448
2122.000000	0.009387
2121.000000	0.009347
2120.000000	0.009367
2119.000000	0.009407
2118.000000	0.009413
2117.000000	0.009384
2116.000000	0.009361
2115.000000	0.009369
2114.000000	0.009398
2113.000000	0.009422
2112.000000	0.009425
2111.000000	0.009413
2110.000000	0.009414
2109.000000	0.009444
2108.000000	0.009480
2107.000000	0.009484
2106.000000	0.009456
2105.000000	0.009420
2104.000000	0.009388
2103.000000	0.009348
2102.000000	0.009303
2101.000000	0.009270
2100.000000	0.009253
2099.000000	0.009239
2098.000000	0.009234
2097.000000	0.009256
2096.000000	0.009298
2095.000000	0.009334
2094.000000	0.009359
2093.000000	0.009385
2092.000000	0.009404
2091.000000	0.009397
2090.000000	0.009373
2089.000000	0.009355
2088.000000	0.009338
2087.000000	0.009303
2086.000000	0.009268
2085.000000	0.009273
2084.000000	0.009310
2083.000000	0.009326
2082.000000	0.009291
2081.000000	0.009238
2080.000000	0.009202
2079.000000	0.009190
2078.000000	0.009202
2077.000000	0.009235
2076.000000	0.009266
2075.000000	0.009269
2074.000000	0.009255
2073.000000	0.009257
2072.000000	0.009272
2071.000000	0.009272
2070.000000	0.009255
2069.000000	0.009233
2068.000000	0.009176
2067.000000	0.009034
2066.000000	0.008823
2065.000000	0.008626
2064.000000	0.008512
2063.000000	0.008487
2062.000000	0.008548
2061.000000	0.008674
2060.000000	0.008799
2059.000000	0.008845
2058.000000	0.008821
2057.000000	0.008805
2056.000000	0.008841
2055.000000	0.008902
2054.000000	0.008955
2053.000000	0.008981
2052.000000	0.008949
2051.000000	0.008839
2050.000000	0.008711
2049.000000	0.008664
2048.000000	0.008699
2047.000000	0.008706
2046.000000	0.008619
2045.000000	0.008486
2044.000000	0.008360
2043.000000	0.008240
2042.000000	0.008140
2041.000000	0.008100
2040.000000	0.008093
2039.000000	0.008039
2038.000000	0.007946
2037.000000	0.007904
2036.000000	0.007935
2035.000000	0.007962
2034.000000	0.007970
2033.000000	0.008032
2032.000000	0.008143
2031.000000	0.008179
2030.000000	0.008073
2029.000000	0.007888
2028.000000	0.007697
2027.000000	0.007528
2026.000000	0.007445
2025.000000	0.007516
2024.000000	0.007669
2023.000000	0.007748
2022.000000	0.007726
2021.000000	0.007730
2020.000000	0.007825
2019.000000	0.007936
2018.000000	0.007999
2017.000000	0.008022
2016.000000	0.007968
2015.000000	0.007770
2014.000000	0.007516
2013.000000	0.007432
2012.000000	0.007615
2011.000000	0.007910
2010.000000	0.008112
2009.000000	0.008155
2008.000000	0.008076
2007.000000	0.007936
2006.000000	0.007831
2005.000000	0.007842
2004.000000	0.007920
2003.000000	0.007943
2002.000000	0.007892
2001.000000	0.007855
2000.000000	0.007864
1999.000000	0.007847
1998.000000	0.007766
1997.000000	0.007686
1996.000000	0.007673
1995.000000	0.007746
1994.000000	0.007913
1993.000000	0.008177
1992.000000	0.008448
1991.000000	0.008589
1990.000000	0.008581
1989.000000	0.008530
1988.000000	0.008502
1987.000000	0.008476
1986.000000	0.008453
1985.000000	0.008489
1984.000000	0.008578
1983.000000	0.008617
1982.000000	0.008548
1981.000000	0.008422
1980.000000	0.008295
1979.000000	0.008167
1978.000000	0.008054
1977.000000	0.008022
1976.000000	0.008075
1975.000000	0.008116
1974.000000	0.008088
1973.000000	0.008040
1972.000000	0.008023
1971.000000	0.008020
1970.000000	0.008004
1969.000000	0.007982
1968.000000	0.007964
1967.000000	0.007950
1966.000000	0.007970
1965.000000	0.008035
1964.000000	0.008061
1963.000000	0.007953
1962.000000	0.007745
1961.000000	0.007584
1960.000000	0.007557
1959.000000	0.007628
1958.000000	0.007745
1957.000000	0.007894
1956.000000	0.008039
1955.000000	0.008114
1954.000000	0.008108
1953.000000	0.008080
1952.000000	0.008064
1951.000000	0.008039
1950.000000	0.008000
1949.000000	0.007983
1948.000000	0.007993
1947.000000	0.007988
1946.000000	0.007965
1945.000000	0.007969
1944.000000	0.008021
1943.000000	0.008085
1942.000000	0.008138
1941.000000	0.008190
1940.000000	0.008237
1939.000000	0.008257
1938.000000	0.008258
1937.000000	0.008288
1936.000000	0.008364
1935.000000	0.008448
1934.000000	0.008504
1933.000000	0.008538
1932.000000	0.008553
1931.000000	0.008528
1930.000000	0.008477
1929.000000	0.008445
1928.000000	0.008424
1927.000000	0.008370
1926.000000	0.008288
1925.000000	0.008258
1924.000000	0.008322
1923.000000	0.008414
1922.000000	0.008455
1921.000000	0.008453
1920.000000	0.008445
1919.000000	0.008430
1918.000000	0.008395
1917.000000	0.008353
1916.000000	0.008321
1915.000000	0.008316
1914.000000	0.008346
1913.000000	0.008390
1912.000000	0.008406
1911.000000	0.008366
1910.000000	0.008316
1909.000000	0.008307
1908.000000	0.008321
1907.000000	0.008311
1906.000000	0.008293
1905.000000	0.008329
1904.000000	0.008415
1903.000000	0.008494
1902.000000	0.008550
1901.000000	0.008594
1900.000000	0.008597
1899.000000	0.008531
1898.000000	0.008434
1897.000000	0.008386
1896.000000	0.008395
1895.000000	0.008393
1894.000000	0.008357
1893.000000	0.008329
1892.000000	0.008322
1891.000000	0.008312
1890.000000	0.008308
1889.000000	0.008335
1888.000000	0.008355
1887.000000	0.008321
1886.000000	0.008257
1885.000000	0.008225
1884.000000	0.008239
1883.000000	0.008266
1882.000000	0.008314
1881.000000	0.008400
1880.000000	0.008483
1879.000000	0.008497
1878.000000	0.008447
1877.000000	0.008393
1876.000000	0.008355
1875.000000	0.008302
1874.000000	0.008232
1873.000000	0.008194
1872.000000	0.008192
1871.000000	0.008171
1870.000000	0.008128
1869.000000	0.008136
1868.000000	0.008200
1867.000000	0.008243
1866.000000	0.008270
1865.000000	0.008331
1864.000000	0.008410
1863.000000	0.008452
1862.000000	0.008452
1861.000000	0.008453
1860.000000	0.008452
1859.000000	0.008401
1858.000000	0.008311
1857.000000	0.008249
1856.000000	0.008229
1855.000000	0.008216
1854.000000	0.008209
1853.000000	0.008238
1852.000000	0.008278
1851.000000	0.008278
1850.000000	0.008224
1849.000000	0.008153
1848.000000	0.008093
1847.000000	0.008041
1846.000000	0.007999
1845.000000	0.007988
1844.000000	0.008008
1843.000000	0.008011
1842.000000	0.008021
1841.000000	0.008088
1840.000000	0.008177
1839.000000	0.008224
1838.000000	0.008226
1837.000000	0.008236
1836.000000	0.008258
1835.000000	0.008239
1834.000000	0.008162
1833.000000	0.008063
1832.000000	0.007985
1831.000000	0.007957
1830.000000	0.007977
1829.000000	0.008006
1828.000000	0.008027
1827.000000	0.008059
1826.000000	0.008105
1825.000000	0.008169
1824.000000	0.008224
1823.000000	0.008237
1822.000000	0.008223
1821.000000	0.008227
1820.000000	0.008255
1819.000000	0.008259
1818.000000	0.008212
1817.000000	0.008171
1816.000000	0.008169
1815.000000	0.008164
1814.000000	0.008128
1813.000000	0.008093
1812.000000	0.008099
1811.000000	0.008107
1810.000000	0.008091
1809.000000	0.008117
1808.000000	0.008201
1807.000000	0.008264
1806.000000	0.008267
1805.000000	0.008267
1804.000000	0.008291
1803.000000	0.008277
1802.000000	0.008184
1801.000000	0.008063
1800.000000	0.007991
1799.000000	0.007955
1798.000000	0.007949
1797.000000	0.008000
1796.000000	0.008075
1795.000000	0.008083
1794.000000	0.007974
1793.000000	0.007831
1792.000000	0.007769
1791.000000	0.007756
1790.000000	0.007756
1789.000000	0.007817
1788.000000	0.007930
1787.000000	0.008017
1786.000000	0.008035
1785.000000	0.008010
1784.000000	0.007955
1783.000000	0.007869
1782.000000	0.007797
1781.000000	0.007779
1780.000000	0.007808
1779.000000	0.007819
1778.000000	0.007793
1777.000000	0.007763
1776.000000	0.007739
1775.000000	0.007693
1774.000000	0.007579
1773.000000	0.007427
1772.000000	0.007365
1771.000000	0.007429
1770.000000	0.007576
1769.000000	0.007772
1768.000000	0.007948
1767.000000	0.008033
1766.000000	0.008061
1765.000000	0.008157
1764.000000	0.008385
1763.000000	0.008707
1762.000000	0.009057
1761.000000	0.009417
1760.000000	0.009862
1759.000000	0.010455
1758.000000	0.011228
1757.000000	0.012154
1756.000000	0.013136
1755.000000	0.014103
1754.000000	0.015080
1753.000000	0.016123
1752.000000	0.017249
1751.000000	0.018402
1750.000000	0.019467
1749.000000	0.020391
1748.000000	0.021151
1747.000000	0.021702
1746.000000	0.022010
1745.000000	0.022073
1744.000000	0.021910
1743.000000	0.021513
1742.000000	0.020873
1741.000000	0.020019
1740.000000	0.019027
1739.000000	0.018017
1738.000000	0.017148
1737.000000	0.016489
1736.000000	0.015871
1735.000000	0.015032
1734.000000	0.014047
1733.000000	0.013163
1732.000000	0.012522
1731.000000	0.012109
1730.000000	0.011810
1729.000000	0.011518
1728.000000	0.011191
1727.000000	0.010862
1726.000000	0.010548
1725.000000	0.010250
1724.000000	0.009974
1723.000000	0.009693
1722.000000	0.009411
1721.000000	0.009176
1720.000000	0.008981
1719.000000	0.008733
1718.000000	0.008420
1717.000000	0.008225
1716.000000	0.008224
1715.000000	0.008327
1714.000000	0.008509
1713.000000	0.008791
1712.000000	0.009117
1711.000000	0.009419
1710.000000	0.009701
1709.000000	0.010008
1708.000000	0.010365
1707.000000	0.010780
1706.000000	0.011273
1705.000000	0.011847
1704.000000	0.012411
1703.000000	0.012912
1702.000000	0.013326
1701.000000	0.013739
1700.000000	0.014311
1699.000000	0.014832
1698.000000	0.015396
1697.000000	0.016270
1696.000000	0.017333
1695.000000	0.018117
1694.000000	0.018567
1693.000000	0.019057
1692.000000	0.019720
1691.000000	0.020437
1690.000000	0.021116
1689.000000	0.021771
1688.000000	0.022418
1687.000000	0.023025
1686.000000	0.023536
1685.000000	0.024115
1684.000000	0.024950
1683.000000	0.025710
1682.000000	0.026398
1681.000000	0.027218
1680.000000	0.028099
1679.000000	0.028881
1678.000000	0.029558
1677.000000	0.030237
1676.000000	0.030986
1675.000000	0.031767
1674.000000	0.032481
1673.000000	0.033166
1672.000000	0.033933
1671.000000	0.034802
1670.000000	0.035794
1669.000000	0.036858
1668.000000	0.037846
1667.000000	0.038708
1666.000000	0.039486
1665.000000	0.040256
1664.000000	0.041080
1663.000000	0.041959
1662.000000	0.042831
1661.000000	0.043628
1660.000000	0.044370
1659.000000	0.045081
1658.000000	0.045739
1657.000000	0.046362
1656.000000	0.046990
1655.000000	0.047585
1654.000000	0.048208
1653.000000	0.049023
1652.000000	0.049444
1651.000000	0.049512
1650.000000	0.049628
1649.000000	0.049926
1648.000000	0.050373
1647.000000	0.050896
1646.000000	0.051333
1645.000000	0.051633
1644.000000	0.051888
1643.000000	0.052132
1642.000000	0.052364
1641.000000	0.052541
1640.000000	0.052626
1639.000000	0.052632
1638.000000	0.052596
1637.000000	0.052560
1636.000000	0.052560
1635.000000	0.052565
1634.000000	0.052528
1633.000000	0.052537
1632.000000	0.052550
1631.000000	0.052438
1630.000000	0.052146
1629.000000	0.051727
1628.000000	0.051241
1627.000000	0.050718
1626.000000	0.050167
1625.000000	0.049541
1624.000000	0.048792
1623.000000	0.047966
1622.000000	0.047183
1621.000000	0.046504
1620.000000	0.045908
1619.000000	0.045292
1618.000000	0.044506
1617.000000	0.043487
1616.000000	0.042342
1615.000000	0.041301
1614.000000	0.040500
1613.000000	0.039818
1612.000000	0.039062
1611.000000	0.038212
1610.000000	0.037403
1609.000000	0.036679
1608.000000	0.035965
1607.000000	0.035259
1606.000000	0.034637
1605.000000	0.034076
1604.000000	0.033516
1603.000000	0.032975
1602.000000	0.032501
1601.000000	0.032068
1600.000000	0.031630
1599.000000	0.031220
1598.000000	0.030895
1597.000000	0.030634
1596.000000	0.030385
1595.000000	0.030156
1594.000000	0.029998
1593.000000	0.029892
1592.000000	0.029787
1591.000000	0.029693
1590.000000	0.029663
1589.000000	0.029681
1588.000000	0.029698
1587.000000	0.029743
1586.000000	0.029883
1585.000000	0.030087
1584.000000	0.030271
1583.000000	0.030466
1582.000000	0.030724
1581.000000	0.030997
1580.000000	0.031229
1579.000000	0.031485
1578.000000	0.031816
1577.000000	0.032143
1576.000000	0.032340
1575.000000	0.032432
1574.000000	0.032600
1573.000000	0.032892
1572.000000	0.033215
1571.000000	0.033498
1570.000000	0.033819
1569.000000	0.034169
1568.000000	0.034461
1567.000000	0.034790
1566.000000	0.035243
1565.000000	0.035774
1564.000000	0.036289
1563.000000	0.036818
1562.000000	0.037367
1561.000000	0.037718
1560.000000	0.037716
1559.000000	0.038033
1558.000000	0.038704
1557.000000	0.039278
1556.000000	0.039874
1555.000000	0.040512
1554.000000	0.041078
1553.000000	0.041493
1552.000000	0.041857
1551.000000	0.042274
1550.000000	0.042716
1549.000000	0.043085
1548.000000	0.043360
1547.000000	0.043622
1546.000000	0.043915
1545.000000	0.044225
1544.000000	0.044488
1543.000000	0.044633
1542.000000	0.044654
1541.000000	0.044700
1540.000000	0.044871
1539.000000	0.044956
1538.000000	0.044905
1537.000000	0.044874
1536.000000	0.044881
1535.000000	0.044827
1534.000000	0.044688
1533.000000	0.044546
1532.000000	0.044422
1531.000000	0.044272
1530.000000	0.044078
1529.000000	0.043877
1528.000000	0.043695
1527.000000	0.043477
1526.000000	0.043148
1525.000000	0.042747
1524.000000	0.042379
1523.000000	0.042054
1522.000000	0.041739
1521.000000	0.041443
1520.000000	0.041131
1519.000000	0.040836
1518.000000	0.040601
1517.000000	0.040422
1516.000000	0.040234
1515.000000	0.039980
1514.000000	0.039673
1513.000000	0.039315
1512.000000	0.038910
1511.000000	0.038467
1510.000000	0.038001
1509.000000	0.037484
1508.000000	0.036864
1507.000000	0.036127
1506.000000	0.035277
1505.000000	0.034556
1504.000000	0.034123
1503.000000	0.033822
1502.000000	0.033469
1501.000000	0.032977
1500.000000	0.032405
1499.000000	0.031841
1498.000000	0.031269
1497.000000	0.030687
1496.000000	0.030138
1495.000000	0.029600
1494.000000	0.029074
1493.000000	0.028597
1492.000000	0.028141
1491.000000	0.027649
1490.000000	0.027152
1489.000000	0.026764
1488.000000	0.026526
1487.000000	0.026341
1486.000000	0.026193
1485.000000	0.026130
1484.000000	0.026124
1483.000000	0.026129
1482.000000	0.026120
1481.000000	0.026140
1480.000000	0.026214
1479.000000	0.026322
1478.000000	0.026463
1477.000000	0.026697
1476.000000	0.027048
1475.000000	0.027444
1474.000000	0.027912
1473.000000	0.028612
1472.000000	0.029572
1471.000000	0.030557
1470.000000	0.031477
1469.000000	0.032383
1468.000000	0.033244
1467.000000	0.033947
1466.000000	0.034453
1465.000000	0.034844
1464.000000	0.035191
1463.000000	0.035483
1462.000000	0.035718
1461.000000	0.035953
1460.000000	0.036241
1459.000000	0.036610
1458.000000	0.037061
1457.000000	0.037540
1456.000000	0.037850
1455.000000	0.037997
1454.000000	0.038148
1453.000000	0.038339
1452.000000	0.038502
1451.000000	0.038569
1450.000000	0.038553
1449.000000	0.038521
1448.000000	0.038511
1447.000000	0.038496
1446.000000	0.038461
1445.000000	0.038408
1444.000000	0.038359
1443.000000	0.038296
1442.000000	0.038182
1441.000000	0.038018
1440.000000	0.037854
1439.000000	0.037699
1438.000000	0.037459
1437.000000	0.037090
1436.000000	0.036680
1435.000000	0.036326
1434.000000	0.036048
1433.000000	0.035810
1432.000000	0.035549
1431.000000	0.035252
1430.000000	0.034946
1429.000000	0.034666
1428.000000	0.034434
1427.000000	0.034243
1426.000000	0.034072
1425.000000	0.033874
1424.000000	0.033691
1423.000000	0.033613
1422.000000	0.033634
1421.000000	0.033657
1420.000000	0.033615
1419.000000	0.033570
1418.000000	0.033515
1417.000000	0.033451
1416.000000	0.033449
1415.000000	0.033480
1414.000000	0.033452
1413.000000	0.033343
1412.000000	0.033225
1411.000000	0.033157
1410.000000	0.033107
1409.000000	0.033043
1408.000000	0.032985
1407.000000	0.032950
1406.000000	0.032924
1405.000000	0.032879
1404.000000	0.032834
1403.000000	0.032811
1402.000000	0.032781
1401.000000	0.032696
1400.000000	0.032553
1399.000000	0.032405
1398.000000	0.032274
1397.000000	0.032149
1396.000000	0.032013
1395.000000	0.031858
1394.000000	0.031666
1393.000000	0.031429
1392.000000	0.031218
1391.000000	0.031077
1390.000000	0.030972
1389.000000	0.030841
1388.000000	0.030665
1387.000000	0.030463
1386.000000	0.030253
1385.000000	0.030041
1384.000000	0.029845
1383.000000	0.029671
1382.000000	0.029520
1381.000000	0.029399
1380.000000	0.029287
1379.000000	0.029137
1378.000000	0.028909
1377.000000	0.028597
1376.000000	0.028228
1375.000000	0.027848
1374.000000	0.027485
1373.000000	0.027121
1372.000000	0.026753
1371.000000	0.026406
1370.000000	0.026096
1369.000000	0.025777
1368.000000	0.025399
1367.000000	0.024981
1366.000000	0.024589
1365.000000	0.024264
1364.000000	0.024003
1363.000000	0.023777
1362.000000	0.023564
1361.000000	0.023367
1360.000000	0.023209
1359.000000	0.023105
1358.000000	0.023048
1357.000000	0.023020
1356.000000	0.023013
1355.000000	0.023030
1354.000000	0.023078
1353.000000	0.023160
1352.000000	0.023270
1351.000000	0.023406
1350.000000	0.023591
1349.000000	0.023821
1348.000000	0.024064
1347.000000	0.024299
1346.000000	0.024526
1345.000000	0.024753
1344.000000	0.024978
1343.000000	0.025202
1342.000000	0.025440
1341.000000	0.025698
1340.000000	0.025948
1339.000000	0.026145
1338.000000	0.026255
1337.000000	0.026287
1336.000000	0.026269
1335.000000	0.026228
1334.000000	0.026175
1333.000000	0.026107
1332.000000	0.026016
1331.000000	0.025908
1330.000000	0.025796
1329.000000	0.025687
1328.000000	0.025574
1327.000000	0.025459
1326.000000	0.025361
1325.000000	0.025283
1324.000000	0.025219
1323.000000	0.025174
1322.000000	0.025150
1321.000000	0.025142
1320.000000	0.025138
1319.000000	0.025136
1318.000000	0.025132
1317.000000	0.025115
1316.000000	0.025074
1315.000000	0.025012
1314.000000	0.024929
1313.000000	0.024827
1312.000000	0.024712
1311.000000	0.024600
1310.000000	0.024498
1309.000000	0.024399
1308.000000	0.024296
1307.000000	0.024186
1306.000000	0.024075
1305.000000	0.023962
1304.000000	0.023850
1303.000000	0.023746
1302.000000	0.023647
1301.000000	0.023545
1300.000000	0.023435
1299.000000	0.023327
1298.000000	0.023224
1297.000000	0.023126
1296.000000	0.023048
1295.000000	0.023013
1294.000000	0.023033
1293.000000	0.023095
1292.000000	0.023178
1291.000000	0.023274
1290.000000	0.023378
1289.000000	0.023483
1288.000000	0.023590
1287.000000	0.023711
1286.000000	0.023859
1285.000000	0.024024
1284.000000	0.024184
1283.000000	0.024319
1282.000000	0.024416
1281.000000	0.024482
1280.000000	0.024534
1279.000000	0.024590
1278.000000	0.024642
1277.000000	0.024671
1276.000000	0.024672
1275.000000	0.024664
1274.000000	0.024671
1273.000000	0.024695
1272.000000	0.024729
1271.000000	0.024765
1270.000000	0.024802
1269.000000	0.024841
1268.000000	0.024894
1267.000000	0.024979
1266.000000	0.025092
1265.000000	0.025208
1264.000000	0.025305
1263.000000	0.025390
1262.000000	0.025489
1261.000000	0.025618
1260.000000	0.025777
1259.000000	0.025956
1258.000000	0.026136
1257.000000	0.026308
1256.000000	0.026479
1255.000000	0.026668
1254.000000	0.026881
1253.000000	0.027107
1252.000000	0.027341
1251.000000	0.027587
1250.000000	0.027850
1249.000000	0.028119
1248.000000	0.028373
1247.000000	0.028606
1246.000000	0.028824
1245.000000	0.029037
1244.000000	0.029248
1243.000000	0.029455
1242.000000	0.029650
1241.000000	0.029817
1240.000000	0.029940
1239.000000	0.030003
1238.000000	0.030000
1237.000000	0.029937
1236.000000	0.029826
1235.000000	0.029678
1234.000000	0.029500
1233.000000	0.029301
1232.000000	0.029090
1231.000000	0.028866
1230.000000	0.028617
1229.000000	0.028334
1228.000000	0.028022
1227.000000	0.027693
1226.000000	0.027347
1225.000000	0.026972
1224.000000	0.026561
1223.000000	0.026113
1222.000000	0.025624
1221.000000	0.025085
1220.000000	0.024512
1219.000000	0.023965
1218.000000	0.023521
1217.000000	0.023237
1216.000000	0.023118
1215.000000	0.023121
1214.000000	0.023179
1213.000000	0.023238
1212.000000	0.023285
1211.000000	0.023331
1210.000000	0.023382
1209.000000	0.023438
1208.000000	0.023505
1207.000000	0.023594
1206.000000	0.023694
1205.000000	0.023783
1204.000000	0.023849
1203.000000	0.023899
1202.000000	0.023937
1201.000000	0.023957
1200.000000	0.023950
1199.000000	0.023921
1198.000000	0.023870
1197.000000	0.023796
1196.000000	0.023703
1195.000000	0.023604
1194.000000	0.023508
1193.000000	0.023414
1192.000000	0.023316
1191.000000	0.023217
1190.000000	0.023121
1189.000000	0.023035
1188.000000	0.022962
1187.000000	0.022899
1186.000000	0.022837
1185.000000	0.022780
1184.000000	0.022753
1183.000000	0.022780
1182.000000	0.022855
1181.000000	0.022952
1180.000000	0.023059
1179.000000	0.023187
1178.000000	0.023346
1177.000000	0.023530
1176.000000	0.023727
1175.000000	0.023926
1174.000000	0.024124
1173.000000	0.024321
1172.000000	0.024526
1171.000000	0.024741
1170.000000	0.024960
1169.000000	0.025170
1168.000000	0.025376
1167.000000	0.025588
1166.000000	0.025804
1165.000000	0.026008
1164.000000	0.026187
1163.000000	0.026335
1162.000000	0.026449
1161.000000	0.026520
1160.000000	0.026541
1159.000000	0.026508
1158.000000	0.026414
1157.000000	0.026261
1156.000000	0.026066
1155.000000	0.025859
1154.000000	0.025655
1153.000000	0.025444
1152.000000	0.025213
1151.000000	0.024967
1150.000000	0.024720
1149.000000	0.024481
1148.000000	0.024251
1147.000000	0.024026
1146.000000	0.023801
1145.000000	0.023566
1144.000000	0.023316
1143.000000	0.023050
1142.000000	0.022761
1141.000000	0.022439
1140.000000	0.022083
1139.000000	0.021708
1138.000000	0.021335
1137.000000	0.020978
1136.000000	0.020646
1135.000000	0.020353
1134.000000	0.020100
1133.000000	0.019882
1132.000000	0.019692
1131.000000	0.019538
1130.000000	0.019427
1129.000000	0.019358
1128.000000	0.019329
1127.000000	0.019346
1126.000000	0.019421
1125.000000	0.019555
1124.000000	0.019730
1123.000000	0.019917
1122.000000	0.020079
1121.000000	0.020201
1120.000000	0.020294
1119.000000	0.020380
1118.000000	0.020467
1117.000000	0.020548
1116.000000	0.020617
1115.000000	0.020674
1114.000000	0.020715
1113.000000	0.020737
1112.000000	0.020744
1111.000000	0.020752
1110.000000	0.020769
1109.000000	0.020797
1108.000000	0.020841
1107.000000	0.020908
1106.000000	0.020996
1105.000000	0.021093
1104.000000	0.021192
1103.000000	0.021296
1102.000000	0.021398
1101.000000	0.021484
1100.000000	0.021555
1099.000000	0.021621
1098.000000	0.021688
1097.000000	0.021751
1096.000000	0.021802
1095.000000	0.021845
1094.000000	0.021885
1093.000000	0.021929
1092.000000	0.021984
1091.000000	0.022069
1090.000000	0.022202
1089.000000	0.022387
1088.000000	0.022618
1087.000000	0.022875
1086.000000	0.023124
1085.000000	0.023334
1084.000000	0.023490
1083.000000	0.023592
1082.000000	0.023643
1081.000000	0.023648
1080.000000	0.023612
1079.000000	0.023539
1078.000000	0.023419
1077.000000	0.023243
1076.000000	0.023020
1075.000000	0.022777
1074.000000	0.022535
1073.000000	0.022303
1072.000000	0.022091
1071.000000	0.021922
1070.000000	0.021815
1069.000000	0.021764
1068.000000	0.021756
1067.000000	0.021786
1066.000000	0.021851
1065.000000	0.021934
1064.000000	0.022012
1063.000000	0.022068
1062.000000	0.022102
1061.000000	0.022121
1060.000000	0.022134
1059.000000	0.022142
1058.000000	0.022144
1057.000000	0.022133
1056.000000	0.022103
1055.000000	0.022051
1054.000000	0.021986
1053.000000	0.021928
1052.000000	0.021891
1051.000000	0.021867
1050.000000	0.021832
1049.000000	0.021777
1048.000000	0.021722
1047.000000	0.021688
1046.000000	0.021674
1045.000000	0.021661
1044.000000	0.021642
1043.000000	0.021632
1042.000000	0.021645
1041.000000	0.021690
1040.000000	0.021771
1039.000000	0.021885
1038.000000	0.022027
1037.000000	0.022195
1036.000000	0.022395
1035.000000	0.022624
1034.000000	0.022863
1033.000000	0.023087
1032.000000	0.023282
1031.000000	0.023444
1030.000000	0.023561
1029.000000	0.023623
1028.000000	0.023651
1027.000000	0.023682
1026.000000	0.023733
1025.000000	0.023788
1024.000000	0.023830
1023.000000	0.023860
1022.000000	0.023886
1021.000000	0.023899
1020.000000	0.023878
1019.000000	0.023817
1018.000000	0.023729
1017.000000	0.023626
1016.000000	0.023497
1015.000000	0.023315
1014.000000	0.023061
1013.000000	0.022746
1012.000000	0.022403
1011.000000	0.022064
1010.000000	0.021744
1009.000000	0.021434
1008.000000	0.021118
1007.000000	0.020787
1006.000000	0.020444
1005.000000	0.020107
1004.000000	0.019805
1003.000000	0.019548
1002.000000	0.019316
1001.000000	0.019075
1000.000000	0.018811
999.000000	0.018535
998.000000	0.018265
997.000000	0.018012
996.000000	0.017781
995.000000	0.017574
994.000000	0.017383
993.000000	0.017195
992.000000	0.017004
991.000000	0.016803
990.000000	0.016585
989.000000	0.016361
988.000000	0.016160
987.000000	0.016002
986.000000	0.015863
985.000000	0.015704
984.000000	0.015520
983.000000	0.015353
982.000000	0.015230
981.000000	0.015133
980.000000	0.015031
979.000000	0.014919
978.000000	0.014816
977.000000	0.014729
976.000000	0.014648
975.000000	0.014571
974.000000	0.014505
973.000000	0.014455
972.000000	0.014408
971.000000	0.014346
970.000000	0.014257
969.000000	0.014140
968.000000	0.014007
967.000000	0.013866
966.000000	0.013718
965.000000	0.013565
964.000000	0.013422
963.000000	0.013295
962.000000	0.013169
961.000000	0.013013
960.000000	0.012816
959.000000	0.012598
958.000000	0.012386
957.000000	0.012195
956.000000	0.012030
955.000000	0.011891
954.000000	0.011770
953.000000	0.011651
952.000000	0.011521
951.000000	0.011378
950.000000	0.011224
949.000000	0.011067
948.000000	0.010927
947.000000	0.010820
946.000000	0.010752
945.000000	0.010714
944.000000	0.010691
943.000000	0.010676
942.000000	0.010660
941.000000	0.010640
940.000000	0.010615
939.000000	0.010579
938.000000	0.010518
937.000000	0.010431
936.000000	0.010342
935.000000	0.010273
934.000000	0.010216
933.000000	0.010145
932.000000	0.010053
931.000000	0.009957
930.000000	0.009873
929.000000	0.009803
928.000000	0.009756
927.000000	0.009736
926.000000	0.009726
925.000000	0.009691
924.000000	0.009621
923.000000	0.009541
922.000000	0.009479
921.000000	0.009436
920.000000	0.009393
919.000000	0.009328
918.000000	0.009225
917.000000	0.009089
916.000000	0.008944
915.000000	0.008821
914.000000	0.008723
913.000000	0.008634
912.000000	0.008548
911.000000	0.008472
910.000000	0.008400
909.000000	0.008312
908.000000	0.008209
907.000000	0.008119
906.000000	0.008069
905.000000	0.008052
904.000000	0.008039
903.000000	0.008012
902.000000	0.007967
901.000000	0.007906
900.000000	0.007846
899.000000	0.007801
898.000000	0.007777
897.000000	0.007764
896.000000	0.007755
895.000000	0.007742
894.000000	0.007709
893.000000	0.007647
892.000000	0.007575
891.000000	0.007530
890.000000	0.007522
889.000000	0.007533
888.000000	0.007550
887.000000	0.007596
886.000000	0.007698
885.000000	0.007854
884.000000	0.008046
883.000000	0.008269
882.000000	0.008531
881.000000	0.008851
880.000000	0.009240
879.000000	0.009688
878.000000	0.010151
877.000000	0.010560
876.000000	0.010849
875.000000	0.010967
874.000000	0.010880
873.000000	0.010588
872.000000	0.010154
871.000000	0.009689
870.000000	0.009291
869.000000	0.008997
868.000000	0.008795
867.000000	0.008662
866.000000	0.008573
865.000000	0.008504
864.000000	0.008436
863.000000	0.008370
862.000000	0.008318
861.000000	0.008292
860.000000	0.008288
859.000000	0.008294
858.000000	0.008295
857.000000	0.008283
856.000000	0.008265
855.000000	0.008244
854.000000	0.008220
853.000000	0.008203
852.000000	0.008216
851.000000	0.008271
850.000000	0.008335
849.000000	0.008354
848.000000	0.008302
847.000000	0.008202
846.000000	0.008085
845.000000	0.007975
844.000000	0.007894
843.000000	0.007868
842.000000	0.007902
841.000000	0.007965
840.000000	0.008008
839.000000	0.008005
838.000000	0.007958
837.000000	0.007892
836.000000	0.007824
835.000000	0.007758
834.000000	0.007685
833.000000	0.007609
832.000000	0.007548
831.000000	0.007518
830.000000	0.007509
829.000000	0.007511
828.000000	0.007534
827.000000	0.007579
826.000000	0.007618
825.000000	0.007615
824.000000	0.007590
823.000000	0.007602
822.000000	0.007668
821.000000	0.007750
820.000000	0.007806
819.000000	0.007830
818.000000	0.007836
817.000000	0.007833
816.000000	0.007835
815.000000	0.007856
814.000000	0.007888
813.000000	0.007898
812.000000	0.007863
811.000000	0.007793
810.000000	0.007716
809.000000	0.007655
808.000000	0.007623
807.000000	0.007617
806.000000	0.007607
805.000000	0.007563
804.000000	0.007505
803.000000	0.007494
802.000000	0.007556
801.000000	0.007642
800.000000	0.007682
799.000000	0.007669
798.000000	0.007642
797.000000	0.007634
796.000000	0.007640
795.000000	0.007650
794.000000	0.007668
793.000000	0.007695
792.000000	0.007716
791.000000	0.007718
790.000000	0.007715
789.000000	0.007734
788.000000	0.007781
787.000000	0.007822
786.000000	0.007818
785.000000	0.007782
784.000000	0.007773
783.000000	0.007835
782.000000	0.007940
781.000000	0.008022
780.000000	0.008052
779.000000	0.008046
778.000000	0.008023
777.000000	0.007986
776.000000	0.007946
775.000000	0.007933
774.000000	0.007954
773.000000	0.007990
772.000000	0.008023
771.000000	0.008063
770.000000	0.008116
769.000000	0.008165
768.000000	0.008196
767.000000	0.008216
766.000000	0.008232
765.000000	0.008232
764.000000	0.008206
763.000000	0.008173
762.000000	0.008152
761.000000	0.008139
760.000000	0.008122
759.000000	0.008123
758.000000	0.008172
757.000000	0.008271
756.000000	0.008379
755.000000	0.008453
754.000000	0.008479
753.000000	0.008472
752.000000	0.008455
751.000000	0.008445
750.000000	0.008445
749.000000	0.008457
748.000000	0.008505
747.000000	0.008614
746.000000	0.008769
745.000000	0.008907
744.000000	0.008977
743.000000	0.008995
742.000000	0.009015
741.000000	0.009060
740.000000	0.009123
739.000000	0.009207
738.000000	0.009326
737.000000	0.009476
736.000000	0.009618
735.000000	0.009720
734.000000	0.009802
733.000000	0.009905
732.000000	0.010050
731.000000	0.010216
730.000000	0.010371
729.000000	0.010510
728.000000	0.010659
727.000000	0.010832
726.000000	0.011024
725.000000	0.011221
724.000000	0.011425
723.000000	0.011645
722.000000	0.011859
721.000000	0.012016
720.000000	0.012069
719.000000	0.012031
718.000000	0.011968
717.000000	0.011941
716.000000	0.011960
715.000000	0.011984
714.000000	0.011973
713.000000	0.011922
712.000000	0.011857
711.000000	0.011808
710.000000	0.011777
709.000000	0.011763
708.000000	0.011775
707.000000	0.011820
706.000000	0.011887
705.000000	0.011971
704.000000	0.012078
703.000000	0.012210
702.000000	0.012343
701.000000	0.012436
700.000000	0.012469
699.000000	0.012448
698.000000	0.012380
697.000000	0.012280
696.000000	0.012186
695.000000	0.012151
694.000000	0.012188
693.000000	0.012248
692.000000	0.012289
691.000000	0.012296
690.000000	0.012273
689.000000	0.012220
688.000000	0.012160
687.000000	0.012144
686.000000	0.012189
685.000000	0.012254
684.000000	0.012308
683.000000	0.012370
682.000000	0.012459
681.000000	0.012548
680.000000	0.012603
679.000000	0.012629
678.000000	0.012643
677.000000	0.012669
676.000000	0.012728
675.000000	0.012834
674.000000	0.012969
673.000000	0.013083
672.000000	0.013112
671.000000	0.013011
670.000000	0.012745
669.000000	0.012345
668.000000	0.012155
667.000000	0.012518
666.000000	0.012925
665.000000	0.013187
664.000000	0.013384
663.000000	0.013472
662.000000	0.013424
661.000000	0.013325
660.000000	0.013263
659.000000	0.013219
658.000000	0.013140
657.000000	0.013065
656.000000	0.013058
655.000000	0.013101
654.000000	0.013128
653.000000	0.013120
652.000000	0.013077
651.000000	0.012990
650.000000	0.012878
649.000000	0.012798
648.000000	0.012774
647.000000	0.012768
646.000000	0.012752
645.000000	0.012742
644.000000	0.012752
643.000000	0.012773
642.000000	0.012787
641.000000	0.012778
640.000000	0.012733
639.000000	0.012679
638.000000	0.012679
637.000000	0.012761
636.000000	0.012842
635.000000	0.012844
634.000000	0.012822
633.000000	0.012885
632.000000	0.013018
631.000000	0.013091
630.000000	0.013046
629.000000	0.012974
628.000000	0.012963
627.000000	0.012982
626.000000	0.012984
625.000000	0.012988
624.000000	0.013023
623.000000	0.013046
622.000000	0.013004
621.000000	0.012913
620.000000	0.012841
619.000000	0.012833
618.000000	0.012882
617.000000	0.012950
616.000000	0.012995
615.000000	0.012996
614.000000	0.012984
613.000000	0.013001
612.000000	0.013035
611.000000	0.013036
610.000000	0.012997
609.000000	0.012974
608.000000	0.012988
607.000000	0.012991
606.000000	0.012954
605.000000	0.012911
604.000000	0.012893
603.000000	0.012883
602.000000	0.012871
601.000000	0.012895
600.000000	0.012963
599.000000	0.013021
598.000000	0.013017
597.000000	0.012968
596.000000	0.012921
595.000000	0.012889
594.000000	0.012870
593.000000	0.012879
592.000000	0.012927
591.000000	0.012992
590.000000	0.013034
589.000000	0.013021
588.000000	0.012944
587.000000	0.012830
586.000000	0.012746
585.000000	0.012755
584.000000	0.012850
583.000000	0.012959
582.000000	0.013033
581.000000	0.013083
580.000000	0.013132
579.000000	0.013176
578.000000	0.013199
577.000000	0.013194
576.000000	0.013150
575.000000	0.013061
574.000000	0.012960
573.000000	0.012894
572.000000	0.012865
571.000000	0.012836
570.000000	0.012822
569.000000	0.012912
568.000000	0.013162
567.000000	0.013494
566.000000	0.013757
565.000000	0.013868
564.000000	0.013840
563.000000	0.013732
562.000000	0.013610
561.000000	0.013543
560.000000	0.013564
559.000000	0.013624
558.000000	0.013643
557.000000	0.013605
556.000000	0.013550
555.000000	0.013493
554.000000	0.013422
553.000000	0.013378
552.000000	0.013421
551.000000	0.013525
550.000000	0.013564
549.000000	0.013433
548.000000	0.013151
547.000000	0.012836
546.000000	0.012609
545.000000	0.012523
544.000000	0.012532
543.000000	0.012543
542.000000	0.012502
541.000000	0.012448
540.000000	0.012455
539.000000	0.012535
538.000000	0.012638
537.000000	0.012733
536.000000	0.012840
535.000000	0.012970
534.000000	0.013092
533.000000	0.013174
532.000000	0.013185
531.000000	0.013086
530.000000	0.012869
529.000000	0.012601
528.000000	0.012356
527.000000	0.012176
526.000000	0.012098
525.000000	0.012162
524.000000	0.012350
523.000000	0.012539
522.000000	0.012558
521.000000	0.012346
520.000000	0.012007
519.000000	0.011718
518.000000	0.011591
517.000000	0.011594
516.000000	0.011595
515.000000	0.011479
514.000000	0.011253
513.000000	0.011042
512.000000	0.010940
511.000000	0.010902
510.000000	0.010827
509.000000	0.010701
508.000000	0.010560
507.000000	0.010416
506.000000	0.010288
505.000000	0.010223
504.000000	0.010251
503.000000	0.010316
502.000000	0.010332
501.000000	0.010282
500.000000	0.010200
499.000000	0.010119
498.000000	0.010089
497.000000	0.010168
496.000000	0.010341
495.000000	0.010467
494.000000	0.010421
493.000000	0.010212
492.000000	0.009918
491.000000	0.009619
490.000000	0.009391
489.000000	0.009300
488.000000	0.009310
487.000000	0.009295
486.000000	0.009201
485.000000	0.009109
484.000000	0.009086
483.000000	0.009081
482.000000	0.009049
481.000000	0.009056
480.000000	0.009196
479.000000	0.009463
478.000000	0.009742
477.000000	0.009916
476.000000	0.009934
475.000000	0.009820
474.000000	0.009658
473.000000	0.009575
472.000000	0.009615
471.000000	0.009723
470.000000	0.009852
469.000000	0.010049
468.000000	0.010372
467.000000	0.010749
466.000000	0.011014
465.000000	0.011100
464.000000	0.011012
463.000000	0.010670
462.000000	0.010049
461.000000	0.009370
460.000000	0.008959
459.000000	0.008887
458.000000	0.008894
457.000000	0.006179
456.000000	0.006809
455.000000	0.007384
454.000000	0.007476
453.000000	0.007240
452.000000	0.007214
451.000000	0.007636
450.000000	0.008138
