PE IR       SUBTECH     SPECTRUM    ASCII       PEDS        4.00        
   -1
3S-N10-F033_1.ASC
22/02/18
15:51:33.00
22/02/18
15:59:09.00
uco
Sample 033 By uco Date Friday, February 18 2022
450.000000
#HDR
-1
-1
#GR
cm-1
A
1.0
0.0
4000.000000
-1.000000
3551
8
0.057425
0.006658
#DATA
4000.000000	0.007071
3999.000000	0.007098
3998.000000	0.007128
3997.000000	0.007153
3996.000000	0.007172
3995.000000	0.007179
3994.000000	0.007178
3993.000000	0.007173
3992.000000	0.007171
3991.000000	0.007171
3990.000000	0.007170
3989.000000	0.007168
3988.000000	0.007169
3987.000000	0.007178
3986.000000	0.007197
3985.000000	0.007216
3984.000000	0.007224
3983.000000	0.007217
3982.000000	0.007199
3981.000000	0.007180
3980.000000	0.007166
3979.000000	0.007159
3978.000000	0.007160
3977.000000	0.007170
3976.000000	0.007189
3975.000000	0.007211
3974.000000	0.007226
3973.000000	0.007229
3972.000000	0.007220
3971.000000	0.007205
3970.000000	0.007191
3969.000000	0.007180
3968.000000	0.007174
3967.000000	0.007177
3966.000000	0.007190
3965.000000	0.007208
3964.000000	0.007226
3963.000000	0.007240
3962.000000	0.007255
3961.000000	0.007272
3960.000000	0.007289
3959.000000	0.007298
3958.000000	0.007297
3957.000000	0.007290
3956.000000	0.007283
3955.000000	0.007282
3954.000000	0.007289
3953.000000	0.007304
3952.000000	0.007319
3951.000000	0.007324
3950.000000	0.007313
3949.000000	0.007288
3948.000000	0.007269
3947.000000	0.007275
3946.000000	0.007305
3945.000000	0.007344
3944.000000	0.007371
3943.000000	0.007373
3942.000000	0.007350
3941.000000	0.007318
3940.000000	0.007296
3939.000000	0.007294
3938.000000	0.007310
3937.000000	0.007327
3936.000000	0.007329
3935.000000	0.007314
3934.000000	0.007296
3933.000000	0.007296
3932.000000	0.007317
3931.000000	0.007348
3930.000000	0.007377
3929.000000	0.007399
3928.000000	0.007421
3927.000000	0.007445
3926.000000	0.007464
3925.000000	0.007468
3924.000000	0.007447
3923.000000	0.007402
3922.000000	0.007345
3921.000000	0.007285
3920.000000	0.007232
3919.000000	0.007191
3918.000000	0.007180
3917.000000	0.007208
3916.000000	0.007263
3915.000000	0.007314
3914.000000	0.007341
3913.000000	0.007355
3912.000000	0.007366
3911.000000	0.007381
3910.000000	0.007398
3909.000000	0.007417
3908.000000	0.007443
3907.000000	0.007464
3906.000000	0.007448
3905.000000	0.007362
3904.000000	0.007212
3903.000000	0.007063
3902.000000	0.006995
3901.000000	0.007030
3900.000000	0.007130
3899.000000	0.007227
3898.000000	0.007277
3897.000000	0.007286
3896.000000	0.007284
3895.000000	0.007298
3894.000000	0.007334
3893.000000	0.007378
3892.000000	0.007404
3891.000000	0.007400
3890.000000	0.007362
3889.000000	0.007291
3888.000000	0.007204
3887.000000	0.007154
3886.000000	0.007188
3885.000000	0.007277
3884.000000	0.007345
3883.000000	0.007366
3882.000000	0.007367
3881.000000	0.007382
3880.000000	0.007411
3879.000000	0.007435
3878.000000	0.007439
3877.000000	0.007420
3876.000000	0.007401
3875.000000	0.007406
3874.000000	0.007422
3873.000000	0.007407
3872.000000	0.007351
3871.000000	0.007292
3870.000000	0.007280
3869.000000	0.007306
3868.000000	0.007325
3867.000000	0.007314
3866.000000	0.007309
3865.000000	0.007344
3864.000000	0.007382
3863.000000	0.007372
3862.000000	0.007326
3861.000000	0.007289
3860.000000	0.007303
3859.000000	0.007382
3858.000000	0.007510
3857.000000	0.007647
3856.000000	0.007736
3855.000000	0.007751
3854.000000	0.007678
3853.000000	0.007551
3852.000000	0.007440
3851.000000	0.007372
3850.000000	0.007326
3849.000000	0.007304
3848.000000	0.007301
3847.000000	0.007305
3846.000000	0.007309
3845.000000	0.007313
3844.000000	0.007318
3843.000000	0.007330
3842.000000	0.007347
3841.000000	0.007374
3840.000000	0.007422
3839.000000	0.007483
3838.000000	0.007539
3837.000000	0.007573
3836.000000	0.007573
3835.000000	0.007534
3834.000000	0.007462
3833.000000	0.007381
3832.000000	0.007326
3831.000000	0.007306
3830.000000	0.007312
3829.000000	0.007332
3828.000000	0.007365
3827.000000	0.007411
3826.000000	0.007456
3825.000000	0.007475
3824.000000	0.007451
3823.000000	0.007426
3822.000000	0.007449
3821.000000	0.007507
3820.000000	0.007537
3819.000000	0.007506
3818.000000	0.007437
3817.000000	0.007382
3816.000000	0.007383
3815.000000	0.007424
3814.000000	0.007456
3813.000000	0.007468
3812.000000	0.007476
3811.000000	0.007490
3810.000000	0.007491
3809.000000	0.007466
3808.000000	0.007432
3807.000000	0.007419
3806.000000	0.007422
3805.000000	0.007421
3804.000000	0.007412
3803.000000	0.007438
3802.000000	0.007527
3801.000000	0.007632
3800.000000	0.007673
3799.000000	0.007637
3798.000000	0.007560
3797.000000	0.007491
3796.000000	0.007454
3795.000000	0.007445
3794.000000	0.007448
3793.000000	0.007455
3792.000000	0.007470
3791.000000	0.007494
3790.000000	0.007522
3789.000000	0.007549
3788.000000	0.007575
3787.000000	0.007600
3786.000000	0.007621
3785.000000	0.007636
3784.000000	0.007640
3783.000000	0.007630
3782.000000	0.007610
3781.000000	0.007600
3780.000000	0.007604
3779.000000	0.007605
3778.000000	0.007587
3777.000000	0.007555
3776.000000	0.007529
3775.000000	0.007524
3774.000000	0.007534
3773.000000	0.007534
3772.000000	0.007513
3771.000000	0.007492
3770.000000	0.007487
3769.000000	0.007482
3768.000000	0.007460
3767.000000	0.007424
3766.000000	0.007397
3765.000000	0.007395
3764.000000	0.007403
3763.000000	0.007392
3762.000000	0.007367
3761.000000	0.007364
3760.000000	0.007389
3759.000000	0.007411
3758.000000	0.007413
3757.000000	0.007411
3756.000000	0.007411
3755.000000	0.007396
3754.000000	0.007350
3753.000000	0.007281
3752.000000	0.007205
3751.000000	0.007127
3750.000000	0.007080
3749.000000	0.007098
3748.000000	0.007145
3747.000000	0.007158
3746.000000	0.007127
3745.000000	0.007116
3744.000000	0.007162
3743.000000	0.007207
3742.000000	0.007195
3741.000000	0.007134
3740.000000	0.007073
3739.000000	0.007031
3738.000000	0.007011
3737.000000	0.007031
3736.000000	0.007096
3735.000000	0.007147
3734.000000	0.007136
3733.000000	0.007108
3732.000000	0.007131
3731.000000	0.007203
3730.000000	0.007265
3729.000000	0.007268
3728.000000	0.007226
3727.000000	0.007187
3726.000000	0.007179
3725.000000	0.007192
3724.000000	0.007225
3723.000000	0.007289
3722.000000	0.007368
3721.000000	0.007432
3720.000000	0.007462
3719.000000	0.007459
3718.000000	0.007442
3717.000000	0.007424
3716.000000	0.007396
3715.000000	0.007349
3714.000000	0.007310
3713.000000	0.007330
3712.000000	0.007415
3711.000000	0.007499
3710.000000	0.007529
3709.000000	0.007507
3708.000000	0.007464
3707.000000	0.007426
3706.000000	0.007395
3705.000000	0.007372
3704.000000	0.007364
3703.000000	0.007383
3702.000000	0.007426
3701.000000	0.007476
3700.000000	0.007516
3699.000000	0.007535
3698.000000	0.007533
3697.000000	0.007526
3696.000000	0.007523
3695.000000	0.007521
3694.000000	0.007526
3693.000000	0.007554
3692.000000	0.007600
3691.000000	0.007620
3690.000000	0.007568
3689.000000	0.007468
3688.000000	0.007406
3687.000000	0.007404
3686.000000	0.007416
3685.000000	0.007407
3684.000000	0.007382
3683.000000	0.007360
3682.000000	0.007359
3681.000000	0.007393
3680.000000	0.007464
3679.000000	0.007542
3678.000000	0.007588
3677.000000	0.007622
3676.000000	0.007689
3675.000000	0.007760
3674.000000	0.007767
3673.000000	0.007698
3672.000000	0.007592
3671.000000	0.007537
3670.000000	0.007558
3669.000000	0.007589
3668.000000	0.007589
3667.000000	0.007575
3666.000000	0.007570
3665.000000	0.007591
3664.000000	0.007637
3663.000000	0.007699
3662.000000	0.007764
3661.000000	0.007814
3660.000000	0.007833
3659.000000	0.007816
3658.000000	0.007775
3657.000000	0.007735
3656.000000	0.007714
3655.000000	0.007705
3654.000000	0.007691
3653.000000	0.007665
3652.000000	0.007648
3651.000000	0.007671
3650.000000	0.007722
3649.000000	0.007757
3648.000000	0.007785
3647.000000	0.007839
3646.000000	0.007909
3645.000000	0.007975
3644.000000	0.008030
3643.000000	0.008082
3642.000000	0.008134
3641.000000	0.008180
3640.000000	0.008216
3639.000000	0.008251
3638.000000	0.008284
3637.000000	0.008304
3636.000000	0.008302
3635.000000	0.008293
3634.000000	0.008285
3633.000000	0.008263
3632.000000	0.008207
3631.000000	0.008146
3630.000000	0.008156
3629.000000	0.008257
3628.000000	0.008372
3627.000000	0.008441
3626.000000	0.008472
3625.000000	0.008493
3624.000000	0.008522
3623.000000	0.008556
3622.000000	0.008587
3621.000000	0.008626
3620.000000	0.008694
3619.000000	0.008779
3618.000000	0.008858
3617.000000	0.008917
3616.000000	0.008949
3615.000000	0.008958
3614.000000	0.008955
3613.000000	0.008937
3612.000000	0.008896
3611.000000	0.008844
3610.000000	0.008822
3609.000000	0.008881
3608.000000	0.009018
3607.000000	0.009174
3606.000000	0.009300
3605.000000	0.009385
3604.000000	0.009450
3603.000000	0.009519
3602.000000	0.009602
3601.000000	0.009695
3600.000000	0.009782
3599.000000	0.009839
3598.000000	0.009860
3597.000000	0.009860
3596.000000	0.009858
3595.000000	0.009870
3594.000000	0.009899
3593.000000	0.009937
3592.000000	0.009966
3591.000000	0.009967
3590.000000	0.009952
3589.000000	0.009965
3588.000000	0.010036
3587.000000	0.010147
3586.000000	0.010262
3585.000000	0.010366
3584.000000	0.010462
3583.000000	0.010556
3582.000000	0.010653
3581.000000	0.010760
3580.000000	0.010869
3579.000000	0.010962
3578.000000	0.011020
3577.000000	0.011046
3576.000000	0.011063
3575.000000	0.011096
3574.000000	0.011156
3573.000000	0.011226
3572.000000	0.011276
3571.000000	0.011279
3570.000000	0.011245
3569.000000	0.011220
3568.000000	0.011273
3567.000000	0.011413
3566.000000	0.011589
3565.000000	0.011739
3564.000000	0.011833
3563.000000	0.011881
3562.000000	0.011911
3561.000000	0.011945
3560.000000	0.011994
3559.000000	0.012054
3558.000000	0.012121
3557.000000	0.012193
3556.000000	0.012268
3555.000000	0.012338
3554.000000	0.012402
3553.000000	0.012458
3552.000000	0.012508
3551.000000	0.012551
3550.000000	0.012587
3549.000000	0.012617
3548.000000	0.012654
3547.000000	0.012715
3546.000000	0.012806
3545.000000	0.012913
3544.000000	0.013012
3543.000000	0.013093
3542.000000	0.013159
3541.000000	0.013222
3540.000000	0.013290
3539.000000	0.013359
3538.000000	0.013427
3537.000000	0.013490
3536.000000	0.013546
3535.000000	0.013598
3534.000000	0.013646
3533.000000	0.013692
3532.000000	0.013743
3531.000000	0.013808
3530.000000	0.013884
3529.000000	0.013958
3528.000000	0.014015
3527.000000	0.014060
3526.000000	0.014107
3525.000000	0.014167
3524.000000	0.014236
3523.000000	0.014301
3522.000000	0.014356
3521.000000	0.014409
3520.000000	0.014471
3519.000000	0.014544
3518.000000	0.014615
3517.000000	0.014671
3516.000000	0.014714
3515.000000	0.014758
3514.000000	0.014810
3513.000000	0.014866
3512.000000	0.014915
3511.000000	0.014960
3510.000000	0.015007
3509.000000	0.015059
3508.000000	0.015111
3507.000000	0.015161
3506.000000	0.015217
3505.000000	0.015285
3504.000000	0.015365
3503.000000	0.015446
3502.000000	0.015517
3501.000000	0.015573
3500.000000	0.015616
3499.000000	0.015657
3498.000000	0.015702
3497.000000	0.015755
3496.000000	0.015814
3495.000000	0.015876
3494.000000	0.015942
3493.000000	0.016009
3492.000000	0.016071
3491.000000	0.016123
3490.000000	0.016164
3489.000000	0.016200
3488.000000	0.016235
3487.000000	0.016273
3486.000000	0.016314
3485.000000	0.016359
3484.000000	0.016411
3483.000000	0.016466
3482.000000	0.016520
3481.000000	0.016569
3480.000000	0.016615
3479.000000	0.016665
3478.000000	0.016722
3477.000000	0.016782
3476.000000	0.016838
3475.000000	0.016886
3474.000000	0.016923
3473.000000	0.016953
3472.000000	0.016985
3471.000000	0.017026
3470.000000	0.017078
3469.000000	0.017140
3468.000000	0.017203
3467.000000	0.017263
3466.000000	0.017314
3465.000000	0.017353
3464.000000	0.017380
3463.000000	0.017404
3462.000000	0.017432
3461.000000	0.017463
3460.000000	0.017494
3459.000000	0.017526
3458.000000	0.017567
3457.000000	0.017622
3456.000000	0.017689
3455.000000	0.017762
3454.000000	0.017835
3453.000000	0.017905
3452.000000	0.017969
3451.000000	0.018023
3450.000000	0.018065
3449.000000	0.018095
3448.000000	0.018114
3447.000000	0.018128
3446.000000	0.018151
3445.000000	0.018191
3444.000000	0.018245
3443.000000	0.018307
3442.000000	0.018369
3441.000000	0.018428
3440.000000	0.018480
3439.000000	0.018528
3438.000000	0.018578
3437.000000	0.018630
3436.000000	0.018681
3435.000000	0.018728
3434.000000	0.018776
3433.000000	0.018835
3432.000000	0.018908
3431.000000	0.018992
3430.000000	0.019073
3429.000000	0.019138
3428.000000	0.019181
3427.000000	0.019211
3426.000000	0.019243
3425.000000	0.019287
3424.000000	0.019337
3423.000000	0.019386
3422.000000	0.019436
3421.000000	0.019491
3420.000000	0.019554
3419.000000	0.019625
3418.000000	0.019703
3417.000000	0.019783
3416.000000	0.019854
3415.000000	0.019914
3414.000000	0.019970
3413.000000	0.020030
3412.000000	0.020092
3411.000000	0.020150
3410.000000	0.020200
3409.000000	0.020246
3408.000000	0.020292
3407.000000	0.020339
3406.000000	0.020386
3405.000000	0.020428
3404.000000	0.020457
3403.000000	0.020474
3402.000000	0.020492
3401.000000	0.020529
3400.000000	0.020585
3399.000000	0.020650
3398.000000	0.020709
3397.000000	0.020757
3396.000000	0.020804
3395.000000	0.020857
3394.000000	0.020917
3393.000000	0.020974
3392.000000	0.021013
3391.000000	0.021038
3390.000000	0.021063
3389.000000	0.021107
3388.000000	0.021168
3387.000000	0.021235
3386.000000	0.021297
3385.000000	0.021357
3384.000000	0.021419
3383.000000	0.021477
3382.000000	0.021521
3381.000000	0.021550
3380.000000	0.021574
3379.000000	0.021612
3378.000000	0.021670
3377.000000	0.021742
3376.000000	0.021818
3375.000000	0.021892
3374.000000	0.021963
3373.000000	0.022031
3372.000000	0.022101
3371.000000	0.022174
3370.000000	0.022252
3369.000000	0.022332
3368.000000	0.022414
3367.000000	0.022502
3366.000000	0.022597
3365.000000	0.022688
3364.000000	0.022763
3363.000000	0.022822
3362.000000	0.022877
3361.000000	0.022947
3360.000000	0.023037
3359.000000	0.023136
3358.000000	0.023232
3357.000000	0.023318
3356.000000	0.023399
3355.000000	0.023476
3354.000000	0.023551
3353.000000	0.023621
3352.000000	0.023689
3351.000000	0.023765
3350.000000	0.023854
3349.000000	0.023954
3348.000000	0.024053
3347.000000	0.024139
3346.000000	0.024211
3345.000000	0.024276
3344.000000	0.024339
3343.000000	0.024405
3342.000000	0.024470
3341.000000	0.024534
3340.000000	0.024599
3339.000000	0.024674
3338.000000	0.024768
3337.000000	0.024879
3336.000000	0.024999
3335.000000	0.025114
3334.000000	0.025216
3333.000000	0.025298
3332.000000	0.025365
3331.000000	0.025428
3330.000000	0.025499
3329.000000	0.025577
3328.000000	0.025649
3327.000000	0.025704
3326.000000	0.025749
3325.000000	0.025798
3324.000000	0.025859
3323.000000	0.025929
3322.000000	0.026001
3321.000000	0.026068
3320.000000	0.026133
3319.000000	0.026200
3318.000000	0.026268
3317.000000	0.026330
3316.000000	0.026376
3315.000000	0.026407
3314.000000	0.026434
3313.000000	0.026468
3312.000000	0.026509
3311.000000	0.026554
3310.000000	0.026601
3309.000000	0.026648
3308.000000	0.026695
3307.000000	0.026746
3306.000000	0.026804
3305.000000	0.026867
3304.000000	0.026924
3303.000000	0.026967
3302.000000	0.027000
3301.000000	0.027037
3300.000000	0.027078
3299.000000	0.027110
3298.000000	0.027120
3297.000000	0.027111
3296.000000	0.027096
3295.000000	0.027092
3294.000000	0.027108
3293.000000	0.027145
3292.000000	0.027194
3291.000000	0.027238
3290.000000	0.027267
3289.000000	0.027284
3288.000000	0.027298
3287.000000	0.027308
3286.000000	0.027309
3285.000000	0.027299
3284.000000	0.027286
3283.000000	0.027279
3282.000000	0.027285
3281.000000	0.027297
3280.000000	0.027301
3279.000000	0.027279
3278.000000	0.027224
3277.000000	0.027148
3276.000000	0.027075
3275.000000	0.027024
3274.000000	0.026988
3273.000000	0.026955
3272.000000	0.026920
3271.000000	0.026894
3270.000000	0.026886
3269.000000	0.026889
3268.000000	0.026885
3267.000000	0.026855
3266.000000	0.026797
3265.000000	0.026721
3264.000000	0.026646
3263.000000	0.026582
3262.000000	0.026525
3261.000000	0.026461
3260.000000	0.026378
3259.000000	0.026278
3258.000000	0.026175
3257.000000	0.026087
3256.000000	0.026027
3255.000000	0.025992
3254.000000	0.025967
3253.000000	0.025936
3252.000000	0.025888
3251.000000	0.025826
3250.000000	0.025756
3249.000000	0.025685
3248.000000	0.025616
3247.000000	0.025554
3246.000000	0.025504
3245.000000	0.025465
3244.000000	0.025435
3243.000000	0.025411
3242.000000	0.025389
3241.000000	0.025359
3240.000000	0.025308
3239.000000	0.025228
3238.000000	0.025127
3237.000000	0.025026
3236.000000	0.024945
3235.000000	0.024887
3234.000000	0.024846
3233.000000	0.024808
3232.000000	0.024769
3231.000000	0.024733
3230.000000	0.024698
3229.000000	0.024662
3228.000000	0.024624
3227.000000	0.024589
3226.000000	0.024558
3225.000000	0.024529
3224.000000	0.024492
3223.000000	0.024449
3222.000000	0.024408
3221.000000	0.024374
3220.000000	0.024346
3219.000000	0.024320
3218.000000	0.024293
3217.000000	0.024264
3216.000000	0.024229
3215.000000	0.024183
3214.000000	0.024127
3213.000000	0.024067
3212.000000	0.024012
3211.000000	0.023964
3210.000000	0.023916
3209.000000	0.023859
3208.000000	0.023790
3207.000000	0.023716
3206.000000	0.023649
3205.000000	0.023591
3204.000000	0.023532
3203.000000	0.023464
3202.000000	0.023392
3201.000000	0.023333
3200.000000	0.023290
3199.000000	0.023256
3198.000000	0.023221
3197.000000	0.023184
3196.000000	0.023151
3195.000000	0.023124
3194.000000	0.023093
3193.000000	0.023047
3192.000000	0.022980
3191.000000	0.022900
3190.000000	0.022822
3189.000000	0.022755
3188.000000	0.022696
3187.000000	0.022632
3186.000000	0.022557
3185.000000	0.022476
3184.000000	0.022404
3183.000000	0.022354
3182.000000	0.022322
3181.000000	0.022289
3180.000000	0.022237
3179.000000	0.022162
3178.000000	0.022074
3177.000000	0.021987
3176.000000	0.021908
3175.000000	0.021840
3174.000000	0.021786
3173.000000	0.021741
3172.000000	0.021692
3171.000000	0.021624
3170.000000	0.021540
3169.000000	0.021457
3168.000000	0.021384
3167.000000	0.021318
3166.000000	0.021246
3165.000000	0.021165
3164.000000	0.021081
3163.000000	0.020998
3162.000000	0.020921
3161.000000	0.020854
3160.000000	0.020796
3159.000000	0.020746
3158.000000	0.020699
3157.000000	0.020653
3156.000000	0.020602
3155.000000	0.020539
3154.000000	0.020465
3153.000000	0.020388
3152.000000	0.020315
3151.000000	0.020249
3150.000000	0.020188
3149.000000	0.020133
3148.000000	0.020082
3147.000000	0.020034
3146.000000	0.019987
3145.000000	0.019943
3144.000000	0.019902
3143.000000	0.019856
3142.000000	0.019802
3141.000000	0.019742
3140.000000	0.019686
3139.000000	0.019635
3138.000000	0.019590
3137.000000	0.019552
3136.000000	0.019525
3135.000000	0.019509
3134.000000	0.019499
3133.000000	0.019487
3132.000000	0.019462
3131.000000	0.019415
3130.000000	0.019348
3129.000000	0.019280
3128.000000	0.019230
3127.000000	0.019202
3126.000000	0.019185
3125.000000	0.019165
3124.000000	0.019134
3123.000000	0.019097
3122.000000	0.019058
3121.000000	0.019022
3120.000000	0.018991
3119.000000	0.018964
3118.000000	0.018941
3117.000000	0.018928
3116.000000	0.018926
3115.000000	0.018931
3114.000000	0.018938
3113.000000	0.018949
3112.000000	0.018966
3111.000000	0.018989
3110.000000	0.019013
3109.000000	0.019039
3108.000000	0.019062
3107.000000	0.019077
3106.000000	0.019080
3105.000000	0.019078
3104.000000	0.019079
3103.000000	0.019087
3102.000000	0.019098
3101.000000	0.019110
3100.000000	0.019126
3099.000000	0.019142
3098.000000	0.019152
3097.000000	0.019155
3096.000000	0.019162
3095.000000	0.019185
3094.000000	0.019223
3093.000000	0.019261
3092.000000	0.019280
3091.000000	0.019275
3090.000000	0.019253
3089.000000	0.019228
3088.000000	0.019216
3087.000000	0.019222
3086.000000	0.019244
3085.000000	0.019276
3084.000000	0.019309
3083.000000	0.019336
3082.000000	0.019353
3081.000000	0.019362
3080.000000	0.019373
3079.000000	0.019391
3078.000000	0.019411
3077.000000	0.019421
3076.000000	0.019418
3075.000000	0.019405
3074.000000	0.019391
3073.000000	0.019381
3072.000000	0.019378
3071.000000	0.019381
3070.000000	0.019386
3069.000000	0.019380
3068.000000	0.019357
3067.000000	0.019324
3066.000000	0.019301
3065.000000	0.019294
3064.000000	0.019291
3063.000000	0.019276
3062.000000	0.019246
3061.000000	0.019203
3060.000000	0.019150
3059.000000	0.019089
3058.000000	0.019028
3057.000000	0.018976
3056.000000	0.018935
3055.000000	0.018898
3054.000000	0.018854
3053.000000	0.018796
3052.000000	0.018729
3051.000000	0.018660
3050.000000	0.018597
3049.000000	0.018541
3048.000000	0.018490
3047.000000	0.018441
3046.000000	0.018391
3045.000000	0.018339
3044.000000	0.018281
3043.000000	0.018219
3042.000000	0.018154
3041.000000	0.018092
3040.000000	0.018038
3039.000000	0.017987
3038.000000	0.017931
3037.000000	0.017863
3036.000000	0.017786
3035.000000	0.017715
3034.000000	0.017659
3033.000000	0.017616
3032.000000	0.017577
3031.000000	0.017537
3030.000000	0.017500
3029.000000	0.017470
3028.000000	0.017447
3027.000000	0.017422
3026.000000	0.017387
3025.000000	0.017336
3024.000000	0.017274
3023.000000	0.017208
3022.000000	0.017150
3021.000000	0.017105
3020.000000	0.017075
3019.000000	0.017054
3018.000000	0.017037
3017.000000	0.017017
3016.000000	0.017002
3015.000000	0.017003
3014.000000	0.017035
3013.000000	0.017098
3012.000000	0.017174
3011.000000	0.017242
3010.000000	0.017295
3009.000000	0.017335
3008.000000	0.017364
3007.000000	0.017384
3006.000000	0.017393
3005.000000	0.017393
3004.000000	0.017385
3003.000000	0.017367
3002.000000	0.017340
3001.000000	0.017305
3000.000000	0.017266
2999.000000	0.017227
2998.000000	0.017188
2997.000000	0.017151
2996.000000	0.017126
2995.000000	0.017124
2994.000000	0.017154
2993.000000	0.017206
2992.000000	0.017266
2991.000000	0.017325
2990.000000	0.017385
2989.000000	0.017457
2988.000000	0.017548
2987.000000	0.017662
2986.000000	0.017797
2985.000000	0.017941
2984.000000	0.018077
2983.000000	0.018190
2982.000000	0.018285
2981.000000	0.018382
2980.000000	0.018499
2979.000000	0.018636
2978.000000	0.018778
2977.000000	0.018915
2976.000000	0.019056
2975.000000	0.019214
2974.000000	0.019394
2973.000000	0.019589
2972.000000	0.019796
2971.000000	0.020031
2970.000000	0.020312
2969.000000	0.020643
2968.000000	0.021006
2967.000000	0.021380
2966.000000	0.021754
2965.000000	0.022124
2964.000000	0.022487
2963.000000	0.022840
2962.000000	0.023181
2961.000000	0.023509
2960.000000	0.023822
2959.000000	0.024111
2958.000000	0.024366
2957.000000	0.024580
2956.000000	0.024743
2955.000000	0.024852
2954.000000	0.024912
2953.000000	0.024937
2952.000000	0.024940
2951.000000	0.024933
2950.000000	0.024932
2949.000000	0.024961
2948.000000	0.025049
2947.000000	0.025216
2946.000000	0.025464
2945.000000	0.025782
2944.000000	0.026156
2943.000000	0.026580
2942.000000	0.027061
2941.000000	0.027606
2940.000000	0.028218
2939.000000	0.028889
2938.000000	0.029608
2937.000000	0.030362
2936.000000	0.031147
2935.000000	0.031960
2934.000000	0.032802
2933.000000	0.033662
2932.000000	0.034520
2931.000000	0.035351
2930.000000	0.036137
2929.000000	0.036867
2928.000000	0.037538
2927.000000	0.038147
2926.000000	0.038681
2925.000000	0.039107
2924.000000	0.039386
2923.000000	0.039491
2922.000000	0.039420
2921.000000	0.039183
2920.000000	0.038784
2919.000000	0.038227
2918.000000	0.037519
2917.000000	0.036691
2916.000000	0.035785
2915.000000	0.034846
2914.000000	0.033915
2913.000000	0.033020
2912.000000	0.032179
2911.000000	0.031399
2910.000000	0.030680
2909.000000	0.030019
2908.000000	0.029411
2907.000000	0.028860
2906.000000	0.028369
2905.000000	0.027938
2904.000000	0.027549
2903.000000	0.027182
2902.000000	0.026823
2901.000000	0.026472
2900.000000	0.026129
2899.000000	0.025794
2898.000000	0.025472
2897.000000	0.025175
2896.000000	0.024907
2895.000000	0.024663
2894.000000	0.024427
2893.000000	0.024191
2892.000000	0.023951
2891.000000	0.023708
2890.000000	0.023461
2889.000000	0.023220
2888.000000	0.022998
2887.000000	0.022811
2886.000000	0.022662
2885.000000	0.022544
2884.000000	0.022444
2883.000000	0.022355
2882.000000	0.022285
2881.000000	0.022248
2880.000000	0.022250
2879.000000	0.022284
2878.000000	0.022338
2877.000000	0.022402
2876.000000	0.022474
2875.000000	0.022562
2874.000000	0.022666
2873.000000	0.022776
2872.000000	0.022871
2871.000000	0.022938
2870.000000	0.022975
2869.000000	0.022998
2868.000000	0.023034
2867.000000	0.023118
2866.000000	0.023282
2865.000000	0.023539
2864.000000	0.023879
2863.000000	0.024293
2862.000000	0.024782
2861.000000	0.025352
2860.000000	0.025998
2859.000000	0.026699
2858.000000	0.027426
2857.000000	0.028146
2856.000000	0.028814
2855.000000	0.029376
2854.000000	0.029779
2853.000000	0.029978
2852.000000	0.029937
2851.000000	0.029631
2850.000000	0.029062
2849.000000	0.028264
2848.000000	0.027306
2847.000000	0.026275
2846.000000	0.025247
2845.000000	0.024277
2844.000000	0.023395
2843.000000	0.022612
2842.000000	0.021924
2841.000000	0.021322
2840.000000	0.020794
2839.000000	0.020331
2838.000000	0.019929
2837.000000	0.019583
2836.000000	0.019286
2835.000000	0.019025
2834.000000	0.018791
2833.000000	0.018577
2832.000000	0.018385
2831.000000	0.018212
2830.000000	0.018056
2829.000000	0.017914
2828.000000	0.017780
2827.000000	0.017648
2826.000000	0.017516
2825.000000	0.017388
2824.000000	0.017270
2823.000000	0.017160
2822.000000	0.017052
2821.000000	0.016941
2820.000000	0.016834
2819.000000	0.016739
2818.000000	0.016661
2817.000000	0.016596
2816.000000	0.016538
2815.000000	0.016481
2814.000000	0.016425
2813.000000	0.016368
2812.000000	0.016307
2811.000000	0.016238
2810.000000	0.016162
2809.000000	0.016085
2808.000000	0.016014
2807.000000	0.015953
2806.000000	0.015905
2805.000000	0.015865
2804.000000	0.015828
2803.000000	0.015792
2802.000000	0.015756
2801.000000	0.015720
2800.000000	0.015677
2799.000000	0.015624
2798.000000	0.015571
2797.000000	0.015527
2796.000000	0.015494
2795.000000	0.015466
2794.000000	0.015434
2793.000000	0.015395
2792.000000	0.015355
2791.000000	0.015319
2790.000000	0.015293
2789.000000	0.015276
2788.000000	0.015256
2787.000000	0.015225
2786.000000	0.015177
2785.000000	0.015117
2784.000000	0.015055
2783.000000	0.014999
2782.000000	0.014954
2781.000000	0.014922
2780.000000	0.014901
2779.000000	0.014885
2778.000000	0.014867
2777.000000	0.014841
2776.000000	0.014806
2775.000000	0.014764
2774.000000	0.014726
2773.000000	0.014697
2772.000000	0.014677
2771.000000	0.014660
2770.000000	0.014640
2769.000000	0.014617
2768.000000	0.014589
2767.000000	0.014552
2766.000000	0.014515
2765.000000	0.014486
2764.000000	0.014472
2763.000000	0.014467
2762.000000	0.014463
2761.000000	0.014452
2760.000000	0.014435
2759.000000	0.014413
2758.000000	0.014393
2757.000000	0.014377
2756.000000	0.014359
2755.000000	0.014335
2754.000000	0.014304
2753.000000	0.014273
2752.000000	0.014250
2751.000000	0.014236
2750.000000	0.014225
2749.000000	0.014204
2748.000000	0.014170
2747.000000	0.014127
2746.000000	0.014086
2745.000000	0.014054
2744.000000	0.014029
2743.000000	0.014012
2742.000000	0.014006
2741.000000	0.014008
2740.000000	0.014006
2739.000000	0.013993
2738.000000	0.013972
2737.000000	0.013953
2736.000000	0.013934
2735.000000	0.013909
2734.000000	0.013876
2733.000000	0.013848
2732.000000	0.013834
2731.000000	0.013832
2730.000000	0.013830
2729.000000	0.013817
2728.000000	0.013792
2727.000000	0.013760
2726.000000	0.013726
2725.000000	0.013693
2724.000000	0.013661
2723.000000	0.013632
2722.000000	0.013609
2721.000000	0.013596
2720.000000	0.013589
2719.000000	0.013581
2718.000000	0.013564
2717.000000	0.013537
2716.000000	0.013501
2715.000000	0.013460
2714.000000	0.013422
2713.000000	0.013398
2712.000000	0.013392
2711.000000	0.013401
2710.000000	0.013415
2709.000000	0.013424
2708.000000	0.013418
2707.000000	0.013394
2706.000000	0.013358
2705.000000	0.013324
2704.000000	0.013301
2703.000000	0.013289
2702.000000	0.013283
2701.000000	0.013280
2700.000000	0.013281
2699.000000	0.013285
2698.000000	0.013284
2697.000000	0.013270
2696.000000	0.013244
2695.000000	0.013215
2694.000000	0.013198
2693.000000	0.013198
2692.000000	0.013205
2691.000000	0.013207
2690.000000	0.013199
2689.000000	0.013184
2688.000000	0.013161
2687.000000	0.013130
2686.000000	0.013100
2685.000000	0.013083
2684.000000	0.013082
2683.000000	0.013089
2682.000000	0.013096
2681.000000	0.013102
2680.000000	0.013103
2679.000000	0.013097
2678.000000	0.013082
2677.000000	0.013064
2676.000000	0.013047
2675.000000	0.013030
2674.000000	0.013010
2673.000000	0.012994
2672.000000	0.012988
2671.000000	0.012991
2670.000000	0.012995
2669.000000	0.012985
2668.000000	0.012958
2667.000000	0.012922
2666.000000	0.012893
2665.000000	0.012880
2664.000000	0.012876
2663.000000	0.012872
2662.000000	0.012865
2661.000000	0.012863
2660.000000	0.012869
2659.000000	0.012880
2658.000000	0.012889
2657.000000	0.012889
2656.000000	0.012876
2655.000000	0.012846
2654.000000	0.012804
2653.000000	0.012757
2652.000000	0.012714
2651.000000	0.012681
2650.000000	0.012657
2649.000000	0.012641
2648.000000	0.012628
2647.000000	0.012611
2646.000000	0.012588
2645.000000	0.012560
2644.000000	0.012527
2643.000000	0.012494
2642.000000	0.012466
2641.000000	0.012450
2640.000000	0.012442
2639.000000	0.012434
2638.000000	0.012418
2637.000000	0.012392
2636.000000	0.012359
2635.000000	0.012321
2634.000000	0.012289
2633.000000	0.012274
2632.000000	0.012272
2631.000000	0.012264
2630.000000	0.012240
2629.000000	0.012207
2628.000000	0.012176
2627.000000	0.012146
2626.000000	0.012110
2625.000000	0.012068
2624.000000	0.012034
2623.000000	0.012014
2622.000000	0.012002
2621.000000	0.011984
2620.000000	0.011958
2619.000000	0.011933
2618.000000	0.011920
2617.000000	0.011914
2616.000000	0.011904
2615.000000	0.011880
2614.000000	0.011850
2613.000000	0.011825
2612.000000	0.011809
2611.000000	0.011793
2610.000000	0.011779
2609.000000	0.011775
2608.000000	0.011781
2607.000000	0.011784
2606.000000	0.011774
2605.000000	0.011755
2604.000000	0.011741
2603.000000	0.011739
2602.000000	0.011735
2601.000000	0.011715
2600.000000	0.011675
2599.000000	0.011632
2598.000000	0.011601
2597.000000	0.011590
2596.000000	0.011588
2595.000000	0.011586
2594.000000	0.011583
2593.000000	0.011578
2592.000000	0.011567
2591.000000	0.011544
2590.000000	0.011513
2589.000000	0.011487
2588.000000	0.011472
2587.000000	0.011463
2586.000000	0.011453
2585.000000	0.011433
2584.000000	0.011401
2583.000000	0.011361
2582.000000	0.011335
2581.000000	0.011339
2580.000000	0.011372
2579.000000	0.011409
2578.000000	0.011427
2577.000000	0.011419
2576.000000	0.011387
2575.000000	0.011344
2574.000000	0.011309
2573.000000	0.011293
2572.000000	0.011290
2571.000000	0.011286
2570.000000	0.011278
2569.000000	0.011280
2568.000000	0.011294
2567.000000	0.011309
2566.000000	0.011312
2565.000000	0.011309
2564.000000	0.011312
2563.000000	0.011320
2562.000000	0.011319
2561.000000	0.011296
2560.000000	0.011248
2559.000000	0.011181
2558.000000	0.011110
2557.000000	0.011054
2556.000000	0.011030
2555.000000	0.011038
2554.000000	0.011066
2553.000000	0.011091
2552.000000	0.011103
2551.000000	0.011103
2550.000000	0.011102
2549.000000	0.011102
2548.000000	0.011092
2547.000000	0.011063
2546.000000	0.011023
2545.000000	0.010986
2544.000000	0.010956
2543.000000	0.010937
2542.000000	0.010935
2541.000000	0.010959
2540.000000	0.010997
2539.000000	0.011028
2538.000000	0.011034
2537.000000	0.011020
2536.000000	0.010995
2535.000000	0.010975
2534.000000	0.010971
2533.000000	0.010982
2532.000000	0.010992
2531.000000	0.010986
2530.000000	0.010962
2529.000000	0.010931
2528.000000	0.010903
2527.000000	0.010883
2526.000000	0.010870
2525.000000	0.010860
2524.000000	0.010845
2523.000000	0.010828
2522.000000	0.010824
2521.000000	0.010851
2520.000000	0.010900
2519.000000	0.010947
2518.000000	0.010969
2517.000000	0.010966
2516.000000	0.010949
2515.000000	0.010932
2514.000000	0.010912
2513.000000	0.010874
2512.000000	0.010801
2511.000000	0.010709
2510.000000	0.010647
2509.000000	0.010656
2508.000000	0.010727
2507.000000	0.010814
2506.000000	0.010876
2505.000000	0.010905
2504.000000	0.010905
2503.000000	0.010876
2502.000000	0.010823
2501.000000	0.010767
2500.000000	0.010725
2499.000000	0.010701
2498.000000	0.010685
2497.000000	0.010664
2496.000000	0.010639
2495.000000	0.010623
2494.000000	0.010629
2493.000000	0.010651
2492.000000	0.010660
2491.000000	0.010634
2490.000000	0.010580
2489.000000	0.010526
2488.000000	0.010496
2487.000000	0.010497
2486.000000	0.010526
2485.000000	0.010568
2484.000000	0.010595
2483.000000	0.010587
2482.000000	0.010559
2481.000000	0.010546
2480.000000	0.010564
2479.000000	0.010588
2478.000000	0.010587
2477.000000	0.010550
2476.000000	0.010491
2475.000000	0.010440
2474.000000	0.010420
2473.000000	0.010437
2472.000000	0.010477
2471.000000	0.010513
2470.000000	0.010535
2469.000000	0.010541
2468.000000	0.010533
2467.000000	0.010509
2466.000000	0.010483
2465.000000	0.010474
2464.000000	0.010492
2463.000000	0.010523
2462.000000	0.010547
2461.000000	0.010550
2460.000000	0.010533
2459.000000	0.010506
2458.000000	0.010484
2457.000000	0.010471
2456.000000	0.010459
2455.000000	0.010436
2454.000000	0.010410
2453.000000	0.010400
2452.000000	0.010409
2451.000000	0.010425
2450.000000	0.010434
2449.000000	0.010434
2448.000000	0.010432
2447.000000	0.010435
2446.000000	0.010446
2445.000000	0.010457
2444.000000	0.010451
2443.000000	0.010418
2442.000000	0.010374
2441.000000	0.010344
2440.000000	0.010340
2439.000000	0.010347
2438.000000	0.010347
2437.000000	0.010327
2436.000000	0.010284
2435.000000	0.010226
2434.000000	0.010178
2433.000000	0.010166
2432.000000	0.010194
2431.000000	0.010242
2430.000000	0.010289
2429.000000	0.010317
2428.000000	0.010313
2427.000000	0.010280
2426.000000	0.010238
2425.000000	0.010216
2424.000000	0.010215
2423.000000	0.010217
2422.000000	0.010205
2421.000000	0.010187
2420.000000	0.010175
2419.000000	0.010177
2418.000000	0.010194
2417.000000	0.010222
2416.000000	0.010246
2415.000000	0.010253
2414.000000	0.010244
2413.000000	0.010232
2412.000000	0.010225
2411.000000	0.010222
2410.000000	0.010223
2409.000000	0.010220
2408.000000	0.010201
2407.000000	0.010162
2406.000000	0.010119
2405.000000	0.010093
2404.000000	0.010092
2403.000000	0.010109
2402.000000	0.010136
2401.000000	0.010172
2400.000000	0.010205
2399.000000	0.010230
2398.000000	0.010249
2397.000000	0.010269
2396.000000	0.010281
2395.000000	0.010266
2394.000000	0.010228
2393.000000	0.010190
2392.000000	0.010170
2391.000000	0.010168
2390.000000	0.010177
2389.000000	0.010191
2388.000000	0.010200
2387.000000	0.010198
2386.000000	0.010192
2385.000000	0.010190
2384.000000	0.010189
2383.000000	0.010174
2382.000000	0.010141
2381.000000	0.010103
2380.000000	0.010075
2379.000000	0.010075
2378.000000	0.010116
2377.000000	0.010197
2376.000000	0.010287
2375.000000	0.010348
2374.000000	0.010363
2373.000000	0.010336
2372.000000	0.010279
2371.000000	0.010204
2370.000000	0.010145
2369.000000	0.010131
2368.000000	0.010167
2367.000000	0.010235
2366.000000	0.010311
2365.000000	0.010381
2364.000000	0.010449
2363.000000	0.010532
2362.000000	0.010636
2361.000000	0.010734
2360.000000	0.010779
2359.000000	0.010755
2358.000000	0.010680
2357.000000	0.010574
2356.000000	0.010485
2355.000000	0.010444
2354.000000	0.010411
2353.000000	0.010340
2352.000000	0.010304
2351.000000	0.010400
2350.000000	0.010588
2349.000000	0.010743
2348.000000	0.010758
2347.000000	0.010622
2346.000000	0.010450
2345.000000	0.010401
2344.000000	0.010508
2343.000000	0.010648
2342.000000	0.010727
2341.000000	0.010728
2340.000000	0.010680
2339.000000	0.010613
2338.000000	0.010540
2337.000000	0.010475
2336.000000	0.010428
2335.000000	0.010394
2334.000000	0.010340
2333.000000	0.010257
2332.000000	0.010180
2331.000000	0.010157
2330.000000	0.010187
2329.000000	0.010264
2328.000000	0.010376
2327.000000	0.010508
2326.000000	0.010613
2325.000000	0.010644
2324.000000	0.010591
2323.000000	0.010490
2322.000000	0.010410
2321.000000	0.010412
2320.000000	0.010501
2319.000000	0.010618
2318.000000	0.010686
2317.000000	0.010669
2316.000000	0.010574
2315.000000	0.010446
2314.000000	0.010334
2313.000000	0.010275
2312.000000	0.010259
2311.000000	0.010250
2310.000000	0.010225
2309.000000	0.010201
2308.000000	0.010191
2307.000000	0.010183
2306.000000	0.010157
2305.000000	0.010119
2304.000000	0.010091
2303.000000	0.010078
2302.000000	0.010073
2301.000000	0.010073
2300.000000	0.010075
2299.000000	0.010072
2298.000000	0.010065
2297.000000	0.010066
2296.000000	0.010082
2295.000000	0.010101
2294.000000	0.010100
2293.000000	0.010080
2292.000000	0.010055
2291.000000	0.010043
2290.000000	0.010052
2289.000000	0.010077
2288.000000	0.010096
2287.000000	0.010084
2286.000000	0.010038
2285.000000	0.009990
2284.000000	0.009972
2283.000000	0.009986
2282.000000	0.010007
2281.000000	0.010010
2280.000000	0.009981
2279.000000	0.009916
2278.000000	0.009833
2277.000000	0.009765
2276.000000	0.009729
2275.000000	0.009717
2274.000000	0.009721
2273.000000	0.009741
2272.000000	0.009772
2271.000000	0.009792
2270.000000	0.009779
2269.000000	0.009746
2268.000000	0.009725
2267.000000	0.009741
2266.000000	0.009787
2265.000000	0.009822
2264.000000	0.009796
2263.000000	0.009708
2262.000000	0.009624
2261.000000	0.009620
2260.000000	0.009698
2259.000000	0.009789
2258.000000	0.009829
2257.000000	0.009804
2256.000000	0.009731
2255.000000	0.009629
2254.000000	0.009542
2253.000000	0.009526
2252.000000	0.009592
2251.000000	0.009683
2250.000000	0.009727
2249.000000	0.009697
2248.000000	0.009609
2247.000000	0.009498
2246.000000	0.009398
2245.000000	0.009324
2244.000000	0.009266
2243.000000	0.009210
2242.000000	0.009172
2241.000000	0.009174
2240.000000	0.009204
2239.000000	0.009232
2238.000000	0.009269
2237.000000	0.009354
2236.000000	0.009471
2235.000000	0.009540
2234.000000	0.009511
2233.000000	0.009423
2232.000000	0.009347
2231.000000	0.009306
2230.000000	0.009292
2229.000000	0.009299
2228.000000	0.009324
2227.000000	0.009335
2226.000000	0.009301
2225.000000	0.009218
2224.000000	0.009115
2223.000000	0.009038
2222.000000	0.009031
2221.000000	0.009113
2220.000000	0.009242
2219.000000	0.009341
2218.000000	0.009358
2217.000000	0.009287
2216.000000	0.009148
2215.000000	0.008985
2214.000000	0.008877
2213.000000	0.008887
2212.000000	0.008999
2211.000000	0.009133
2210.000000	0.009227
2209.000000	0.009255
2208.000000	0.009202
2207.000000	0.009080
2206.000000	0.008969
2205.000000	0.008958
2204.000000	0.009044
2203.000000	0.009137
2202.000000	0.009185
2201.000000	0.009208
2200.000000	0.009223
2199.000000	0.009203
2198.000000	0.009150
2197.000000	0.009122
2196.000000	0.009168
2195.000000	0.009272
2194.000000	0.009398
2193.000000	0.009515
2192.000000	0.009569
2191.000000	0.009502
2190.000000	0.009326
2189.000000	0.009128
2188.000000	0.008975
2187.000000	0.008871
2186.000000	0.008832
2185.000000	0.008897
2184.000000	0.009058
2183.000000	0.009219
2182.000000	0.009286
2181.000000	0.009246
2180.000000	0.009129
2179.000000	0.008961
2178.000000	0.008780
2177.000000	0.008633
2176.000000	0.008538
2175.000000	0.008485
2174.000000	0.008476
2173.000000	0.008509
2172.000000	0.008544
2171.000000	0.008555
2170.000000	0.008592
2169.000000	0.008707
2168.000000	0.008840
2167.000000	0.008869
2166.000000	0.008770
2165.000000	0.008642
2164.000000	0.008558
2163.000000	0.008508
2162.000000	0.008472
2161.000000	0.008423
2160.000000	0.008254
2159.000000	0.007889
2158.000000	0.007498
2157.000000	0.007355
2156.000000	0.007489
2155.000000	0.007693
2154.000000	0.007825
2153.000000	0.007913
2152.000000	0.008013
2151.000000	0.008126
2150.000000	0.008260
2149.000000	0.008438
2148.000000	0.008624
2147.000000	0.008728
2146.000000	0.008724
2145.000000	0.008659
2144.000000	0.008560
2143.000000	0.008430
2142.000000	0.008335
2141.000000	0.008370
2140.000000	0.008521
2139.000000	0.008678
2138.000000	0.008780
2137.000000	0.008860
2136.000000	0.008932
2135.000000	0.008947
2134.000000	0.008890
2133.000000	0.008832
2132.000000	0.008833
2131.000000	0.008869
2130.000000	0.008898
2129.000000	0.008904
2128.000000	0.008884
2127.000000	0.008837
2126.000000	0.008805
2125.000000	0.008846
2124.000000	0.008953
2123.000000	0.009039
2122.000000	0.009042
2121.000000	0.008992
2120.000000	0.008954
2119.000000	0.008948
2118.000000	0.008957
2117.000000	0.008973
2116.000000	0.008996
2115.000000	0.009021
2114.000000	0.009047
2113.000000	0.009085
2112.000000	0.009125
2111.000000	0.009149
2110.000000	0.009169
2109.000000	0.009226
2108.000000	0.009320
2107.000000	0.009399
2106.000000	0.009421
2105.000000	0.009397
2104.000000	0.009360
2103.000000	0.009322
2102.000000	0.009286
2101.000000	0.009253
2100.000000	0.009206
2099.000000	0.009128
2098.000000	0.009042
2097.000000	0.008999
2096.000000	0.009001
2095.000000	0.008999
2094.000000	0.008971
2093.000000	0.008952
2092.000000	0.008967
2091.000000	0.008998
2090.000000	0.009031
2089.000000	0.009078
2088.000000	0.009124
2087.000000	0.009119
2086.000000	0.009054
2085.000000	0.008981
2084.000000	0.008943
2083.000000	0.008919
2082.000000	0.008877
2081.000000	0.008839
2080.000000	0.008838
2079.000000	0.008864
2078.000000	0.008887
2077.000000	0.008897
2076.000000	0.008890
2075.000000	0.008847
2074.000000	0.008771
2073.000000	0.008703
2072.000000	0.008689
2071.000000	0.008727
2070.000000	0.008786
2069.000000	0.008823
2068.000000	0.008783
2067.000000	0.008631
2066.000000	0.008411
2065.000000	0.008246
2064.000000	0.008228
2063.000000	0.008351
2062.000000	0.008540
2061.000000	0.008708
2060.000000	0.008780
2059.000000	0.008744
2058.000000	0.008682
2057.000000	0.008691
2056.000000	0.008763
2055.000000	0.008792
2054.000000	0.008720
2053.000000	0.008598
2052.000000	0.008492
2051.000000	0.008411
2050.000000	0.008342
2049.000000	0.008310
2048.000000	0.008328
2047.000000	0.008352
2046.000000	0.008334
2045.000000	0.008270
2044.000000	0.008168
2043.000000	0.008051
2042.000000	0.007980
2041.000000	0.008011
2040.000000	0.008081
2039.000000	0.008057
2038.000000	0.007911
2037.000000	0.007753
2036.000000	0.007664
2035.000000	0.007605
2034.000000	0.007531
2033.000000	0.007467
2032.000000	0.007439
2031.000000	0.007431
2030.000000	0.007447
2029.000000	0.007495
2028.000000	0.007518
2027.000000	0.007466
2026.000000	0.007428
2025.000000	0.007531
2024.000000	0.007707
2023.000000	0.007732
2022.000000	0.007517
2021.000000	0.007206
2020.000000	0.006966
2019.000000	0.006844
2018.000000	0.006848
2017.000000	0.006990
2016.000000	0.007181
2015.000000	0.007262
2014.000000	0.007208
2013.000000	0.007158
2012.000000	0.007200
2011.000000	0.007270
2010.000000	0.007292
2009.000000	0.007289
2008.000000	0.007305
2007.000000	0.007347
2006.000000	0.007428
2005.000000	0.007554
2004.000000	0.007642
2003.000000	0.007605
2002.000000	0.007496
2001.000000	0.007454
2000.000000	0.007497
1999.000000	0.007520
1998.000000	0.007487
1997.000000	0.007481
1996.000000	0.007557
1995.000000	0.007679
1994.000000	0.007815
1993.000000	0.007975
1992.000000	0.008102
1991.000000	0.008096
1990.000000	0.007990
1989.000000	0.007945
1988.000000	0.008038
1987.000000	0.008172
1986.000000	0.008249
1985.000000	0.008282
1984.000000	0.008290
1983.000000	0.008239
1982.000000	0.008138
1981.000000	0.008082
1980.000000	0.008097
1979.000000	0.008069
1978.000000	0.007904
1977.000000	0.007680
1976.000000	0.007523
1975.000000	0.007439
1974.000000	0.007382
1973.000000	0.007368
1972.000000	0.007422
1971.000000	0.007508
1970.000000	0.007587
1969.000000	0.007667
1968.000000	0.007746
1967.000000	0.007795
1966.000000	0.007818
1965.000000	0.007850
1964.000000	0.007859
1963.000000	0.007747
1962.000000	0.007506
1961.000000	0.007273
1960.000000	0.007201
1959.000000	0.007317
1958.000000	0.007547
1957.000000	0.007789
1956.000000	0.007946
1955.000000	0.007975
1954.000000	0.007924
1953.000000	0.007881
1952.000000	0.007867
1951.000000	0.007843
1950.000000	0.007811
1949.000000	0.007825
1948.000000	0.007878
1947.000000	0.007882
1946.000000	0.007799
1945.000000	0.007703
1944.000000	0.007686
1943.000000	0.007748
1942.000000	0.007831
1941.000000	0.007885
1940.000000	0.007891
1939.000000	0.007865
1938.000000	0.007861
1937.000000	0.007934
1936.000000	0.008068
1935.000000	0.008182
1934.000000	0.008222
1933.000000	0.008208
1932.000000	0.008182
1931.000000	0.008143
1930.000000	0.008088
1929.000000	0.008033
1928.000000	0.007977
1927.000000	0.007912
1926.000000	0.007862
1925.000000	0.007886
1924.000000	0.007982
1923.000000	0.008075
1922.000000	0.008109
1921.000000	0.008109
1920.000000	0.008110
1919.000000	0.008109
1918.000000	0.008096
1917.000000	0.008068
1916.000000	0.008009
1915.000000	0.007927
1914.000000	0.007866
1913.000000	0.007856
1912.000000	0.007864
1911.000000	0.007843
1910.000000	0.007818
1909.000000	0.007847
1908.000000	0.007912
1907.000000	0.007949
1906.000000	0.007953
1905.000000	0.007971
1904.000000	0.007998
1903.000000	0.007984
1902.000000	0.007948
1901.000000	0.007949
1900.000000	0.007980
1899.000000	0.007983
1898.000000	0.007945
1897.000000	0.007922
1896.000000	0.007936
1895.000000	0.007950
1894.000000	0.007946
1893.000000	0.007938
1892.000000	0.007917
1891.000000	0.007868
1890.000000	0.007833
1889.000000	0.007862
1888.000000	0.007904
1887.000000	0.007882
1886.000000	0.007819
1885.000000	0.007797
1884.000000	0.007831
1883.000000	0.007873
1882.000000	0.007910
1881.000000	0.007962
1880.000000	0.008010
1879.000000	0.008013
1878.000000	0.007982
1877.000000	0.007964
1876.000000	0.007952
1875.000000	0.007894
1874.000000	0.007802
1873.000000	0.007745
1872.000000	0.007726
1871.000000	0.007669
1870.000000	0.007561
1869.000000	0.007509
1868.000000	0.007554
1867.000000	0.007606
1866.000000	0.007643
1865.000000	0.007705
1864.000000	0.007780
1863.000000	0.007823
1862.000000	0.007846
1861.000000	0.007901
1860.000000	0.007966
1859.000000	0.007965
1858.000000	0.007903
1857.000000	0.007865
1856.000000	0.007877
1855.000000	0.007891
1854.000000	0.007895
1853.000000	0.007922
1852.000000	0.007960
1851.000000	0.007962
1850.000000	0.007916
1849.000000	0.007856
1848.000000	0.007807
1847.000000	0.007763
1846.000000	0.007733
1845.000000	0.007752
1844.000000	0.007807
1843.000000	0.007803
1842.000000	0.007744
1841.000000	0.007734
1840.000000	0.007793
1839.000000	0.007856
1838.000000	0.007877
1837.000000	0.007877
1836.000000	0.007872
1835.000000	0.007840
1834.000000	0.007778
1833.000000	0.007701
1832.000000	0.007624
1831.000000	0.007571
1830.000000	0.007573
1829.000000	0.007618
1828.000000	0.007660
1827.000000	0.007686
1826.000000	0.007708
1825.000000	0.007759
1824.000000	0.007818
1823.000000	0.007823
1822.000000	0.007782
1821.000000	0.007759
1820.000000	0.007784
1819.000000	0.007806
1818.000000	0.007787
1817.000000	0.007774
1816.000000	0.007793
1815.000000	0.007787
1814.000000	0.007723
1813.000000	0.007655
1812.000000	0.007644
1811.000000	0.007657
1810.000000	0.007655
1809.000000	0.007686
1808.000000	0.007757
1807.000000	0.007792
1806.000000	0.007767
1805.000000	0.007760
1804.000000	0.007795
1803.000000	0.007789
1802.000000	0.007690
1801.000000	0.007578
1800.000000	0.007548
1799.000000	0.007564
1798.000000	0.007578
1797.000000	0.007609
1796.000000	0.007650
1795.000000	0.007626
1794.000000	0.007500
1793.000000	0.007373
1792.000000	0.007375
1791.000000	0.007425
1790.000000	0.007427
1789.000000	0.007441
1788.000000	0.007511
1787.000000	0.007591
1786.000000	0.007634
1785.000000	0.007647
1784.000000	0.007613
1783.000000	0.007510
1782.000000	0.007390
1781.000000	0.007326
1780.000000	0.007330
1779.000000	0.007323
1778.000000	0.007266
1777.000000	0.007196
1776.000000	0.007154
1775.000000	0.007128
1774.000000	0.007055
1773.000000	0.006939
1772.000000	0.006900
1771.000000	0.006952
1770.000000	0.007046
1769.000000	0.007188
1768.000000	0.007340
1767.000000	0.007410
1766.000000	0.007388
1765.000000	0.007393
1764.000000	0.007522
1763.000000	0.007757
1762.000000	0.008024
1761.000000	0.008274
1760.000000	0.008541
1759.000000	0.008880
1758.000000	0.009335
1757.000000	0.009912
1756.000000	0.010567
1755.000000	0.011245
1754.000000	0.011937
1753.000000	0.012652
1752.000000	0.013379
1751.000000	0.014102
1750.000000	0.014780
1749.000000	0.015396
1748.000000	0.015941
1747.000000	0.016356
1746.000000	0.016568
1745.000000	0.016566
1744.000000	0.016401
1743.000000	0.016100
1742.000000	0.015641
1741.000000	0.015027
1740.000000	0.014328
1739.000000	0.013636
1738.000000	0.013048
1737.000000	0.012636
1736.000000	0.012295
1735.000000	0.011811
1734.000000	0.011255
1733.000000	0.010718
1732.000000	0.010210
1731.000000	0.009821
1730.000000	0.009570
1729.000000	0.009375
1728.000000	0.009158
1727.000000	0.008921
1726.000000	0.008686
1725.000000	0.008466
1724.000000	0.008270
1723.000000	0.008070
1722.000000	0.007861
1721.000000	0.007704
1720.000000	0.007615
1719.000000	0.007502
1718.000000	0.007352
1717.000000	0.007330
1716.000000	0.007435
1715.000000	0.007549
1714.000000	0.007710
1713.000000	0.007992
1712.000000	0.008340
1711.000000	0.008666
1710.000000	0.008963
1709.000000	0.009276
1708.000000	0.009642
1707.000000	0.010078
1706.000000	0.010641
1705.000000	0.011356
1704.000000	0.012102
1703.000000	0.012788
1702.000000	0.013368
1701.000000	0.013937
1700.000000	0.014709
1699.000000	0.015382
1698.000000	0.015972
1697.000000	0.016883
1696.000000	0.018094
1695.000000	0.019037
1694.000000	0.019488
1693.000000	0.019853
1692.000000	0.020412
1691.000000	0.021105
1690.000000	0.021828
1689.000000	0.022587
1688.000000	0.023411
1687.000000	0.024242
1686.000000	0.024939
1685.000000	0.025591
1684.000000	0.026489
1683.000000	0.027339
1682.000000	0.028033
1681.000000	0.028816
1680.000000	0.029711
1679.000000	0.030576
1678.000000	0.031374
1677.000000	0.032177
1676.000000	0.033040
1675.000000	0.033937
1674.000000	0.034753
1673.000000	0.035489
1672.000000	0.036283
1671.000000	0.037198
1670.000000	0.038284
1669.000000	0.039491
1668.000000	0.040617
1667.000000	0.041586
1666.000000	0.042463
1665.000000	0.043333
1664.000000	0.044228
1663.000000	0.045151
1662.000000	0.046077
1661.000000	0.046952
1660.000000	0.047769
1659.000000	0.048547
1658.000000	0.049305
1657.000000	0.050123
1656.000000	0.051058
1655.000000	0.051952
1654.000000	0.052665
1653.000000	0.053465
1652.000000	0.053924
1651.000000	0.053922
1650.000000	0.053912
1649.000000	0.054138
1648.000000	0.054548
1647.000000	0.055065
1646.000000	0.055571
1645.000000	0.055959
1644.000000	0.056260
1643.000000	0.056525
1642.000000	0.056786
1641.000000	0.057013
1640.000000	0.057179
1639.000000	0.057304
1638.000000	0.057398
1637.000000	0.057425
1636.000000	0.057408
1635.000000	0.057404
1634.000000	0.057375
1633.000000	0.057364
1632.000000	0.057355
1631.000000	0.057239
1630.000000	0.056939
1629.000000	0.056491
1628.000000	0.055976
1627.000000	0.055446
1626.000000	0.054891
1625.000000	0.054214
1624.000000	0.053343
1623.000000	0.052378
1622.000000	0.051511
1621.000000	0.050808
1620.000000	0.050218
1619.000000	0.049606
1618.000000	0.048760
1617.000000	0.047589
1616.000000	0.046256
1615.000000	0.045040
1614.000000	0.044091
1613.000000	0.043296
1612.000000	0.042440
1611.000000	0.041471
1610.000000	0.040531
1609.000000	0.039680
1608.000000	0.038855
1607.000000	0.038054
1606.000000	0.037347
1605.000000	0.036698
1604.000000	0.036038
1603.000000	0.035405
1602.000000	0.034877
1601.000000	0.034425
1600.000000	0.033974
1599.000000	0.033540
1598.000000	0.033180
1597.000000	0.032873
1596.000000	0.032569
1595.000000	0.032298
1594.000000	0.032129
1593.000000	0.032031
1592.000000	0.031923
1591.000000	0.031815
1590.000000	0.031780
1589.000000	0.031808
1588.000000	0.031832
1587.000000	0.031878
1586.000000	0.032026
1585.000000	0.032250
1584.000000	0.032455
1583.000000	0.032666
1582.000000	0.032951
1581.000000	0.033271
1580.000000	0.033573
1579.000000	0.033928
1578.000000	0.034376
1577.000000	0.034795
1576.000000	0.035047
1575.000000	0.035176
1574.000000	0.035359
1573.000000	0.035670
1572.000000	0.036027
1571.000000	0.036334
1570.000000	0.036687
1569.000000	0.037126
1568.000000	0.037519
1567.000000	0.037897
1566.000000	0.038361
1565.000000	0.038917
1564.000000	0.039537
1563.000000	0.040294
1562.000000	0.041181
1561.000000	0.041818
1560.000000	0.041788
1559.000000	0.041910
1558.000000	0.042652
1557.000000	0.043338
1556.000000	0.043924
1555.000000	0.044520
1554.000000	0.045076
1553.000000	0.045502
1552.000000	0.045867
1551.000000	0.046276
1550.000000	0.046734
1549.000000	0.047162
1548.000000	0.047514
1547.000000	0.047827
1546.000000	0.048138
1545.000000	0.048474
1544.000000	0.048822
1543.000000	0.049090
1542.000000	0.049174
1541.000000	0.049150
1540.000000	0.049214
1539.000000	0.049293
1538.000000	0.049257
1537.000000	0.049208
1536.000000	0.049193
1535.000000	0.049082
1534.000000	0.048820
1533.000000	0.048575
1532.000000	0.048431
1531.000000	0.048291
1530.000000	0.048097
1529.000000	0.047893
1528.000000	0.047707
1527.000000	0.047472
1526.000000	0.047118
1525.000000	0.046720
1524.000000	0.046402
1523.000000	0.046122
1522.000000	0.045789
1521.000000	0.045442
1520.000000	0.045073
1519.000000	0.044677
1518.000000	0.044298
1517.000000	0.043992
1516.000000	0.043750
1515.000000	0.043486
1514.000000	0.043150
1513.000000	0.042730
1512.000000	0.042255
1511.000000	0.041773
1510.000000	0.041306
1509.000000	0.040782
1508.000000	0.040078
1507.000000	0.039218
1506.000000	0.038312
1505.000000	0.037503
1504.000000	0.036887
1503.000000	0.036410
1502.000000	0.035952
1501.000000	0.035414
1500.000000	0.034818
1499.000000	0.034231
1498.000000	0.033611
1497.000000	0.032953
1496.000000	0.032314
1495.000000	0.031667
1494.000000	0.031011
1493.000000	0.030416
1492.000000	0.029872
1491.000000	0.029304
1490.000000	0.028735
1489.000000	0.028299
1488.000000	0.028031
1487.000000	0.027811
1486.000000	0.027614
1485.000000	0.027496
1484.000000	0.027441
1483.000000	0.027403
1482.000000	0.027363
1481.000000	0.027384
1480.000000	0.027487
1479.000000	0.027621
1478.000000	0.027762
1477.000000	0.027988
1476.000000	0.028367
1475.000000	0.028811
1474.000000	0.029265
1473.000000	0.029855
1472.000000	0.030657
1471.000000	0.031462
1470.000000	0.032177
1469.000000	0.032898
1468.000000	0.033651
1467.000000	0.034316
1466.000000	0.034809
1465.000000	0.035190
1464.000000	0.035547
1463.000000	0.035858
1462.000000	0.036115
1461.000000	0.036404
1460.000000	0.036817
1459.000000	0.037362
1458.000000	0.037976
1457.000000	0.038592
1456.000000	0.039005
1455.000000	0.039155
1454.000000	0.039248
1453.000000	0.039413
1452.000000	0.039606
1451.000000	0.039728
1450.000000	0.039753
1449.000000	0.039736
1448.000000	0.039737
1447.000000	0.039750
1446.000000	0.039740
1445.000000	0.039691
1444.000000	0.039626
1443.000000	0.039539
1442.000000	0.039403
1441.000000	0.039237
1440.000000	0.039126
1439.000000	0.039082
1438.000000	0.038939
1437.000000	0.038578
1436.000000	0.038102
1435.000000	0.037659
1434.000000	0.037297
1433.000000	0.037000
1432.000000	0.036708
1431.000000	0.036392
1430.000000	0.036064
1429.000000	0.035756
1428.000000	0.035506
1427.000000	0.035321
1426.000000	0.035164
1425.000000	0.034969
1424.000000	0.034789
1423.000000	0.034754
1422.000000	0.034865
1421.000000	0.034981
1420.000000	0.034980
1419.000000	0.034934
1418.000000	0.034860
1417.000000	0.034745
1416.000000	0.034687
1415.000000	0.034702
1414.000000	0.034707
1413.000000	0.034651
1412.000000	0.034580
1411.000000	0.034549
1410.000000	0.034527
1409.000000	0.034478
1408.000000	0.034439
1407.000000	0.034444
1406.000000	0.034474
1405.000000	0.034483
1404.000000	0.034476
1403.000000	0.034480
1402.000000	0.034469
1401.000000	0.034390
1400.000000	0.034242
1399.000000	0.034099
1398.000000	0.033994
1397.000000	0.033902
1396.000000	0.033795
1395.000000	0.033662
1394.000000	0.033471
1393.000000	0.033196
1392.000000	0.032923
1391.000000	0.032741
1390.000000	0.032634
1389.000000	0.032511
1388.000000	0.032312
1387.000000	0.032053
1386.000000	0.031768
1385.000000	0.031474
1384.000000	0.031190
1383.000000	0.030926
1382.000000	0.030685
1381.000000	0.030477
1380.000000	0.030289
1379.000000	0.030077
1378.000000	0.029805
1377.000000	0.029464
1376.000000	0.029074
1375.000000	0.028677
1374.000000	0.028304
1373.000000	0.027933
1372.000000	0.027544
1371.000000	0.027163
1370.000000	0.026817
1369.000000	0.026468
1368.000000	0.026067
1367.000000	0.025633
1366.000000	0.025223
1365.000000	0.024876
1364.000000	0.024588
1363.000000	0.024338
1362.000000	0.024107
1361.000000	0.023885
1360.000000	0.023689
1359.000000	0.023545
1358.000000	0.023467
1357.000000	0.023439
1356.000000	0.023447
1355.000000	0.023497
1354.000000	0.023589
1353.000000	0.023715
1352.000000	0.023854
1351.000000	0.024005
1350.000000	0.024207
1349.000000	0.024465
1348.000000	0.024746
1347.000000	0.025014
1346.000000	0.025268
1345.000000	0.025518
1344.000000	0.025772
1343.000000	0.026039
1342.000000	0.026328
1341.000000	0.026637
1340.000000	0.026928
1339.000000	0.027155
1338.000000	0.027288
1337.000000	0.027329
1336.000000	0.027310
1335.000000	0.027261
1334.000000	0.027199
1333.000000	0.027123
1332.000000	0.027024
1331.000000	0.026901
1330.000000	0.026762
1329.000000	0.026613
1328.000000	0.026456
1327.000000	0.026307
1326.000000	0.026191
1325.000000	0.026102
1324.000000	0.026025
1323.000000	0.025963
1322.000000	0.025927
1321.000000	0.025915
1320.000000	0.025912
1319.000000	0.025915
1318.000000	0.025916
1317.000000	0.025901
1316.000000	0.025862
1315.000000	0.025801
1314.000000	0.025719
1313.000000	0.025608
1312.000000	0.025473
1311.000000	0.025332
1310.000000	0.025200
1309.000000	0.025074
1308.000000	0.024951
1307.000000	0.024832
1306.000000	0.024718
1305.000000	0.024590
1304.000000	0.024451
1303.000000	0.024323
1302.000000	0.024219
1301.000000	0.024122
1300.000000	0.024011
1299.000000	0.023895
1298.000000	0.023794
1297.000000	0.023714
1296.000000	0.023650
1295.000000	0.023607
1294.000000	0.023599
1293.000000	0.023629
1292.000000	0.023697
1291.000000	0.023801
1290.000000	0.023931
1289.000000	0.024075
1288.000000	0.024224
1287.000000	0.024381
1286.000000	0.024544
1285.000000	0.024705
1284.000000	0.024857
1283.000000	0.024993
1282.000000	0.025101
1281.000000	0.025175
1280.000000	0.025225
1279.000000	0.025269
1278.000000	0.025307
1277.000000	0.025326
1276.000000	0.025324
1275.000000	0.025316
1274.000000	0.025311
1273.000000	0.025310
1272.000000	0.025315
1271.000000	0.025340
1270.000000	0.025388
1269.000000	0.025449
1268.000000	0.025520
1267.000000	0.025613
1266.000000	0.025727
1265.000000	0.025839
1264.000000	0.025938
1263.000000	0.026037
1262.000000	0.026158
1261.000000	0.026307
1260.000000	0.026475
1259.000000	0.026654
1258.000000	0.026833
1257.000000	0.027007
1256.000000	0.027189
1255.000000	0.027398
1254.000000	0.027636
1253.000000	0.027887
1252.000000	0.028144
1251.000000	0.028417
1250.000000	0.028706
1249.000000	0.028986
1248.000000	0.029239
1247.000000	0.029472
1246.000000	0.029703
1245.000000	0.029939
1244.000000	0.030175
1243.000000	0.030407
1242.000000	0.030619
1241.000000	0.030787
1240.000000	0.030896
1239.000000	0.030942
1238.000000	0.030930
1237.000000	0.030861
1236.000000	0.030744
1235.000000	0.030595
1234.000000	0.030423
1233.000000	0.030222
1232.000000	0.029984
1231.000000	0.029709
1230.000000	0.029406
1229.000000	0.029081
1228.000000	0.028745
1227.000000	0.028405
1226.000000	0.028049
1225.000000	0.027651
1224.000000	0.027199
1223.000000	0.026697
1222.000000	0.026149
1221.000000	0.025551
1220.000000	0.024920
1219.000000	0.024321
1218.000000	0.023837
1217.000000	0.023522
1216.000000	0.023381
1215.000000	0.023378
1214.000000	0.023444
1213.000000	0.023517
1212.000000	0.023574
1211.000000	0.023625
1210.000000	0.023676
1209.000000	0.023720
1208.000000	0.023760
1207.000000	0.023812
1206.000000	0.023884
1205.000000	0.023959
1204.000000	0.024016
1203.000000	0.024050
1202.000000	0.024064
1201.000000	0.024054
1200.000000	0.024014
1199.000000	0.023946
1198.000000	0.023852
1197.000000	0.023729
1196.000000	0.023581
1195.000000	0.023418
1194.000000	0.023251
1193.000000	0.023082
1192.000000	0.022914
1191.000000	0.022758
1190.000000	0.022618
1189.000000	0.022485
1188.000000	0.022351
1187.000000	0.022220
1186.000000	0.022097
1185.000000	0.021995
1184.000000	0.021931
1183.000000	0.021913
1182.000000	0.021928
1181.000000	0.021957
1180.000000	0.021998
1179.000000	0.022066
1178.000000	0.022164
1177.000000	0.022285
1176.000000	0.022418
1175.000000	0.022561
1174.000000	0.022710
1173.000000	0.022857
1172.000000	0.023011
1171.000000	0.023185
1170.000000	0.023372
1169.000000	0.023552
1168.000000	0.023720
1167.000000	0.023892
1166.000000	0.024076
1165.000000	0.024252
1164.000000	0.024398
1163.000000	0.024510
1162.000000	0.024598
1161.000000	0.024665
1160.000000	0.024700
1159.000000	0.024690
1158.000000	0.024620
1157.000000	0.024483
1156.000000	0.024293
1155.000000	0.024081
1154.000000	0.023868
1153.000000	0.023650
1152.000000	0.023418
1151.000000	0.023176
1150.000000	0.022937
1149.000000	0.022700
1148.000000	0.022464
1147.000000	0.022235
1146.000000	0.022018
1145.000000	0.021807
1144.000000	0.021593
1143.000000	0.021371
1142.000000	0.021137
1141.000000	0.020882
1140.000000	0.020598
1139.000000	0.020292
1138.000000	0.019982
1137.000000	0.019690
1136.000000	0.019435
1135.000000	0.019223
1134.000000	0.019045
1133.000000	0.018887
1132.000000	0.018746
1131.000000	0.018628
1130.000000	0.018536
1129.000000	0.018469
1128.000000	0.018431
1127.000000	0.018432
1126.000000	0.018474
1125.000000	0.018553
1124.000000	0.018667
1123.000000	0.018810
1122.000000	0.018960
1121.000000	0.019089
1120.000000	0.019190
1119.000000	0.019272
1118.000000	0.019340
1117.000000	0.019391
1116.000000	0.019437
1115.000000	0.019495
1114.000000	0.019561
1113.000000	0.019611
1112.000000	0.019637
1111.000000	0.019660
1110.000000	0.019704
1109.000000	0.019765
1108.000000	0.019836
1107.000000	0.019923
1106.000000	0.020030
1105.000000	0.020148
1104.000000	0.020261
1103.000000	0.020360
1102.000000	0.020433
1101.000000	0.020480
1100.000000	0.020527
1099.000000	0.020599
1098.000000	0.020698
1097.000000	0.020794
1096.000000	0.020863
1095.000000	0.020914
1094.000000	0.020975
1093.000000	0.021067
1092.000000	0.021197
1091.000000	0.021363
1090.000000	0.021561
1089.000000	0.021793
1088.000000	0.022068
1087.000000	0.022388
1086.000000	0.022722
1085.000000	0.023022
1084.000000	0.023252
1083.000000	0.023403
1082.000000	0.023479
1081.000000	0.023484
1080.000000	0.023423
1079.000000	0.023305
1078.000000	0.023139
1077.000000	0.022937
1076.000000	0.022719
1075.000000	0.022501
1074.000000	0.022277
1073.000000	0.022038
1072.000000	0.021793
1071.000000	0.021582
1070.000000	0.021442
1069.000000	0.021375
1068.000000	0.021364
1067.000000	0.021391
1066.000000	0.021444
1065.000000	0.021516
1064.000000	0.021604
1063.000000	0.021705
1062.000000	0.021798
1061.000000	0.021861
1060.000000	0.021889
1059.000000	0.021893
1058.000000	0.021885
1057.000000	0.021864
1056.000000	0.021824
1055.000000	0.021767
1054.000000	0.021703
1053.000000	0.021651
1052.000000	0.021626
1051.000000	0.021618
1050.000000	0.021597
1049.000000	0.021550
1048.000000	0.021497
1047.000000	0.021471
1046.000000	0.021470
1045.000000	0.021475
1044.000000	0.021485
1043.000000	0.021514
1042.000000	0.021560
1041.000000	0.021609
1040.000000	0.021665
1039.000000	0.021752
1038.000000	0.021887
1037.000000	0.022064
1036.000000	0.022272
1035.000000	0.022511
1034.000000	0.022768
1033.000000	0.023010
1032.000000	0.023206
1031.000000	0.023347
1030.000000	0.023435
1029.000000	0.023474
1028.000000	0.023478
1027.000000	0.023472
1026.000000	0.023476
1025.000000	0.023492
1024.000000	0.023517
1023.000000	0.023551
1022.000000	0.023589
1021.000000	0.023615
1020.000000	0.023613
1019.000000	0.023579
1018.000000	0.023510
1017.000000	0.023393
1016.000000	0.023219
1015.000000	0.022990
1014.000000	0.022709
1013.000000	0.022373
1012.000000	0.021986
1011.000000	0.021572
1010.000000	0.021160
1009.000000	0.020770
1008.000000	0.020409
1007.000000	0.020078
1006.000000	0.019765
1005.000000	0.019454
1004.000000	0.019140
1003.000000	0.018834
1002.000000	0.018542
1001.000000	0.018260
1000.000000	0.017982
999.000000	0.017707
998.000000	0.017435
997.000000	0.017164
996.000000	0.016902
995.000000	0.016662
994.000000	0.016449
993.000000	0.016245
992.000000	0.016032
991.000000	0.015809
990.000000	0.015587
989.000000	0.015383
988.000000	0.015214
987.000000	0.015072
986.000000	0.014922
985.000000	0.014726
984.000000	0.014500
983.000000	0.014302
982.000000	0.014175
981.000000	0.014106
980.000000	0.014062
979.000000	0.014020
978.000000	0.013974
977.000000	0.013912
976.000000	0.013823
975.000000	0.013721
974.000000	0.013629
973.000000	0.013562
972.000000	0.013514
971.000000	0.013460
970.000000	0.013370
969.000000	0.013234
968.000000	0.013067
967.000000	0.012897
966.000000	0.012735
965.000000	0.012574
964.000000	0.012417
963.000000	0.012271
962.000000	0.012127
961.000000	0.011958
960.000000	0.011753
959.000000	0.011530
958.000000	0.011324
957.000000	0.011155
956.000000	0.011022
955.000000	0.010913
954.000000	0.010805
953.000000	0.010682
952.000000	0.010550
951.000000	0.010419
950.000000	0.010287
949.000000	0.010150
948.000000	0.010027
947.000000	0.009946
946.000000	0.009902
945.000000	0.009868
944.000000	0.009835
943.000000	0.009816
942.000000	0.009812
941.000000	0.009798
940.000000	0.009759
939.000000	0.009715
938.000000	0.009680
937.000000	0.009641
936.000000	0.009588
935.000000	0.009534
934.000000	0.009485
933.000000	0.009425
932.000000	0.009337
931.000000	0.009235
930.000000	0.009152
929.000000	0.009102
928.000000	0.009076
927.000000	0.009060
926.000000	0.009038
925.000000	0.008998
924.000000	0.008940
923.000000	0.008881
922.000000	0.008830
921.000000	0.008779
920.000000	0.008713
919.000000	0.008614
918.000000	0.008472
917.000000	0.008302
916.000000	0.008146
915.000000	0.008044
914.000000	0.007990
913.000000	0.007945
912.000000	0.007887
911.000000	0.007825
910.000000	0.007758
909.000000	0.007662
908.000000	0.007538
907.000000	0.007428
906.000000	0.007372
905.000000	0.007361
904.000000	0.007355
903.000000	0.007335
902.000000	0.007300
901.000000	0.007251
900.000000	0.007192
899.000000	0.007142
898.000000	0.007119
897.000000	0.007120
896.000000	0.007132
895.000000	0.007143
894.000000	0.007142
893.000000	0.007116
892.000000	0.007067
891.000000	0.007016
890.000000	0.006987
889.000000	0.006990
888.000000	0.007023
887.000000	0.007084
886.000000	0.007167
885.000000	0.007271
884.000000	0.007414
883.000000	0.007626
882.000000	0.007919
881.000000	0.008278
880.000000	0.008681
879.000000	0.009109
878.000000	0.009529
877.000000	0.009885
876.000000	0.010123
875.000000	0.010207
874.000000	0.010115
873.000000	0.009849
872.000000	0.009456
871.000000	0.009024
870.000000	0.008623
869.000000	0.008285
868.000000	0.008022
867.000000	0.007851
866.000000	0.007770
865.000000	0.007738
864.000000	0.007710
863.000000	0.007679
862.000000	0.007664
861.000000	0.007672
860.000000	0.007691
859.000000	0.007704
858.000000	0.007705
857.000000	0.007693
856.000000	0.007675
855.000000	0.007655
854.000000	0.007631
853.000000	0.007608
852.000000	0.007610
851.000000	0.007655
850.000000	0.007725
849.000000	0.007765
848.000000	0.007736
847.000000	0.007648
846.000000	0.007540
845.000000	0.007439
844.000000	0.007365
843.000000	0.007330
842.000000	0.007336
841.000000	0.007354
840.000000	0.007349
839.000000	0.007307
838.000000	0.007243
837.000000	0.007184
836.000000	0.007147
835.000000	0.007132
834.000000	0.007127
833.000000	0.007123
832.000000	0.007109
831.000000	0.007073
830.000000	0.007017
829.000000	0.006968
828.000000	0.006977
827.000000	0.007048
826.000000	0.007118
825.000000	0.007115
824.000000	0.007051
823.000000	0.007000
822.000000	0.007005
821.000000	0.007049
820.000000	0.007111
819.000000	0.007197
818.000000	0.007297
817.000000	0.007371
816.000000	0.007397
815.000000	0.007400
814.000000	0.007407
813.000000	0.007396
812.000000	0.007334
811.000000	0.007240
810.000000	0.007171
809.000000	0.007158
808.000000	0.007178
807.000000	0.007182
806.000000	0.007136
805.000000	0.007046
804.000000	0.006962
803.000000	0.006938
802.000000	0.006989
801.000000	0.007067
800.000000	0.007122
799.000000	0.007146
798.000000	0.007162
797.000000	0.007177
796.000000	0.007179
795.000000	0.007170
794.000000	0.007177
793.000000	0.007219
792.000000	0.007278
791.000000	0.007317
790.000000	0.007319
789.000000	0.007297
788.000000	0.007278
787.000000	0.007271
786.000000	0.007264
785.000000	0.007262
784.000000	0.007294
783.000000	0.007374
782.000000	0.007468
781.000000	0.007528
780.000000	0.007545
779.000000	0.007547
778.000000	0.007546
777.000000	0.007517
776.000000	0.007453
775.000000	0.007391
774.000000	0.007384
773.000000	0.007441
772.000000	0.007531
771.000000	0.007616
770.000000	0.007680
769.000000	0.007727
768.000000	0.007770
767.000000	0.007816
766.000000	0.007854
765.000000	0.007856
764.000000	0.007823
763.000000	0.007786
762.000000	0.007779
761.000000	0.007809
760.000000	0.007859
759.000000	0.007907
758.000000	0.007941
757.000000	0.007958
756.000000	0.007971
755.000000	0.007990
754.000000	0.008013
753.000000	0.008036
752.000000	0.008073
751.000000	0.008140
750.000000	0.008218
749.000000	0.008267
748.000000	0.008276
747.000000	0.008289
746.000000	0.008349
745.000000	0.008457
744.000000	0.008579
743.000000	0.008677
742.000000	0.008721
741.000000	0.008707
740.000000	0.008682
739.000000	0.008725
738.000000	0.008872
737.000000	0.009069
736.000000	0.009227
735.000000	0.009308
734.000000	0.009345
733.000000	0.009392
732.000000	0.009485
731.000000	0.009623
730.000000	0.009776
729.000000	0.009922
728.000000	0.010071
727.000000	0.010251
726.000000	0.010475
725.000000	0.010726
724.000000	0.010972
723.000000	0.011185
722.000000	0.011343
721.000000	0.011427
720.000000	0.011445
719.000000	0.011437
718.000000	0.011447
717.000000	0.011479
716.000000	0.011509
715.000000	0.011523
714.000000	0.011521
713.000000	0.011513
712.000000	0.011514
711.000000	0.011532
710.000000	0.011566
709.000000	0.011607
708.000000	0.011653
707.000000	0.011710
706.000000	0.011781
705.000000	0.011866
704.000000	0.011950
703.000000	0.012024
702.000000	0.012081
701.000000	0.012127
700.000000	0.012172
699.000000	0.012209
698.000000	0.012220
697.000000	0.012209
696.000000	0.012204
695.000000	0.012232
694.000000	0.012268
693.000000	0.012261
692.000000	0.012213
691.000000	0.012171
690.000000	0.012164
689.000000	0.012179
688.000000	0.012215
687.000000	0.012301
686.000000	0.012429
685.000000	0.012540
684.000000	0.012599
683.000000	0.012633
682.000000	0.012669
681.000000	0.012690
680.000000	0.012695
679.000000	0.012721
678.000000	0.012787
677.000000	0.012897
676.000000	0.013061
675.000000	0.013255
674.000000	0.013423
673.000000	0.013528
672.000000	0.013553
671.000000	0.013426
670.000000	0.013021
669.000000	0.012324
668.000000	0.011828
667.000000	0.012166
666.000000	0.012822
665.000000	0.013360
664.000000	0.013692
663.000000	0.013801
662.000000	0.013767
661.000000	0.013720
660.000000	0.013719
659.000000	0.013719
658.000000	0.013665
657.000000	0.013589
656.000000	0.013539
655.000000	0.013497
654.000000	0.013452
653.000000	0.013446
652.000000	0.013471
651.000000	0.013449
650.000000	0.013356
649.000000	0.013274
648.000000	0.013258
647.000000	0.013268
646.000000	0.013278
645.000000	0.013313
644.000000	0.013368
643.000000	0.013387
642.000000	0.013337
641.000000	0.013251
640.000000	0.013164
639.000000	0.013076
638.000000	0.013001
637.000000	0.012966
636.000000	0.012941
635.000000	0.012876
634.000000	0.012811
633.000000	0.012843
632.000000	0.012985
631.000000	0.013132
630.000000	0.013201
629.000000	0.013222
628.000000	0.013251
627.000000	0.013272
626.000000	0.013268
625.000000	0.013278
624.000000	0.013344
623.000000	0.013448
622.000000	0.013537
621.000000	0.013569
620.000000	0.013530
619.000000	0.013437
618.000000	0.013352
617.000000	0.013335
616.000000	0.013360
615.000000	0.013335
614.000000	0.013227
613.000000	0.013119
612.000000	0.013100
611.000000	0.013158
610.000000	0.013222
609.000000	0.013260
608.000000	0.013277
607.000000	0.013271
606.000000	0.013231
605.000000	0.013162
604.000000	0.013082
603.000000	0.013031
602.000000	0.013055
601.000000	0.013160
600.000000	0.013276
599.000000	0.013321
598.000000	0.013301
597.000000	0.013283
596.000000	0.013282
595.000000	0.013254
594.000000	0.013183
593.000000	0.013134
592.000000	0.013167
591.000000	0.013266
590.000000	0.013376
589.000000	0.013455
588.000000	0.013473
587.000000	0.013402
586.000000	0.013264
585.000000	0.013153
584.000000	0.013153
583.000000	0.013248
582.000000	0.013339
581.000000	0.013342
580.000000	0.013252
579.000000	0.013124
578.000000	0.013013
577.000000	0.012952
576.000000	0.012974
575.000000	0.013100
574.000000	0.013301
573.000000	0.013485
572.000000	0.013571
571.000000	0.013574
570.000000	0.013597
569.000000	0.013722
568.000000	0.013922
567.000000	0.014098
566.000000	0.014199
565.000000	0.014254
564.000000	0.014302
563.000000	0.014344
562.000000	0.014359
561.000000	0.014347
560.000000	0.014310
559.000000	0.014234
558.000000	0.014116
557.000000	0.014005
556.000000	0.013957
555.000000	0.013957
554.000000	0.013951
553.000000	0.013923
552.000000	0.013907
551.000000	0.013921
550.000000	0.013926
549.000000	0.013853
548.000000	0.013661
547.000000	0.013375
546.000000	0.013083
545.000000	0.012892
544.000000	0.012854
543.000000	0.012937
542.000000	0.013070
541.000000	0.013202
540.000000	0.013313
539.000000	0.013396
538.000000	0.013463
537.000000	0.013535
536.000000	0.013607
535.000000	0.013631
534.000000	0.013579
533.000000	0.013513
532.000000	0.013511
531.000000	0.013544
530.000000	0.013520
529.000000	0.013409
528.000000	0.013255
527.000000	0.013124
526.000000	0.013076
525.000000	0.013135
524.000000	0.013286
523.000000	0.013452
522.000000	0.013526
521.000000	0.013446
520.000000	0.013238
519.000000	0.012974
518.000000	0.012720
517.000000	0.012498
516.000000	0.012290
515.000000	0.012068
514.000000	0.011844
513.000000	0.011682
512.000000	0.011599
511.000000	0.011526
510.000000	0.011385
509.000000	0.011197
508.000000	0.010994
507.000000	0.010750
506.000000	0.010454
505.000000	0.010166
504.000000	0.009975
503.000000	0.009911
502.000000	0.009943
501.000000	0.010021
500.000000	0.010085
499.000000	0.010084
498.000000	0.010010
497.000000	0.009896
496.000000	0.009785
495.000000	0.009705
494.000000	0.009709
493.000000	0.009803
492.000000	0.009843
491.000000	0.009673
490.000000	0.009354
489.000000	0.009142
488.000000	0.009161
487.000000	0.009260
486.000000	0.009237
485.000000	0.009071
484.000000	0.008870
483.000000	0.008722
482.000000	0.008679
481.000000	0.008742
480.000000	0.008841
479.000000	0.008894
478.000000	0.008882
477.000000	0.008846
476.000000	0.008778
475.000000	0.008617
474.000000	0.008386
473.000000	0.008297
472.000000	0.008527
471.000000	0.008974
470.000000	0.009347
469.000000	0.009494
468.000000	0.009514
467.000000	0.009600
466.000000	0.009809
465.000000	0.010033
464.000000	0.010027
463.000000	0.009531
462.000000	0.008583
461.000000	0.007638
460.000000	0.007196
459.000000	0.007303
458.000000	0.007498
457.000000	0.007359
456.000000	0.006987
455.000000	0.006711
454.000000	0.006658
453.000000	0.006799
452.000000	0.007074
451.000000	0.007360
450.000000	0.007407
