PE IR       SUBTECH     SPECTRUM    ASCII       PEDS        4.00        
   -1
3S-N10-F001_1.ASC
22/02/18
14:58:37.00
22/02/18
15:59:09.00
uco
Sample 041 By uco Date Friday, February 18 2022
450.000000
#HDR
-1
-1
#GR
cm-1
A
1.0
0.0
4000.000000
-1.000000
3551
8
0.047453
0.005253
#DATA
4000.000000	0.005557
3999.000000	0.005566
3998.000000	0.005590
3997.000000	0.005620
3996.000000	0.005645
3995.000000	0.005657
3994.000000	0.005655
3993.000000	0.005647
3992.000000	0.005640
3991.000000	0.005640
3990.000000	0.005645
3989.000000	0.005653
3988.000000	0.005663
3987.000000	0.005676
3986.000000	0.005690
3985.000000	0.005701
3984.000000	0.005705
3983.000000	0.005698
3982.000000	0.005683
3981.000000	0.005664
3980.000000	0.005647
3979.000000	0.005636
3978.000000	0.005636
3977.000000	0.005647
3976.000000	0.005668
3975.000000	0.005693
3974.000000	0.005716
3973.000000	0.005731
3972.000000	0.005734
3971.000000	0.005730
3970.000000	0.005720
3969.000000	0.005708
3968.000000	0.005697
3967.000000	0.005690
3966.000000	0.005692
3965.000000	0.005701
3964.000000	0.005708
3963.000000	0.005712
3962.000000	0.005713
3961.000000	0.005721
3960.000000	0.005736
3959.000000	0.005753
3958.000000	0.005767
3957.000000	0.005774
3956.000000	0.005776
3955.000000	0.005774
3954.000000	0.005772
3953.000000	0.005776
3952.000000	0.005789
3951.000000	0.005809
3950.000000	0.005827
3949.000000	0.005836
3948.000000	0.005836
3947.000000	0.005832
3946.000000	0.005829
3945.000000	0.005827
3944.000000	0.005817
3943.000000	0.005797
3942.000000	0.005773
3941.000000	0.005759
3940.000000	0.005763
3939.000000	0.005781
3938.000000	0.005797
3937.000000	0.005800
3936.000000	0.005790
3935.000000	0.005778
3934.000000	0.005772
3933.000000	0.005775
3932.000000	0.005782
3931.000000	0.005788
3930.000000	0.005796
3929.000000	0.005809
3928.000000	0.005831
3927.000000	0.005855
3926.000000	0.005869
3925.000000	0.005866
3924.000000	0.005845
3923.000000	0.005817
3922.000000	0.005796
3921.000000	0.005789
3920.000000	0.005792
3919.000000	0.005798
3918.000000	0.005804
3917.000000	0.005806
3916.000000	0.005801
3915.000000	0.005787
3914.000000	0.005770
3913.000000	0.005761
3912.000000	0.005767
3911.000000	0.005784
3910.000000	0.005804
3909.000000	0.005824
3908.000000	0.005846
3907.000000	0.005867
3906.000000	0.005878
3905.000000	0.005859
3904.000000	0.005802
3903.000000	0.005728
3902.000000	0.005677
3901.000000	0.005672
3900.000000	0.005704
3899.000000	0.005744
3898.000000	0.005772
3897.000000	0.005787
3896.000000	0.005797
3895.000000	0.005807
3894.000000	0.005817
3893.000000	0.005825
3892.000000	0.005827
3891.000000	0.005822
3890.000000	0.005811
3889.000000	0.005792
3888.000000	0.005769
3887.000000	0.005755
3886.000000	0.005762
3885.000000	0.005778
3884.000000	0.005780
3883.000000	0.005765
3882.000000	0.005748
3881.000000	0.005750
3880.000000	0.005778
3879.000000	0.005817
3878.000000	0.005852
3877.000000	0.005871
3876.000000	0.005879
3875.000000	0.005881
3874.000000	0.005873
3873.000000	0.005848
3872.000000	0.005813
3871.000000	0.005787
3870.000000	0.005783
3869.000000	0.005792
3868.000000	0.005794
3867.000000	0.005784
3866.000000	0.005780
3865.000000	0.005797
3864.000000	0.005825
3863.000000	0.005845
3862.000000	0.005850
3861.000000	0.005851
3860.000000	0.005858
3859.000000	0.005879
3858.000000	0.005914
3857.000000	0.005954
3856.000000	0.005983
3855.000000	0.005993
3854.000000	0.005976
3853.000000	0.005932
3852.000000	0.005884
3851.000000	0.005850
3850.000000	0.005829
3849.000000	0.005817
3848.000000	0.005805
3847.000000	0.005785
3846.000000	0.005761
3845.000000	0.005746
3844.000000	0.005752
3843.000000	0.005781
3842.000000	0.005819
3841.000000	0.005851
3840.000000	0.005868
3839.000000	0.005869
3838.000000	0.005862
3837.000000	0.005858
3836.000000	0.005855
3835.000000	0.005844
3834.000000	0.005820
3833.000000	0.005788
3832.000000	0.005760
3831.000000	0.005749
3830.000000	0.005759
3829.000000	0.005789
3828.000000	0.005829
3827.000000	0.005863
3826.000000	0.005875
3825.000000	0.005859
3824.000000	0.005827
3823.000000	0.005812
3822.000000	0.005838
3821.000000	0.005889
3820.000000	0.005924
3819.000000	0.005926
3818.000000	0.005907
3817.000000	0.005887
3816.000000	0.005883
3815.000000	0.005887
3814.000000	0.005888
3813.000000	0.005881
3812.000000	0.005870
3811.000000	0.005854
3810.000000	0.005833
3809.000000	0.005813
3808.000000	0.005808
3807.000000	0.005820
3806.000000	0.005836
3805.000000	0.005843
3804.000000	0.005847
3803.000000	0.005866
3802.000000	0.005908
3801.000000	0.005950
3800.000000	0.005962
3799.000000	0.005942
3798.000000	0.005903
3797.000000	0.005866
3796.000000	0.005843
3795.000000	0.005832
3794.000000	0.005826
3793.000000	0.005820
3792.000000	0.005817
3791.000000	0.005822
3790.000000	0.005833
3789.000000	0.005844
3788.000000	0.005852
3787.000000	0.005855
3786.000000	0.005848
3785.000000	0.005831
3784.000000	0.005812
3783.000000	0.005804
3782.000000	0.005811
3781.000000	0.005830
3780.000000	0.005847
3779.000000	0.005849
3778.000000	0.005834
3777.000000	0.005813
3776.000000	0.005795
3775.000000	0.005789
3774.000000	0.005793
3773.000000	0.005803
3772.000000	0.005814
3771.000000	0.005825
3770.000000	0.005835
3769.000000	0.005837
3768.000000	0.005824
3767.000000	0.005802
3766.000000	0.005781
3765.000000	0.005774
3764.000000	0.005779
3763.000000	0.005784
3762.000000	0.005784
3761.000000	0.005786
3760.000000	0.005789
3759.000000	0.005785
3758.000000	0.005767
3757.000000	0.005745
3756.000000	0.005722
3755.000000	0.005689
3754.000000	0.005635
3753.000000	0.005567
3752.000000	0.005512
3751.000000	0.005497
3750.000000	0.005524
3749.000000	0.005571
3748.000000	0.005611
3747.000000	0.005629
3746.000000	0.005630
3745.000000	0.005632
3744.000000	0.005639
3743.000000	0.005637
3742.000000	0.005618
3741.000000	0.005589
3740.000000	0.005565
3739.000000	0.005555
3738.000000	0.005564
3737.000000	0.005590
3736.000000	0.005609
3735.000000	0.005588
3734.000000	0.005532
3733.000000	0.005496
3732.000000	0.005521
3731.000000	0.005590
3730.000000	0.005654
3729.000000	0.005676
3728.000000	0.005651
3727.000000	0.005604
3726.000000	0.005569
3725.000000	0.005566
3724.000000	0.005600
3723.000000	0.005662
3722.000000	0.005726
3721.000000	0.005768
3720.000000	0.005774
3719.000000	0.005746
3718.000000	0.005701
3717.000000	0.005657
3716.000000	0.005624
3715.000000	0.005609
3714.000000	0.005620
3713.000000	0.005665
3712.000000	0.005726
3711.000000	0.005760
3710.000000	0.005751
3709.000000	0.005713
3708.000000	0.005670
3707.000000	0.005636
3706.000000	0.005611
3705.000000	0.005597
3704.000000	0.005597
3703.000000	0.005615
3702.000000	0.005647
3701.000000	0.005680
3700.000000	0.005702
3699.000000	0.005708
3698.000000	0.005697
3697.000000	0.005678
3696.000000	0.005660
3695.000000	0.005644
3694.000000	0.005634
3693.000000	0.005632
3692.000000	0.005638
3691.000000	0.005642
3690.000000	0.005637
3689.000000	0.005626
3688.000000	0.005629
3687.000000	0.005650
3686.000000	0.005677
3685.000000	0.005703
3684.000000	0.005723
3683.000000	0.005737
3682.000000	0.005744
3681.000000	0.005753
3680.000000	0.005767
3679.000000	0.005780
3678.000000	0.005783
3677.000000	0.005794
3676.000000	0.005830
3675.000000	0.005865
3674.000000	0.005863
3673.000000	0.005820
3672.000000	0.005758
3671.000000	0.005718
3670.000000	0.005722
3669.000000	0.005752
3668.000000	0.005784
3667.000000	0.005813
3666.000000	0.005839
3665.000000	0.005862
3664.000000	0.005884
3663.000000	0.005905
3662.000000	0.005925
3661.000000	0.005938
3660.000000	0.005943
3659.000000	0.005946
3658.000000	0.005956
3657.000000	0.005977
3656.000000	0.005998
3655.000000	0.006005
3654.000000	0.005995
3653.000000	0.005982
3652.000000	0.005981
3651.000000	0.006003
3650.000000	0.006039
3649.000000	0.006069
3648.000000	0.006101
3647.000000	0.006148
3646.000000	0.006206
3645.000000	0.006261
3644.000000	0.006307
3643.000000	0.006342
3642.000000	0.006373
3641.000000	0.006406
3640.000000	0.006440
3639.000000	0.006468
3638.000000	0.006476
3637.000000	0.006460
3636.000000	0.006429
3635.000000	0.006401
3634.000000	0.006381
3633.000000	0.006362
3632.000000	0.006341
3631.000000	0.006341
3630.000000	0.006399
3629.000000	0.006506
3628.000000	0.006601
3627.000000	0.006654
3626.000000	0.006676
3625.000000	0.006685
3624.000000	0.006690
3623.000000	0.006690
3622.000000	0.006681
3621.000000	0.006677
3620.000000	0.006708
3619.000000	0.006784
3618.000000	0.006884
3617.000000	0.006975
3616.000000	0.007034
3615.000000	0.007063
3614.000000	0.007075
3613.000000	0.007077
3612.000000	0.007068
3611.000000	0.007057
3610.000000	0.007065
3609.000000	0.007111
3608.000000	0.007195
3607.000000	0.007293
3606.000000	0.007384
3605.000000	0.007455
3604.000000	0.007502
3603.000000	0.007529
3602.000000	0.007547
3601.000000	0.007570
3600.000000	0.007605
3599.000000	0.007649
3598.000000	0.007692
3597.000000	0.007727
3596.000000	0.007748
3595.000000	0.007755
3594.000000	0.007757
3593.000000	0.007768
3592.000000	0.007796
3591.000000	0.007835
3590.000000	0.007881
3589.000000	0.007936
3588.000000	0.008003
3587.000000	0.008074
3586.000000	0.008142
3585.000000	0.008202
3584.000000	0.008254
3583.000000	0.008307
3582.000000	0.008371
3581.000000	0.008450
3580.000000	0.008534
3579.000000	0.008611
3578.000000	0.008672
3577.000000	0.008719
3576.000000	0.008761
3575.000000	0.008803
3574.000000	0.008851
3573.000000	0.008903
3572.000000	0.008949
3571.000000	0.008976
3570.000000	0.008989
3569.000000	0.009007
3568.000000	0.009061
3567.000000	0.009153
3566.000000	0.009258
3565.000000	0.009350
3564.000000	0.009418
3563.000000	0.009465
3562.000000	0.009491
3561.000000	0.009503
3560.000000	0.009511
3559.000000	0.009534
3558.000000	0.009588
3557.000000	0.009670
3556.000000	0.009759
3555.000000	0.009829
3554.000000	0.009873
3553.000000	0.009907
3552.000000	0.009949
3551.000000	0.010004
3550.000000	0.010061
3549.000000	0.010107
3548.000000	0.010144
3547.000000	0.010185
3546.000000	0.010246
3545.000000	0.010332
3544.000000	0.010427
3543.000000	0.010515
3542.000000	0.010585
3541.000000	0.010636
3540.000000	0.010674
3539.000000	0.010703
3538.000000	0.010729
3537.000000	0.010754
3536.000000	0.010785
3535.000000	0.010830
3534.000000	0.010890
3533.000000	0.010963
3532.000000	0.011041
3531.000000	0.011117
3530.000000	0.011186
3529.000000	0.011242
3528.000000	0.011278
3527.000000	0.011300
3526.000000	0.011326
3525.000000	0.011368
3524.000000	0.011427
3523.000000	0.011489
3522.000000	0.011548
3521.000000	0.011609
3520.000000	0.011682
3519.000000	0.011764
3518.000000	0.011841
3517.000000	0.011898
3516.000000	0.011932
3515.000000	0.011950
3514.000000	0.011964
3513.000000	0.011982
3512.000000	0.012006
3511.000000	0.012037
3510.000000	0.012075
3509.000000	0.012123
3508.000000	0.012183
3507.000000	0.012254
3506.000000	0.012330
3505.000000	0.012406
3504.000000	0.012474
3503.000000	0.012529
3502.000000	0.012566
3501.000000	0.012588
3500.000000	0.012605
3499.000000	0.012627
3498.000000	0.012658
3497.000000	0.012697
3496.000000	0.012739
3495.000000	0.012783
3494.000000	0.012832
3493.000000	0.012887
3492.000000	0.012941
3491.000000	0.012990
3490.000000	0.013032
3489.000000	0.013071
3488.000000	0.013108
3487.000000	0.013139
3486.000000	0.013165
3485.000000	0.013194
3484.000000	0.013239
3483.000000	0.013299
3482.000000	0.013361
3481.000000	0.013411
3480.000000	0.013449
3479.000000	0.013486
3478.000000	0.013524
3477.000000	0.013558
3476.000000	0.013581
3475.000000	0.013597
3474.000000	0.013616
3473.000000	0.013644
3472.000000	0.013683
3471.000000	0.013733
3470.000000	0.013794
3469.000000	0.013863
3468.000000	0.013932
3467.000000	0.013996
3466.000000	0.014049
3465.000000	0.014089
3464.000000	0.014115
3463.000000	0.014128
3462.000000	0.014135
3461.000000	0.014144
3460.000000	0.014158
3459.000000	0.014178
3458.000000	0.014207
3457.000000	0.014247
3456.000000	0.014299
3455.000000	0.014358
3454.000000	0.014417
3453.000000	0.014467
3452.000000	0.014506
3451.000000	0.014539
3450.000000	0.014571
3449.000000	0.014604
3448.000000	0.014637
3447.000000	0.014672
3446.000000	0.014718
3445.000000	0.014778
3444.000000	0.014845
3443.000000	0.014901
3442.000000	0.014937
3441.000000	0.014958
3440.000000	0.014976
3439.000000	0.015002
3438.000000	0.015037
3437.000000	0.015077
3436.000000	0.015114
3435.000000	0.015150
3434.000000	0.015190
3433.000000	0.015240
3432.000000	0.015297
3431.000000	0.015352
3430.000000	0.015396
3429.000000	0.015422
3428.000000	0.015437
3427.000000	0.015454
3426.000000	0.015487
3425.000000	0.015537
3424.000000	0.015593
3423.000000	0.015645
3422.000000	0.015689
3421.000000	0.015734
3420.000000	0.015786
3419.000000	0.015847
3418.000000	0.015909
3417.000000	0.015964
3416.000000	0.016012
3415.000000	0.016055
3414.000000	0.016099
3413.000000	0.016145
3412.000000	0.016189
3411.000000	0.016231
3410.000000	0.016277
3409.000000	0.016324
3408.000000	0.016367
3407.000000	0.016403
3406.000000	0.016434
3405.000000	0.016468
3404.000000	0.016508
3403.000000	0.016554
3402.000000	0.016603
3401.000000	0.016653
3400.000000	0.016697
3399.000000	0.016730
3398.000000	0.016756
3397.000000	0.016783
3396.000000	0.016824
3395.000000	0.016881
3394.000000	0.016943
3393.000000	0.016992
3392.000000	0.017018
3391.000000	0.017029
3390.000000	0.017043
3389.000000	0.017068
3388.000000	0.017100
3387.000000	0.017126
3386.000000	0.017148
3385.000000	0.017179
3384.000000	0.017227
3383.000000	0.017285
3382.000000	0.017338
3381.000000	0.017381
3380.000000	0.017422
3379.000000	0.017473
3378.000000	0.017535
3377.000000	0.017597
3376.000000	0.017646
3375.000000	0.017684
3374.000000	0.017722
3373.000000	0.017773
3372.000000	0.017845
3371.000000	0.017932
3370.000000	0.018026
3369.000000	0.018114
3368.000000	0.018188
3367.000000	0.018246
3366.000000	0.018294
3365.000000	0.018332
3364.000000	0.018364
3363.000000	0.018393
3362.000000	0.018428
3361.000000	0.018481
3360.000000	0.018554
3359.000000	0.018640
3358.000000	0.018730
3357.000000	0.018815
3356.000000	0.018894
3355.000000	0.018970
3354.000000	0.019046
3353.000000	0.019117
3352.000000	0.019183
3351.000000	0.019247
3350.000000	0.019312
3349.000000	0.019377
3348.000000	0.019434
3347.000000	0.019483
3346.000000	0.019533
3345.000000	0.019590
3344.000000	0.019654
3343.000000	0.019723
3342.000000	0.019794
3341.000000	0.019867
3340.000000	0.019939
3339.000000	0.020011
3338.000000	0.020090
3337.000000	0.020174
3336.000000	0.020260
3335.000000	0.020342
3334.000000	0.020417
3333.000000	0.020485
3332.000000	0.020543
3331.000000	0.020593
3330.000000	0.020638
3329.000000	0.020679
3328.000000	0.020713
3327.000000	0.020741
3326.000000	0.020771
3325.000000	0.020818
3324.000000	0.020886
3323.000000	0.020968
3322.000000	0.021051
3321.000000	0.021124
3320.000000	0.021183
3319.000000	0.021234
3318.000000	0.021286
3317.000000	0.021341
3316.000000	0.021389
3315.000000	0.021421
3314.000000	0.021436
3313.000000	0.021445
3312.000000	0.021463
3311.000000	0.021497
3310.000000	0.021544
3309.000000	0.021595
3308.000000	0.021642
3307.000000	0.021686
3306.000000	0.021737
3305.000000	0.021801
3304.000000	0.021867
3303.000000	0.021921
3302.000000	0.021951
3301.000000	0.021962
3300.000000	0.021964
3299.000000	0.021964
3298.000000	0.021968
3297.000000	0.021979
3296.000000	0.021992
3295.000000	0.022004
3294.000000	0.022012
3293.000000	0.022021
3292.000000	0.022033
3291.000000	0.022052
3290.000000	0.022084
3289.000000	0.022127
3288.000000	0.022170
3287.000000	0.022198
3286.000000	0.022204
3285.000000	0.022196
3284.000000	0.022193
3283.000000	0.022204
3282.000000	0.022227
3281.000000	0.022249
3280.000000	0.022257
3279.000000	0.022244
3278.000000	0.022214
3277.000000	0.022183
3276.000000	0.022158
3275.000000	0.022133
3274.000000	0.022095
3273.000000	0.022044
3272.000000	0.021995
3271.000000	0.021964
3270.000000	0.021954
3269.000000	0.021951
3268.000000	0.021941
3267.000000	0.021917
3266.000000	0.021885
3265.000000	0.021848
3264.000000	0.021802
3263.000000	0.021745
3262.000000	0.021680
3261.000000	0.021615
3260.000000	0.021556
3259.000000	0.021502
3258.000000	0.021452
3257.000000	0.021402
3256.000000	0.021355
3255.000000	0.021312
3254.000000	0.021272
3253.000000	0.021228
3252.000000	0.021176
3251.000000	0.021116
3250.000000	0.021054
3249.000000	0.020996
3248.000000	0.020950
3247.000000	0.020920
3246.000000	0.020903
3245.000000	0.020888
3244.000000	0.020869
3243.000000	0.020843
3242.000000	0.020815
3241.000000	0.020777
3240.000000	0.020723
3239.000000	0.020649
3238.000000	0.020565
3237.000000	0.020485
3236.000000	0.020422
3235.000000	0.020381
3234.000000	0.020362
3233.000000	0.020360
3232.000000	0.020363
3231.000000	0.020357
3230.000000	0.020331
3229.000000	0.020288
3228.000000	0.020237
3227.000000	0.020193
3226.000000	0.020164
3225.000000	0.020152
3224.000000	0.020146
3223.000000	0.020131
3222.000000	0.020099
3221.000000	0.020046
3220.000000	0.019977
3219.000000	0.019906
3218.000000	0.019851
3217.000000	0.019822
3216.000000	0.019814
3215.000000	0.019808
3214.000000	0.019786
3213.000000	0.019748
3212.000000	0.019705
3211.000000	0.019672
3210.000000	0.019646
3209.000000	0.019616
3208.000000	0.019572
3207.000000	0.019519
3206.000000	0.019468
3205.000000	0.019418
3204.000000	0.019359
3203.000000	0.019290
3202.000000	0.019227
3201.000000	0.019190
3200.000000	0.019181
3199.000000	0.019175
3198.000000	0.019145
3197.000000	0.019088
3196.000000	0.019022
3195.000000	0.018964
3194.000000	0.018919
3193.000000	0.018874
3192.000000	0.018823
3191.000000	0.018767
3190.000000	0.018718
3189.000000	0.018681
3188.000000	0.018652
3187.000000	0.018620
3186.000000	0.018575
3185.000000	0.018517
3184.000000	0.018455
3183.000000	0.018398
3182.000000	0.018352
3181.000000	0.018311
3180.000000	0.018271
3179.000000	0.018229
3178.000000	0.018185
3177.000000	0.018135
3176.000000	0.018076
3175.000000	0.018012
3174.000000	0.017953
3173.000000	0.017903
3172.000000	0.017858
3171.000000	0.017812
3170.000000	0.017763
3169.000000	0.017712
3168.000000	0.017654
3167.000000	0.017586
3166.000000	0.017515
3165.000000	0.017447
3164.000000	0.017383
3163.000000	0.017320
3162.000000	0.017259
3161.000000	0.017208
3160.000000	0.017173
3159.000000	0.017147
3158.000000	0.017120
3157.000000	0.017082
3156.000000	0.017030
3155.000000	0.016968
3154.000000	0.016902
3153.000000	0.016839
3152.000000	0.016778
3151.000000	0.016717
3150.000000	0.016657
3149.000000	0.016606
3148.000000	0.016566
3147.000000	0.016536
3146.000000	0.016508
3145.000000	0.016477
3144.000000	0.016442
3143.000000	0.016398
3142.000000	0.016350
3141.000000	0.016305
3140.000000	0.016270
3139.000000	0.016241
3138.000000	0.016212
3137.000000	0.016177
3136.000000	0.016139
3135.000000	0.016101
3134.000000	0.016068
3133.000000	0.016038
3132.000000	0.016009
3131.000000	0.015981
3130.000000	0.015955
3129.000000	0.015934
3128.000000	0.015918
3127.000000	0.015902
3126.000000	0.015881
3125.000000	0.015859
3124.000000	0.015838
3123.000000	0.015819
3122.000000	0.015799
3121.000000	0.015775
3120.000000	0.015749
3119.000000	0.015726
3118.000000	0.015709
3117.000000	0.015699
3116.000000	0.015689
3115.000000	0.015675
3114.000000	0.015664
3113.000000	0.015665
3112.000000	0.015678
3111.000000	0.015691
3110.000000	0.015700
3109.000000	0.015710
3108.000000	0.015724
3107.000000	0.015737
3106.000000	0.015743
3105.000000	0.015743
3104.000000	0.015747
3103.000000	0.015762
3102.000000	0.015783
3101.000000	0.015808
3100.000000	0.015835
3099.000000	0.015861
3098.000000	0.015876
3097.000000	0.015873
3096.000000	0.015860
3095.000000	0.015858
3094.000000	0.015880
3093.000000	0.015919
3092.000000	0.015955
3091.000000	0.015970
3090.000000	0.015962
3089.000000	0.015947
3088.000000	0.015940
3087.000000	0.015947
3086.000000	0.015962
3085.000000	0.015977
3084.000000	0.015989
3083.000000	0.016000
3082.000000	0.016012
3081.000000	0.016028
3080.000000	0.016046
3079.000000	0.016066
3078.000000	0.016084
3077.000000	0.016090
3076.000000	0.016079
3075.000000	0.016052
3074.000000	0.016019
3073.000000	0.015993
3072.000000	0.015983
3071.000000	0.015989
3070.000000	0.016005
3069.000000	0.016015
3068.000000	0.016007
3067.000000	0.015983
3066.000000	0.015959
3065.000000	0.015946
3064.000000	0.015940
3063.000000	0.015928
3062.000000	0.015906
3061.000000	0.015878
3060.000000	0.015849
3059.000000	0.015818
3058.000000	0.015784
3057.000000	0.015752
3056.000000	0.015726
3055.000000	0.015702
3054.000000	0.015668
3053.000000	0.015616
3052.000000	0.015551
3051.000000	0.015484
3050.000000	0.015426
3049.000000	0.015376
3048.000000	0.015325
3047.000000	0.015268
3046.000000	0.015204
3045.000000	0.015138
3044.000000	0.015075
3043.000000	0.015017
3042.000000	0.014962
3041.000000	0.014914
3040.000000	0.014875
3039.000000	0.014843
3038.000000	0.014808
3037.000000	0.014763
3036.000000	0.014706
3035.000000	0.014645
3034.000000	0.014585
3033.000000	0.014528
3032.000000	0.014473
3031.000000	0.014423
3030.000000	0.014380
3029.000000	0.014345
3028.000000	0.014317
3027.000000	0.014295
3026.000000	0.014275
3025.000000	0.014250
3024.000000	0.014218
3023.000000	0.014182
3022.000000	0.014149
3021.000000	0.014119
3020.000000	0.014090
3019.000000	0.014063
3018.000000	0.014045
3017.000000	0.014040
3016.000000	0.014044
3015.000000	0.014056
3014.000000	0.014080
3013.000000	0.014116
3012.000000	0.014155
3011.000000	0.014189
3010.000000	0.014213
3009.000000	0.014234
3008.000000	0.014254
3007.000000	0.014270
3006.000000	0.014276
3005.000000	0.014270
3004.000000	0.014259
3003.000000	0.014249
3002.000000	0.014243
3001.000000	0.014230
3000.000000	0.014200
2999.000000	0.014155
2998.000000	0.014109
2997.000000	0.014085
2996.000000	0.014087
2995.000000	0.014112
2994.000000	0.014148
2993.000000	0.014189
2992.000000	0.014228
2991.000000	0.014265
2990.000000	0.014303
2989.000000	0.014353
2988.000000	0.014418
2987.000000	0.014500
2986.000000	0.014594
2985.000000	0.014693
2984.000000	0.014786
2983.000000	0.014865
2982.000000	0.014933
2981.000000	0.015002
2980.000000	0.015087
2979.000000	0.015188
2978.000000	0.015295
2977.000000	0.015402
2976.000000	0.015511
2975.000000	0.015623
2974.000000	0.015732
2973.000000	0.015834
2972.000000	0.015941
2971.000000	0.016082
2970.000000	0.016281
2969.000000	0.016538
2968.000000	0.016830
2967.000000	0.017133
2966.000000	0.017434
2965.000000	0.017732
2964.000000	0.018024
2963.000000	0.018309
2962.000000	0.018587
2961.000000	0.018857
2960.000000	0.019113
2959.000000	0.019346
2958.000000	0.019547
2957.000000	0.019706
2956.000000	0.019815
2955.000000	0.019873
2954.000000	0.019891
2953.000000	0.019892
2952.000000	0.019892
2951.000000	0.019900
2950.000000	0.019918
2949.000000	0.019948
2948.000000	0.020002
2947.000000	0.020094
2946.000000	0.020242
2945.000000	0.020458
2944.000000	0.020742
2943.000000	0.021088
2942.000000	0.021488
2941.000000	0.021939
2940.000000	0.022437
2939.000000	0.022976
2938.000000	0.023549
2937.000000	0.024148
2936.000000	0.024767
2935.000000	0.025405
2934.000000	0.026062
2933.000000	0.026736
2932.000000	0.027419
2931.000000	0.028095
2930.000000	0.028749
2929.000000	0.029370
2928.000000	0.029957
2927.000000	0.030501
2926.000000	0.030990
2925.000000	0.031402
2924.000000	0.031712
2923.000000	0.031896
2922.000000	0.031937
2921.000000	0.031831
2920.000000	0.031582
2919.000000	0.031195
2918.000000	0.030669
2917.000000	0.030013
2916.000000	0.029253
2915.000000	0.028439
2914.000000	0.027622
2913.000000	0.026835
2912.000000	0.026095
2911.000000	0.025406
2910.000000	0.024770
2909.000000	0.024190
2908.000000	0.023675
2907.000000	0.023228
2906.000000	0.022843
2905.000000	0.022501
2904.000000	0.022179
2903.000000	0.021864
2902.000000	0.021556
2901.000000	0.021264
2900.000000	0.020992
2899.000000	0.020741
2898.000000	0.020509
2897.000000	0.020295
2896.000000	0.020094
2895.000000	0.019897
2894.000000	0.019700
2893.000000	0.019501
2892.000000	0.019298
2891.000000	0.019092
2890.000000	0.018886
2889.000000	0.018689
2888.000000	0.018510
2887.000000	0.018358
2886.000000	0.018237
2885.000000	0.018142
2884.000000	0.018065
2883.000000	0.018000
2882.000000	0.017944
2881.000000	0.017905
2880.000000	0.017887
2879.000000	0.017896
2878.000000	0.017930
2877.000000	0.017988
2876.000000	0.018067
2875.000000	0.018160
2874.000000	0.018254
2873.000000	0.018330
2872.000000	0.018372
2871.000000	0.018383
2870.000000	0.018379
2869.000000	0.018382
2868.000000	0.018412
2867.000000	0.018488
2866.000000	0.018620
2865.000000	0.018818
2864.000000	0.019086
2863.000000	0.019429
2862.000000	0.019849
2861.000000	0.020341
2860.000000	0.020891
2859.000000	0.021479
2858.000000	0.022086
2857.000000	0.022687
2856.000000	0.023251
2855.000000	0.023741
2854.000000	0.024115
2853.000000	0.024329
2852.000000	0.024350
2851.000000	0.024154
2850.000000	0.023737
2849.000000	0.023115
2848.000000	0.022335
2847.000000	0.021472
2846.000000	0.020604
2845.000000	0.019789
2844.000000	0.019054
2843.000000	0.018402
2842.000000	0.017830
2841.000000	0.017335
2840.000000	0.016909
2839.000000	0.016543
2838.000000	0.016225
2837.000000	0.015946
2836.000000	0.015700
2835.000000	0.015485
2834.000000	0.015298
2833.000000	0.015137
2832.000000	0.014995
2831.000000	0.014864
2830.000000	0.014743
2829.000000	0.014628
2828.000000	0.014518
2827.000000	0.014410
2826.000000	0.014307
2825.000000	0.014218
2824.000000	0.014148
2823.000000	0.014093
2822.000000	0.014039
2821.000000	0.013976
2820.000000	0.013902
2819.000000	0.013824
2818.000000	0.013747
2817.000000	0.013677
2816.000000	0.013614
2815.000000	0.013560
2814.000000	0.013515
2813.000000	0.013475
2812.000000	0.013436
2811.000000	0.013394
2810.000000	0.013351
2809.000000	0.013310
2808.000000	0.013268
2807.000000	0.013226
2806.000000	0.013186
2805.000000	0.013149
2804.000000	0.013115
2803.000000	0.013087
2802.000000	0.013064
2801.000000	0.013040
2800.000000	0.013002
2799.000000	0.012947
2798.000000	0.012887
2797.000000	0.012838
2796.000000	0.012805
2795.000000	0.012779
2794.000000	0.012748
2793.000000	0.012711
2792.000000	0.012678
2791.000000	0.012654
2790.000000	0.012638
2789.000000	0.012623
2788.000000	0.012604
2787.000000	0.012576
2786.000000	0.012540
2785.000000	0.012500
2784.000000	0.012461
2783.000000	0.012429
2782.000000	0.012407
2781.000000	0.012386
2780.000000	0.012358
2779.000000	0.012316
2778.000000	0.012267
2777.000000	0.012226
2776.000000	0.012200
2775.000000	0.012186
2774.000000	0.012174
2773.000000	0.012160
2772.000000	0.012142
2771.000000	0.012121
2770.000000	0.012095
2769.000000	0.012066
2768.000000	0.012036
2767.000000	0.012012
2766.000000	0.011997
2765.000000	0.011990
2764.000000	0.011986
2763.000000	0.011980
2762.000000	0.011971
2761.000000	0.011958
2760.000000	0.011938
2759.000000	0.011913
2758.000000	0.011887
2757.000000	0.011864
2756.000000	0.011842
2755.000000	0.011815
2754.000000	0.011781
2753.000000	0.011745
2752.000000	0.011717
2751.000000	0.011703
2750.000000	0.011701
2749.000000	0.011699
2748.000000	0.011686
2747.000000	0.011657
2746.000000	0.011618
2745.000000	0.011579
2744.000000	0.011544
2743.000000	0.011516
2742.000000	0.011496
2741.000000	0.011485
2740.000000	0.011481
2739.000000	0.011483
2738.000000	0.011490
2737.000000	0.011497
2736.000000	0.011495
2735.000000	0.011476
2734.000000	0.011445
2733.000000	0.011415
2732.000000	0.011395
2731.000000	0.011392
2730.000000	0.011402
2729.000000	0.011415
2728.000000	0.011418
2727.000000	0.011409
2726.000000	0.011391
2725.000000	0.011367
2724.000000	0.011339
2723.000000	0.011309
2722.000000	0.011287
2721.000000	0.011280
2720.000000	0.011282
2719.000000	0.011277
2718.000000	0.011256
2717.000000	0.011225
2716.000000	0.011192
2715.000000	0.011163
2714.000000	0.011140
2713.000000	0.011124
2712.000000	0.011119
2711.000000	0.011121
2710.000000	0.011127
2709.000000	0.011130
2708.000000	0.011122
2707.000000	0.011103
2706.000000	0.011082
2705.000000	0.011067
2704.000000	0.011059
2703.000000	0.011047
2702.000000	0.011027
2701.000000	0.011007
2700.000000	0.010999
2699.000000	0.010999
2698.000000	0.010999
2697.000000	0.010989
2696.000000	0.010972
2695.000000	0.010960
2694.000000	0.010955
2693.000000	0.010954
2692.000000	0.010953
2691.000000	0.010948
2690.000000	0.010941
2689.000000	0.010931
2688.000000	0.010915
2687.000000	0.010895
2686.000000	0.010878
2685.000000	0.010869
2684.000000	0.010865
2683.000000	0.010862
2682.000000	0.010860
2681.000000	0.010861
2680.000000	0.010862
2679.000000	0.010853
2678.000000	0.010834
2677.000000	0.010811
2676.000000	0.010792
2675.000000	0.010780
2674.000000	0.010777
2673.000000	0.010782
2672.000000	0.010793
2671.000000	0.010805
2670.000000	0.010811
2669.000000	0.010807
2668.000000	0.010791
2667.000000	0.010767
2666.000000	0.010746
2665.000000	0.010732
2664.000000	0.010723
2663.000000	0.010712
2662.000000	0.010700
2661.000000	0.010688
2660.000000	0.010676
2659.000000	0.010660
2658.000000	0.010642
2657.000000	0.010625
2656.000000	0.010613
2655.000000	0.010597
2654.000000	0.010573
2653.000000	0.010539
2652.000000	0.010502
2651.000000	0.010468
2650.000000	0.010445
2649.000000	0.010439
2648.000000	0.010445
2647.000000	0.010450
2646.000000	0.010437
2645.000000	0.010401
2644.000000	0.010353
2643.000000	0.010311
2642.000000	0.010286
2641.000000	0.010278
2640.000000	0.010275
2639.000000	0.010264
2638.000000	0.010241
2637.000000	0.010208
2636.000000	0.010169
2635.000000	0.010137
2634.000000	0.010120
2633.000000	0.010125
2632.000000	0.010135
2631.000000	0.010130
2630.000000	0.010098
2629.000000	0.010054
2628.000000	0.010017
2627.000000	0.009993
2626.000000	0.009970
2625.000000	0.009935
2624.000000	0.009889
2623.000000	0.009846
2622.000000	0.009820
2621.000000	0.009812
2620.000000	0.009808
2619.000000	0.009801
2618.000000	0.009792
2617.000000	0.009780
2616.000000	0.009757
2615.000000	0.009721
2614.000000	0.009686
2613.000000	0.009675
2612.000000	0.009688
2611.000000	0.009705
2610.000000	0.009709
2609.000000	0.009695
2608.000000	0.009668
2607.000000	0.009632
2606.000000	0.009591
2605.000000	0.009560
2604.000000	0.009549
2603.000000	0.009558
2602.000000	0.009571
2601.000000	0.009566
2600.000000	0.009532
2599.000000	0.009478
2598.000000	0.009429
2597.000000	0.009406
2596.000000	0.009408
2595.000000	0.009419
2594.000000	0.009423
2593.000000	0.009414
2592.000000	0.009394
2591.000000	0.009365
2590.000000	0.009331
2589.000000	0.009299
2588.000000	0.009279
2587.000000	0.009277
2586.000000	0.009295
2585.000000	0.009318
2584.000000	0.009324
2583.000000	0.009307
2582.000000	0.009281
2581.000000	0.009265
2580.000000	0.009253
2579.000000	0.009226
2578.000000	0.009178
2577.000000	0.009129
2576.000000	0.009106
2575.000000	0.009117
2574.000000	0.009149
2573.000000	0.009188
2572.000000	0.009217
2571.000000	0.009224
2570.000000	0.009208
2569.000000	0.009183
2568.000000	0.009164
2567.000000	0.009160
2566.000000	0.009175
2565.000000	0.009208
2564.000000	0.009243
2563.000000	0.009265
2562.000000	0.009261
2561.000000	0.009231
2560.000000	0.009182
2559.000000	0.009119
2558.000000	0.009051
2557.000000	0.008991
2556.000000	0.008952
2555.000000	0.008939
2554.000000	0.008953
2553.000000	0.008983
2552.000000	0.009011
2551.000000	0.009020
2550.000000	0.009006
2549.000000	0.008981
2548.000000	0.008962
2547.000000	0.008960
2546.000000	0.008974
2545.000000	0.008988
2544.000000	0.008982
2543.000000	0.008956
2542.000000	0.008934
2541.000000	0.008939
2540.000000	0.008960
2539.000000	0.008968
2538.000000	0.008955
2537.000000	0.008947
2536.000000	0.008967
2535.000000	0.009006
2534.000000	0.009030
2533.000000	0.009022
2532.000000	0.008992
2531.000000	0.008966
2530.000000	0.008956
2529.000000	0.008952
2528.000000	0.008939
2527.000000	0.008913
2526.000000	0.008886
2525.000000	0.008870
2524.000000	0.008864
2523.000000	0.008862
2522.000000	0.008866
2521.000000	0.008885
2520.000000	0.008915
2519.000000	0.008940
2518.000000	0.008942
2517.000000	0.008921
2516.000000	0.008887
2515.000000	0.008850
2514.000000	0.008814
2513.000000	0.008773
2512.000000	0.008729
2511.000000	0.008695
2510.000000	0.008697
2509.000000	0.008744
2508.000000	0.008815
2507.000000	0.008873
2506.000000	0.008892
2505.000000	0.008874
2504.000000	0.008832
2503.000000	0.008785
2502.000000	0.008746
2501.000000	0.008718
2500.000000	0.008693
2499.000000	0.008667
2498.000000	0.008642
2497.000000	0.008624
2496.000000	0.008618
2495.000000	0.008625
2494.000000	0.008646
2493.000000	0.008666
2492.000000	0.008668
2491.000000	0.008643
2490.000000	0.008609
2489.000000	0.008591
2488.000000	0.008595
2487.000000	0.008615
2486.000000	0.008645
2485.000000	0.008677
2484.000000	0.008694
2483.000000	0.008683
2482.000000	0.008659
2481.000000	0.008643
2480.000000	0.008637
2479.000000	0.008621
2478.000000	0.008579
2477.000000	0.008525
2476.000000	0.008482
2475.000000	0.008463
2474.000000	0.008471
2473.000000	0.008495
2472.000000	0.008517
2471.000000	0.008525
2470.000000	0.008525
2469.000000	0.008535
2468.000000	0.008554
2467.000000	0.008561
2466.000000	0.008544
2465.000000	0.008518
2464.000000	0.008507
2463.000000	0.008517
2462.000000	0.008533
2461.000000	0.008538
2460.000000	0.008528
2459.000000	0.008505
2458.000000	0.008474
2457.000000	0.008449
2456.000000	0.008446
2455.000000	0.008471
2454.000000	0.008513
2453.000000	0.008541
2452.000000	0.008527
2451.000000	0.008472
2450.000000	0.008406
2449.000000	0.008364
2448.000000	0.008353
2447.000000	0.008367
2446.000000	0.008401
2445.000000	0.008450
2444.000000	0.008484
2443.000000	0.008471
2442.000000	0.008417
2441.000000	0.008366
2440.000000	0.008357
2439.000000	0.008383
2438.000000	0.008409
2437.000000	0.008409
2436.000000	0.008381
2435.000000	0.008342
2434.000000	0.008312
2433.000000	0.008308
2432.000000	0.008329
2431.000000	0.008359
2430.000000	0.008384
2429.000000	0.008394
2428.000000	0.008390
2427.000000	0.008373
2426.000000	0.008345
2425.000000	0.008312
2424.000000	0.008278
2423.000000	0.008249
2422.000000	0.008228
2421.000000	0.008222
2420.000000	0.008229
2419.000000	0.008246
2418.000000	0.008269
2417.000000	0.008294
2416.000000	0.008315
2415.000000	0.008330
2414.000000	0.008344
2413.000000	0.008360
2412.000000	0.008376
2411.000000	0.008385
2410.000000	0.008390
2409.000000	0.008395
2408.000000	0.008390
2407.000000	0.008362
2406.000000	0.008316
2405.000000	0.008280
2404.000000	0.008274
2403.000000	0.008297
2402.000000	0.008330
2401.000000	0.008351
2400.000000	0.008352
2399.000000	0.008342
2398.000000	0.008339
2397.000000	0.008352
2396.000000	0.008370
2395.000000	0.008372
2394.000000	0.008343
2393.000000	0.008292
2392.000000	0.008238
2391.000000	0.008198
2390.000000	0.008185
2389.000000	0.008200
2388.000000	0.008229
2387.000000	0.008256
2386.000000	0.008271
2385.000000	0.008269
2384.000000	0.008242
2383.000000	0.008181
2382.000000	0.008097
2381.000000	0.008016
2380.000000	0.007962
2379.000000	0.007953
2378.000000	0.007992
2377.000000	0.008067
2376.000000	0.008143
2375.000000	0.008191
2374.000000	0.008203
2373.000000	0.008185
2372.000000	0.008136
2371.000000	0.008052
2370.000000	0.007948
2369.000000	0.007857
2368.000000	0.007818
2367.000000	0.007846
2366.000000	0.007923
2365.000000	0.008005
2364.000000	0.008058
2363.000000	0.008094
2362.000000	0.008145
2361.000000	0.008210
2360.000000	0.008259
2359.000000	0.008268
2358.000000	0.008236
2357.000000	0.008182
2356.000000	0.008143
2355.000000	0.008145
2354.000000	0.008143
2353.000000	0.008082
2352.000000	0.007996
2351.000000	0.007976
2350.000000	0.008055
2349.000000	0.008180
2348.000000	0.008272
2347.000000	0.008275
2346.000000	0.008218
2345.000000	0.008204
2344.000000	0.008284
2343.000000	0.008397
2342.000000	0.008454
2341.000000	0.008419
2340.000000	0.008329
2339.000000	0.008242
2338.000000	0.008192
2337.000000	0.008185
2336.000000	0.008207
2335.000000	0.008233
2334.000000	0.008234
2333.000000	0.008202
2332.000000	0.008172
2331.000000	0.008171
2330.000000	0.008194
2329.000000	0.008220
2328.000000	0.008258
2327.000000	0.008320
2326.000000	0.008393
2325.000000	0.008436
2324.000000	0.008421
2323.000000	0.008353
2322.000000	0.008273
2321.000000	0.008233
2320.000000	0.008258
2319.000000	0.008327
2318.000000	0.008392
2317.000000	0.008407
2316.000000	0.008354
2315.000000	0.008249
2314.000000	0.008143
2313.000000	0.008076
2312.000000	0.008054
2311.000000	0.008038
2310.000000	0.008005
2309.000000	0.007967
2308.000000	0.007951
2307.000000	0.007957
2306.000000	0.007969
2305.000000	0.007979
2304.000000	0.007996
2303.000000	0.008015
2302.000000	0.008028
2301.000000	0.008036
2300.000000	0.008049
2299.000000	0.008062
2298.000000	0.008057
2297.000000	0.008020
2296.000000	0.007975
2295.000000	0.007958
2294.000000	0.007982
2293.000000	0.008028
2292.000000	0.008073
2291.000000	0.008119
2290.000000	0.008180
2289.000000	0.008257
2288.000000	0.008314
2287.000000	0.008311
2286.000000	0.008243
2285.000000	0.008156
2284.000000	0.008100
2283.000000	0.008092
2282.000000	0.008105
2281.000000	0.008110
2280.000000	0.008097
2279.000000	0.008083
2278.000000	0.008082
2277.000000	0.008082
2276.000000	0.008056
2275.000000	0.008001
2274.000000	0.007951
2273.000000	0.007938
2272.000000	0.007956
2271.000000	0.007971
2270.000000	0.007968
2269.000000	0.007963
2268.000000	0.007967
2267.000000	0.007968
2266.000000	0.007940
2265.000000	0.007869
2264.000000	0.007760
2263.000000	0.007653
2262.000000	0.007616
2261.000000	0.007688
2260.000000	0.007835
2259.000000	0.007969
2258.000000	0.008029
2257.000000	0.008021
2256.000000	0.007980
2255.000000	0.007928
2254.000000	0.007877
2253.000000	0.007852
2252.000000	0.007867
2251.000000	0.007904
2250.000000	0.007927
2249.000000	0.007910
2248.000000	0.007856
2247.000000	0.007788
2246.000000	0.007727
2245.000000	0.007681
2244.000000	0.007642
2243.000000	0.007613
2242.000000	0.007618
2241.000000	0.007667
2240.000000	0.007726
2239.000000	0.007755
2238.000000	0.007763
2237.000000	0.007799
2236.000000	0.007866
2235.000000	0.007904
2234.000000	0.007861
2233.000000	0.007766
2232.000000	0.007690
2231.000000	0.007668
2230.000000	0.007686
2229.000000	0.007705
2228.000000	0.007696
2227.000000	0.007651
2226.000000	0.007582
2225.000000	0.007521
2224.000000	0.007500
2223.000000	0.007540
2222.000000	0.007645
2221.000000	0.007771
2220.000000	0.007824
2219.000000	0.007732
2218.000000	0.007531
2217.000000	0.007347
2216.000000	0.007278
2215.000000	0.007304
2214.000000	0.007338
2213.000000	0.007322
2212.000000	0.007279
2211.000000	0.007274
2210.000000	0.007333
2209.000000	0.007403
2208.000000	0.007396
2207.000000	0.007298
2206.000000	0.007207
2205.000000	0.007232
2204.000000	0.007368
2203.000000	0.007496
2202.000000	0.007515
2201.000000	0.007430
2200.000000	0.007323
2199.000000	0.007279
2198.000000	0.007325
2197.000000	0.007418
2196.000000	0.007472
2195.000000	0.007452
2194.000000	0.007427
2193.000000	0.007479
2192.000000	0.007583
2191.000000	0.007626
2190.000000	0.007559
2189.000000	0.007455
2188.000000	0.007397
2187.000000	0.007385
2186.000000	0.007384
2185.000000	0.007409
2184.000000	0.007503
2183.000000	0.007655
2182.000000	0.007786
2181.000000	0.007811
2180.000000	0.007695
2179.000000	0.007467
2178.000000	0.007199
2177.000000	0.006975
2176.000000	0.006854
2175.000000	0.006842
2174.000000	0.006901
2173.000000	0.006961
2172.000000	0.006975
2171.000000	0.006981
2170.000000	0.007082
2169.000000	0.007319
2168.000000	0.007568
2167.000000	0.007645
2166.000000	0.007471
2165.000000	0.007120
2164.000000	0.006723
2163.000000	0.006385
2162.000000	0.006194
2161.000000	0.006177
2160.000000	0.006230
2159.000000	0.006187
2158.000000	0.006026
2157.000000	0.005890
2156.000000	0.005897
2155.000000	0.006046
2154.000000	0.006267
2153.000000	0.006479
2152.000000	0.006600
2151.000000	0.006609
2150.000000	0.006582
2149.000000	0.006619
2148.000000	0.006730
2147.000000	0.006857
2146.000000	0.006966
2145.000000	0.007057
2144.000000	0.007099
2143.000000	0.007054
2142.000000	0.006948
2141.000000	0.006867
2140.000000	0.006868
2139.000000	0.006944
2138.000000	0.007072
2137.000000	0.007214
2136.000000	0.007298
2135.000000	0.007257
2134.000000	0.007118
2133.000000	0.006983
2132.000000	0.006921
2131.000000	0.006930
2130.000000	0.006990
2129.000000	0.007097
2128.000000	0.007229
2127.000000	0.007334
2126.000000	0.007388
2125.000000	0.007418
2124.000000	0.007450
2123.000000	0.007474
2122.000000	0.007471
2121.000000	0.007455
2120.000000	0.007453
2119.000000	0.007460
2118.000000	0.007445
2117.000000	0.007397
2116.000000	0.007336
2115.000000	0.007285
2114.000000	0.007253
2113.000000	0.007236
2112.000000	0.007236
2111.000000	0.007276
2110.000000	0.007375
2109.000000	0.007517
2108.000000	0.007636
2107.000000	0.007666
2106.000000	0.007607
2105.000000	0.007519
2104.000000	0.007454
2103.000000	0.007413
2102.000000	0.007373
2101.000000	0.007322
2100.000000	0.007267
2099.000000	0.007226
2098.000000	0.007223
2097.000000	0.007269
2096.000000	0.007340
2095.000000	0.007400
2094.000000	0.007437
2093.000000	0.007458
2092.000000	0.007470
2091.000000	0.007466
2090.000000	0.007450
2089.000000	0.007429
2088.000000	0.007394
2087.000000	0.007330
2086.000000	0.007248
2085.000000	0.007186
2084.000000	0.007166
2083.000000	0.007176
2082.000000	0.007196
2081.000000	0.007221
2080.000000	0.007245
2079.000000	0.007263
2078.000000	0.007271
2077.000000	0.007257
2076.000000	0.007205
2075.000000	0.007116
2074.000000	0.007025
2073.000000	0.006969
2072.000000	0.006961
2071.000000	0.007001
2070.000000	0.007082
2069.000000	0.007167
2068.000000	0.007186
2067.000000	0.007097
2066.000000	0.006946
2065.000000	0.006814
2064.000000	0.006738
2063.000000	0.006711
2062.000000	0.006744
2061.000000	0.006842
2060.000000	0.006945
2059.000000	0.006977
2058.000000	0.006932
2057.000000	0.006878
2056.000000	0.006865
2055.000000	0.006896
2054.000000	0.006957
2053.000000	0.007025
2052.000000	0.007038
2051.000000	0.006939
2050.000000	0.006756
2049.000000	0.006582
2048.000000	0.006476
2047.000000	0.006421
2046.000000	0.006403
2045.000000	0.006427
2044.000000	0.006457
2043.000000	0.006443
2042.000000	0.006414
2041.000000	0.006449
2040.000000	0.006558
2039.000000	0.006663
2038.000000	0.006711
2037.000000	0.006713
2036.000000	0.006656
2035.000000	0.006501
2034.000000	0.006277
2033.000000	0.006080
2032.000000	0.005959
2031.000000	0.005888
2030.000000	0.005862
2029.000000	0.005895
2028.000000	0.005942
2027.000000	0.005939
2026.000000	0.005925
2025.000000	0.005988
2024.000000	0.006093
2023.000000	0.006092
2022.000000	0.005932
2021.000000	0.005722
2020.000000	0.005590
2019.000000	0.005576
2018.000000	0.005673
2017.000000	0.005826
2016.000000	0.005900
2015.000000	0.005789
2014.000000	0.005583
2013.000000	0.005500
2012.000000	0.005635
2011.000000	0.005875
2010.000000	0.006066
2009.000000	0.006155
2008.000000	0.006156
2007.000000	0.006104
2006.000000	0.006077
2005.000000	0.006140
2004.000000	0.006251
2003.000000	0.006319
2002.000000	0.006330
2001.000000	0.006344
2000.000000	0.006363
1999.000000	0.006324
1998.000000	0.006213
1997.000000	0.006099
1996.000000	0.006054
1995.000000	0.006114
1994.000000	0.006310
1993.000000	0.006623
1992.000000	0.006914
1991.000000	0.007027
1990.000000	0.006970
1989.000000	0.006874
1988.000000	0.006791
1987.000000	0.006668
1986.000000	0.006504
1985.000000	0.006396
1984.000000	0.006379
1983.000000	0.006375
1982.000000	0.006350
1981.000000	0.006380
1980.000000	0.006496
1979.000000	0.006583
1978.000000	0.006537
1977.000000	0.006442
1976.000000	0.006444
1975.000000	0.006546
1974.000000	0.006646
1973.000000	0.006692
1972.000000	0.006681
1971.000000	0.006596
1970.000000	0.006422
1969.000000	0.006206
1968.000000	0.006027
1967.000000	0.005933
1966.000000	0.005923
1965.000000	0.005953
1964.000000	0.005948
1963.000000	0.005859
1962.000000	0.005722
1961.000000	0.005631
1960.000000	0.005649
1959.000000	0.005769
1958.000000	0.005965
1957.000000	0.006180
1956.000000	0.006322
1955.000000	0.006340
1954.000000	0.006291
1953.000000	0.006280
1952.000000	0.006312
1951.000000	0.006299
1950.000000	0.006201
1949.000000	0.006088
1948.000000	0.006035
1947.000000	0.006039
1946.000000	0.006067
1945.000000	0.006104
1944.000000	0.006142
1943.000000	0.006156
1942.000000	0.006140
1941.000000	0.006113
1940.000000	0.006092
1939.000000	0.006095
1938.000000	0.006147
1937.000000	0.006253
1936.000000	0.006364
1935.000000	0.006423
1934.000000	0.006438
1933.000000	0.006465
1932.000000	0.006514
1931.000000	0.006531
1930.000000	0.006494
1929.000000	0.006448
1928.000000	0.006428
1927.000000	0.006414
1926.000000	0.006383
1925.000000	0.006360
1924.000000	0.006382
1923.000000	0.006443
1922.000000	0.006511
1921.000000	0.006568
1920.000000	0.006606
1919.000000	0.006615
1918.000000	0.006595
1917.000000	0.006564
1916.000000	0.006531
1915.000000	0.006503
1914.000000	0.006498
1913.000000	0.006516
1912.000000	0.006524
1911.000000	0.006483
1910.000000	0.006409
1909.000000	0.006359
1908.000000	0.006354
1907.000000	0.006373
1906.000000	0.006397
1905.000000	0.006431
1904.000000	0.006470
1903.000000	0.006502
1902.000000	0.006540
1901.000000	0.006598
1900.000000	0.006639
1899.000000	0.006611
1898.000000	0.006510
1897.000000	0.006398
1896.000000	0.006326
1895.000000	0.006299
1894.000000	0.006299
1893.000000	0.006311
1892.000000	0.006315
1891.000000	0.006300
1890.000000	0.006298
1889.000000	0.006337
1888.000000	0.006377
1887.000000	0.006364
1886.000000	0.006313
1885.000000	0.006280
1884.000000	0.006289
1883.000000	0.006314
1882.000000	0.006337
1881.000000	0.006363
1880.000000	0.006383
1879.000000	0.006385
1878.000000	0.006381
1877.000000	0.006393
1876.000000	0.006403
1875.000000	0.006373
1874.000000	0.006310
1873.000000	0.006266
1872.000000	0.006255
1871.000000	0.006231
1870.000000	0.006166
1869.000000	0.006103
1868.000000	0.006086
1867.000000	0.006098
1866.000000	0.006133
1865.000000	0.006203
1864.000000	0.006287
1863.000000	0.006347
1862.000000	0.006377
1861.000000	0.006397
1860.000000	0.006396
1859.000000	0.006351
1858.000000	0.006286
1857.000000	0.006258
1856.000000	0.006277
1855.000000	0.006301
1854.000000	0.006317
1853.000000	0.006341
1852.000000	0.006372
1851.000000	0.006383
1850.000000	0.006364
1849.000000	0.006326
1848.000000	0.006283
1847.000000	0.006243
1846.000000	0.006218
1845.000000	0.006224
1844.000000	0.006250
1843.000000	0.006248
1842.000000	0.006222
1841.000000	0.006234
1840.000000	0.006288
1839.000000	0.006325
1838.000000	0.006321
1837.000000	0.006324
1836.000000	0.006362
1835.000000	0.006393
1834.000000	0.006369
1833.000000	0.006287
1832.000000	0.006166
1831.000000	0.006030
1830.000000	0.005935
1829.000000	0.005930
1828.000000	0.006001
1827.000000	0.006098
1826.000000	0.006176
1825.000000	0.006220
1824.000000	0.006242
1823.000000	0.006252
1822.000000	0.006268
1821.000000	0.006300
1820.000000	0.006331
1819.000000	0.006329
1818.000000	0.006295
1817.000000	0.006268
1816.000000	0.006262
1815.000000	0.006250
1814.000000	0.006213
1813.000000	0.006163
1812.000000	0.006120
1811.000000	0.006082
1810.000000	0.006062
1809.000000	0.006096
1808.000000	0.006179
1807.000000	0.006255
1806.000000	0.006293
1805.000000	0.006308
1804.000000	0.006310
1803.000000	0.006274
1802.000000	0.006189
1801.000000	0.006096
1800.000000	0.006045
1799.000000	0.006040
1798.000000	0.006064
1797.000000	0.006115
1796.000000	0.006165
1795.000000	0.006165
1794.000000	0.006085
1793.000000	0.005961
1792.000000	0.005884
1791.000000	0.005875
1790.000000	0.005902
1789.000000	0.005966
1788.000000	0.006059
1787.000000	0.006137
1786.000000	0.006164
1785.000000	0.006144
1784.000000	0.006079
1783.000000	0.005971
1782.000000	0.005862
1781.000000	0.005802
1780.000000	0.005798
1779.000000	0.005803
1778.000000	0.005780
1777.000000	0.005738
1776.000000	0.005701
1775.000000	0.005666
1774.000000	0.005587
1773.000000	0.005451
1772.000000	0.005355
1771.000000	0.005372
1770.000000	0.005489
1769.000000	0.005668
1768.000000	0.005829
1767.000000	0.005884
1766.000000	0.005853
1765.000000	0.005851
1764.000000	0.005941
1763.000000	0.006078
1762.000000	0.006222
1761.000000	0.006384
1760.000000	0.006595
1759.000000	0.006879
1758.000000	0.007254
1757.000000	0.007719
1756.000000	0.008227
1755.000000	0.008744
1754.000000	0.009309
1753.000000	0.009958
1752.000000	0.010616
1751.000000	0.011156
1750.000000	0.011540
1749.000000	0.011866
1748.000000	0.012204
1747.000000	0.012496
1746.000000	0.012662
1745.000000	0.012682
1744.000000	0.012573
1743.000000	0.012335
1742.000000	0.011964
1741.000000	0.011475
1740.000000	0.010913
1739.000000	0.010356
1738.000000	0.009915
1737.000000	0.009668
1736.000000	0.009506
1735.000000	0.009158
1734.000000	0.008605
1733.000000	0.008058
1732.000000	0.007598
1731.000000	0.007258
1730.000000	0.007048
1729.000000	0.006924
1728.000000	0.006811
1727.000000	0.006680
1726.000000	0.006536
1725.000000	0.006392
1724.000000	0.006250
1723.000000	0.006084
1722.000000	0.005904
1721.000000	0.005774
1720.000000	0.005705
1719.000000	0.005589
1718.000000	0.005386
1717.000000	0.005253
1716.000000	0.005265
1715.000000	0.005378
1714.000000	0.005600
1713.000000	0.005932
1712.000000	0.006304
1711.000000	0.006638
1710.000000	0.006925
1709.000000	0.007195
1708.000000	0.007464
1707.000000	0.007747
1706.000000	0.008102
1705.000000	0.008588
1704.000000	0.009179
1703.000000	0.009850
1702.000000	0.010544
1701.000000	0.011141
1700.000000	0.011639
1699.000000	0.012037
1698.000000	0.012507
1697.000000	0.013294
1696.000000	0.014291
1695.000000	0.015071
1694.000000	0.015469
1693.000000	0.015781
1692.000000	0.016239
1691.000000	0.016802
1690.000000	0.017369
1689.000000	0.017948
1688.000000	0.018597
1687.000000	0.019311
1686.000000	0.019961
1685.000000	0.020475
1684.000000	0.021035
1683.000000	0.021632
1682.000000	0.022217
1681.000000	0.022930
1680.000000	0.023759
1679.000000	0.024568
1678.000000	0.025319
1677.000000	0.026083
1676.000000	0.026865
1675.000000	0.027587
1674.000000	0.028195
1673.000000	0.028773
1672.000000	0.029443
1671.000000	0.030210
1670.000000	0.031063
1669.000000	0.032017
1668.000000	0.032991
1667.000000	0.033886
1666.000000	0.034710
1665.000000	0.035511
1664.000000	0.036298
1663.000000	0.037051
1662.000000	0.037788
1661.000000	0.038532
1660.000000	0.039281
1659.000000	0.039995
1658.000000	0.040635
1657.000000	0.041272
1656.000000	0.042027
1655.000000	0.042819
1654.000000	0.043398
1653.000000	0.043872
1652.000000	0.044195
1651.000000	0.044213
1650.000000	0.044218
1649.000000	0.044430
1648.000000	0.044803
1647.000000	0.045215
1646.000000	0.045624
1645.000000	0.045979
1644.000000	0.046271
1643.000000	0.046531
1642.000000	0.046791
1641.000000	0.047016
1640.000000	0.047162
1639.000000	0.047256
1638.000000	0.047334
1637.000000	0.047363
1636.000000	0.047326
1635.000000	0.047297
1634.000000	0.047294
1633.000000	0.047342
1632.000000	0.047429
1631.000000	0.047453
1630.000000	0.047298
1629.000000	0.046950
1628.000000	0.046505
1627.000000	0.046062
1626.000000	0.045634
1625.000000	0.045126
1624.000000	0.044439
1623.000000	0.043622
1622.000000	0.042861
1621.000000	0.042270
1620.000000	0.041838
1619.000000	0.041434
1618.000000	0.040807
1617.000000	0.039806
1616.000000	0.038630
1615.000000	0.037586
1614.000000	0.036784
1613.000000	0.036129
1612.000000	0.035457
1611.000000	0.034690
1610.000000	0.033896
1609.000000	0.033147
1608.000000	0.032443
1607.000000	0.031788
1606.000000	0.031205
1605.000000	0.030662
1604.000000	0.030106
1603.000000	0.029555
1602.000000	0.029062
1601.000000	0.028639
1600.000000	0.028256
1599.000000	0.027911
1598.000000	0.027615
1597.000000	0.027348
1596.000000	0.027086
1595.000000	0.026859
1594.000000	0.026706
1593.000000	0.026609
1592.000000	0.026519
1591.000000	0.026435
1590.000000	0.026400
1589.000000	0.026422
1588.000000	0.026476
1587.000000	0.026570
1586.000000	0.026732
1585.000000	0.026946
1584.000000	0.027167
1583.000000	0.027403
1582.000000	0.027673
1581.000000	0.027941
1580.000000	0.028200
1579.000000	0.028523
1578.000000	0.028932
1577.000000	0.029307
1576.000000	0.029544
1575.000000	0.029681
1574.000000	0.029825
1573.000000	0.030066
1572.000000	0.030380
1571.000000	0.030654
1570.000000	0.030889
1569.000000	0.031186
1568.000000	0.031548
1567.000000	0.031966
1566.000000	0.032446
1565.000000	0.032964
1564.000000	0.033508
1563.000000	0.034155
1562.000000	0.034950
1561.000000	0.035625
1560.000000	0.035720
1559.000000	0.035626
1558.000000	0.036032
1557.000000	0.036623
1556.000000	0.037250
1555.000000	0.037909
1554.000000	0.038514
1553.000000	0.038967
1552.000000	0.039324
1551.000000	0.039682
1550.000000	0.040053
1549.000000	0.040399
1548.000000	0.040713
1547.000000	0.041028
1546.000000	0.041336
1545.000000	0.041604
1544.000000	0.041827
1543.000000	0.042003
1542.000000	0.042087
1541.000000	0.042067
1540.000000	0.042067
1539.000000	0.042132
1538.000000	0.042134
1537.000000	0.042095
1536.000000	0.042082
1535.000000	0.042000
1534.000000	0.041726
1533.000000	0.041389
1532.000000	0.041166
1531.000000	0.041032
1530.000000	0.040888
1529.000000	0.040697
1528.000000	0.040471
1527.000000	0.040198
1526.000000	0.039853
1525.000000	0.039480
1524.000000	0.039165
1523.000000	0.038892
1522.000000	0.038571
1521.000000	0.038219
1520.000000	0.037868
1519.000000	0.037507
1518.000000	0.037159
1517.000000	0.036862
1516.000000	0.036649
1515.000000	0.036484
1514.000000	0.036303
1513.000000	0.036035
1512.000000	0.035637
1511.000000	0.035158
1510.000000	0.034700
1509.000000	0.034254
1508.000000	0.033645
1507.000000	0.032829
1506.000000	0.032066
1505.000000	0.031474
1504.000000	0.031015
1503.000000	0.030649
1502.000000	0.030312
1501.000000	0.029907
1500.000000	0.029406
1499.000000	0.028870
1498.000000	0.028335
1497.000000	0.027814
1496.000000	0.027313
1495.000000	0.026808
1494.000000	0.026317
1493.000000	0.025889
1492.000000	0.025470
1491.000000	0.024943
1490.000000	0.024348
1489.000000	0.023882
1488.000000	0.023625
1487.000000	0.023491
1486.000000	0.023420
1485.000000	0.023413
1484.000000	0.023441
1483.000000	0.023455
1482.000000	0.023444
1481.000000	0.023466
1480.000000	0.023570
1479.000000	0.023727
1478.000000	0.023898
1477.000000	0.024095
1476.000000	0.024365
1475.000000	0.024704
1474.000000	0.025096
1473.000000	0.025594
1472.000000	0.026240
1471.000000	0.026918
1470.000000	0.027560
1469.000000	0.028209
1468.000000	0.028854
1467.000000	0.029398
1466.000000	0.029788
1465.000000	0.030086
1464.000000	0.030380
1463.000000	0.030671
1462.000000	0.030943
1461.000000	0.031235
1460.000000	0.031597
1459.000000	0.032027
1458.000000	0.032484
1457.000000	0.032952
1456.000000	0.033306
1455.000000	0.033449
1454.000000	0.033551
1453.000000	0.033745
1452.000000	0.033975
1451.000000	0.034119
1450.000000	0.034146
1449.000000	0.034097
1448.000000	0.034020
1447.000000	0.033949
1446.000000	0.033910
1445.000000	0.033894
1444.000000	0.033867
1443.000000	0.033795
1442.000000	0.033665
1441.000000	0.033516
1440.000000	0.033423
1439.000000	0.033396
1438.000000	0.033291
1437.000000	0.032960
1436.000000	0.032465
1435.000000	0.031985
1434.000000	0.031623
1433.000000	0.031372
1432.000000	0.031135
1431.000000	0.030840
1430.000000	0.030519
1429.000000	0.030257
1428.000000	0.030083
1427.000000	0.029958
1426.000000	0.029832
1425.000000	0.029669
1424.000000	0.029512
1423.000000	0.029469
1422.000000	0.029571
1421.000000	0.029708
1420.000000	0.029710
1419.000000	0.029572
1418.000000	0.029416
1417.000000	0.029316
1416.000000	0.029288
1415.000000	0.029293
1414.000000	0.029273
1413.000000	0.029220
1412.000000	0.029176
1411.000000	0.029167
1410.000000	0.029175
1409.000000	0.029186
1408.000000	0.029211
1407.000000	0.029244
1406.000000	0.029263
1405.000000	0.029252
1404.000000	0.029231
1403.000000	0.029219
1402.000000	0.029207
1401.000000	0.029158
1400.000000	0.029044
1399.000000	0.028897
1398.000000	0.028774
1397.000000	0.028682
1396.000000	0.028582
1395.000000	0.028439
1394.000000	0.028257
1393.000000	0.028057
1392.000000	0.027877
1391.000000	0.027743
1390.000000	0.027631
1389.000000	0.027481
1388.000000	0.027250
1387.000000	0.026967
1386.000000	0.026690
1385.000000	0.026447
1384.000000	0.026230
1383.000000	0.026017
1382.000000	0.025799
1381.000000	0.025592
1380.000000	0.025399
1379.000000	0.025193
1378.000000	0.024946
1377.000000	0.024644
1376.000000	0.024286
1375.000000	0.023896
1374.000000	0.023523
1373.000000	0.023192
1372.000000	0.022889
1371.000000	0.022595
1370.000000	0.022300
1369.000000	0.021983
1368.000000	0.021625
1367.000000	0.021241
1366.000000	0.020867
1365.000000	0.020528
1364.000000	0.020222
1363.000000	0.019954
1362.000000	0.019737
1361.000000	0.019575
1360.000000	0.019458
1359.000000	0.019380
1358.000000	0.019331
1357.000000	0.019306
1356.000000	0.019308
1355.000000	0.019355
1354.000000	0.019455
1353.000000	0.019597
1352.000000	0.019762
1351.000000	0.019940
1350.000000	0.020146
1349.000000	0.020384
1348.000000	0.020642
1347.000000	0.020901
1346.000000	0.021152
1345.000000	0.021395
1344.000000	0.021629
1343.000000	0.021857
1342.000000	0.022089
1341.000000	0.022328
1340.000000	0.022564
1339.000000	0.022772
1338.000000	0.022927
1337.000000	0.023019
1336.000000	0.023053
1335.000000	0.023042
1334.000000	0.022998
1333.000000	0.022929
1332.000000	0.022837
1331.000000	0.022721
1330.000000	0.022587
1329.000000	0.022446
1328.000000	0.022304
1327.000000	0.022163
1326.000000	0.022035
1325.000000	0.021929
1324.000000	0.021846
1323.000000	0.021782
1322.000000	0.021734
1321.000000	0.021701
1320.000000	0.021680
1319.000000	0.021666
1318.000000	0.021653
1317.000000	0.021633
1316.000000	0.021603
1315.000000	0.021558
1314.000000	0.021495
1313.000000	0.021413
1312.000000	0.021321
1311.000000	0.021230
1310.000000	0.021139
1309.000000	0.021042
1308.000000	0.020935
1307.000000	0.020818
1306.000000	0.020692
1305.000000	0.020560
1304.000000	0.020430
1303.000000	0.020311
1302.000000	0.020209
1301.000000	0.020119
1300.000000	0.020033
1299.000000	0.019950
1298.000000	0.019872
1297.000000	0.019806
1296.000000	0.019761
1295.000000	0.019748
1294.000000	0.019779
1293.000000	0.019851
1292.000000	0.019954
1291.000000	0.020075
1290.000000	0.020203
1289.000000	0.020333
1288.000000	0.020467
1287.000000	0.020605
1286.000000	0.020749
1285.000000	0.020901
1284.000000	0.021057
1283.000000	0.021201
1282.000000	0.021312
1281.000000	0.021384
1280.000000	0.021431
1279.000000	0.021467
1278.000000	0.021498
1277.000000	0.021517
1276.000000	0.021520
1275.000000	0.021503
1274.000000	0.021469
1273.000000	0.021432
1272.000000	0.021411
1271.000000	0.021418
1270.000000	0.021453
1269.000000	0.021510
1268.000000	0.021590
1267.000000	0.021688
1266.000000	0.021792
1265.000000	0.021886
1264.000000	0.021963
1263.000000	0.022031
1262.000000	0.022112
1261.000000	0.022222
1260.000000	0.022371
1259.000000	0.022549
1258.000000	0.022738
1257.000000	0.022922
1256.000000	0.023103
1255.000000	0.023288
1254.000000	0.023486
1253.000000	0.023704
1252.000000	0.023950
1251.000000	0.024224
1250.000000	0.024509
1249.000000	0.024778
1248.000000	0.025017
1247.000000	0.025230
1246.000000	0.025442
1245.000000	0.025674
1244.000000	0.025926
1243.000000	0.026181
1242.000000	0.026410
1241.000000	0.026595
1240.000000	0.026728
1239.000000	0.026809
1238.000000	0.026840
1237.000000	0.026826
1236.000000	0.026766
1235.000000	0.026664
1234.000000	0.026522
1233.000000	0.026351
1232.000000	0.026157
1231.000000	0.025936
1230.000000	0.025684
1229.000000	0.025395
1228.000000	0.025073
1227.000000	0.024725
1226.000000	0.024354
1225.000000	0.023959
1224.000000	0.023530
1223.000000	0.023061
1222.000000	0.022548
1221.000000	0.021992
1220.000000	0.021407
1219.000000	0.020843
1218.000000	0.020378
1217.000000	0.020079
1216.000000	0.019958
1215.000000	0.019965
1214.000000	0.020026
1213.000000	0.020092
1212.000000	0.020152
1211.000000	0.020215
1210.000000	0.020285
1209.000000	0.020362
1208.000000	0.020451
1207.000000	0.020561
1206.000000	0.020687
1205.000000	0.020814
1204.000000	0.020923
1203.000000	0.021003
1202.000000	0.021045
1201.000000	0.021045
1200.000000	0.021000
1199.000000	0.020916
1198.000000	0.020804
1197.000000	0.020676
1196.000000	0.020538
1195.000000	0.020385
1194.000000	0.020215
1193.000000	0.020034
1192.000000	0.019854
1191.000000	0.019679
1190.000000	0.019508
1189.000000	0.019340
1188.000000	0.019175
1187.000000	0.019016
1186.000000	0.018865
1185.000000	0.018737
1184.000000	0.018648
1183.000000	0.018598
1182.000000	0.018571
1181.000000	0.018555
1180.000000	0.018557
1179.000000	0.018588
1178.000000	0.018645
1177.000000	0.018715
1176.000000	0.018791
1175.000000	0.018874
1174.000000	0.018964
1173.000000	0.019059
1172.000000	0.019158
1171.000000	0.019266
1170.000000	0.019379
1169.000000	0.019487
1168.000000	0.019590
1167.000000	0.019699
1166.000000	0.019819
1165.000000	0.019945
1164.000000	0.020063
1163.000000	0.020162
1162.000000	0.020233
1161.000000	0.020274
1160.000000	0.020281
1159.000000	0.020247
1158.000000	0.020162
1157.000000	0.020029
1156.000000	0.019862
1155.000000	0.019684
1154.000000	0.019503
1153.000000	0.019314
1152.000000	0.019107
1151.000000	0.018884
1150.000000	0.018657
1149.000000	0.018439
1148.000000	0.018234
1147.000000	0.018036
1146.000000	0.017837
1145.000000	0.017634
1144.000000	0.017436
1143.000000	0.017247
1142.000000	0.017058
1141.000000	0.016851
1140.000000	0.016613
1139.000000	0.016353
1138.000000	0.016095
1137.000000	0.015858
1136.000000	0.015652
1135.000000	0.015474
1134.000000	0.015311
1133.000000	0.015157
1132.000000	0.015016
1131.000000	0.014900
1130.000000	0.014817
1129.000000	0.014766
1128.000000	0.014740
1127.000000	0.014740
1126.000000	0.014774
1125.000000	0.014845
1124.000000	0.014947
1123.000000	0.015055
1122.000000	0.015139
1121.000000	0.015193
1120.000000	0.015238
1119.000000	0.015299
1118.000000	0.015373
1117.000000	0.015438
1116.000000	0.015476
1115.000000	0.015487
1114.000000	0.015492
1113.000000	0.015508
1112.000000	0.015537
1111.000000	0.015563
1110.000000	0.015569
1109.000000	0.015561
1108.000000	0.015575
1107.000000	0.015637
1106.000000	0.015736
1105.000000	0.015842
1104.000000	0.015938
1103.000000	0.016022
1102.000000	0.016092
1101.000000	0.016138
1100.000000	0.016166
1099.000000	0.016196
1098.000000	0.016243
1097.000000	0.016303
1096.000000	0.016369
1095.000000	0.016437
1094.000000	0.016512
1093.000000	0.016601
1092.000000	0.016725
1091.000000	0.016907
1090.000000	0.017155
1089.000000	0.017450
1088.000000	0.017760
1087.000000	0.018060
1086.000000	0.018348
1085.000000	0.018621
1084.000000	0.018862
1083.000000	0.019040
1082.000000	0.019132
1081.000000	0.019140
1080.000000	0.019082
1079.000000	0.018976
1078.000000	0.018830
1077.000000	0.018651
1076.000000	0.018448
1075.000000	0.018233
1074.000000	0.018013
1073.000000	0.017789
1072.000000	0.017569
1071.000000	0.017371
1070.000000	0.017218
1069.000000	0.017130
1068.000000	0.017105
1067.000000	0.017127
1066.000000	0.017172
1065.000000	0.017226
1064.000000	0.017283
1063.000000	0.017331
1062.000000	0.017356
1061.000000	0.017353
1060.000000	0.017332
1059.000000	0.017308
1058.000000	0.017282
1057.000000	0.017243
1056.000000	0.017182
1055.000000	0.017101
1054.000000	0.017015
1053.000000	0.016936
1052.000000	0.016868
1051.000000	0.016799
1050.000000	0.016720
1049.000000	0.016635
1048.000000	0.016561
1047.000000	0.016509
1046.000000	0.016477
1045.000000	0.016463
1044.000000	0.016475
1043.000000	0.016510
1042.000000	0.016551
1041.000000	0.016588
1040.000000	0.016632
1039.000000	0.016706
1038.000000	0.016826
1037.000000	0.016996
1036.000000	0.017221
1035.000000	0.017488
1034.000000	0.017762
1033.000000	0.017996
1032.000000	0.018163
1031.000000	0.018261
1030.000000	0.018305
1029.000000	0.018308
1028.000000	0.018283
1027.000000	0.018234
1026.000000	0.018158
1025.000000	0.018056
1024.000000	0.017942
1023.000000	0.017838
1022.000000	0.017756
1021.000000	0.017696
1020.000000	0.017651
1019.000000	0.017609
1018.000000	0.017554
1017.000000	0.017475
1016.000000	0.017376
1015.000000	0.017256
1014.000000	0.017099
1013.000000	0.016885
1012.000000	0.016617
1011.000000	0.016324
1010.000000	0.016036
1009.000000	0.015768
1008.000000	0.015519
1007.000000	0.015285
1006.000000	0.015060
1005.000000	0.014837
1004.000000	0.014621
1003.000000	0.014420
1002.000000	0.014227
1001.000000	0.014023
1000.000000	0.013801
999.000000	0.013570
998.000000	0.013338
997.000000	0.013114
996.000000	0.012907
995.000000	0.012731
994.000000	0.012580
993.000000	0.012431
992.000000	0.012265
991.000000	0.012087
990.000000	0.011918
989.000000	0.011769
988.000000	0.011645
987.000000	0.011538
986.000000	0.011422
985.000000	0.011271
984.000000	0.011100
983.000000	0.010965
982.000000	0.010910
981.000000	0.010923
980.000000	0.010948
979.000000	0.010952
978.000000	0.010941
977.000000	0.010928
976.000000	0.010908
975.000000	0.010869
974.000000	0.010813
973.000000	0.010755
972.000000	0.010710
971.000000	0.010675
970.000000	0.010629
969.000000	0.010549
968.000000	0.010430
967.000000	0.010287
966.000000	0.010139
965.000000	0.009997
964.000000	0.009866
963.000000	0.009747
962.000000	0.009642
961.000000	0.009537
960.000000	0.009422
959.000000	0.009296
958.000000	0.009172
957.000000	0.009059
956.000000	0.008953
955.000000	0.008844
954.000000	0.008729
953.000000	0.008609
952.000000	0.008489
951.000000	0.008372
950.000000	0.008261
949.000000	0.008164
948.000000	0.008089
947.000000	0.008037
946.000000	0.008001
945.000000	0.007975
944.000000	0.007965
943.000000	0.007968
942.000000	0.007973
941.000000	0.007961
940.000000	0.007936
939.000000	0.007909
938.000000	0.007887
937.000000	0.007860
936.000000	0.007825
935.000000	0.007785
934.000000	0.007738
933.000000	0.007671
932.000000	0.007577
931.000000	0.007462
930.000000	0.007341
929.000000	0.007240
928.000000	0.007186
927.000000	0.007194
926.000000	0.007236
925.000000	0.007258
924.000000	0.007235
923.000000	0.007185
922.000000	0.007138
921.000000	0.007093
920.000000	0.007025
919.000000	0.006923
918.000000	0.006794
917.000000	0.006657
916.000000	0.006534
915.000000	0.006448
914.000000	0.006395
913.000000	0.006343
912.000000	0.006261
911.000000	0.006151
910.000000	0.006042
909.000000	0.005950
908.000000	0.005873
907.000000	0.005816
906.000000	0.005791
905.000000	0.005800
904.000000	0.005822
903.000000	0.005828
902.000000	0.005801
901.000000	0.005742
900.000000	0.005669
899.000000	0.005613
898.000000	0.005597
897.000000	0.005613
896.000000	0.005619
895.000000	0.005584
894.000000	0.005520
893.000000	0.005474
892.000000	0.005478
891.000000	0.005522
890.000000	0.005564
889.000000	0.005576
888.000000	0.005567
887.000000	0.005565
886.000000	0.005604
885.000000	0.005707
884.000000	0.005887
883.000000	0.006140
882.000000	0.006449
881.000000	0.006788
880.000000	0.007140
879.000000	0.007496
878.000000	0.007838
877.000000	0.008129
876.000000	0.008323
875.000000	0.008378
874.000000	0.008278
873.000000	0.008032
872.000000	0.007687
871.000000	0.007317
870.000000	0.006991
869.000000	0.006747
868.000000	0.006580
867.000000	0.006463
866.000000	0.006376
865.000000	0.006307
864.000000	0.006255
863.000000	0.006220
862.000000	0.006200
861.000000	0.006190
860.000000	0.006191
859.000000	0.006204
858.000000	0.006232
857.000000	0.006266
856.000000	0.006294
855.000000	0.006305
854.000000	0.006297
853.000000	0.006287
852.000000	0.006298
851.000000	0.006342
850.000000	0.006396
849.000000	0.006414
848.000000	0.006362
847.000000	0.006239
846.000000	0.006075
845.000000	0.005911
844.000000	0.005784
843.000000	0.005717
842.000000	0.005710
841.000000	0.005735
840.000000	0.005755
839.000000	0.005747
838.000000	0.005710
837.000000	0.005664
836.000000	0.005626
835.000000	0.005603
834.000000	0.005591
833.000000	0.005578
832.000000	0.005548
831.000000	0.005495
830.000000	0.005438
829.000000	0.005421
828.000000	0.005474
827.000000	0.005570
826.000000	0.005630
825.000000	0.005605
824.000000	0.005528
823.000000	0.005485
822.000000	0.005514
821.000000	0.005572
820.000000	0.005598
819.000000	0.005588
818.000000	0.005595
817.000000	0.005660
816.000000	0.005771
815.000000	0.005875
814.000000	0.005926
813.000000	0.005906
812.000000	0.005827
811.000000	0.005715
810.000000	0.005608
809.000000	0.005543
808.000000	0.005534
807.000000	0.005563
806.000000	0.005589
805.000000	0.005580
804.000000	0.005542
803.000000	0.005504
802.000000	0.005489
801.000000	0.005495
800.000000	0.005509
799.000000	0.005540
798.000000	0.005599
797.000000	0.005673
796.000000	0.005718
795.000000	0.005703
794.000000	0.005650
793.000000	0.005611
792.000000	0.005612
791.000000	0.005635
790.000000	0.005656
789.000000	0.005674
788.000000	0.005682
787.000000	0.005656
786.000000	0.005579
785.000000	0.005490
784.000000	0.005450
783.000000	0.005485
782.000000	0.005558
781.000000	0.005622
780.000000	0.005669
779.000000	0.005706
778.000000	0.005719
777.000000	0.005685
776.000000	0.005611
775.000000	0.005540
774.000000	0.005508
773.000000	0.005512
772.000000	0.005529
771.000000	0.005545
770.000000	0.005571
769.000000	0.005614
768.000000	0.005671
767.000000	0.005725
766.000000	0.005756
765.000000	0.005748
764.000000	0.005708
763.000000	0.005662
762.000000	0.005647
761.000000	0.005675
760.000000	0.005725
759.000000	0.005761
758.000000	0.005768
757.000000	0.005764
756.000000	0.005771
755.000000	0.005796
754.000000	0.005821
753.000000	0.005836
752.000000	0.005847
751.000000	0.005867
750.000000	0.005895
749.000000	0.005918
748.000000	0.005932
747.000000	0.005953
746.000000	0.006002
745.000000	0.006080
744.000000	0.006161
743.000000	0.006211
742.000000	0.006221
741.000000	0.006212
740.000000	0.006220
739.000000	0.006263
738.000000	0.006332
737.000000	0.006397
736.000000	0.006436
735.000000	0.006454
734.000000	0.006489
733.000000	0.006587
732.000000	0.006760
731.000000	0.006972
730.000000	0.007168
729.000000	0.007321
728.000000	0.007440
727.000000	0.007540
726.000000	0.007641
725.000000	0.007760
724.000000	0.007906
723.000000	0.008058
722.000000	0.008180
721.000000	0.008260
720.000000	0.008305
719.000000	0.008339
718.000000	0.008383
717.000000	0.008448
716.000000	0.008528
715.000000	0.008592
714.000000	0.008605
713.000000	0.008568
712.000000	0.008519
711.000000	0.008480
710.000000	0.008450
709.000000	0.008430
708.000000	0.008451
707.000000	0.008531
706.000000	0.008659
705.000000	0.008808
704.000000	0.008953
703.000000	0.009063
702.000000	0.009103
701.000000	0.009072
700.000000	0.009020
699.000000	0.009000
698.000000	0.009013
697.000000	0.009028
696.000000	0.009042
695.000000	0.009077
694.000000	0.009120
693.000000	0.009114
692.000000	0.009037
691.000000	0.008936
690.000000	0.008880
689.000000	0.008888
688.000000	0.008936
687.000000	0.009009
686.000000	0.009096
685.000000	0.009184
684.000000	0.009277
683.000000	0.009395
682.000000	0.009527
681.000000	0.009622
680.000000	0.009645
679.000000	0.009626
678.000000	0.009623
677.000000	0.009680
676.000000	0.009801
675.000000	0.009942
674.000000	0.010057
673.000000	0.010130
672.000000	0.010165
671.000000	0.010120
670.000000	0.009906
669.000000	0.009486
668.000000	0.009189
667.000000	0.009419
666.000000	0.009779
665.000000	0.010073
664.000000	0.010309
663.000000	0.010432
662.000000	0.010438
661.000000	0.010420
660.000000	0.010456
659.000000	0.010522
658.000000	0.010559
657.000000	0.010576
656.000000	0.010584
655.000000	0.010531
654.000000	0.010406
653.000000	0.010301
652.000000	0.010282
651.000000	0.010301
650.000000	0.010291
649.000000	0.010274
648.000000	0.010294
647.000000	0.010337
646.000000	0.010368
645.000000	0.010380
644.000000	0.010367
643.000000	0.010318
642.000000	0.010243
641.000000	0.010177
640.000000	0.010140
639.000000	0.010122
638.000000	0.010138
637.000000	0.010210
636.000000	0.010294
635.000000	0.010307
634.000000	0.010249
633.000000	0.010208
632.000000	0.010242
631.000000	0.010314
630.000000	0.010377
629.000000	0.010430
628.000000	0.010476
627.000000	0.010486
626.000000	0.010463
625.000000	0.010459
624.000000	0.010483
623.000000	0.010486
622.000000	0.010436
621.000000	0.010379
620.000000	0.010371
619.000000	0.010410
618.000000	0.010465
617.000000	0.010520
616.000000	0.010569
615.000000	0.010594
614.000000	0.010591
613.000000	0.010576
612.000000	0.010537
611.000000	0.010453
610.000000	0.010348
609.000000	0.010291
608.000000	0.010299
607.000000	0.010327
606.000000	0.010348
605.000000	0.010382
604.000000	0.010423
603.000000	0.010417
602.000000	0.010356
601.000000	0.010310
600.000000	0.010339
599.000000	0.010427
598.000000	0.010532
597.000000	0.010625
596.000000	0.010673
595.000000	0.010637
594.000000	0.010536
593.000000	0.010448
592.000000	0.010403
591.000000	0.010358
590.000000	0.010292
589.000000	0.010250
588.000000	0.010257
587.000000	0.010257
586.000000	0.010208
585.000000	0.010177
584.000000	0.010263
583.000000	0.010459
582.000000	0.010649
581.000000	0.010724
580.000000	0.010652
579.000000	0.010489
578.000000	0.010332
577.000000	0.010266
576.000000	0.010303
575.000000	0.010408
574.000000	0.010563
573.000000	0.010764
572.000000	0.010954
571.000000	0.011048
570.000000	0.011065
569.000000	0.011139
568.000000	0.011344
567.000000	0.011593
566.000000	0.011772
565.000000	0.011881
564.000000	0.011976
563.000000	0.012050
562.000000	0.012060
561.000000	0.012029
560.000000	0.012012
559.000000	0.012009
558.000000	0.011980
557.000000	0.011908
556.000000	0.011800
555.000000	0.011662
554.000000	0.011555
553.000000	0.011582
552.000000	0.011757
551.000000	0.011940
550.000000	0.011979
549.000000	0.011868
548.000000	0.011679
547.000000	0.011428
546.000000	0.011104
545.000000	0.010786
544.000000	0.010601
543.000000	0.010607
542.000000	0.010760
541.000000	0.010974
540.000000	0.011159
539.000000	0.011255
538.000000	0.011292
537.000000	0.011370
536.000000	0.011521
535.000000	0.011660
534.000000	0.011729
533.000000	0.011794
532.000000	0.011907
531.000000	0.011964
530.000000	0.011844
529.000000	0.011596
528.000000	0.011369
527.000000	0.011235
526.000000	0.011196
525.000000	0.011280
524.000000	0.011496
523.000000	0.011728
522.000000	0.011807
521.000000	0.011665
520.000000	0.011380
519.000000	0.011077
518.000000	0.010858
517.000000	0.010757
516.000000	0.010678
515.000000	0.010462
514.000000	0.010081
513.000000	0.009720
512.000000	0.009564
511.000000	0.009567
510.000000	0.009554
509.000000	0.009475
508.000000	0.009412
507.000000	0.009385
506.000000	0.009324
505.000000	0.009216
504.000000	0.009133
503.000000	0.009095
502.000000	0.009027
501.000000	0.008886
500.000000	0.008738
499.000000	0.008685
498.000000	0.008776
497.000000	0.008985
496.000000	0.009209
495.000000	0.009319
494.000000	0.009279
493.000000	0.009168
492.000000	0.009075
491.000000	0.009012
490.000000	0.008967
489.000000	0.008948
488.000000	0.008917
487.000000	0.008761
486.000000	0.008453
485.000000	0.008134
484.000000	0.007959
483.000000	0.007925
482.000000	0.007932
481.000000	0.007926
480.000000	0.007903
479.000000	0.007877
478.000000	0.007918
477.000000	0.008110
476.000000	0.008380
475.000000	0.008504
474.000000	0.008385
473.000000	0.008251
472.000000	0.008377
471.000000	0.008687
470.000000	0.008883
469.000000	0.008873
468.000000	0.008806
467.000000	0.008815
466.000000	0.008914
465.000000	0.009078
464.000000	0.009209
463.000000	0.009073
462.000000	0.008565
461.000000	0.007959
460.000000	0.007640
459.000000	0.007600
458.000000	0.007456
457.000000	0.007024
456.000000	0.006575
455.000000	0.006354
454.000000	0.005964
453.000000	0.005834
452.000000	0.005694
451.000000	0.005645
450.000000	0.005629
