PE IR       SUBTECH     SPECTRUM    ASCII       PEDS        4.00        
   -1
3S-N10-C026_1.ASC
22/02/18
14:39:22.00
22/02/18
14:55:43.00
uco
Sample 026 By uco Date Friday, February 18 2022
450.000000
#HDR
-1
-1
#GR
cm-1
A
1.0
0.0
4000.000000
-1.000000
3551
8
0.038921
0.003379
#DATA
4000.000000	0.003804
3999.000000	0.003806
3998.000000	0.003814
3997.000000	0.003826
3996.000000	0.003829
3995.000000	0.003818
3994.000000	0.003800
3993.000000	0.003791
3992.000000	0.003803
3991.000000	0.003834
3990.000000	0.003867
3989.000000	0.003890
3988.000000	0.003900
3987.000000	0.003902
3986.000000	0.003899
3985.000000	0.003891
3984.000000	0.003874
3983.000000	0.003851
3982.000000	0.003830
3981.000000	0.003813
3980.000000	0.003802
3979.000000	0.003793
3978.000000	0.003785
3977.000000	0.003782
3976.000000	0.003786
3975.000000	0.003797
3974.000000	0.003814
3973.000000	0.003837
3972.000000	0.003865
3971.000000	0.003896
3970.000000	0.003925
3969.000000	0.003940
3968.000000	0.003936
3967.000000	0.003917
3966.000000	0.003897
3965.000000	0.003887
3964.000000	0.003892
3963.000000	0.003905
3962.000000	0.003921
3961.000000	0.003935
3960.000000	0.003940
3959.000000	0.003936
3958.000000	0.003925
3957.000000	0.003914
3956.000000	0.003909
3955.000000	0.003910
3954.000000	0.003913
3953.000000	0.003918
3952.000000	0.003928
3951.000000	0.003945
3950.000000	0.003968
3949.000000	0.003991
3948.000000	0.004012
3947.000000	0.004030
3946.000000	0.004045
3945.000000	0.004053
3944.000000	0.004048
3943.000000	0.004028
3942.000000	0.003998
3941.000000	0.003972
3940.000000	0.003960
3939.000000	0.003961
3938.000000	0.003973
3937.000000	0.003987
3936.000000	0.004001
3935.000000	0.004013
3934.000000	0.004016
3933.000000	0.004006
3932.000000	0.003985
3931.000000	0.003961
3930.000000	0.003945
3929.000000	0.003944
3928.000000	0.003953
3927.000000	0.003963
3926.000000	0.003964
3925.000000	0.003959
3924.000000	0.003961
3923.000000	0.003981
3922.000000	0.004015
3921.000000	0.004048
3920.000000	0.004063
3919.000000	0.004055
3918.000000	0.004028
3917.000000	0.003992
3916.000000	0.003958
3915.000000	0.003934
3914.000000	0.003926
3913.000000	0.003934
3912.000000	0.003952
3911.000000	0.003970
3910.000000	0.003985
3909.000000	0.004001
3908.000000	0.004022
3907.000000	0.004045
3906.000000	0.004059
3905.000000	0.004049
3904.000000	0.004014
3903.000000	0.003977
3902.000000	0.003962
3901.000000	0.003971
3900.000000	0.003987
3899.000000	0.003996
3898.000000	0.003996
3897.000000	0.003995
3896.000000	0.003993
3895.000000	0.003987
3894.000000	0.003974
3893.000000	0.003954
3892.000000	0.003932
3891.000000	0.003912
3890.000000	0.003895
3889.000000	0.003887
3888.000000	0.003891
3887.000000	0.003907
3886.000000	0.003926
3885.000000	0.003942
3884.000000	0.003953
3883.000000	0.003965
3882.000000	0.003981
3881.000000	0.004002
3880.000000	0.004021
3879.000000	0.004035
3878.000000	0.004043
3877.000000	0.004047
3876.000000	0.004049
3875.000000	0.004047
3874.000000	0.004038
3873.000000	0.004022
3872.000000	0.004003
3871.000000	0.003980
3870.000000	0.003957
3869.000000	0.003946
3868.000000	0.003953
3867.000000	0.003972
3866.000000	0.003994
3865.000000	0.004011
3864.000000	0.004023
3863.000000	0.004032
3862.000000	0.004037
3861.000000	0.004042
3860.000000	0.004054
3859.000000	0.004075
3858.000000	0.004104
3857.000000	0.004132
3856.000000	0.004146
3855.000000	0.004132
3854.000000	0.004079
3853.000000	0.004014
3852.000000	0.003974
3851.000000	0.003962
3850.000000	0.003964
3849.000000	0.003968
3848.000000	0.003973
3847.000000	0.003978
3846.000000	0.003987
3845.000000	0.004003
3844.000000	0.004018
3843.000000	0.004018
3842.000000	0.003996
3841.000000	0.003957
3840.000000	0.003922
3839.000000	0.003911
3838.000000	0.003931
3837.000000	0.003968
3836.000000	0.003999
3835.000000	0.004012
3834.000000	0.004012
3833.000000	0.004005
3832.000000	0.003997
3831.000000	0.003989
3830.000000	0.003981
3829.000000	0.003978
3828.000000	0.003979
3827.000000	0.003984
3826.000000	0.003989
3825.000000	0.003994
3824.000000	0.004004
3823.000000	0.004024
3822.000000	0.004049
3821.000000	0.004065
3820.000000	0.004067
3819.000000	0.004059
3818.000000	0.004046
3817.000000	0.004027
3816.000000	0.004002
3815.000000	0.003980
3814.000000	0.003970
3813.000000	0.003969
3812.000000	0.003967
3811.000000	0.003957
3810.000000	0.003945
3809.000000	0.003941
3808.000000	0.003950
3807.000000	0.003964
3806.000000	0.003966
3805.000000	0.003957
3804.000000	0.003948
3803.000000	0.003953
3802.000000	0.003978
3801.000000	0.004013
3800.000000	0.004042
3799.000000	0.004052
3798.000000	0.004039
3797.000000	0.004009
3796.000000	0.003978
3795.000000	0.003962
3794.000000	0.003964
3793.000000	0.003976
3792.000000	0.003988
3791.000000	0.003997
3790.000000	0.004003
3789.000000	0.004008
3788.000000	0.004014
3787.000000	0.004021
3786.000000	0.004023
3785.000000	0.004013
3784.000000	0.003994
3783.000000	0.003972
3782.000000	0.003957
3781.000000	0.003949
3780.000000	0.003944
3779.000000	0.003936
3778.000000	0.003928
3777.000000	0.003925
3776.000000	0.003929
3775.000000	0.003940
3774.000000	0.003954
3773.000000	0.003967
3772.000000	0.003977
3771.000000	0.003982
3770.000000	0.003983
3769.000000	0.003982
3768.000000	0.003979
3767.000000	0.003968
3766.000000	0.003948
3765.000000	0.003926
3764.000000	0.003914
3763.000000	0.003917
3762.000000	0.003931
3761.000000	0.003947
3760.000000	0.003956
3759.000000	0.003953
3758.000000	0.003938
3757.000000	0.003915
3756.000000	0.003887
3755.000000	0.003857
3754.000000	0.003823
3753.000000	0.003782
3752.000000	0.003743
3751.000000	0.003730
3750.000000	0.003755
3749.000000	0.003801
3748.000000	0.003848
3747.000000	0.003889
3746.000000	0.003931
3745.000000	0.003968
3744.000000	0.003987
3743.000000	0.003981
3742.000000	0.003950
3741.000000	0.003905
3740.000000	0.003864
3739.000000	0.003841
3738.000000	0.003840
3737.000000	0.003848
3736.000000	0.003838
3735.000000	0.003804
3734.000000	0.003763
3733.000000	0.003746
3732.000000	0.003763
3731.000000	0.003802
3730.000000	0.003843
3729.000000	0.003868
3728.000000	0.003871
3727.000000	0.003854
3726.000000	0.003830
3725.000000	0.003817
3724.000000	0.003822
3723.000000	0.003839
3722.000000	0.003854
3721.000000	0.003857
3720.000000	0.003848
3719.000000	0.003835
3718.000000	0.003823
3717.000000	0.003813
3716.000000	0.003799
3715.000000	0.003784
3714.000000	0.003777
3713.000000	0.003788
3712.000000	0.003817
3711.000000	0.003851
3710.000000	0.003873
3709.000000	0.003881
3708.000000	0.003879
3707.000000	0.003864
3706.000000	0.003838
3705.000000	0.003807
3704.000000	0.003787
3703.000000	0.003790
3702.000000	0.003818
3701.000000	0.003858
3700.000000	0.003892
3699.000000	0.003907
3698.000000	0.003898
3697.000000	0.003875
3696.000000	0.003851
3695.000000	0.003843
3694.000000	0.003855
3693.000000	0.003878
3692.000000	0.003895
3691.000000	0.003892
3690.000000	0.003867
3689.000000	0.003832
3688.000000	0.003803
3687.000000	0.003787
3686.000000	0.003784
3685.000000	0.003796
3684.000000	0.003819
3683.000000	0.003837
3682.000000	0.003836
3681.000000	0.003812
3680.000000	0.003777
3679.000000	0.003752
3678.000000	0.003758
3677.000000	0.003797
3676.000000	0.003850
3675.000000	0.003888
3674.000000	0.003903
3673.000000	0.003903
3672.000000	0.003901
3671.000000	0.003902
3670.000000	0.003908
3669.000000	0.003919
3668.000000	0.003934
3667.000000	0.003951
3666.000000	0.003972
3665.000000	0.003995
3664.000000	0.004018
3663.000000	0.004031
3662.000000	0.004026
3661.000000	0.004000
3660.000000	0.003967
3659.000000	0.003948
3658.000000	0.003961
3657.000000	0.004001
3656.000000	0.004043
3655.000000	0.004069
3654.000000	0.004078
3653.000000	0.004084
3652.000000	0.004098
3651.000000	0.004118
3650.000000	0.004141
3649.000000	0.004166
3648.000000	0.004190
3647.000000	0.004210
3646.000000	0.004223
3645.000000	0.004238
3644.000000	0.004258
3643.000000	0.004282
3642.000000	0.004304
3641.000000	0.004324
3640.000000	0.004341
3639.000000	0.004349
3638.000000	0.004346
3637.000000	0.004338
3636.000000	0.004339
3635.000000	0.004347
3634.000000	0.004342
3633.000000	0.004315
3632.000000	0.004278
3631.000000	0.004264
3630.000000	0.004299
3629.000000	0.004377
3628.000000	0.004464
3627.000000	0.004530
3626.000000	0.004570
3625.000000	0.004591
3624.000000	0.004603
3623.000000	0.004609
3622.000000	0.004607
3621.000000	0.004596
3620.000000	0.004589
3619.000000	0.004604
3618.000000	0.004648
3617.000000	0.004708
3616.000000	0.004764
3615.000000	0.004809
3614.000000	0.004840
3613.000000	0.004855
3612.000000	0.004854
3611.000000	0.004845
3610.000000	0.004847
3609.000000	0.004876
3608.000000	0.004933
3607.000000	0.005002
3606.000000	0.005063
3605.000000	0.005104
3604.000000	0.005122
3603.000000	0.005124
3602.000000	0.005122
3601.000000	0.005126
3600.000000	0.005141
3599.000000	0.005170
3598.000000	0.005211
3597.000000	0.005257
3596.000000	0.005296
3595.000000	0.005321
3594.000000	0.005334
3593.000000	0.005342
3592.000000	0.005353
3591.000000	0.005370
3590.000000	0.005393
3589.000000	0.005426
3588.000000	0.005466
3587.000000	0.005514
3586.000000	0.005571
3585.000000	0.005631
3584.000000	0.005690
3583.000000	0.005743
3582.000000	0.005792
3581.000000	0.005840
3580.000000	0.005885
3579.000000	0.005919
3578.000000	0.005940
3577.000000	0.005955
3576.000000	0.005982
3575.000000	0.006032
3574.000000	0.006097
3573.000000	0.006159
3572.000000	0.006201
3571.000000	0.006223
3570.000000	0.006240
3569.000000	0.006270
3568.000000	0.006325
3567.000000	0.006394
3566.000000	0.006458
3565.000000	0.006503
3564.000000	0.006529
3563.000000	0.006545
3562.000000	0.006561
3561.000000	0.006584
3560.000000	0.006609
3559.000000	0.006635
3558.000000	0.006665
3557.000000	0.006710
3556.000000	0.006768
3555.000000	0.006827
3554.000000	0.006872
3553.000000	0.006901
3552.000000	0.006927
3551.000000	0.006962
3550.000000	0.007012
3549.000000	0.007068
3548.000000	0.007124
3547.000000	0.007176
3546.000000	0.007227
3545.000000	0.007288
3544.000000	0.007361
3543.000000	0.007436
3542.000000	0.007500
3541.000000	0.007544
3540.000000	0.007568
3539.000000	0.007578
3538.000000	0.007582
3537.000000	0.007589
3536.000000	0.007608
3535.000000	0.007640
3534.000000	0.007684
3533.000000	0.007733
3532.000000	0.007782
3531.000000	0.007830
3530.000000	0.007876
3529.000000	0.007919
3528.000000	0.007960
3527.000000	0.008002
3526.000000	0.008047
3525.000000	0.008095
3524.000000	0.008144
3523.000000	0.008189
3522.000000	0.008227
3521.000000	0.008261
3520.000000	0.008299
3519.000000	0.008343
3518.000000	0.008390
3517.000000	0.008435
3516.000000	0.008476
3515.000000	0.008515
3514.000000	0.008550
3513.000000	0.008573
3512.000000	0.008583
3511.000000	0.008583
3510.000000	0.008588
3509.000000	0.008606
3508.000000	0.008640
3507.000000	0.008689
3506.000000	0.008745
3505.000000	0.008801
3504.000000	0.008848
3503.000000	0.008881
3502.000000	0.008905
3501.000000	0.008928
3500.000000	0.008957
3499.000000	0.008993
3498.000000	0.009035
3497.000000	0.009083
3496.000000	0.009135
3495.000000	0.009189
3494.000000	0.009239
3493.000000	0.009279
3492.000000	0.009305
3491.000000	0.009324
3490.000000	0.009344
3489.000000	0.009371
3488.000000	0.009404
3487.000000	0.009434
3486.000000	0.009450
3485.000000	0.009458
3484.000000	0.009469
3483.000000	0.009496
3482.000000	0.009541
3481.000000	0.009596
3480.000000	0.009652
3479.000000	0.009703
3478.000000	0.009745
3477.000000	0.009778
3476.000000	0.009799
3475.000000	0.009814
3474.000000	0.009832
3473.000000	0.009860
3472.000000	0.009903
3471.000000	0.009957
3470.000000	0.010010
3469.000000	0.010050
3468.000000	0.010073
3467.000000	0.010084
3466.000000	0.010094
3465.000000	0.010114
3464.000000	0.010147
3463.000000	0.010187
3462.000000	0.010227
3461.000000	0.010262
3460.000000	0.010288
3459.000000	0.010306
3458.000000	0.010320
3457.000000	0.010341
3456.000000	0.010376
3455.000000	0.010423
3454.000000	0.010471
3453.000000	0.010509
3452.000000	0.010529
3451.000000	0.010540
3450.000000	0.010555
3449.000000	0.010579
3448.000000	0.010605
3447.000000	0.010620
3446.000000	0.010623
3445.000000	0.010627
3444.000000	0.010647
3443.000000	0.010687
3442.000000	0.010740
3441.000000	0.010792
3440.000000	0.010835
3439.000000	0.010870
3438.000000	0.010901
3437.000000	0.010932
3436.000000	0.010964
3435.000000	0.010996
3434.000000	0.011029
3433.000000	0.011062
3432.000000	0.011097
3431.000000	0.011134
3430.000000	0.011170
3429.000000	0.011200
3428.000000	0.011219
3427.000000	0.011233
3426.000000	0.011245
3425.000000	0.011261
3424.000000	0.011278
3423.000000	0.011293
3422.000000	0.011310
3421.000000	0.011337
3420.000000	0.011381
3419.000000	0.011444
3418.000000	0.011514
3417.000000	0.011578
3416.000000	0.011625
3415.000000	0.011657
3414.000000	0.011680
3413.000000	0.011702
3412.000000	0.011727
3411.000000	0.011764
3410.000000	0.011817
3409.000000	0.011878
3408.000000	0.011932
3407.000000	0.011967
3406.000000	0.011984
3405.000000	0.011992
3404.000000	0.012004
3403.000000	0.012026
3402.000000	0.012063
3401.000000	0.012112
3400.000000	0.012163
3399.000000	0.012204
3398.000000	0.012227
3397.000000	0.012238
3396.000000	0.012252
3395.000000	0.012281
3394.000000	0.012319
3393.000000	0.012350
3392.000000	0.012365
3391.000000	0.012370
3390.000000	0.012383
3389.000000	0.012412
3388.000000	0.012446
3387.000000	0.012469
3386.000000	0.012483
3385.000000	0.012502
3384.000000	0.012538
3383.000000	0.012585
3382.000000	0.012627
3381.000000	0.012653
3380.000000	0.012671
3379.000000	0.012693
3378.000000	0.012732
3377.000000	0.012784
3376.000000	0.012840
3375.000000	0.012893
3374.000000	0.012941
3373.000000	0.012982
3372.000000	0.013012
3371.000000	0.013035
3370.000000	0.013062
3369.000000	0.013104
3368.000000	0.013160
3367.000000	0.013221
3366.000000	0.013275
3365.000000	0.013323
3364.000000	0.013367
3363.000000	0.013410
3362.000000	0.013455
3361.000000	0.013507
3360.000000	0.013572
3359.000000	0.013647
3358.000000	0.013723
3357.000000	0.013791
3356.000000	0.013848
3355.000000	0.013894
3354.000000	0.013930
3353.000000	0.013963
3352.000000	0.014004
3351.000000	0.014055
3350.000000	0.014114
3349.000000	0.014171
3348.000000	0.014222
3347.000000	0.014268
3346.000000	0.014315
3345.000000	0.014369
3344.000000	0.014431
3343.000000	0.014498
3342.000000	0.014559
3341.000000	0.014605
3340.000000	0.014637
3339.000000	0.014676
3338.000000	0.014738
3337.000000	0.014823
3336.000000	0.014915
3335.000000	0.014997
3334.000000	0.015062
3333.000000	0.015114
3332.000000	0.015160
3331.000000	0.015203
3330.000000	0.015246
3329.000000	0.015289
3328.000000	0.015328
3327.000000	0.015356
3326.000000	0.015375
3325.000000	0.015399
3324.000000	0.015442
3323.000000	0.015507
3322.000000	0.015583
3321.000000	0.015649
3320.000000	0.015697
3319.000000	0.015732
3318.000000	0.015761
3317.000000	0.015789
3316.000000	0.015815
3315.000000	0.015839
3314.000000	0.015863
3313.000000	0.015885
3312.000000	0.015907
3311.000000	0.015932
3310.000000	0.015961
3309.000000	0.015991
3308.000000	0.016015
3307.000000	0.016034
3306.000000	0.016064
3305.000000	0.016112
3304.000000	0.016175
3303.000000	0.016239
3302.000000	0.016293
3301.000000	0.016333
3300.000000	0.016355
3299.000000	0.016353
3298.000000	0.016334
3297.000000	0.016312
3296.000000	0.016305
3295.000000	0.016318
3294.000000	0.016342
3293.000000	0.016366
3292.000000	0.016377
3291.000000	0.016367
3290.000000	0.016345
3289.000000	0.016327
3288.000000	0.016327
3287.000000	0.016344
3286.000000	0.016365
3285.000000	0.016382
3284.000000	0.016402
3283.000000	0.016431
3282.000000	0.016470
3281.000000	0.016502
3280.000000	0.016511
3279.000000	0.016489
3278.000000	0.016449
3277.000000	0.016411
3276.000000	0.016388
3275.000000	0.016372
3274.000000	0.016349
3273.000000	0.016315
3272.000000	0.016284
3271.000000	0.016273
3270.000000	0.016281
3269.000000	0.016292
3268.000000	0.016292
3267.000000	0.016274
3266.000000	0.016246
3265.000000	0.016215
3264.000000	0.016186
3263.000000	0.016157
3262.000000	0.016120
3261.000000	0.016072
3260.000000	0.016018
3259.000000	0.015966
3258.000000	0.015925
3257.000000	0.015898
3256.000000	0.015880
3255.000000	0.015867
3254.000000	0.015852
3253.000000	0.015831
3252.000000	0.015805
3251.000000	0.015784
3250.000000	0.015771
3249.000000	0.015761
3248.000000	0.015743
3247.000000	0.015713
3246.000000	0.015676
3245.000000	0.015640
3244.000000	0.015613
3243.000000	0.015594
3242.000000	0.015577
3241.000000	0.015551
3240.000000	0.015511
3239.000000	0.015461
3238.000000	0.015410
3237.000000	0.015365
3236.000000	0.015332
3235.000000	0.015313
3234.000000	0.015305
3233.000000	0.015299
3232.000000	0.015287
3231.000000	0.015269
3230.000000	0.015249
3229.000000	0.015229
3228.000000	0.015204
3227.000000	0.015170
3226.000000	0.015131
3225.000000	0.015096
3224.000000	0.015075
3223.000000	0.015068
3222.000000	0.015066
3221.000000	0.015054
3220.000000	0.015024
3219.000000	0.014983
3218.000000	0.014953
3217.000000	0.014944
3216.000000	0.014945
3215.000000	0.014930
3214.000000	0.014891
3213.000000	0.014847
3212.000000	0.014821
3211.000000	0.014819
3210.000000	0.014821
3209.000000	0.014804
3208.000000	0.014765
3207.000000	0.014718
3206.000000	0.014680
3205.000000	0.014650
3204.000000	0.014619
3203.000000	0.014579
3202.000000	0.014537
3201.000000	0.014508
3200.000000	0.014493
3199.000000	0.014478
3198.000000	0.014443
3197.000000	0.014388
3196.000000	0.014332
3195.000000	0.014293
3194.000000	0.014273
3193.000000	0.014257
3192.000000	0.014232
3191.000000	0.014200
3190.000000	0.014169
3189.000000	0.014144
3188.000000	0.014120
3187.000000	0.014090
3186.000000	0.014050
3185.000000	0.014007
3184.000000	0.013970
3183.000000	0.013945
3182.000000	0.013926
3181.000000	0.013908
3180.000000	0.013884
3179.000000	0.013854
3178.000000	0.013822
3177.000000	0.013787
3176.000000	0.013749
3175.000000	0.013708
3174.000000	0.013666
3173.000000	0.013622
3172.000000	0.013573
3171.000000	0.013522
3170.000000	0.013473
3169.000000	0.013431
3168.000000	0.013390
3167.000000	0.013343
3166.000000	0.013291
3165.000000	0.013239
3164.000000	0.013191
3163.000000	0.013149
3162.000000	0.013114
3161.000000	0.013085
3160.000000	0.013058
3159.000000	0.013026
3158.000000	0.012988
3157.000000	0.012952
3156.000000	0.012920
3155.000000	0.012888
3154.000000	0.012846
3153.000000	0.012791
3152.000000	0.012733
3151.000000	0.012686
3150.000000	0.012659
3149.000000	0.012646
3148.000000	0.012633
3147.000000	0.012608
3146.000000	0.012572
3145.000000	0.012538
3144.000000	0.012512
3143.000000	0.012494
3142.000000	0.012474
3141.000000	0.012444
3140.000000	0.012401
3139.000000	0.012346
3138.000000	0.012286
3137.000000	0.012230
3136.000000	0.012189
3135.000000	0.012169
3134.000000	0.012164
3133.000000	0.012163
3132.000000	0.012159
3131.000000	0.012150
3130.000000	0.012137
3129.000000	0.012124
3128.000000	0.012115
3127.000000	0.012110
3126.000000	0.012105
3125.000000	0.012091
3124.000000	0.012062
3123.000000	0.012020
3122.000000	0.011979
3121.000000	0.011946
3120.000000	0.011927
3119.000000	0.011918
3118.000000	0.011919
3117.000000	0.011927
3116.000000	0.011936
3115.000000	0.011941
3114.000000	0.011942
3113.000000	0.011943
3112.000000	0.011949
3111.000000	0.011958
3110.000000	0.011970
3109.000000	0.011986
3108.000000	0.012005
3107.000000	0.012022
3106.000000	0.012032
3105.000000	0.012034
3104.000000	0.012031
3103.000000	0.012028
3102.000000	0.012027
3101.000000	0.012030
3100.000000	0.012043
3099.000000	0.012061
3098.000000	0.012078
3097.000000	0.012085
3096.000000	0.012085
3095.000000	0.012091
3094.000000	0.012110
3093.000000	0.012143
3092.000000	0.012181
3091.000000	0.012210
3090.000000	0.012222
3089.000000	0.012217
3088.000000	0.012203
3087.000000	0.012187
3086.000000	0.012173
3085.000000	0.012163
3084.000000	0.012163
3083.000000	0.012176
3082.000000	0.012201
3081.000000	0.012229
3080.000000	0.012253
3079.000000	0.012272
3078.000000	0.012283
3077.000000	0.012280
3076.000000	0.012262
3075.000000	0.012234
3074.000000	0.012214
3073.000000	0.012211
3072.000000	0.012224
3071.000000	0.012245
3070.000000	0.012267
3069.000000	0.012282
3068.000000	0.012283
3067.000000	0.012273
3066.000000	0.012258
3065.000000	0.012242
3064.000000	0.012223
3063.000000	0.012198
3062.000000	0.012167
3061.000000	0.012136
3060.000000	0.012108
3059.000000	0.012083
3058.000000	0.012061
3057.000000	0.012040
3056.000000	0.012022
3055.000000	0.012000
3054.000000	0.011971
3053.000000	0.011931
3052.000000	0.011883
3051.000000	0.011830
3050.000000	0.011779
3049.000000	0.011734
3048.000000	0.011695
3047.000000	0.011661
3046.000000	0.011629
3045.000000	0.011600
3044.000000	0.011567
3043.000000	0.011524
3042.000000	0.011467
3041.000000	0.011403
3040.000000	0.011345
3039.000000	0.011300
3038.000000	0.011260
3037.000000	0.011216
3036.000000	0.011165
3035.000000	0.011120
3034.000000	0.011091
3033.000000	0.011076
3032.000000	0.011065
3031.000000	0.011047
3030.000000	0.011021
3029.000000	0.010989
3028.000000	0.010956
3027.000000	0.010919
3026.000000	0.010875
3025.000000	0.010828
3024.000000	0.010782
3023.000000	0.010748
3022.000000	0.010728
3021.000000	0.010715
3020.000000	0.010702
3019.000000	0.010689
3018.000000	0.010685
3017.000000	0.010692
3016.000000	0.010705
3015.000000	0.010720
3014.000000	0.010738
3013.000000	0.010758
3012.000000	0.010777
3011.000000	0.010793
3010.000000	0.010808
3009.000000	0.010823
3008.000000	0.010836
3007.000000	0.010845
3006.000000	0.010850
3005.000000	0.010856
3004.000000	0.010864
3003.000000	0.010866
3002.000000	0.010855
3001.000000	0.010829
3000.000000	0.010791
2999.000000	0.010749
2998.000000	0.010713
2997.000000	0.010692
2996.000000	0.010692
2995.000000	0.010712
2994.000000	0.010745
2993.000000	0.010780
2992.000000	0.010808
2991.000000	0.010823
2990.000000	0.010834
2989.000000	0.010850
2988.000000	0.010884
2987.000000	0.010941
2986.000000	0.011019
2985.000000	0.011109
2984.000000	0.011191
2983.000000	0.011246
2982.000000	0.011274
2981.000000	0.011294
2980.000000	0.011326
2979.000000	0.011376
2978.000000	0.011436
2977.000000	0.011501
2976.000000	0.011570
2975.000000	0.011647
2974.000000	0.011724
2973.000000	0.011794
2972.000000	0.011858
2971.000000	0.011938
2970.000000	0.012059
2969.000000	0.012228
2968.000000	0.012429
2967.000000	0.012635
2966.000000	0.012829
2965.000000	0.013014
2964.000000	0.013198
2963.000000	0.013387
2962.000000	0.013581
2961.000000	0.013774
2960.000000	0.013957
2959.000000	0.014121
2958.000000	0.014263
2957.000000	0.014378
2956.000000	0.014462
2955.000000	0.014508
2954.000000	0.014521
2953.000000	0.014516
2952.000000	0.014508
2951.000000	0.014502
2950.000000	0.014505
2949.000000	0.014527
2948.000000	0.014580
2947.000000	0.014669
2946.000000	0.014792
2945.000000	0.014947
2944.000000	0.015133
2943.000000	0.015354
2942.000000	0.015621
2941.000000	0.015943
2940.000000	0.016317
2939.000000	0.016724
2938.000000	0.017140
2937.000000	0.017558
2936.000000	0.017987
2935.000000	0.018443
2934.000000	0.018929
2933.000000	0.019438
2932.000000	0.019951
2931.000000	0.020448
2930.000000	0.020913
2929.000000	0.021346
2928.000000	0.021753
2927.000000	0.022132
2926.000000	0.022470
2925.000000	0.022742
2924.000000	0.022929
2923.000000	0.023021
2922.000000	0.023017
2921.000000	0.022921
2920.000000	0.022730
2919.000000	0.022442
2918.000000	0.022054
2917.000000	0.021579
2916.000000	0.021047
2915.000000	0.020491
2914.000000	0.019935
2913.000000	0.019399
2912.000000	0.018892
2911.000000	0.018421
2910.000000	0.017986
2909.000000	0.017583
2908.000000	0.017215
2907.000000	0.016889
2906.000000	0.016612
2905.000000	0.016382
2904.000000	0.016184
2903.000000	0.015999
2902.000000	0.015814
2901.000000	0.015628
2900.000000	0.015444
2899.000000	0.015266
2898.000000	0.015097
2897.000000	0.014940
2896.000000	0.014795
2895.000000	0.014655
2894.000000	0.014515
2893.000000	0.014372
2892.000000	0.014235
2891.000000	0.014108
2890.000000	0.013992
2889.000000	0.013885
2888.000000	0.013789
2887.000000	0.013706
2886.000000	0.013637
2885.000000	0.013578
2884.000000	0.013526
2883.000000	0.013478
2882.000000	0.013433
2881.000000	0.013398
2880.000000	0.013382
2879.000000	0.013389
2878.000000	0.013415
2877.000000	0.013453
2876.000000	0.013497
2875.000000	0.013547
2874.000000	0.013594
2873.000000	0.013633
2872.000000	0.013658
2871.000000	0.013670
2870.000000	0.013672
2869.000000	0.013673
2868.000000	0.013687
2867.000000	0.013729
2866.000000	0.013810
2865.000000	0.013939
2864.000000	0.014120
2863.000000	0.014353
2862.000000	0.014634
2861.000000	0.014958
2860.000000	0.015324
2859.000000	0.015725
2858.000000	0.016146
2857.000000	0.016564
2856.000000	0.016953
2855.000000	0.017287
2854.000000	0.017537
2853.000000	0.017677
2852.000000	0.017687
2851.000000	0.017557
2850.000000	0.017281
2849.000000	0.016868
2848.000000	0.016350
2847.000000	0.015782
2846.000000	0.015213
2845.000000	0.014676
2844.000000	0.014185
2843.000000	0.013751
2842.000000	0.013374
2841.000000	0.013047
2840.000000	0.012761
2839.000000	0.012512
2838.000000	0.012302
2837.000000	0.012130
2836.000000	0.011989
2835.000000	0.011867
2834.000000	0.011756
2833.000000	0.011655
2832.000000	0.011564
2831.000000	0.011482
2830.000000	0.011407
2829.000000	0.011334
2828.000000	0.011258
2827.000000	0.011183
2826.000000	0.011116
2825.000000	0.011062
2824.000000	0.011021
2823.000000	0.010983
2822.000000	0.010939
2821.000000	0.010883
2820.000000	0.010818
2819.000000	0.010751
2818.000000	0.010692
2817.000000	0.010640
2816.000000	0.010594
2815.000000	0.010554
2814.000000	0.010527
2813.000000	0.010515
2812.000000	0.010510
2811.000000	0.010494
2810.000000	0.010457
2809.000000	0.010408
2808.000000	0.010365
2807.000000	0.010342
2806.000000	0.010335
2805.000000	0.010328
2804.000000	0.010309
2803.000000	0.010280
2802.000000	0.010252
2801.000000	0.010229
2800.000000	0.010207
2799.000000	0.010181
2798.000000	0.010155
2797.000000	0.010140
2796.000000	0.010138
2795.000000	0.010141
2794.000000	0.010136
2793.000000	0.010120
2792.000000	0.010097
2791.000000	0.010077
2790.000000	0.010060
2789.000000	0.010043
2788.000000	0.010023
2787.000000	0.009998
2786.000000	0.009966
2785.000000	0.009931
2784.000000	0.009897
2783.000000	0.009867
2782.000000	0.009837
2781.000000	0.009803
2780.000000	0.009765
2779.000000	0.009734
2778.000000	0.009720
2777.000000	0.009725
2776.000000	0.009737
2775.000000	0.009741
2774.000000	0.009727
2773.000000	0.009698
2772.000000	0.009663
2771.000000	0.009634
2770.000000	0.009616
2769.000000	0.009606
2768.000000	0.009597
2767.000000	0.009586
2766.000000	0.009572
2765.000000	0.009562
2764.000000	0.009556
2763.000000	0.009551
2762.000000	0.009543
2761.000000	0.009530
2760.000000	0.009516
2759.000000	0.009501
2758.000000	0.009488
2757.000000	0.009479
2756.000000	0.009474
2755.000000	0.009468
2754.000000	0.009459
2753.000000	0.009449
2752.000000	0.009441
2751.000000	0.009437
2750.000000	0.009433
2749.000000	0.009420
2748.000000	0.009392
2747.000000	0.009356
2746.000000	0.009322
2745.000000	0.009301
2744.000000	0.009295
2743.000000	0.009297
2742.000000	0.009292
2741.000000	0.009275
2740.000000	0.009251
2739.000000	0.009231
2738.000000	0.009223
2737.000000	0.009221
2736.000000	0.009210
2735.000000	0.009188
2734.000000	0.009168
2733.000000	0.009165
2732.000000	0.009180
2731.000000	0.009199
2730.000000	0.009206
2729.000000	0.009197
2728.000000	0.009183
2727.000000	0.009169
2726.000000	0.009155
2725.000000	0.009134
2724.000000	0.009106
2723.000000	0.009082
2722.000000	0.009071
2721.000000	0.009075
2720.000000	0.009081
2719.000000	0.009078
2718.000000	0.009061
2717.000000	0.009036
2716.000000	0.009009
2715.000000	0.008982
2714.000000	0.008959
2713.000000	0.008941
2712.000000	0.008932
2711.000000	0.008935
2710.000000	0.008947
2709.000000	0.008964
2708.000000	0.008982
2707.000000	0.008994
2706.000000	0.008994
2705.000000	0.008979
2704.000000	0.008953
2703.000000	0.008926
2702.000000	0.008906
2701.000000	0.008892
2700.000000	0.008885
2699.000000	0.008878
2698.000000	0.008866
2697.000000	0.008846
2696.000000	0.008825
2695.000000	0.008815
2694.000000	0.008823
2693.000000	0.008845
2692.000000	0.008866
2691.000000	0.008878
2690.000000	0.008879
2689.000000	0.008869
2688.000000	0.008849
2687.000000	0.008824
2686.000000	0.008802
2685.000000	0.008786
2684.000000	0.008774
2683.000000	0.008763
2682.000000	0.008756
2681.000000	0.008756
2680.000000	0.008763
2679.000000	0.008771
2678.000000	0.008773
2677.000000	0.008767
2676.000000	0.008754
2675.000000	0.008744
2674.000000	0.008744
2673.000000	0.008756
2672.000000	0.008770
2671.000000	0.008777
2670.000000	0.008771
2669.000000	0.008755
2668.000000	0.008736
2667.000000	0.008716
2666.000000	0.008700
2665.000000	0.008687
2664.000000	0.008676
2663.000000	0.008663
2662.000000	0.008648
2661.000000	0.008635
2660.000000	0.008629
2659.000000	0.008634
2658.000000	0.008646
2657.000000	0.008655
2656.000000	0.008650
2655.000000	0.008627
2654.000000	0.008588
2653.000000	0.008542
2652.000000	0.008500
2651.000000	0.008465
2650.000000	0.008438
2649.000000	0.008420
2648.000000	0.008409
2647.000000	0.008405
2646.000000	0.008402
2645.000000	0.008394
2644.000000	0.008376
2643.000000	0.008353
2642.000000	0.008337
2641.000000	0.008335
2640.000000	0.008339
2639.000000	0.008333
2638.000000	0.008305
2637.000000	0.008264
2636.000000	0.008221
2635.000000	0.008185
2634.000000	0.008161
2633.000000	0.008148
2632.000000	0.008147
2631.000000	0.008152
2630.000000	0.008156
2629.000000	0.008154
2628.000000	0.008146
2627.000000	0.008131
2626.000000	0.008108
2625.000000	0.008073
2624.000000	0.008028
2623.000000	0.007984
2622.000000	0.007952
2621.000000	0.007936
2620.000000	0.007930
2619.000000	0.007924
2618.000000	0.007915
2617.000000	0.007904
2616.000000	0.007896
2615.000000	0.007890
2614.000000	0.007886
2613.000000	0.007885
2612.000000	0.007885
2611.000000	0.007883
2610.000000	0.007870
2609.000000	0.007846
2608.000000	0.007817
2607.000000	0.007790
2606.000000	0.007771
2605.000000	0.007765
2604.000000	0.007770
2603.000000	0.007779
2602.000000	0.007779
2601.000000	0.007763
2600.000000	0.007734
2599.000000	0.007705
2598.000000	0.007686
2597.000000	0.007679
2596.000000	0.007674
2595.000000	0.007663
2594.000000	0.007644
2593.000000	0.007625
2592.000000	0.007619
2591.000000	0.007630
2590.000000	0.007644
2589.000000	0.007640
2588.000000	0.007612
2587.000000	0.007569
2586.000000	0.007527
2585.000000	0.007492
2584.000000	0.007458
2583.000000	0.007428
2582.000000	0.007412
2581.000000	0.007417
2580.000000	0.007443
2579.000000	0.007484
2578.000000	0.007527
2577.000000	0.007554
2576.000000	0.007553
2575.000000	0.007525
2574.000000	0.007493
2573.000000	0.007473
2572.000000	0.007467
2571.000000	0.007462
2570.000000	0.007452
2569.000000	0.007442
2568.000000	0.007444
2567.000000	0.007466
2566.000000	0.007504
2565.000000	0.007537
2564.000000	0.007547
2563.000000	0.007527
2562.000000	0.007491
2561.000000	0.007452
2560.000000	0.007415
2559.000000	0.007370
2558.000000	0.007319
2557.000000	0.007274
2556.000000	0.007252
2555.000000	0.007261
2554.000000	0.007293
2553.000000	0.007322
2552.000000	0.007330
2551.000000	0.007318
2550.000000	0.007306
2549.000000	0.007311
2548.000000	0.007333
2547.000000	0.007353
2546.000000	0.007355
2545.000000	0.007336
2544.000000	0.007307
2543.000000	0.007285
2542.000000	0.007282
2541.000000	0.007301
2540.000000	0.007328
2539.000000	0.007346
2538.000000	0.007349
2537.000000	0.007342
2536.000000	0.007337
2535.000000	0.007339
2534.000000	0.007346
2533.000000	0.007352
2532.000000	0.007353
2531.000000	0.007347
2530.000000	0.007333
2529.000000	0.007310
2528.000000	0.007280
2527.000000	0.007261
2526.000000	0.007266
2525.000000	0.007285
2524.000000	0.007292
2523.000000	0.007275
2522.000000	0.007252
2521.000000	0.007253
2520.000000	0.007285
2519.000000	0.007327
2518.000000	0.007351
2517.000000	0.007344
2516.000000	0.007315
2515.000000	0.007278
2514.000000	0.007243
2513.000000	0.007205
2512.000000	0.007163
2511.000000	0.007128
2510.000000	0.007125
2509.000000	0.007158
2508.000000	0.007208
2507.000000	0.007249
2506.000000	0.007271
2505.000000	0.007282
2504.000000	0.007291
2503.000000	0.007297
2502.000000	0.007296
2501.000000	0.007285
2500.000000	0.007268
2499.000000	0.007245
2498.000000	0.007221
2497.000000	0.007193
2496.000000	0.007163
2495.000000	0.007141
2494.000000	0.007136
2493.000000	0.007142
2492.000000	0.007139
2491.000000	0.007116
2490.000000	0.007092
2489.000000	0.007094
2488.000000	0.007130
2487.000000	0.007184
2486.000000	0.007230
2485.000000	0.007244
2484.000000	0.007214
2483.000000	0.007142
2482.000000	0.007052
2481.000000	0.006981
2480.000000	0.006955
2479.000000	0.006969
2478.000000	0.007000
2477.000000	0.007022
2476.000000	0.007024
2475.000000	0.007016
2474.000000	0.007020
2473.000000	0.007040
2472.000000	0.007065
2471.000000	0.007080
2470.000000	0.007085
2469.000000	0.007089
2468.000000	0.007095
2467.000000	0.007098
2466.000000	0.007096
2465.000000	0.007092
2464.000000	0.007088
2463.000000	0.007085
2462.000000	0.007084
2461.000000	0.007082
2460.000000	0.007070
2459.000000	0.007043
2458.000000	0.007019
2457.000000	0.007014
2456.000000	0.007030
2455.000000	0.007047
2454.000000	0.007053
2453.000000	0.007047
2452.000000	0.007031
2451.000000	0.007007
2450.000000	0.006987
2449.000000	0.006987
2448.000000	0.007008
2447.000000	0.007029
2446.000000	0.007033
2445.000000	0.007018
2444.000000	0.006992
2443.000000	0.006959
2442.000000	0.006922
2441.000000	0.006899
2440.000000	0.006908
2439.000000	0.006951
2438.000000	0.007005
2437.000000	0.007032
2436.000000	0.007009
2435.000000	0.006942
2434.000000	0.006865
2433.000000	0.006822
2432.000000	0.006833
2431.000000	0.006882
2430.000000	0.006931
2429.000000	0.006949
2428.000000	0.006930
2427.000000	0.006895
2426.000000	0.006875
2425.000000	0.006885
2424.000000	0.006911
2423.000000	0.006928
2422.000000	0.006922
2421.000000	0.006904
2420.000000	0.006889
2419.000000	0.006879
2418.000000	0.006868
2417.000000	0.006855
2416.000000	0.006852
2415.000000	0.006868
2414.000000	0.006902
2413.000000	0.006940
2412.000000	0.006960
2411.000000	0.006954
2410.000000	0.006931
2409.000000	0.006902
2408.000000	0.006870
2407.000000	0.006835
2406.000000	0.006804
2405.000000	0.006792
2404.000000	0.006809
2403.000000	0.006846
2402.000000	0.006885
2401.000000	0.006908
2400.000000	0.006902
2399.000000	0.006871
2398.000000	0.006837
2397.000000	0.006823
2396.000000	0.006834
2395.000000	0.006853
2394.000000	0.006861
2393.000000	0.006851
2392.000000	0.006832
2391.000000	0.006816
2390.000000	0.006817
2389.000000	0.006836
2388.000000	0.006864
2387.000000	0.006887
2386.000000	0.006895
2385.000000	0.006888
2384.000000	0.006870
2383.000000	0.006846
2382.000000	0.006822
2381.000000	0.006798
2380.000000	0.006772
2379.000000	0.006753
2378.000000	0.006757
2377.000000	0.006795
2376.000000	0.006851
2375.000000	0.006897
2374.000000	0.006914
2373.000000	0.006902
2372.000000	0.006870
2371.000000	0.006832
2370.000000	0.006804
2369.000000	0.006796
2368.000000	0.006802
2367.000000	0.006803
2366.000000	0.006788
2365.000000	0.006764
2364.000000	0.006755
2363.000000	0.006792
2362.000000	0.006885
2361.000000	0.006989
2360.000000	0.007045
2359.000000	0.007024
2358.000000	0.006951
2357.000000	0.006880
2356.000000	0.006847
2355.000000	0.006866
2354.000000	0.006907
2353.000000	0.006924
2352.000000	0.006898
2351.000000	0.006859
2350.000000	0.006849
2349.000000	0.006874
2348.000000	0.006913
2347.000000	0.006935
2346.000000	0.006933
2345.000000	0.006944
2344.000000	0.006998
2343.000000	0.007089
2342.000000	0.007159
2341.000000	0.007161
2340.000000	0.007103
2339.000000	0.007030
2338.000000	0.006977
2337.000000	0.006952
2336.000000	0.006943
2335.000000	0.006938
2334.000000	0.006930
2333.000000	0.006921
2332.000000	0.006915
2331.000000	0.006910
2330.000000	0.006909
2329.000000	0.006919
2328.000000	0.006964
2327.000000	0.007046
2326.000000	0.007142
2325.000000	0.007206
2324.000000	0.007207
2323.000000	0.007162
2322.000000	0.007114
2321.000000	0.007104
2320.000000	0.007132
2319.000000	0.007168
2318.000000	0.007179
2317.000000	0.007151
2316.000000	0.007086
2315.000000	0.007001
2314.000000	0.006921
2313.000000	0.006866
2312.000000	0.006840
2311.000000	0.006831
2310.000000	0.006829
2309.000000	0.006839
2308.000000	0.006860
2307.000000	0.006883
2306.000000	0.006889
2305.000000	0.006881
2304.000000	0.006869
2303.000000	0.006864
2302.000000	0.006869
2301.000000	0.006877
2300.000000	0.006885
2299.000000	0.006888
2298.000000	0.006891
2297.000000	0.006898
2296.000000	0.006909
2295.000000	0.006906
2294.000000	0.006873
2293.000000	0.006821
2292.000000	0.006779
2291.000000	0.006779
2290.000000	0.006827
2289.000000	0.006897
2288.000000	0.006950
2287.000000	0.006957
2286.000000	0.006920
2285.000000	0.006866
2284.000000	0.006829
2283.000000	0.006820
2282.000000	0.006820
2281.000000	0.006803
2280.000000	0.006753
2279.000000	0.006684
2278.000000	0.006621
2277.000000	0.006581
2276.000000	0.006562
2275.000000	0.006552
2274.000000	0.006552
2273.000000	0.006568
2272.000000	0.006599
2271.000000	0.006628
2270.000000	0.006643
2269.000000	0.006654
2268.000000	0.006677
2267.000000	0.006709
2266.000000	0.006720
2265.000000	0.006672
2264.000000	0.006567
2263.000000	0.006459
2262.000000	0.006420
2261.000000	0.006478
2260.000000	0.006596
2259.000000	0.006705
2258.000000	0.006751
2257.000000	0.006710
2256.000000	0.006594
2255.000000	0.006449
2254.000000	0.006353
2253.000000	0.006357
2252.000000	0.006443
2251.000000	0.006542
2250.000000	0.006590
2249.000000	0.006569
2248.000000	0.006499
2247.000000	0.006420
2246.000000	0.006371
2245.000000	0.006361
2244.000000	0.006360
2243.000000	0.006336
2242.000000	0.006300
2241.000000	0.006287
2240.000000	0.006314
2239.000000	0.006364
2238.000000	0.006424
2237.000000	0.006499
2236.000000	0.006570
2235.000000	0.006587
2234.000000	0.006528
2233.000000	0.006433
2232.000000	0.006372
2231.000000	0.006379
2230.000000	0.006438
2229.000000	0.006509
2228.000000	0.006565
2227.000000	0.006593
2226.000000	0.006581
2225.000000	0.006522
2224.000000	0.006436
2223.000000	0.006368
2222.000000	0.006357
2221.000000	0.006389
2220.000000	0.006416
2219.000000	0.006415
2218.000000	0.006415
2217.000000	0.006439
2216.000000	0.006451
2215.000000	0.006400
2214.000000	0.006294
2213.000000	0.006195
2212.000000	0.006142
2211.000000	0.006118
2210.000000	0.006092
2209.000000	0.006056
2208.000000	0.006020
2207.000000	0.005999
2206.000000	0.006022
2205.000000	0.006107
2204.000000	0.006220
2203.000000	0.006292
2202.000000	0.006282
2201.000000	0.006219
2200.000000	0.006168
2199.000000	0.006171
2198.000000	0.006227
2197.000000	0.006306
2196.000000	0.006369
2195.000000	0.006405
2194.000000	0.006441
2193.000000	0.006498
2192.000000	0.006532
2191.000000	0.006470
2190.000000	0.006306
2189.000000	0.006129
2188.000000	0.006037
2187.000000	0.006054
2186.000000	0.006139
2185.000000	0.006253
2184.000000	0.006373
2183.000000	0.006460
2182.000000	0.006476
2181.000000	0.006418
2180.000000	0.006339
2179.000000	0.006287
2178.000000	0.006243
2177.000000	0.006140
2176.000000	0.005969
2175.000000	0.005825
2174.000000	0.005815
2173.000000	0.005915
2172.000000	0.005996
2171.000000	0.005990
2170.000000	0.005968
2169.000000	0.006013
2168.000000	0.006089
2167.000000	0.006103
2166.000000	0.006036
2165.000000	0.005950
2164.000000	0.005883
2163.000000	0.005823
2162.000000	0.005766
2161.000000	0.005710
2160.000000	0.005605
2159.000000	0.005399
2158.000000	0.005141
2157.000000	0.004936
2156.000000	0.004814
2155.000000	0.004760
2154.000000	0.004798
2153.000000	0.004946
2152.000000	0.005128
2151.000000	0.005230
2150.000000	0.005235
2149.000000	0.005229
2148.000000	0.005293
2147.000000	0.005441
2146.000000	0.005661
2145.000000	0.005911
2144.000000	0.006099
2143.000000	0.006132
2142.000000	0.006016
2141.000000	0.005855
2140.000000	0.005750
2139.000000	0.005733
2138.000000	0.005800
2137.000000	0.005931
2136.000000	0.006071
2135.000000	0.006146
2134.000000	0.006142
2133.000000	0.006116
2132.000000	0.006113
2131.000000	0.006127
2130.000000	0.006127
2129.000000	0.006110
2128.000000	0.006081
2127.000000	0.006044
2126.000000	0.006015
2125.000000	0.006024
2124.000000	0.006076
2123.000000	0.006131
2122.000000	0.006142
2121.000000	0.006116
2120.000000	0.006097
2119.000000	0.006111
2118.000000	0.006138
2117.000000	0.006144
2116.000000	0.006130
2115.000000	0.006131
2114.000000	0.006175
2113.000000	0.006247
2112.000000	0.006297
2111.000000	0.006301
2110.000000	0.006300
2109.000000	0.006351
2108.000000	0.006452
2107.000000	0.006539
2106.000000	0.006546
2105.000000	0.006475
2104.000000	0.006374
2103.000000	0.006296
2102.000000	0.006259
2101.000000	0.006243
2100.000000	0.006214
2099.000000	0.006164
2098.000000	0.006115
2097.000000	0.006089
2096.000000	0.006082
2095.000000	0.006078
2094.000000	0.006083
2093.000000	0.006109
2092.000000	0.006154
2091.000000	0.006204
2090.000000	0.006257
2089.000000	0.006301
2088.000000	0.006291
2087.000000	0.006199
2086.000000	0.006070
2085.000000	0.005990
2084.000000	0.005990
2083.000000	0.006019
2082.000000	0.006024
2081.000000	0.006017
2080.000000	0.006036
2079.000000	0.006092
2078.000000	0.006164
2077.000000	0.006222
2076.000000	0.006236
2075.000000	0.006188
2074.000000	0.006101
2073.000000	0.006023
2072.000000	0.005979
2071.000000	0.005951
2070.000000	0.005920
2069.000000	0.005886
2068.000000	0.005846
2067.000000	0.005779
2066.000000	0.005680
2065.000000	0.005588
2064.000000	0.005545
2063.000000	0.005549
2062.000000	0.005572
2061.000000	0.005591
2060.000000	0.005605
2059.000000	0.005620
2058.000000	0.005651
2057.000000	0.005705
2056.000000	0.005767
2055.000000	0.005812
2054.000000	0.005846
2053.000000	0.005894
2052.000000	0.005941
2051.000000	0.005935
2050.000000	0.005859
2049.000000	0.005773
2048.000000	0.005747
2047.000000	0.005780
2046.000000	0.005808
2045.000000	0.005781
2044.000000	0.005690
2043.000000	0.005565
2042.000000	0.005465
2041.000000	0.005442
2040.000000	0.005483
2039.000000	0.005522
2038.000000	0.005522
2037.000000	0.005490
2036.000000	0.005431
2035.000000	0.005336
2034.000000	0.005251
2033.000000	0.005269
2032.000000	0.005400
2031.000000	0.005524
2030.000000	0.005527
2029.000000	0.005442
2028.000000	0.005395
2027.000000	0.005446
2026.000000	0.005541
2025.000000	0.005582
2024.000000	0.005522
2023.000000	0.005391
2022.000000	0.005265
2021.000000	0.005208
2020.000000	0.005239
2019.000000	0.005338
2018.000000	0.005469
2017.000000	0.005561
2016.000000	0.005519
2015.000000	0.005322
2014.000000	0.005094
2013.000000	0.005023
2012.000000	0.005179
2011.000000	0.005444
2010.000000	0.005628
2009.000000	0.005616
2008.000000	0.005432
2007.000000	0.005193
2006.000000	0.005023
2005.000000	0.004951
2004.000000	0.004917
2003.000000	0.004887
2002.000000	0.004929
2001.000000	0.005113
2000.000000	0.005374
1999.000000	0.005544
1998.000000	0.005523
1997.000000	0.005357
1996.000000	0.005180
1995.000000	0.005109
1994.000000	0.005209
1993.000000	0.005457
1992.000000	0.005728
1991.000000	0.005873
1990.000000	0.005858
1989.000000	0.005775
1988.000000	0.005721
1987.000000	0.005716
1986.000000	0.005735
1985.000000	0.005754
1984.000000	0.005743
1983.000000	0.005683
1982.000000	0.005606
1981.000000	0.005579
1980.000000	0.005609
1979.000000	0.005625
1978.000000	0.005586
1977.000000	0.005553
1976.000000	0.005595
1975.000000	0.005678
1974.000000	0.005712
1973.000000	0.005665
1972.000000	0.005582
1971.000000	0.005497
1970.000000	0.005401
1969.000000	0.005286
1968.000000	0.005192
1967.000000	0.005179
1966.000000	0.005266
1965.000000	0.005377
1964.000000	0.005390
1963.000000	0.005238
1962.000000	0.004972
1961.000000	0.004730
1960.000000	0.004642
1959.000000	0.004756
1958.000000	0.005018
1957.000000	0.005314
1956.000000	0.005539
1955.000000	0.005673
1954.000000	0.005763
1953.000000	0.005829
1952.000000	0.005818
1951.000000	0.005686
1950.000000	0.005489
1949.000000	0.005338
1948.000000	0.005279
1947.000000	0.005273
1946.000000	0.005278
1945.000000	0.005295
1944.000000	0.005324
1943.000000	0.005334
1942.000000	0.005298
1941.000000	0.005230
1940.000000	0.005179
1939.000000	0.005192
1938.000000	0.005282
1937.000000	0.005405
1936.000000	0.005487
1935.000000	0.005492
1934.000000	0.005458
1933.000000	0.005444
1932.000000	0.005465
1931.000000	0.005483
1930.000000	0.005476
1929.000000	0.005456
1928.000000	0.005438
1927.000000	0.005424
1926.000000	0.005414
1925.000000	0.005411
1924.000000	0.005406
1923.000000	0.005403
1922.000000	0.005421
1921.000000	0.005471
1920.000000	0.005520
1919.000000	0.005517
1918.000000	0.005453
1917.000000	0.005380
1916.000000	0.005339
1915.000000	0.005331
1914.000000	0.005346
1913.000000	0.005374
1912.000000	0.005407
1911.000000	0.005432
1910.000000	0.005437
1909.000000	0.005415
1908.000000	0.005367
1907.000000	0.005309
1906.000000	0.005272
1905.000000	0.005277
1904.000000	0.005310
1903.000000	0.005358
1902.000000	0.005432
1901.000000	0.005523
1900.000000	0.005579
1899.000000	0.005557
1898.000000	0.005474
1897.000000	0.005391
1896.000000	0.005335
1895.000000	0.005300
1894.000000	0.005287
1893.000000	0.005309
1892.000000	0.005354
1891.000000	0.005397
1890.000000	0.005430
1889.000000	0.005460
1888.000000	0.005460
1887.000000	0.005402
1886.000000	0.005307
1885.000000	0.005238
1884.000000	0.005236
1883.000000	0.005292
1882.000000	0.005365
1881.000000	0.005422
1880.000000	0.005447
1879.000000	0.005454
1878.000000	0.005461
1877.000000	0.005467
1876.000000	0.005443
1875.000000	0.005374
1874.000000	0.005295
1873.000000	0.005253
1872.000000	0.005254
1871.000000	0.005266
1870.000000	0.005274
1869.000000	0.005288
1868.000000	0.005300
1867.000000	0.005290
1866.000000	0.005277
1865.000000	0.005300
1864.000000	0.005352
1863.000000	0.005394
1862.000000	0.005411
1861.000000	0.005418
1860.000000	0.005411
1859.000000	0.005370
1858.000000	0.005308
1857.000000	0.005264
1856.000000	0.005250
1855.000000	0.005247
1854.000000	0.005258
1853.000000	0.005298
1852.000000	0.005354
1851.000000	0.005387
1850.000000	0.005367
1849.000000	0.005300
1848.000000	0.005220
1847.000000	0.005158
1846.000000	0.005133
1845.000000	0.005132
1844.000000	0.005132
1843.000000	0.005122
1842.000000	0.005121
1841.000000	0.005144
1840.000000	0.005170
1839.000000	0.005167
1838.000000	0.005152
1837.000000	0.005167
1836.000000	0.005202
1835.000000	0.005204
1834.000000	0.005160
1833.000000	0.005114
1832.000000	0.005098
1831.000000	0.005096
1830.000000	0.005083
1829.000000	0.005075
1828.000000	0.005096
1827.000000	0.005146
1826.000000	0.005191
1825.000000	0.005203
1824.000000	0.005191
1823.000000	0.005179
1822.000000	0.005187
1821.000000	0.005209
1820.000000	0.005220
1819.000000	0.005203
1818.000000	0.005169
1817.000000	0.005150
1816.000000	0.005143
1815.000000	0.005126
1814.000000	0.005093
1813.000000	0.005064
1812.000000	0.005056
1811.000000	0.005055
1810.000000	0.005054
1809.000000	0.005067
1808.000000	0.005096
1807.000000	0.005127
1806.000000	0.005154
1805.000000	0.005188
1804.000000	0.005222
1803.000000	0.005225
1802.000000	0.005183
1801.000000	0.005115
1800.000000	0.005054
1799.000000	0.005011
1798.000000	0.004991
1797.000000	0.004997
1796.000000	0.005013
1795.000000	0.005019
1794.000000	0.005001
1793.000000	0.004962
1792.000000	0.004922
1791.000000	0.004895
1790.000000	0.004885
1789.000000	0.004896
1788.000000	0.004918
1787.000000	0.004928
1786.000000	0.004914
1785.000000	0.004887
1784.000000	0.004845
1783.000000	0.004791
1782.000000	0.004744
1781.000000	0.004714
1780.000000	0.004702
1779.000000	0.004685
1778.000000	0.004652
1777.000000	0.004599
1776.000000	0.004519
1775.000000	0.004431
1774.000000	0.004359
1773.000000	0.004317
1772.000000	0.004327
1771.000000	0.004388
1770.000000	0.004468
1769.000000	0.004540
1768.000000	0.004567
1767.000000	0.004529
1766.000000	0.004483
1765.000000	0.004504
1764.000000	0.004605
1763.000000	0.004721
1762.000000	0.004795
1761.000000	0.004852
1760.000000	0.004953
1759.000000	0.005131
1758.000000	0.005401
1757.000000	0.005742
1756.000000	0.006104
1755.000000	0.006447
1754.000000	0.006792
1753.000000	0.007178
1752.000000	0.007589
1751.000000	0.007962
1750.000000	0.008281
1749.000000	0.008586
1748.000000	0.008857
1747.000000	0.009032
1746.000000	0.009087
1745.000000	0.009044
1744.000000	0.008918
1743.000000	0.008708
1742.000000	0.008438
1741.000000	0.008126
1740.000000	0.007744
1739.000000	0.007284
1738.000000	0.006846
1737.000000	0.006537
1736.000000	0.006339
1735.000000	0.006081
1734.000000	0.005685
1733.000000	0.005327
1732.000000	0.005135
1731.000000	0.005046
1730.000000	0.004964
1729.000000	0.004852
1728.000000	0.004732
1727.000000	0.004627
1726.000000	0.004539
1725.000000	0.004461
1724.000000	0.004376
1723.000000	0.004257
1722.000000	0.004125
1721.000000	0.004027
1720.000000	0.003951
1719.000000	0.003794
1718.000000	0.003535
1717.000000	0.003379
1716.000000	0.003467
1715.000000	0.003699
1714.000000	0.003960
1713.000000	0.004222
1712.000000	0.004484
1711.000000	0.004738
1710.000000	0.004984
1709.000000	0.005247
1708.000000	0.005553
1707.000000	0.005902
1706.000000	0.006278
1705.000000	0.006661
1704.000000	0.007029
1703.000000	0.007430
1702.000000	0.007957
1701.000000	0.008553
1700.000000	0.008981
1699.000000	0.009168
1698.000000	0.009364
1697.000000	0.009835
1696.000000	0.010545
1695.000000	0.011204
1694.000000	0.011684
1693.000000	0.012119
1692.000000	0.012584
1691.000000	0.013048
1690.000000	0.013477
1689.000000	0.013864
1688.000000	0.014209
1687.000000	0.014554
1686.000000	0.014991
1685.000000	0.015591
1684.000000	0.016318
1683.000000	0.016990
1682.000000	0.017549
1681.000000	0.018120
1680.000000	0.018730
1679.000000	0.019317
1678.000000	0.019893
1677.000000	0.020549
1676.000000	0.021303
1675.000000	0.022021
1674.000000	0.022604
1673.000000	0.023140
1672.000000	0.023765
1671.000000	0.024501
1670.000000	0.025315
1669.000000	0.026154
1668.000000	0.026920
1667.000000	0.027565
1666.000000	0.028148
1665.000000	0.028777
1664.000000	0.029485
1663.000000	0.030201
1662.000000	0.030852
1661.000000	0.031429
1660.000000	0.031976
1659.000000	0.032490
1658.000000	0.032933
1657.000000	0.033291
1656.000000	0.033634
1655.000000	0.034029
1654.000000	0.034499
1653.000000	0.035040
1652.000000	0.035440
1651.000000	0.035661
1650.000000	0.035900
1649.000000	0.036196
1648.000000	0.036524
1647.000000	0.036875
1646.000000	0.037198
1645.000000	0.037449
1644.000000	0.037654
1643.000000	0.037847
1642.000000	0.038030
1641.000000	0.038192
1640.000000	0.038315
1639.000000	0.038390
1638.000000	0.038449
1637.000000	0.038548
1636.000000	0.038718
1635.000000	0.038879
1634.000000	0.038921
1633.000000	0.038894
1632.000000	0.038856
1631.000000	0.038779
1630.000000	0.038627
1629.000000	0.038382
1628.000000	0.038055
1627.000000	0.037665
1626.000000	0.037231
1625.000000	0.036743
1624.000000	0.036161
1623.000000	0.035486
1622.000000	0.034797
1621.000000	0.034156
1620.000000	0.033564
1619.000000	0.032968
1618.000000	0.032278
1617.000000	0.031452
1616.000000	0.030603
1615.000000	0.029883
1614.000000	0.029302
1613.000000	0.028760
1612.000000	0.028167
1611.000000	0.027518
1610.000000	0.026860
1609.000000	0.026221
1608.000000	0.025604
1607.000000	0.025037
1606.000000	0.024545
1605.000000	0.024093
1604.000000	0.023637
1603.000000	0.023192
1602.000000	0.022797
1601.000000	0.022460
1600.000000	0.022154
1599.000000	0.021872
1598.000000	0.021617
1597.000000	0.021384
1596.000000	0.021167
1595.000000	0.020988
1594.000000	0.020866
1593.000000	0.020783
1592.000000	0.020713
1591.000000	0.020666
1590.000000	0.020659
1589.000000	0.020680
1588.000000	0.020712
1587.000000	0.020776
1586.000000	0.020905
1585.000000	0.021082
1584.000000	0.021268
1583.000000	0.021466
1582.000000	0.021684
1581.000000	0.021882
1580.000000	0.022025
1579.000000	0.022143
1578.000000	0.022303
1577.000000	0.022539
1576.000000	0.022829
1575.000000	0.023134
1574.000000	0.023445
1573.000000	0.023766
1572.000000	0.024109
1571.000000	0.024480
1570.000000	0.024875
1569.000000	0.025250
1568.000000	0.025560
1567.000000	0.025857
1566.000000	0.026213
1565.000000	0.026604
1564.000000	0.026954
1563.000000	0.027251
1562.000000	0.027570
1561.000000	0.027992
1560.000000	0.028415
1559.000000	0.028897
1558.000000	0.029469
1557.000000	0.029880
1556.000000	0.030211
1555.000000	0.030579
1554.000000	0.030938
1553.000000	0.031242
1552.000000	0.031510
1551.000000	0.031781
1550.000000	0.032043
1549.000000	0.032275
1548.000000	0.032478
1547.000000	0.032682
1546.000000	0.032875
1545.000000	0.033004
1544.000000	0.033059
1543.000000	0.033067
1542.000000	0.033045
1541.000000	0.033026
1540.000000	0.033073
1539.000000	0.033123
1538.000000	0.033087
1537.000000	0.033042
1536.000000	0.033026
1535.000000	0.032975
1534.000000	0.032817
1533.000000	0.032579
1532.000000	0.032349
1531.000000	0.032138
1530.000000	0.031936
1529.000000	0.031736
1528.000000	0.031520
1527.000000	0.031266
1526.000000	0.030956
1525.000000	0.030606
1524.000000	0.030268
1523.000000	0.029950
1522.000000	0.029635
1521.000000	0.029344
1520.000000	0.029106
1519.000000	0.028906
1518.000000	0.028703
1517.000000	0.028474
1516.000000	0.028243
1515.000000	0.028028
1514.000000	0.027816
1513.000000	0.027566
1512.000000	0.027230
1511.000000	0.026808
1510.000000	0.026350
1509.000000	0.025885
1508.000000	0.025368
1507.000000	0.024856
1506.000000	0.024460
1505.000000	0.024136
1504.000000	0.023875
1503.000000	0.023656
1502.000000	0.023411
1501.000000	0.023121
1500.000000	0.022805
1499.000000	0.022478
1498.000000	0.022132
1497.000000	0.021788
1496.000000	0.021476
1495.000000	0.021191
1494.000000	0.020945
1493.000000	0.020748
1492.000000	0.020555
1491.000000	0.020282
1490.000000	0.019948
1489.000000	0.019701
1488.000000	0.019596
1487.000000	0.019557
1486.000000	0.019545
1485.000000	0.019569
1484.000000	0.019625
1483.000000	0.019690
1482.000000	0.019753
1481.000000	0.019844
1480.000000	0.019985
1479.000000	0.020162
1478.000000	0.020349
1477.000000	0.020539
1476.000000	0.020739
1475.000000	0.020978
1474.000000	0.021322
1473.000000	0.021827
1472.000000	0.022433
1471.000000	0.022990
1470.000000	0.023462
1469.000000	0.023916
1468.000000	0.024372
1467.000000	0.024799
1466.000000	0.025189
1465.000000	0.025553
1464.000000	0.025875
1463.000000	0.026120
1462.000000	0.026314
1461.000000	0.026512
1460.000000	0.026740
1459.000000	0.027009
1458.000000	0.027356
1457.000000	0.027796
1456.000000	0.028187
1455.000000	0.028450
1454.000000	0.028677
1453.000000	0.028904
1452.000000	0.029093
1451.000000	0.029217
1450.000000	0.029293
1449.000000	0.029350
1448.000000	0.029374
1447.000000	0.029355
1446.000000	0.029318
1445.000000	0.029285
1444.000000	0.029261
1443.000000	0.029225
1442.000000	0.029155
1441.000000	0.029046
1440.000000	0.028926
1439.000000	0.028823
1438.000000	0.028715
1437.000000	0.028533
1436.000000	0.028265
1435.000000	0.027988
1434.000000	0.027780
1433.000000	0.027649
1432.000000	0.027542
1431.000000	0.027413
1430.000000	0.027268
1429.000000	0.027142
1428.000000	0.027037
1427.000000	0.026944
1426.000000	0.026864
1425.000000	0.026780
1424.000000	0.026688
1423.000000	0.026612
1422.000000	0.026584
1421.000000	0.026612
1420.000000	0.026641
1419.000000	0.026609
1418.000000	0.026540
1417.000000	0.026493
1416.000000	0.026478
1415.000000	0.026461
1414.000000	0.026410
1413.000000	0.026331
1412.000000	0.026256
1411.000000	0.026200
1410.000000	0.026154
1409.000000	0.026119
1408.000000	0.026104
1407.000000	0.026101
1406.000000	0.026094
1405.000000	0.026069
1404.000000	0.026025
1403.000000	0.025967
1402.000000	0.025908
1401.000000	0.025843
1400.000000	0.025738
1399.000000	0.025580
1398.000000	0.025402
1397.000000	0.025246
1396.000000	0.025107
1395.000000	0.024950
1394.000000	0.024752
1393.000000	0.024526
1392.000000	0.024309
1391.000000	0.024115
1390.000000	0.023925
1389.000000	0.023709
1388.000000	0.023454
1387.000000	0.023180
1386.000000	0.022920
1385.000000	0.022679
1384.000000	0.022443
1383.000000	0.022195
1382.000000	0.021935
1381.000000	0.021681
1380.000000	0.021440
1379.000000	0.021203
1378.000000	0.020954
1377.000000	0.020683
1376.000000	0.020380
1375.000000	0.020054
1374.000000	0.019735
1373.000000	0.019439
1372.000000	0.019154
1371.000000	0.018867
1370.000000	0.018576
1369.000000	0.018265
1368.000000	0.017926
1367.000000	0.017577
1366.000000	0.017251
1365.000000	0.016965
1364.000000	0.016705
1363.000000	0.016463
1362.000000	0.016256
1361.000000	0.016104
1360.000000	0.016010
1359.000000	0.015959
1358.000000	0.015927
1357.000000	0.015898
1356.000000	0.015879
1355.000000	0.015894
1354.000000	0.015958
1353.000000	0.016065
1352.000000	0.016199
1351.000000	0.016353
1350.000000	0.016536
1349.000000	0.016746
1348.000000	0.016971
1347.000000	0.017199
1346.000000	0.017422
1345.000000	0.017634
1344.000000	0.017835
1343.000000	0.018024
1342.000000	0.018202
1341.000000	0.018367
1340.000000	0.018522
1339.000000	0.018671
1338.000000	0.018806
1337.000000	0.018910
1336.000000	0.018970
1335.000000	0.018983
1334.000000	0.018954
1333.000000	0.018893
1332.000000	0.018804
1331.000000	0.018692
1330.000000	0.018566
1329.000000	0.018437
1328.000000	0.018310
1327.000000	0.018190
1326.000000	0.018077
1325.000000	0.017973
1324.000000	0.017877
1323.000000	0.017788
1322.000000	0.017708
1321.000000	0.017643
1320.000000	0.017593
1319.000000	0.017561
1318.000000	0.017543
1317.000000	0.017533
1316.000000	0.017525
1315.000000	0.017508
1314.000000	0.017465
1313.000000	0.017388
1312.000000	0.017281
1311.000000	0.017155
1310.000000	0.017026
1309.000000	0.016904
1308.000000	0.016794
1307.000000	0.016694
1306.000000	0.016603
1305.000000	0.016519
1304.000000	0.016436
1303.000000	0.016348
1302.000000	0.016251
1301.000000	0.016154
1300.000000	0.016066
1299.000000	0.015992
1298.000000	0.015929
1297.000000	0.015881
1296.000000	0.015859
1295.000000	0.015868
1294.000000	0.015899
1293.000000	0.015940
1292.000000	0.015991
1291.000000	0.016057
1290.000000	0.016141
1289.000000	0.016236
1288.000000	0.016345
1287.000000	0.016476
1286.000000	0.016634
1285.000000	0.016804
1284.000000	0.016956
1283.000000	0.017058
1282.000000	0.017099
1281.000000	0.017101
1280.000000	0.017096
1279.000000	0.017103
1278.000000	0.017111
1277.000000	0.017105
1276.000000	0.017083
1275.000000	0.017054
1274.000000	0.017027
1273.000000	0.017006
1272.000000	0.016995
1271.000000	0.016996
1270.000000	0.017005
1269.000000	0.017025
1268.000000	0.017061
1267.000000	0.017121
1266.000000	0.017197
1265.000000	0.017276
1264.000000	0.017344
1263.000000	0.017399
1262.000000	0.017449
1261.000000	0.017516
1260.000000	0.017616
1259.000000	0.017748
1258.000000	0.017897
1257.000000	0.018049
1256.000000	0.018206
1255.000000	0.018371
1254.000000	0.018546
1253.000000	0.018733
1252.000000	0.018935
1251.000000	0.019151
1250.000000	0.019368
1249.000000	0.019572
1248.000000	0.019758
1247.000000	0.019936
1246.000000	0.020116
1245.000000	0.020308
1244.000000	0.020505
1243.000000	0.020692
1242.000000	0.020847
1241.000000	0.020959
1240.000000	0.021030
1239.000000	0.021060
1238.000000	0.021041
1237.000000	0.020969
1236.000000	0.020847
1235.000000	0.020684
1234.000000	0.020495
1233.000000	0.020294
1232.000000	0.020090
1231.000000	0.019879
1230.000000	0.019643
1229.000000	0.019364
1228.000000	0.019045
1227.000000	0.018707
1226.000000	0.018367
1225.000000	0.018021
1224.000000	0.017654
1223.000000	0.017255
1222.000000	0.016819
1221.000000	0.016346
1220.000000	0.015849
1219.000000	0.015375
1218.000000	0.014997
1217.000000	0.014773
1216.000000	0.014714
1215.000000	0.014772
1214.000000	0.014885
1213.000000	0.015005
1212.000000	0.015116
1211.000000	0.015213
1210.000000	0.015296
1209.000000	0.015371
1208.000000	0.015458
1207.000000	0.015565
1206.000000	0.015682
1205.000000	0.015790
1204.000000	0.015876
1203.000000	0.015940
1202.000000	0.015983
1201.000000	0.016002
1200.000000	0.015989
1199.000000	0.015943
1198.000000	0.015863
1197.000000	0.015756
1196.000000	0.015629
1195.000000	0.015485
1194.000000	0.015335
1193.000000	0.015188
1192.000000	0.015052
1191.000000	0.014919
1190.000000	0.014779
1189.000000	0.014630
1188.000000	0.014489
1187.000000	0.014367
1186.000000	0.014265
1185.000000	0.014178
1184.000000	0.014113
1183.000000	0.014079
1182.000000	0.014070
1181.000000	0.014072
1180.000000	0.014075
1179.000000	0.014082
1178.000000	0.014098
1177.000000	0.014127
1176.000000	0.014168
1175.000000	0.014219
1174.000000	0.014272
1173.000000	0.014327
1172.000000	0.014389
1171.000000	0.014466
1170.000000	0.014553
1169.000000	0.014640
1168.000000	0.014724
1167.000000	0.014812
1166.000000	0.014906
1165.000000	0.015005
1164.000000	0.015098
1163.000000	0.015174
1162.000000	0.015223
1161.000000	0.015243
1160.000000	0.015235
1159.000000	0.015195
1158.000000	0.015113
1157.000000	0.014990
1156.000000	0.014840
1155.000000	0.014683
1154.000000	0.014525
1153.000000	0.014367
1152.000000	0.014210
1151.000000	0.014056
1150.000000	0.013902
1149.000000	0.013737
1148.000000	0.013559
1147.000000	0.013371
1146.000000	0.013183
1145.000000	0.013005
1144.000000	0.012853
1143.000000	0.012733
1142.000000	0.012628
1141.000000	0.012506
1140.000000	0.012346
1139.000000	0.012148
1138.000000	0.011934
1137.000000	0.011733
1136.000000	0.011574
1135.000000	0.011465
1134.000000	0.011386
1133.000000	0.011305
1132.000000	0.011210
1131.000000	0.011115
1130.000000	0.011036
1129.000000	0.010984
1128.000000	0.010964
1127.000000	0.010985
1126.000000	0.011045
1125.000000	0.011124
1124.000000	0.011197
1123.000000	0.011244
1122.000000	0.011265
1121.000000	0.011271
1120.000000	0.011285
1119.000000	0.011317
1118.000000	0.011356
1117.000000	0.011384
1116.000000	0.011399
1115.000000	0.011409
1114.000000	0.011418
1113.000000	0.011414
1112.000000	0.011396
1111.000000	0.011376
1110.000000	0.011371
1109.000000	0.011383
1108.000000	0.011410
1107.000000	0.011451
1106.000000	0.011508
1105.000000	0.011575
1104.000000	0.011646
1103.000000	0.011715
1102.000000	0.011777
1101.000000	0.011827
1100.000000	0.011870
1099.000000	0.011913
1098.000000	0.011956
1097.000000	0.011991
1096.000000	0.012018
1095.000000	0.012050
1094.000000	0.012102
1093.000000	0.012177
1092.000000	0.012277
1091.000000	0.012411
1090.000000	0.012589
1089.000000	0.012807
1088.000000	0.013054
1087.000000	0.013318
1086.000000	0.013587
1085.000000	0.013837
1084.000000	0.014034
1083.000000	0.014158
1082.000000	0.014207
1081.000000	0.014196
1080.000000	0.014139
1079.000000	0.014047
1078.000000	0.013928
1077.000000	0.013793
1076.000000	0.013651
1075.000000	0.013505
1074.000000	0.013355
1073.000000	0.013195
1072.000000	0.013028
1071.000000	0.012870
1070.000000	0.012745
1069.000000	0.012670
1068.000000	0.012643
1067.000000	0.012646
1066.000000	0.012663
1065.000000	0.012684
1064.000000	0.012708
1063.000000	0.012733
1062.000000	0.012752
1061.000000	0.012754
1060.000000	0.012732
1059.000000	0.012688
1058.000000	0.012629
1057.000000	0.012563
1056.000000	0.012490
1055.000000	0.012409
1054.000000	0.012325
1053.000000	0.012252
1052.000000	0.012196
1051.000000	0.012149
1050.000000	0.012098
1049.000000	0.012045
1048.000000	0.012006
1047.000000	0.011993
1046.000000	0.012005
1045.000000	0.012031
1044.000000	0.012068
1043.000000	0.012107
1042.000000	0.012133
1041.000000	0.012137
1040.000000	0.012133
1039.000000	0.012158
1038.000000	0.012247
1037.000000	0.012410
1036.000000	0.012625
1035.000000	0.012851
1034.000000	0.013051
1033.000000	0.013206
1032.000000	0.013311
1031.000000	0.013362
1030.000000	0.013356
1029.000000	0.013298
1028.000000	0.013210
1027.000000	0.013109
1026.000000	0.012995
1025.000000	0.012866
1024.000000	0.012731
1023.000000	0.012615
1022.000000	0.012533
1021.000000	0.012479
1020.000000	0.012428
1019.000000	0.012350
1018.000000	0.012239
1017.000000	0.012112
1016.000000	0.011994
1015.000000	0.011893
1014.000000	0.011791
1013.000000	0.011661
1012.000000	0.011496
1011.000000	0.011314
1010.000000	0.011134
1009.000000	0.010968
1008.000000	0.010812
1007.000000	0.010659
1006.000000	0.010502
1005.000000	0.010341
1004.000000	0.010188
1003.000000	0.010054
1002.000000	0.009940
1001.000000	0.009834
1000.000000	0.009716
999.000000	0.009575
998.000000	0.009415
997.000000	0.009252
996.000000	0.009105
995.000000	0.008983
994.000000	0.008877
993.000000	0.008769
992.000000	0.008647
991.000000	0.008516
990.000000	0.008395
989.000000	0.008306
988.000000	0.008253
987.000000	0.008210
986.000000	0.008143
985.000000	0.008039
984.000000	0.007927
983.000000	0.007847
982.000000	0.007815
981.000000	0.007811
980.000000	0.007810
979.000000	0.007808
978.000000	0.007812
977.000000	0.007823
976.000000	0.007822
975.000000	0.007789
974.000000	0.007726
973.000000	0.007654
972.000000	0.007593
971.000000	0.007542
970.000000	0.007488
969.000000	0.007426
968.000000	0.007362
967.000000	0.007291
966.000000	0.007201
965.000000	0.007092
964.000000	0.006986
963.000000	0.006896
962.000000	0.006810
961.000000	0.006708
960.000000	0.006598
959.000000	0.006505
958.000000	0.006438
957.000000	0.006380
956.000000	0.006312
955.000000	0.006232
954.000000	0.006159
953.000000	0.006105
952.000000	0.006069
951.000000	0.006035
950.000000	0.005983
949.000000	0.005908
948.000000	0.005829
947.000000	0.005768
946.000000	0.005732
945.000000	0.005718
944.000000	0.005718
943.000000	0.005724
942.000000	0.005721
941.000000	0.005704
940.000000	0.005683
939.000000	0.005669
938.000000	0.005657
937.000000	0.005640
936.000000	0.005623
935.000000	0.005611
934.000000	0.005592
933.000000	0.005543
932.000000	0.005463
931.000000	0.005373
930.000000	0.005289
929.000000	0.005217
928.000000	0.005159
927.000000	0.005123
926.000000	0.005105
925.000000	0.005096
924.000000	0.005088
923.000000	0.005082
922.000000	0.005076
921.000000	0.005060
920.000000	0.005029
919.000000	0.004978
918.000000	0.004900
917.000000	0.004801
916.000000	0.004710
915.000000	0.004647
914.000000	0.004599
913.000000	0.004538
912.000000	0.004461
911.000000	0.004393
910.000000	0.004336
909.000000	0.004268
908.000000	0.004184
907.000000	0.004117
906.000000	0.004095
905.000000	0.004104
904.000000	0.004104
903.000000	0.004077
902.000000	0.004031
901.000000	0.003983
900.000000	0.003945
899.000000	0.003926
898.000000	0.003922
897.000000	0.003913
896.000000	0.003883
895.000000	0.003839
894.000000	0.003799
893.000000	0.003776
892.000000	0.003760
891.000000	0.003738
890.000000	0.003710
889.000000	0.003695
888.000000	0.003713
887.000000	0.003774
886.000000	0.003879
885.000000	0.004045
884.000000	0.004309
883.000000	0.004703
882.000000	0.005223
881.000000	0.005841
880.000000	0.006529
879.000000	0.007262
878.000000	0.007994
877.000000	0.008648
876.000000	0.009134
875.000000	0.009369
874.000000	0.009291
873.000000	0.008901
872.000000	0.008277
871.000000	0.007553
870.000000	0.006858
869.000000	0.006274
868.000000	0.005834
867.000000	0.005532
866.000000	0.005325
865.000000	0.005156
864.000000	0.004996
863.000000	0.004854
862.000000	0.004750
861.000000	0.004694
860.000000	0.004686
859.000000	0.004717
858.000000	0.004759
857.000000	0.004777
856.000000	0.004764
855.000000	0.004741
854.000000	0.004725
853.000000	0.004712
852.000000	0.004699
851.000000	0.004690
850.000000	0.004678
849.000000	0.004628
848.000000	0.004520
847.000000	0.004385
846.000000	0.004272
845.000000	0.004208
844.000000	0.004182
843.000000	0.004182
842.000000	0.004194
841.000000	0.004190
840.000000	0.004142
839.000000	0.004047
838.000000	0.003938
837.000000	0.003848
836.000000	0.003798
835.000000	0.003789
834.000000	0.003814
833.000000	0.003845
832.000000	0.003848
831.000000	0.003803
830.000000	0.003731
829.000000	0.003680
828.000000	0.003689
827.000000	0.003749
826.000000	0.003806
825.000000	0.003810
824.000000	0.003775
823.000000	0.003759
822.000000	0.003793
821.000000	0.003851
820.000000	0.003899
819.000000	0.003937
818.000000	0.003980
817.000000	0.004028
816.000000	0.004070
815.000000	0.004109
814.000000	0.004140
813.000000	0.004133
812.000000	0.004065
811.000000	0.003963
810.000000	0.003890
809.000000	0.003873
808.000000	0.003884
807.000000	0.003883
806.000000	0.003857
805.000000	0.003816
804.000000	0.003772
803.000000	0.003740
802.000000	0.003735
801.000000	0.003752
800.000000	0.003768
799.000000	0.003778
798.000000	0.003801
797.000000	0.003854
796.000000	0.003921
795.000000	0.003979
794.000000	0.004025
793.000000	0.004067
792.000000	0.004096
791.000000	0.004100
790.000000	0.004088
789.000000	0.004077
788.000000	0.004066
787.000000	0.004046
786.000000	0.004024
785.000000	0.004032
784.000000	0.004084
783.000000	0.004163
782.000000	0.004239
781.000000	0.004294
780.000000	0.004313
779.000000	0.004287
778.000000	0.004226
777.000000	0.004162
776.000000	0.004130
775.000000	0.004137
774.000000	0.004168
773.000000	0.004203
772.000000	0.004240
771.000000	0.004282
770.000000	0.004329
769.000000	0.004380
768.000000	0.004439
767.000000	0.004504
766.000000	0.004555
765.000000	0.004565
764.000000	0.004524
763.000000	0.004458
762.000000	0.004413
761.000000	0.004412
760.000000	0.004447
759.000000	0.004499
758.000000	0.004569
757.000000	0.004662
756.000000	0.004760
755.000000	0.004830
754.000000	0.004857
753.000000	0.004864
752.000000	0.004880
751.000000	0.004910
750.000000	0.004941
749.000000	0.004958
748.000000	0.004957
747.000000	0.004947
746.000000	0.004946
745.000000	0.004979
744.000000	0.005054
743.000000	0.005142
742.000000	0.005199
741.000000	0.005209
740.000000	0.005206
739.000000	0.005241
738.000000	0.005330
737.000000	0.005441
736.000000	0.005518
735.000000	0.005539
734.000000	0.005538
733.000000	0.005570
732.000000	0.005662
731.000000	0.005803
730.000000	0.005969
729.000000	0.006151
728.000000	0.006340
727.000000	0.006504
726.000000	0.006615
725.000000	0.006682
724.000000	0.006753
723.000000	0.006864
722.000000	0.007000
721.000000	0.007120
720.000000	0.007208
719.000000	0.007296
718.000000	0.007426
717.000000	0.007607
716.000000	0.007809
715.000000	0.007983
714.000000	0.008094
713.000000	0.008132
712.000000	0.008108
711.000000	0.008041
710.000000	0.007958
709.000000	0.007890
708.000000	0.007872
707.000000	0.007915
706.000000	0.007995
705.000000	0.008082
704.000000	0.008165
703.000000	0.008250
702.000000	0.008339
701.000000	0.008409
700.000000	0.008443
699.000000	0.008444
698.000000	0.008420
697.000000	0.008373
696.000000	0.008310
695.000000	0.008262
694.000000	0.008258
693.000000	0.008288
692.000000	0.008313
691.000000	0.008318
690.000000	0.008326
689.000000	0.008364
688.000000	0.008431
687.000000	0.008518
686.000000	0.008618
685.000000	0.008724
684.000000	0.008814
683.000000	0.008875
682.000000	0.008907
681.000000	0.008919
680.000000	0.008923
679.000000	0.008937
678.000000	0.008974
677.000000	0.009033
676.000000	0.009099
675.000000	0.009157
674.000000	0.009216
673.000000	0.009283
672.000000	0.009307
671.000000	0.009201
670.000000	0.008920
669.000000	0.008558
668.000000	0.008436
667.000000	0.008761
666.000000	0.009184
665.000000	0.009475
664.000000	0.009652
663.000000	0.009738
662.000000	0.009754
661.000000	0.009743
660.000000	0.009757
659.000000	0.009812
658.000000	0.009879
657.000000	0.009922
656.000000	0.009913
655.000000	0.009847
654.000000	0.009773
653.000000	0.009758
652.000000	0.009796
651.000000	0.009825
650.000000	0.009812
649.000000	0.009793
648.000000	0.009801
647.000000	0.009823
646.000000	0.009855
645.000000	0.009912
644.000000	0.009981
643.000000	0.010004
642.000000	0.009945
641.000000	0.009835
640.000000	0.009740
639.000000	0.009703
638.000000	0.009726
637.000000	0.009768
636.000000	0.009753
635.000000	0.009650
634.000000	0.009537
633.000000	0.009531
632.000000	0.009646
631.000000	0.009782
630.000000	0.009857
629.000000	0.009885
628.000000	0.009909
627.000000	0.009919
626.000000	0.009895
625.000000	0.009860
624.000000	0.009844
623.000000	0.009844
622.000000	0.009847
621.000000	0.009858
620.000000	0.009875
619.000000	0.009876
618.000000	0.009869
617.000000	0.009904
616.000000	0.009997
615.000000	0.010089
614.000000	0.010118
613.000000	0.010104
612.000000	0.010108
611.000000	0.010134
610.000000	0.010139
609.000000	0.010100
608.000000	0.010027
607.000000	0.009941
606.000000	0.009867
605.000000	0.009835
604.000000	0.009854
603.000000	0.009900
602.000000	0.009952
601.000000	0.010014
600.000000	0.010088
599.000000	0.010149
598.000000	0.010181
597.000000	0.010210
596.000000	0.010262
595.000000	0.010307
594.000000	0.010293
593.000000	0.010211
592.000000	0.010102
591.000000	0.010015
590.000000	0.009975
589.000000	0.009959
588.000000	0.009912
587.000000	0.009795
586.000000	0.009652
585.000000	0.009595
584.000000	0.009691
583.000000	0.009892
582.000000	0.010088
581.000000	0.010195
580.000000	0.010186
579.000000	0.010082
578.000000	0.009968
577.000000	0.009954
576.000000	0.010074
575.000000	0.010250
574.000000	0.010374
573.000000	0.010417
572.000000	0.010420
571.000000	0.010439
570.000000	0.010526
569.000000	0.010695
568.000000	0.010879
567.000000	0.010974
566.000000	0.010979
565.000000	0.011014
564.000000	0.011147
563.000000	0.011283
562.000000	0.011290
561.000000	0.011179
560.000000	0.011068
559.000000	0.011013
558.000000	0.010979
557.000000	0.010948
556.000000	0.010943
555.000000	0.010932
554.000000	0.010835
553.000000	0.010636
552.000000	0.010428
551.000000	0.010330
550.000000	0.010389
549.000000	0.010545
548.000000	0.010670
547.000000	0.010654
546.000000	0.010489
545.000000	0.010270
544.000000	0.010074
543.000000	0.009899
542.000000	0.009745
541.000000	0.009684
540.000000	0.009779
539.000000	0.009977
538.000000	0.010166
537.000000	0.010308
536.000000	0.010437
535.000000	0.010551
534.000000	0.010614
533.000000	0.010639
532.000000	0.010657
531.000000	0.010629
530.000000	0.010468
529.000000	0.010171
528.000000	0.009849
527.000000	0.009622
526.000000	0.009547
525.000000	0.009624
524.000000	0.009793
523.000000	0.009946
522.000000	0.009969
521.000000	0.009826
520.000000	0.009574
519.000000	0.009313
518.000000	0.009126
517.000000	0.009049
516.000000	0.009039
515.000000	0.008997
514.000000	0.008859
513.000000	0.008651
512.000000	0.008432
511.000000	0.008219
510.000000	0.008011
509.000000	0.007854
508.000000	0.007793
507.000000	0.007787
506.000000	0.007746
505.000000	0.007656
504.000000	0.007589
503.000000	0.007589
502.000000	0.007624
501.000000	0.007655
500.000000	0.007688
499.000000	0.007737
498.000000	0.007787
497.000000	0.007808
496.000000	0.007791
495.000000	0.007738
494.000000	0.007651
493.000000	0.007534
492.000000	0.007386
491.000000	0.007201
490.000000	0.006996
489.000000	0.006824
488.000000	0.006716
487.000000	0.006650
486.000000	0.006571
485.000000	0.006435
484.000000	0.006242
483.000000	0.006055
482.000000	0.005987
481.000000	0.006098
480.000000	0.006310
479.000000	0.006465
478.000000	0.006496
477.000000	0.006461
476.000000	0.006387
475.000000	0.006179
474.000000	0.005785
473.000000	0.005363
472.000000	0.005169
471.000000	0.005254
470.000000	0.005461
469.000000	0.005663
468.000000	0.005839
467.000000	0.005985
466.000000	0.006098
465.000000	0.006180
464.000000	0.006140
463.000000	0.005785
462.000000	0.005101
461.000000	0.004429
460.000000	0.004153
459.000000	0.004265
458.000000	0.004376
457.000000	0.004206
456.000000	0.003901
455.000000	0.003699
454.000000	0.003646
453.000000	0.003664
452.000000	0.003699
451.000000	0.003883
450.000000	0.004009
