PE IR       SUBTECH     SPECTRUM    ASCII       PEDS        4.00        
   -1
3S-N10-C015_1.ASC
22/02/18
11:50:29.00
22/02/18
11:50:45.00
uco
Sample 015 By uco Date Friday, February 18 2022
450.000000
#HDR
-1
-1
#GR
cm-1
A
1.0
0.0
4000.000000
-1.000000
3551
8
0.091147
-0.024304
#DATA
4000.000000	0.004959
3999.000000	0.004961
3998.000000	0.004968
3997.000000	0.004972
3996.000000	0.004968
3995.000000	0.004960
3994.000000	0.004953
3993.000000	0.004950
3992.000000	0.004948
3991.000000	0.004946
3990.000000	0.004944
3989.000000	0.004948
3988.000000	0.004960
3987.000000	0.004977
3986.000000	0.004992
3985.000000	0.005003
3984.000000	0.005010
3983.000000	0.005018
3982.000000	0.005029
3981.000000	0.005045
3980.000000	0.005060
3979.000000	0.005070
3978.000000	0.005073
3977.000000	0.005071
3976.000000	0.005068
3975.000000	0.005069
3974.000000	0.005069
3973.000000	0.005062
3972.000000	0.005047
3971.000000	0.005030
3970.000000	0.005018
3969.000000	0.005020
3968.000000	0.005030
3967.000000	0.005043
3966.000000	0.005050
3965.000000	0.005053
3964.000000	0.005056
3963.000000	0.005065
3962.000000	0.005079
3961.000000	0.005092
3960.000000	0.005097
3959.000000	0.005099
3958.000000	0.005104
3957.000000	0.005119
3956.000000	0.005139
3955.000000	0.005155
3954.000000	0.005165
3953.000000	0.005175
3952.000000	0.005191
3951.000000	0.005213
3950.000000	0.005229
3949.000000	0.005233
3948.000000	0.005228
3947.000000	0.005216
3946.000000	0.005201
3945.000000	0.005178
3944.000000	0.005143
3943.000000	0.005105
3942.000000	0.005082
3941.000000	0.005085
3940.000000	0.005109
3939.000000	0.005137
3938.000000	0.005160
3937.000000	0.005177
3936.000000	0.005193
3935.000000	0.005205
3934.000000	0.005207
3933.000000	0.005195
3932.000000	0.005180
3931.000000	0.005177
3930.000000	0.005187
3929.000000	0.005199
3928.000000	0.005202
3927.000000	0.005188
3926.000000	0.005160
3925.000000	0.005126
3924.000000	0.005101
3923.000000	0.005097
3922.000000	0.005117
3921.000000	0.005149
3920.000000	0.005179
3919.000000	0.005198
3918.000000	0.005204
3917.000000	0.005200
3916.000000	0.005194
3915.000000	0.005191
3914.000000	0.005190
3913.000000	0.005182
3912.000000	0.005164
3911.000000	0.005140
3910.000000	0.005117
3909.000000	0.005099
3908.000000	0.005087
3907.000000	0.005087
3906.000000	0.005104
3905.000000	0.005138
3904.000000	0.005184
3903.000000	0.005229
3902.000000	0.005256
3901.000000	0.005259
3900.000000	0.005240
3899.000000	0.005212
3898.000000	0.005194
3897.000000	0.005190
3896.000000	0.005195
3895.000000	0.005196
3894.000000	0.005188
3893.000000	0.005176
3892.000000	0.005171
3891.000000	0.005178
3890.000000	0.005191
3889.000000	0.005206
3888.000000	0.005219
3887.000000	0.005223
3886.000000	0.005210
3885.000000	0.005190
3884.000000	0.005181
3883.000000	0.005188
3882.000000	0.005196
3881.000000	0.005193
3880.000000	0.005185
3879.000000	0.005187
3878.000000	0.005209
3877.000000	0.005246
3876.000000	0.005279
3875.000000	0.005284
3874.000000	0.005252
3873.000000	0.005204
3872.000000	0.005165
3871.000000	0.005136
3870.000000	0.005110
3869.000000	0.005094
3868.000000	0.005100
3867.000000	0.005126
3866.000000	0.005149
3865.000000	0.005149
3864.000000	0.005138
3863.000000	0.005138
3862.000000	0.005148
3861.000000	0.005158
3860.000000	0.005162
3859.000000	0.005164
3858.000000	0.005165
3857.000000	0.005170
3856.000000	0.005190
3855.000000	0.005216
3854.000000	0.005227
3853.000000	0.005225
3852.000000	0.005230
3851.000000	0.005245
3850.000000	0.005257
3849.000000	0.005256
3848.000000	0.005243
3847.000000	0.005228
3846.000000	0.005219
3845.000000	0.005216
3844.000000	0.005215
3843.000000	0.005204
3842.000000	0.005177
3841.000000	0.005135
3840.000000	0.005085
3839.000000	0.005045
3838.000000	0.005034
3837.000000	0.005054
3836.000000	0.005086
3835.000000	0.005112
3834.000000	0.005128
3833.000000	0.005137
3832.000000	0.005143
3831.000000	0.005150
3830.000000	0.005159
3829.000000	0.005169
3828.000000	0.005176
3827.000000	0.005173
3826.000000	0.005161
3825.000000	0.005148
3824.000000	0.005147
3823.000000	0.005149
3822.000000	0.005132
3821.000000	0.005096
3820.000000	0.005070
3819.000000	0.005068
3818.000000	0.005081
3817.000000	0.005088
3816.000000	0.005081
3815.000000	0.005077
3814.000000	0.005097
3813.000000	0.005133
3812.000000	0.005164
3811.000000	0.005176
3810.000000	0.005177
3809.000000	0.005174
3808.000000	0.005162
3807.000000	0.005134
3806.000000	0.005105
3805.000000	0.005096
3804.000000	0.005112
3803.000000	0.005129
3802.000000	0.005122
3801.000000	0.005103
3800.000000	0.005111
3799.000000	0.005152
3798.000000	0.005200
3797.000000	0.005220
3796.000000	0.005201
3795.000000	0.005165
3794.000000	0.005138
3793.000000	0.005131
3792.000000	0.005132
3791.000000	0.005125
3790.000000	0.005106
3789.000000	0.005082
3788.000000	0.005065
3787.000000	0.005056
3786.000000	0.005048
3785.000000	0.005033
3784.000000	0.005015
3783.000000	0.005004
3782.000000	0.005009
3781.000000	0.005028
3780.000000	0.005058
3779.000000	0.005096
3778.000000	0.005134
3777.000000	0.005156
3776.000000	0.005147
3775.000000	0.005108
3774.000000	0.005054
3773.000000	0.005013
3772.000000	0.005003
3771.000000	0.005021
3770.000000	0.005051
3769.000000	0.005085
3768.000000	0.005109
3767.000000	0.005112
3766.000000	0.005090
3765.000000	0.005051
3764.000000	0.005020
3763.000000	0.005011
3762.000000	0.005018
3761.000000	0.005015
3760.000000	0.004995
3759.000000	0.004975
3758.000000	0.004974
3757.000000	0.004986
3756.000000	0.005001
3755.000000	0.005023
3754.000000	0.005052
3753.000000	0.005082
3752.000000	0.005100
3751.000000	0.005116
3750.000000	0.005136
3749.000000	0.005142
3748.000000	0.005129
3747.000000	0.005118
3746.000000	0.005123
3745.000000	0.005123
3744.000000	0.005097
3743.000000	0.005064
3742.000000	0.005046
3741.000000	0.005042
3740.000000	0.005039
3739.000000	0.005037
3738.000000	0.005043
3737.000000	0.005051
3736.000000	0.005045
3735.000000	0.005033
3734.000000	0.005034
3733.000000	0.005046
3732.000000	0.005045
3731.000000	0.005023
3730.000000	0.004993
3729.000000	0.004975
3728.000000	0.004977
3727.000000	0.004996
3726.000000	0.005022
3725.000000	0.005043
3724.000000	0.005046
3723.000000	0.005023
3722.000000	0.004988
3721.000000	0.004958
3720.000000	0.004941
3719.000000	0.004936
3718.000000	0.004938
3717.000000	0.004943
3716.000000	0.004957
3715.000000	0.004983
3714.000000	0.005012
3713.000000	0.005023
3712.000000	0.005002
3711.000000	0.004966
3710.000000	0.004939
3709.000000	0.004933
3708.000000	0.004942
3707.000000	0.004952
3706.000000	0.004956
3705.000000	0.004953
3704.000000	0.004949
3703.000000	0.004950
3702.000000	0.004957
3701.000000	0.004965
3700.000000	0.004968
3699.000000	0.004972
3698.000000	0.004988
3697.000000	0.005013
3696.000000	0.005034
3695.000000	0.005041
3694.000000	0.005031
3693.000000	0.005005
3692.000000	0.004972
3691.000000	0.004953
3690.000000	0.004970
3689.000000	0.005026
3688.000000	0.005090
3687.000000	0.005131
3686.000000	0.005144
3685.000000	0.005137
3684.000000	0.005115
3683.000000	0.005088
3682.000000	0.005072
3681.000000	0.005080
3680.000000	0.005116
3679.000000	0.005180
3678.000000	0.005275
3677.000000	0.005374
3676.000000	0.005427
3675.000000	0.005422
3674.000000	0.005401
3673.000000	0.005396
3672.000000	0.005414
3671.000000	0.005437
3670.000000	0.005452
3669.000000	0.005472
3668.000000	0.005506
3667.000000	0.005544
3666.000000	0.005581
3665.000000	0.005615
3664.000000	0.005649
3663.000000	0.005685
3662.000000	0.005723
3661.000000	0.005759
3660.000000	0.005793
3659.000000	0.005825
3658.000000	0.005858
3657.000000	0.005895
3656.000000	0.005940
3655.000000	0.006001
3654.000000	0.006082
3653.000000	0.006178
3652.000000	0.006268
3651.000000	0.006325
3650.000000	0.006341
3649.000000	0.006348
3648.000000	0.006374
3647.000000	0.006417
3646.000000	0.006468
3645.000000	0.006523
3644.000000	0.006581
3643.000000	0.006640
3642.000000	0.006700
3641.000000	0.006761
3640.000000	0.006820
3639.000000	0.006871
3638.000000	0.006915
3637.000000	0.006968
3636.000000	0.007035
3635.000000	0.007108
3634.000000	0.007168
3633.000000	0.007213
3632.000000	0.007265
3631.000000	0.007342
3630.000000	0.007433
3629.000000	0.007515
3628.000000	0.007586
3627.000000	0.007655
3626.000000	0.007723
3625.000000	0.007790
3624.000000	0.007854
3623.000000	0.007912
3622.000000	0.007962
3621.000000	0.008008
3620.000000	0.008054
3619.000000	0.008113
3618.000000	0.008189
3617.000000	0.008265
3616.000000	0.008330
3615.000000	0.008384
3614.000000	0.008440
3613.000000	0.008514
3612.000000	0.008613
3611.000000	0.008727
3610.000000	0.008838
3609.000000	0.008931
3608.000000	0.009001
3607.000000	0.009062
3606.000000	0.009128
3605.000000	0.009210
3604.000000	0.009307
3603.000000	0.009415
3602.000000	0.009522
3601.000000	0.009613
3600.000000	0.009685
3599.000000	0.009749
3598.000000	0.009817
3597.000000	0.009894
3596.000000	0.009978
3595.000000	0.010068
3594.000000	0.010165
3593.000000	0.010266
3592.000000	0.010367
3591.000000	0.010463
3590.000000	0.010551
3589.000000	0.010628
3588.000000	0.010707
3587.000000	0.010811
3586.000000	0.010943
3585.000000	0.011076
3584.000000	0.011178
3583.000000	0.011241
3582.000000	0.011282
3581.000000	0.011330
3580.000000	0.011405
3579.000000	0.011507
3578.000000	0.011625
3577.000000	0.011747
3576.000000	0.011871
3575.000000	0.011991
3574.000000	0.012105
3573.000000	0.012208
3572.000000	0.012307
3571.000000	0.012413
3570.000000	0.012531
3569.000000	0.012656
3568.000000	0.012771
3567.000000	0.012873
3566.000000	0.012980
3565.000000	0.013098
3564.000000	0.013219
3563.000000	0.013337
3562.000000	0.013453
3561.000000	0.013575
3560.000000	0.013702
3559.000000	0.013828
3558.000000	0.013952
3557.000000	0.014074
3556.000000	0.014194
3555.000000	0.014309
3554.000000	0.014417
3553.000000	0.014522
3552.000000	0.014632
3551.000000	0.014745
3550.000000	0.014858
3549.000000	0.014971
3548.000000	0.015087
3547.000000	0.015210
3546.000000	0.015341
3545.000000	0.015475
3544.000000	0.015602
3543.000000	0.015709
3542.000000	0.015793
3541.000000	0.015863
3540.000000	0.015940
3539.000000	0.016038
3538.000000	0.016160
3537.000000	0.016295
3536.000000	0.016431
3535.000000	0.016559
3534.000000	0.016677
3533.000000	0.016783
3532.000000	0.016877
3531.000000	0.016961
3530.000000	0.017042
3529.000000	0.017132
3528.000000	0.017243
3527.000000	0.017381
3526.000000	0.017538
3525.000000	0.017694
3524.000000	0.017832
3523.000000	0.017949
3522.000000	0.018056
3521.000000	0.018158
3520.000000	0.018256
3519.000000	0.018349
3518.000000	0.018444
3517.000000	0.018549
3516.000000	0.018660
3515.000000	0.018768
3514.000000	0.018869
3513.000000	0.018972
3512.000000	0.019085
3511.000000	0.019204
3510.000000	0.019319
3509.000000	0.019421
3508.000000	0.019509
3507.000000	0.019589
3506.000000	0.019670
3505.000000	0.019760
3504.000000	0.019868
3503.000000	0.019990
3502.000000	0.020117
3501.000000	0.020235
3500.000000	0.020340
3499.000000	0.020434
3498.000000	0.020517
3497.000000	0.020593
3496.000000	0.020662
3495.000000	0.020730
3494.000000	0.020808
3493.000000	0.020901
3492.000000	0.021007
3491.000000	0.021117
3490.000000	0.021221
3489.000000	0.021315
3488.000000	0.021393
3487.000000	0.021460
3486.000000	0.021525
3485.000000	0.021599
3484.000000	0.021688
3483.000000	0.021787
3482.000000	0.021886
3481.000000	0.021980
3480.000000	0.022069
3479.000000	0.022155
3478.000000	0.022239
3477.000000	0.022323
3476.000000	0.022411
3475.000000	0.022507
3474.000000	0.022608
3473.000000	0.022709
3472.000000	0.022807
3471.000000	0.022908
3470.000000	0.023015
3469.000000	0.023122
3468.000000	0.023220
3467.000000	0.023306
3466.000000	0.023385
3465.000000	0.023465
3464.000000	0.023549
3463.000000	0.023632
3462.000000	0.023711
3461.000000	0.023786
3460.000000	0.023862
3459.000000	0.023949
3458.000000	0.024047
3457.000000	0.024146
3456.000000	0.024237
3455.000000	0.024319
3454.000000	0.024402
3453.000000	0.024489
3452.000000	0.024579
3451.000000	0.024669
3450.000000	0.024769
3449.000000	0.024883
3448.000000	0.025011
3447.000000	0.025143
3446.000000	0.025269
3445.000000	0.025377
3444.000000	0.025461
3443.000000	0.025523
3442.000000	0.025584
3441.000000	0.025660
3440.000000	0.025760
3439.000000	0.025878
3438.000000	0.026004
3437.000000	0.026129
3436.000000	0.026243
3435.000000	0.026341
3434.000000	0.026428
3433.000000	0.026514
3432.000000	0.026605
3431.000000	0.026696
3430.000000	0.026779
3429.000000	0.026856
3428.000000	0.026936
3427.000000	0.027027
3426.000000	0.027125
3425.000000	0.027220
3424.000000	0.027304
3423.000000	0.027382
3422.000000	0.027470
3421.000000	0.027579
3420.000000	0.027705
3419.000000	0.027833
3418.000000	0.027951
3417.000000	0.028055
3416.000000	0.028151
3415.000000	0.028244
3414.000000	0.028341
3413.000000	0.028440
3412.000000	0.028538
3411.000000	0.028631
3410.000000	0.028719
3409.000000	0.028804
3408.000000	0.028886
3407.000000	0.028965
3406.000000	0.029036
3405.000000	0.029099
3404.000000	0.029157
3403.000000	0.029223
3402.000000	0.029313
3401.000000	0.029432
3400.000000	0.029566
3399.000000	0.029695
3398.000000	0.029809
3397.000000	0.029912
3396.000000	0.030007
3395.000000	0.030096
3394.000000	0.030180
3393.000000	0.030263
3392.000000	0.030347
3391.000000	0.030431
3390.000000	0.030511
3389.000000	0.030591
3388.000000	0.030676
3387.000000	0.030771
3386.000000	0.030874
3385.000000	0.030981
3384.000000	0.031087
3383.000000	0.031191
3382.000000	0.031293
3381.000000	0.031391
3380.000000	0.031489
3379.000000	0.031592
3378.000000	0.031702
3377.000000	0.031820
3376.000000	0.031939
3375.000000	0.032062
3374.000000	0.032197
3373.000000	0.032349
3372.000000	0.032512
3371.000000	0.032666
3370.000000	0.032798
3369.000000	0.032906
3368.000000	0.033002
3367.000000	0.033106
3366.000000	0.033228
3365.000000	0.033371
3364.000000	0.033529
3363.000000	0.033694
3362.000000	0.033862
3361.000000	0.034026
3360.000000	0.034180
3359.000000	0.034323
3358.000000	0.034467
3357.000000	0.034623
3356.000000	0.034794
3355.000000	0.034968
3354.000000	0.035136
3353.000000	0.035300
3352.000000	0.035472
3351.000000	0.035658
3350.000000	0.035848
3349.000000	0.036030
3348.000000	0.036198
3347.000000	0.036363
3346.000000	0.036537
3345.000000	0.036715
3344.000000	0.036881
3343.000000	0.037020
3342.000000	0.037134
3341.000000	0.037240
3340.000000	0.037360
3339.000000	0.037507
3338.000000	0.037682
3337.000000	0.037870
3336.000000	0.038053
3335.000000	0.038220
3334.000000	0.038369
3333.000000	0.038513
3332.000000	0.038656
3331.000000	0.038799
3330.000000	0.038934
3329.000000	0.039055
3328.000000	0.039165
3327.000000	0.039269
3326.000000	0.039375
3325.000000	0.039487
3324.000000	0.039607
3323.000000	0.039736
3322.000000	0.039866
3321.000000	0.039991
3320.000000	0.040107
3319.000000	0.040215
3318.000000	0.040317
3317.000000	0.040420
3316.000000	0.040533
3315.000000	0.040664
3314.000000	0.040810
3313.000000	0.040952
3312.000000	0.041069
3311.000000	0.041153
3310.000000	0.041213
3309.000000	0.041262
3308.000000	0.041314
3307.000000	0.041384
3306.000000	0.041476
3305.000000	0.041579
3304.000000	0.041678
3303.000000	0.041767
3302.000000	0.041855
3301.000000	0.041947
3300.000000	0.042030
3299.000000	0.042094
3298.000000	0.042139
3297.000000	0.042179
3296.000000	0.042223
3295.000000	0.042271
3294.000000	0.042322
3293.000000	0.042371
3292.000000	0.042416
3291.000000	0.042453
3290.000000	0.042487
3289.000000	0.042521
3288.000000	0.042555
3287.000000	0.042581
3286.000000	0.042593
3285.000000	0.042597
3284.000000	0.042604
3283.000000	0.042620
3282.000000	0.042639
3281.000000	0.042644
3280.000000	0.042624
3279.000000	0.042579
3278.000000	0.042519
3277.000000	0.042458
3276.000000	0.042406
3275.000000	0.042365
3274.000000	0.042328
3273.000000	0.042283
3272.000000	0.042226
3271.000000	0.042163
3270.000000	0.042105
3269.000000	0.042054
3268.000000	0.042005
3267.000000	0.041946
3266.000000	0.041871
3265.000000	0.041777
3264.000000	0.041667
3263.000000	0.041553
3262.000000	0.041445
3261.000000	0.041344
3260.000000	0.041245
3259.000000	0.041151
3258.000000	0.041065
3257.000000	0.040985
3256.000000	0.040905
3255.000000	0.040819
3254.000000	0.040729
3253.000000	0.040636
3252.000000	0.040539
3251.000000	0.040437
3250.000000	0.040334
3249.000000	0.040231
3248.000000	0.040132
3247.000000	0.040040
3246.000000	0.039960
3245.000000	0.039889
3244.000000	0.039815
3243.000000	0.039724
3242.000000	0.039612
3241.000000	0.039486
3240.000000	0.039360
3239.000000	0.039248
3238.000000	0.039159
3237.000000	0.039088
3236.000000	0.039021
3235.000000	0.038946
3234.000000	0.038865
3233.000000	0.038790
3232.000000	0.038728
3231.000000	0.038674
3230.000000	0.038612
3229.000000	0.038533
3228.000000	0.038440
3227.000000	0.038352
3226.000000	0.038288
3225.000000	0.038248
3224.000000	0.038217
3223.000000	0.038177
3222.000000	0.038118
3221.000000	0.038041
3220.000000	0.037948
3219.000000	0.037848
3218.000000	0.037753
3217.000000	0.037676
3216.000000	0.037618
3215.000000	0.037567
3214.000000	0.037505
3213.000000	0.037420
3212.000000	0.037311
3211.000000	0.037191
3210.000000	0.037081
3209.000000	0.036992
3208.000000	0.036925
3207.000000	0.036870
3206.000000	0.036817
3205.000000	0.036760
3204.000000	0.036696
3203.000000	0.036623
3202.000000	0.036536
3201.000000	0.036427
3200.000000	0.036296
3199.000000	0.036156
3198.000000	0.036031
3197.000000	0.035938
3196.000000	0.035872
3195.000000	0.035810
3194.000000	0.035733
3193.000000	0.035632
3192.000000	0.035512
3191.000000	0.035390
3190.000000	0.035281
3189.000000	0.035186
3188.000000	0.035091
3187.000000	0.034984
3186.000000	0.034861
3185.000000	0.034730
3184.000000	0.034600
3183.000000	0.034473
3182.000000	0.034350
3181.000000	0.034230
3180.000000	0.034111
3179.000000	0.033991
3178.000000	0.033871
3177.000000	0.033749
3176.000000	0.033626
3175.000000	0.033498
3174.000000	0.033366
3173.000000	0.033231
3172.000000	0.033093
3171.000000	0.032948
3170.000000	0.032795
3169.000000	0.032640
3168.000000	0.032495
3167.000000	0.032369
3166.000000	0.032268
3165.000000	0.032192
3164.000000	0.032128
3163.000000	0.032060
3162.000000	0.031973
3161.000000	0.031867
3160.000000	0.031750
3159.000000	0.031631
3158.000000	0.031511
3157.000000	0.031388
3156.000000	0.031262
3155.000000	0.031137
3154.000000	0.031012
3153.000000	0.030889
3152.000000	0.030772
3151.000000	0.030669
3150.000000	0.030583
3149.000000	0.030510
3148.000000	0.030441
3147.000000	0.030367
3146.000000	0.030282
3145.000000	0.030184
3144.000000	0.030078
3143.000000	0.029975
3142.000000	0.029880
3141.000000	0.029788
3140.000000	0.029697
3139.000000	0.029609
3138.000000	0.029526
3137.000000	0.029445
3136.000000	0.029358
3135.000000	0.029267
3134.000000	0.029177
3133.000000	0.029096
3132.000000	0.029025
3131.000000	0.028964
3130.000000	0.028909
3129.000000	0.028858
3128.000000	0.028810
3127.000000	0.028763
3126.000000	0.028713
3125.000000	0.028660
3124.000000	0.028605
3123.000000	0.028551
3122.000000	0.028498
3121.000000	0.028448
3120.000000	0.028409
3119.000000	0.028388
3118.000000	0.028390
3117.000000	0.028404
3116.000000	0.028415
3115.000000	0.028412
3114.000000	0.028395
3113.000000	0.028368
3112.000000	0.028340
3111.000000	0.028323
3110.000000	0.028324
3109.000000	0.028342
3108.000000	0.028369
3107.000000	0.028405
3106.000000	0.028448
3105.000000	0.028491
3104.000000	0.028520
3103.000000	0.028528
3102.000000	0.028523
3101.000000	0.028525
3100.000000	0.028543
3099.000000	0.028576
3098.000000	0.028617
3097.000000	0.028660
3096.000000	0.028702
3095.000000	0.028743
3094.000000	0.028778
3093.000000	0.028806
3092.000000	0.028829
3091.000000	0.028845
3090.000000	0.028859
3089.000000	0.028877
3088.000000	0.028903
3087.000000	0.028936
3086.000000	0.028970
3085.000000	0.028996
3084.000000	0.029014
3083.000000	0.029028
3082.000000	0.029045
3081.000000	0.029068
3080.000000	0.029092
3079.000000	0.029110
3078.000000	0.029116
3077.000000	0.029114
3076.000000	0.029113
3075.000000	0.029127
3074.000000	0.029157
3073.000000	0.029193
3072.000000	0.029213
3071.000000	0.029199
3070.000000	0.029148
3069.000000	0.029079
3068.000000	0.029016
3067.000000	0.028972
3066.000000	0.028936
3065.000000	0.028891
3064.000000	0.028830
3063.000000	0.028763
3062.000000	0.028703
3061.000000	0.028647
3060.000000	0.028589
3059.000000	0.028519
3058.000000	0.028435
3057.000000	0.028333
3056.000000	0.028209
3055.000000	0.028067
3054.000000	0.027915
3053.000000	0.027767
3052.000000	0.027639
3051.000000	0.027534
3050.000000	0.027439
3049.000000	0.027335
3048.000000	0.027213
3047.000000	0.027083
3046.000000	0.026959
3045.000000	0.026842
3044.000000	0.026719
3043.000000	0.026591
3042.000000	0.026473
3041.000000	0.026385
3040.000000	0.026323
3039.000000	0.026261
3038.000000	0.026171
3037.000000	0.026036
3036.000000	0.025869
3035.000000	0.025695
3034.000000	0.025534
3033.000000	0.025389
3032.000000	0.025250
3031.000000	0.025112
3030.000000	0.024980
3029.000000	0.024856
3028.000000	0.024729
3027.000000	0.024586
3026.000000	0.024420
3025.000000	0.024242
3024.000000	0.024064
3023.000000	0.023890
3022.000000	0.023719
3021.000000	0.023538
3020.000000	0.023335
3019.000000	0.023106
3018.000000	0.022862
3017.000000	0.022621
3016.000000	0.022396
3015.000000	0.022189
3014.000000	0.021992
3013.000000	0.021797
3012.000000	0.021600
3011.000000	0.021402
3010.000000	0.021208
3009.000000	0.021031
3008.000000	0.020884
3007.000000	0.020774
3006.000000	0.020699
3005.000000	0.020655
3004.000000	0.020640
3003.000000	0.020654
3002.000000	0.020697
3001.000000	0.020761
3000.000000	0.020839
2999.000000	0.020926
2998.000000	0.021025
2997.000000	0.021134
2996.000000	0.021249
2995.000000	0.021363
2994.000000	0.021464
2993.000000	0.021543
2992.000000	0.021600
2991.000000	0.021646
2990.000000	0.021690
2989.000000	0.021734
2988.000000	0.021775
2987.000000	0.021810
2986.000000	0.021837
2985.000000	0.021850
2984.000000	0.021841
2983.000000	0.021809
2982.000000	0.021761
2981.000000	0.021699
2980.000000	0.021617
2979.000000	0.021508
2978.000000	0.021373
2977.000000	0.021218
2976.000000	0.021040
2975.000000	0.020834
2974.000000	0.020594
2973.000000	0.020317
2972.000000	0.020003
2971.000000	0.019649
2970.000000	0.019253
2969.000000	0.018816
2968.000000	0.018342
2967.000000	0.017841
2966.000000	0.017327
2965.000000	0.016809
2964.000000	0.016287
2963.000000	0.015758
2962.000000	0.015228
2961.000000	0.014713
2960.000000	0.014227
2959.000000	0.013782
2958.000000	0.013384
2957.000000	0.013038
2956.000000	0.012750
2955.000000	0.012522
2954.000000	0.012352
2953.000000	0.012227
2952.000000	0.012122
2951.000000	0.012008
2950.000000	0.011863
2949.000000	0.011670
2948.000000	0.011409
2947.000000	0.011053
2946.000000	0.010575
2945.000000	0.009969
2944.000000	0.009251
2943.000000	0.008442
2942.000000	0.007556
2941.000000	0.006587
2940.000000	0.005520
2939.000000	0.004348
2938.000000	0.003082
2937.000000	0.001737
2936.000000	0.000323
2935.000000	-0.001151
2934.000000	-0.002669
2933.000000	-0.004205
2932.000000	-0.005735
2931.000000	-0.007236
2930.000000	-0.008679
2929.000000	-0.010022
2928.000000	-0.011226
2927.000000	-0.012256
2926.000000	-0.013073
2925.000000	-0.013609
2924.000000	-0.013786
2923.000000	-0.013550
2922.000000	-0.012902
2921.000000	-0.011889
2920.000000	-0.010583
2919.000000	-0.009067
2918.000000	-0.007432
2917.000000	-0.005781
2916.000000	-0.004210
2915.000000	-0.002787
2914.000000	-0.001531
2913.000000	-0.000424
2912.000000	0.000571
2911.000000	0.001485
2910.000000	0.002338
2909.000000	0.003140
2908.000000	0.003893
2907.000000	0.004595
2906.000000	0.005237
2905.000000	0.005821
2904.000000	0.006363
2903.000000	0.006886
2902.000000	0.007405
2901.000000	0.007919
2900.000000	0.008419
2899.000000	0.008899
2898.000000	0.009363
2897.000000	0.009817
2896.000000	0.010268
2895.000000	0.010715
2894.000000	0.011154
2893.000000	0.011581
2892.000000	0.011998
2891.000000	0.012409
2890.000000	0.012816
2889.000000	0.013214
2888.000000	0.013589
2887.000000	0.013932
2886.000000	0.014236
2885.000000	0.014500
2884.000000	0.014722
2883.000000	0.014904
2882.000000	0.015043
2881.000000	0.015130
2880.000000	0.015150
2879.000000	0.015084
2878.000000	0.014919
2877.000000	0.014654
2876.000000	0.014305
2875.000000	0.013901
2874.000000	0.013482
2873.000000	0.013085
2872.000000	0.012730
2871.000000	0.012407
2870.000000	0.012085
2869.000000	0.011717
2868.000000	0.011257
2867.000000	0.010662
2866.000000	0.009899
2865.000000	0.008951
2864.000000	0.007821
2863.000000	0.006526
2862.000000	0.005085
2861.000000	0.003523
2860.000000	0.001867
2859.000000	0.000170
2858.000000	-0.001489
2857.000000	-0.002999
2856.000000	-0.004227
2855.000000	-0.005033
2854.000000	-0.005301
2853.000000	-0.004973
2852.000000	-0.004074
2851.000000	-0.002718
2850.000000	-0.001072
2849.000000	0.000699
2848.000000	0.002476
2847.000000	0.004199
2846.000000	0.005842
2845.000000	0.007386
2844.000000	0.008799
2843.000000	0.010052
2842.000000	0.011129
2841.000000	0.012031
2840.000000	0.012776
2839.000000	0.013388
2838.000000	0.013893
2837.000000	0.014316
2836.000000	0.014679
2835.000000	0.015005
2834.000000	0.015307
2833.000000	0.015583
2832.000000	0.015823
2831.000000	0.016023
2830.000000	0.016190
2829.000000	0.016335
2828.000000	0.016468
2827.000000	0.016593
2826.000000	0.016711
2825.000000	0.016818
2824.000000	0.016911
2823.000000	0.016991
2822.000000	0.017063
2821.000000	0.017133
2820.000000	0.017199
2819.000000	0.017262
2818.000000	0.017326
2817.000000	0.017391
2816.000000	0.017450
2815.000000	0.017494
2814.000000	0.017519
2813.000000	0.017525
2812.000000	0.017518
2811.000000	0.017506
2810.000000	0.017503
2809.000000	0.017516
2808.000000	0.017535
2807.000000	0.017551
2806.000000	0.017558
2805.000000	0.017560
2804.000000	0.017564
2803.000000	0.017574
2802.000000	0.017589
2801.000000	0.017603
2800.000000	0.017609
2799.000000	0.017607
2798.000000	0.017599
2797.000000	0.017587
2796.000000	0.017568
2795.000000	0.017543
2794.000000	0.017515
2793.000000	0.017490
2792.000000	0.017468
2791.000000	0.017446
2790.000000	0.017429
2789.000000	0.017423
2788.000000	0.017427
2787.000000	0.017429
2786.000000	0.017420
2785.000000	0.017398
2784.000000	0.017369
2783.000000	0.017340
2782.000000	0.017309
2781.000000	0.017275
2780.000000	0.017239
2779.000000	0.017208
2778.000000	0.017189
2777.000000	0.017174
2776.000000	0.017152
2775.000000	0.017117
2774.000000	0.017080
2773.000000	0.017053
2772.000000	0.017036
2771.000000	0.017016
2770.000000	0.016989
2769.000000	0.016963
2768.000000	0.016947
2767.000000	0.016939
2766.000000	0.016928
2765.000000	0.016909
2764.000000	0.016881
2763.000000	0.016851
2762.000000	0.016820
2761.000000	0.016790
2760.000000	0.016759
2759.000000	0.016725
2758.000000	0.016692
2757.000000	0.016664
2756.000000	0.016644
2755.000000	0.016628
2754.000000	0.016607
2753.000000	0.016573
2752.000000	0.016527
2751.000000	0.016482
2750.000000	0.016451
2749.000000	0.016438
2748.000000	0.016431
2747.000000	0.016416
2746.000000	0.016390
2745.000000	0.016363
2744.000000	0.016343
2743.000000	0.016328
2742.000000	0.016303
2741.000000	0.016263
2740.000000	0.016216
2739.000000	0.016176
2738.000000	0.016148
2737.000000	0.016126
2736.000000	0.016099
2735.000000	0.016062
2734.000000	0.016020
2733.000000	0.015982
2732.000000	0.015952
2731.000000	0.015929
2730.000000	0.015912
2729.000000	0.015898
2728.000000	0.015881
2727.000000	0.015857
2726.000000	0.015826
2725.000000	0.015791
2724.000000	0.015753
2723.000000	0.015714
2722.000000	0.015677
2721.000000	0.015647
2720.000000	0.015625
2719.000000	0.015602
2718.000000	0.015575
2717.000000	0.015543
2716.000000	0.015513
2715.000000	0.015494
2714.000000	0.015485
2713.000000	0.015481
2712.000000	0.015470
2711.000000	0.015443
2710.000000	0.015401
2709.000000	0.015357
2708.000000	0.015326
2707.000000	0.015317
2706.000000	0.015318
2705.000000	0.015312
2704.000000	0.015290
2703.000000	0.015259
2702.000000	0.015229
2701.000000	0.015203
2700.000000	0.015176
2699.000000	0.015145
2698.000000	0.015109
2697.000000	0.015072
2696.000000	0.015037
2695.000000	0.015011
2694.000000	0.014995
2693.000000	0.014986
2692.000000	0.014973
2691.000000	0.014946
2690.000000	0.014914
2689.000000	0.014890
2688.000000	0.014881
2687.000000	0.014880
2686.000000	0.014869
2685.000000	0.014842
2684.000000	0.014804
2683.000000	0.014775
2682.000000	0.014764
2681.000000	0.014769
2680.000000	0.014775
2679.000000	0.014773
2678.000000	0.014763
2677.000000	0.014754
2676.000000	0.014755
2675.000000	0.014764
2674.000000	0.014772
2673.000000	0.014768
2672.000000	0.014745
2671.000000	0.014708
2670.000000	0.014670
2669.000000	0.014638
2668.000000	0.014615
2667.000000	0.014606
2666.000000	0.014616
2665.000000	0.014636
2664.000000	0.014650
2663.000000	0.014644
2662.000000	0.014623
2661.000000	0.014606
2660.000000	0.014601
2659.000000	0.014600
2658.000000	0.014587
2657.000000	0.014556
2656.000000	0.014516
2655.000000	0.014478
2654.000000	0.014450
2653.000000	0.014433
2652.000000	0.014420
2651.000000	0.014401
2650.000000	0.014367
2649.000000	0.014315
2648.000000	0.014256
2647.000000	0.014208
2646.000000	0.014182
2645.000000	0.014175
2644.000000	0.014170
2643.000000	0.014155
2642.000000	0.014135
2641.000000	0.014117
2640.000000	0.014101
2639.000000	0.014082
2638.000000	0.014064
2637.000000	0.014047
2636.000000	0.014027
2635.000000	0.013994
2634.000000	0.013951
2633.000000	0.013904
2632.000000	0.013859
2631.000000	0.013818
2630.000000	0.013782
2629.000000	0.013756
2628.000000	0.013728
2627.000000	0.013685
2626.000000	0.013623
2625.000000	0.013563
2624.000000	0.013533
2623.000000	0.013542
2622.000000	0.013575
2621.000000	0.013604
2620.000000	0.013603
2619.000000	0.013566
2618.000000	0.013505
2617.000000	0.013444
2616.000000	0.013397
2615.000000	0.013366
2614.000000	0.013344
2613.000000	0.013330
2612.000000	0.013327
2611.000000	0.013329
2610.000000	0.013330
2609.000000	0.013323
2608.000000	0.013313
2607.000000	0.013309
2606.000000	0.013318
2605.000000	0.013329
2604.000000	0.013327
2603.000000	0.013297
2602.000000	0.013247
2601.000000	0.013198
2600.000000	0.013168
2599.000000	0.013156
2598.000000	0.013147
2597.000000	0.013126
2596.000000	0.013095
2595.000000	0.013066
2594.000000	0.013045
2593.000000	0.013027
2592.000000	0.012999
2591.000000	0.012963
2590.000000	0.012934
2589.000000	0.012925
2588.000000	0.012930
2587.000000	0.012926
2586.000000	0.012904
2585.000000	0.012872
2584.000000	0.012841
2583.000000	0.012817
2582.000000	0.012800
2581.000000	0.012793
2580.000000	0.012797
2579.000000	0.012801
2578.000000	0.012790
2577.000000	0.012750
2576.000000	0.012686
2575.000000	0.012617
2574.000000	0.012566
2573.000000	0.012544
2572.000000	0.012550
2571.000000	0.012567
2570.000000	0.012580
2569.000000	0.012582
2568.000000	0.012575
2567.000000	0.012567
2566.000000	0.012554
2565.000000	0.012528
2564.000000	0.012486
2563.000000	0.012447
2562.000000	0.012438
2561.000000	0.012472
2560.000000	0.012523
2559.000000	0.012547
2558.000000	0.012516
2557.000000	0.012441
2556.000000	0.012360
2555.000000	0.012319
2554.000000	0.012336
2553.000000	0.012390
2552.000000	0.012437
2551.000000	0.012437
2550.000000	0.012391
2549.000000	0.012326
2548.000000	0.012270
2547.000000	0.012239
2546.000000	0.012231
2545.000000	0.012238
2544.000000	0.012251
2543.000000	0.012262
2542.000000	0.012262
2541.000000	0.012248
2540.000000	0.012223
2539.000000	0.012200
2538.000000	0.012193
2537.000000	0.012203
2536.000000	0.012222
2535.000000	0.012238
2534.000000	0.012246
2533.000000	0.012239
2532.000000	0.012212
2531.000000	0.012176
2530.000000	0.012152
2529.000000	0.012151
2528.000000	0.012165
2527.000000	0.012184
2526.000000	0.012209
2525.000000	0.012239
2524.000000	0.012261
2523.000000	0.012263
2522.000000	0.012245
2521.000000	0.012218
2520.000000	0.012187
2519.000000	0.012153
2518.000000	0.012124
2517.000000	0.012115
2516.000000	0.012124
2515.000000	0.012140
2514.000000	0.012157
2513.000000	0.012169
2512.000000	0.012171
2511.000000	0.012150
2510.000000	0.012112
2509.000000	0.012073
2508.000000	0.012052
2507.000000	0.012046
2506.000000	0.012046
2505.000000	0.012041
2504.000000	0.012026
2503.000000	0.011998
2502.000000	0.011958
2501.000000	0.011910
2500.000000	0.011862
2499.000000	0.011829
2498.000000	0.011818
2497.000000	0.011824
2496.000000	0.011832
2495.000000	0.011830
2494.000000	0.011824
2493.000000	0.011825
2492.000000	0.011832
2491.000000	0.011845
2490.000000	0.011863
2489.000000	0.011886
2488.000000	0.011897
2487.000000	0.011881
2486.000000	0.011845
2485.000000	0.011808
2484.000000	0.011783
2483.000000	0.011764
2482.000000	0.011743
2481.000000	0.011715
2480.000000	0.011689
2479.000000	0.011670
2478.000000	0.011666
2477.000000	0.011675
2476.000000	0.011684
2475.000000	0.011673
2474.000000	0.011637
2473.000000	0.011591
2472.000000	0.011560
2471.000000	0.011565
2470.000000	0.011605
2469.000000	0.011654
2468.000000	0.011678
2467.000000	0.011661
2466.000000	0.011615
2465.000000	0.011559
2464.000000	0.011507
2463.000000	0.011471
2462.000000	0.011469
2461.000000	0.011505
2460.000000	0.011554
2459.000000	0.011584
2458.000000	0.011581
2457.000000	0.011561
2456.000000	0.011543
2455.000000	0.011533
2454.000000	0.011531
2453.000000	0.011535
2452.000000	0.011539
2451.000000	0.011532
2450.000000	0.011512
2449.000000	0.011493
2448.000000	0.011488
2447.000000	0.011497
2446.000000	0.011507
2445.000000	0.011508
2444.000000	0.011497
2443.000000	0.011472
2442.000000	0.011438
2441.000000	0.011400
2440.000000	0.011370
2439.000000	0.011357
2438.000000	0.011359
2437.000000	0.011361
2436.000000	0.011348
2435.000000	0.011319
2434.000000	0.011287
2433.000000	0.011260
2432.000000	0.011231
2431.000000	0.011194
2430.000000	0.011161
2429.000000	0.011152
2428.000000	0.011178
2427.000000	0.011229
2426.000000	0.011278
2425.000000	0.011303
2424.000000	0.011293
2423.000000	0.011262
2422.000000	0.011236
2421.000000	0.011231
2420.000000	0.011242
2419.000000	0.011254
2418.000000	0.011259
2417.000000	0.011253
2416.000000	0.011229
2415.000000	0.011186
2414.000000	0.011133
2413.000000	0.011085
2412.000000	0.011052
2411.000000	0.011037
2410.000000	0.011043
2409.000000	0.011062
2408.000000	0.011083
2407.000000	0.011093
2406.000000	0.011089
2405.000000	0.011073
2404.000000	0.011050
2403.000000	0.011027
2402.000000	0.011015
2401.000000	0.011018
2400.000000	0.011023
2399.000000	0.011020
2398.000000	0.011019
2397.000000	0.011032
2396.000000	0.011054
2395.000000	0.011067
2394.000000	0.011068
2393.000000	0.011069
2392.000000	0.011080
2391.000000	0.011093
2390.000000	0.011101
2389.000000	0.011104
2388.000000	0.011112
2387.000000	0.011125
2386.000000	0.011140
2385.000000	0.011150
2384.000000	0.011154
2383.000000	0.011156
2382.000000	0.011163
2381.000000	0.011167
2380.000000	0.011156
2379.000000	0.011138
2378.000000	0.011136
2377.000000	0.011162
2376.000000	0.011194
2375.000000	0.011203
2374.000000	0.011188
2373.000000	0.011174
2372.000000	0.011171
2371.000000	0.011171
2370.000000	0.011169
2369.000000	0.011172
2368.000000	0.011179
2367.000000	0.011181
2366.000000	0.011189
2365.000000	0.011224
2364.000000	0.011282
2363.000000	0.011327
2362.000000	0.011334
2361.000000	0.011311
2360.000000	0.011284
2359.000000	0.011268
2358.000000	0.011261
2357.000000	0.011260
2356.000000	0.011271
2355.000000	0.011294
2354.000000	0.011303
2353.000000	0.011267
2352.000000	0.011207
2351.000000	0.011179
2350.000000	0.011215
2349.000000	0.011298
2348.000000	0.011381
2347.000000	0.011416
2346.000000	0.011385
2345.000000	0.011335
2344.000000	0.011321
2343.000000	0.011349
2342.000000	0.011371
2341.000000	0.011354
2340.000000	0.011308
2339.000000	0.011267
2338.000000	0.011252
2337.000000	0.011264
2336.000000	0.011298
2335.000000	0.011345
2334.000000	0.011384
2333.000000	0.011390
2332.000000	0.011367
2331.000000	0.011336
2330.000000	0.011321
2329.000000	0.011332
2328.000000	0.011376
2327.000000	0.011459
2326.000000	0.011563
2325.000000	0.011639
2324.000000	0.011642
2323.000000	0.011570
2322.000000	0.011474
2321.000000	0.011408
2320.000000	0.011383
2319.000000	0.011364
2318.000000	0.011328
2317.000000	0.011281
2316.000000	0.011247
2315.000000	0.011235
2314.000000	0.011237
2313.000000	0.011236
2312.000000	0.011227
2311.000000	0.011211
2310.000000	0.011198
2309.000000	0.011182
2308.000000	0.011153
2307.000000	0.011103
2306.000000	0.011037
2305.000000	0.010974
2304.000000	0.010934
2303.000000	0.010925
2302.000000	0.010947
2301.000000	0.010986
2300.000000	0.011027
2299.000000	0.011052
2298.000000	0.011057
2297.000000	0.011044
2296.000000	0.011021
2295.000000	0.010996
2294.000000	0.010985
2293.000000	0.010993
2292.000000	0.011014
2291.000000	0.011034
2290.000000	0.011049
2289.000000	0.011061
2288.000000	0.011068
2287.000000	0.011061
2286.000000	0.011039
2285.000000	0.011013
2284.000000	0.010989
2283.000000	0.010968
2282.000000	0.010950
2281.000000	0.010930
2280.000000	0.010904
2279.000000	0.010869
2278.000000	0.010834
2277.000000	0.010806
2276.000000	0.010786
2275.000000	0.010766
2274.000000	0.010744
2273.000000	0.010727
2272.000000	0.010715
2271.000000	0.010704
2270.000000	0.010679
2269.000000	0.010634
2268.000000	0.010576
2267.000000	0.010533
2266.000000	0.010525
2265.000000	0.010541
2264.000000	0.010543
2263.000000	0.010510
2262.000000	0.010459
2261.000000	0.010419
2260.000000	0.010399
2259.000000	0.010390
2258.000000	0.010390
2257.000000	0.010396
2256.000000	0.010397
2255.000000	0.010375
2254.000000	0.010328
2253.000000	0.010270
2252.000000	0.010226
2251.000000	0.010227
2250.000000	0.010284
2249.000000	0.010364
2248.000000	0.010405
2247.000000	0.010388
2246.000000	0.010364
2245.000000	0.010392
2244.000000	0.010469
2243.000000	0.010538
2242.000000	0.010569
2241.000000	0.010581
2240.000000	0.010612
2239.000000	0.010689
2238.000000	0.010814
2237.000000	0.010949
2236.000000	0.011026
2235.000000	0.010996
2234.000000	0.010893
2233.000000	0.010804
2232.000000	0.010788
2231.000000	0.010824
2230.000000	0.010851
2229.000000	0.010823
2228.000000	0.010736
2227.000000	0.010629
2226.000000	0.010542
2225.000000	0.010482
2224.000000	0.010421
2223.000000	0.010344
2222.000000	0.010277
2221.000000	0.010244
2220.000000	0.010227
2219.000000	0.010200
2218.000000	0.010172
2217.000000	0.010175
2216.000000	0.010197
2215.000000	0.010200
2214.000000	0.010170
2213.000000	0.010129
2212.000000	0.010088
2211.000000	0.010038
2210.000000	0.009987
2209.000000	0.009971
2208.000000	0.010005
2207.000000	0.010070
2206.000000	0.010134
2205.000000	0.010182
2204.000000	0.010220
2203.000000	0.010268
2202.000000	0.010334
2201.000000	0.010384
2200.000000	0.010354
2199.000000	0.010229
2198.000000	0.010088
2197.000000	0.010030
2196.000000	0.010068
2195.000000	0.010116
2194.000000	0.010090
2193.000000	0.009969
2192.000000	0.009783
2191.000000	0.009587
2190.000000	0.009459
2189.000000	0.009466
2188.000000	0.009614
2187.000000	0.009836
2186.000000	0.010035
2185.000000	0.010131
2184.000000	0.010084
2183.000000	0.009936
2182.000000	0.009789
2181.000000	0.009727
2180.000000	0.009755
2179.000000	0.009830
2178.000000	0.009924
2177.000000	0.010014
2176.000000	0.010050
2175.000000	0.009992
2174.000000	0.009867
2173.000000	0.009750
2172.000000	0.009693
2171.000000	0.009692
2170.000000	0.009708
2169.000000	0.009688
2168.000000	0.009608
2167.000000	0.009536
2166.000000	0.009590
2165.000000	0.009795
2164.000000	0.010006
2163.000000	0.010030
2162.000000	0.009805
2161.000000	0.009396
2160.000000	0.008905
2159.000000	0.008461
2158.000000	0.008225
2157.000000	0.008268
2156.000000	0.008484
2155.000000	0.008733
2154.000000	0.008979
2153.000000	0.009222
2152.000000	0.009395
2151.000000	0.009413
2150.000000	0.009299
2149.000000	0.009155
2148.000000	0.009053
2147.000000	0.008991
2146.000000	0.008962
2145.000000	0.008969
2144.000000	0.008988
2143.000000	0.008994
2142.000000	0.009016
2141.000000	0.009110
2140.000000	0.009268
2139.000000	0.009419
2138.000000	0.009515
2137.000000	0.009564
2136.000000	0.009578
2135.000000	0.009545
2134.000000	0.009464
2133.000000	0.009371
2132.000000	0.009313
2131.000000	0.009306
2130.000000	0.009334
2129.000000	0.009363
2128.000000	0.009370
2127.000000	0.009364
2126.000000	0.009385
2125.000000	0.009455
2124.000000	0.009549
2123.000000	0.009625
2122.000000	0.009670
2121.000000	0.009702
2120.000000	0.009731
2119.000000	0.009765
2118.000000	0.009819
2117.000000	0.009896
2116.000000	0.009957
2115.000000	0.009943
2114.000000	0.009850
2113.000000	0.009746
2112.000000	0.009709
2111.000000	0.009759
2110.000000	0.009854
2109.000000	0.009935
2108.000000	0.009958
2107.000000	0.009927
2106.000000	0.009884
2105.000000	0.009859
2104.000000	0.009847
2103.000000	0.009825
2102.000000	0.009799
2101.000000	0.009800
2100.000000	0.009833
2099.000000	0.009858
2098.000000	0.009842
2097.000000	0.009797
2096.000000	0.009755
2095.000000	0.009718
2094.000000	0.009660
2093.000000	0.009571
2092.000000	0.009482
2091.000000	0.009450
2090.000000	0.009500
2089.000000	0.009597
2088.000000	0.009680
2087.000000	0.009717
2086.000000	0.009721
2085.000000	0.009715
2084.000000	0.009693
2083.000000	0.009640
2082.000000	0.009565
2081.000000	0.009506
2080.000000	0.009503
2079.000000	0.009563
2078.000000	0.009634
2077.000000	0.009636
2076.000000	0.009537
2075.000000	0.009384
2074.000000	0.009259
2073.000000	0.009200
2072.000000	0.009191
2071.000000	0.009213
2070.000000	0.009259
2069.000000	0.009285
2068.000000	0.009236
2067.000000	0.009128
2066.000000	0.009060
2065.000000	0.009109
2064.000000	0.009248
2063.000000	0.009392
2062.000000	0.009469
2061.000000	0.009431
2060.000000	0.009271
2059.000000	0.009063
2058.000000	0.008934
2057.000000	0.008932
2056.000000	0.008979
2055.000000	0.008983
2054.000000	0.008963
2053.000000	0.008984
2052.000000	0.009057
2051.000000	0.009133
2050.000000	0.009162
2049.000000	0.009097
2048.000000	0.008897
2047.000000	0.008606
2046.000000	0.008376
2045.000000	0.008319
2044.000000	0.008376
2043.000000	0.008401
2042.000000	0.008340
2041.000000	0.008228
2040.000000	0.008092
2039.000000	0.007952
2038.000000	0.007882
2037.000000	0.007927
2036.000000	0.007988
2035.000000	0.007903
2034.000000	0.007665
2033.000000	0.007452
2032.000000	0.007419
2031.000000	0.007562
2030.000000	0.007782
2029.000000	0.007963
2028.000000	0.008031
2027.000000	0.007996
2026.000000	0.007954
2025.000000	0.007977
2024.000000	0.008040
2023.000000	0.008088
2022.000000	0.008121
2021.000000	0.008151
2020.000000	0.008145
2019.000000	0.008072
2018.000000	0.007955
2017.000000	0.007828
2016.000000	0.007699
2015.000000	0.007613
2014.000000	0.007637
2013.000000	0.007716
2012.000000	0.007655
2011.000000	0.007355
2010.000000	0.006997
2009.000000	0.006846
2008.000000	0.006941
2007.000000	0.007079
2006.000000	0.007102
2005.000000	0.007027
2004.000000	0.006964
2003.000000	0.007014
2002.000000	0.007225
2001.000000	0.007554
2000.000000	0.007861
1999.000000	0.008037
1998.000000	0.008086
1997.000000	0.008051
1996.000000	0.007942
1995.000000	0.007788
1994.000000	0.007675
1993.000000	0.007661
1992.000000	0.007699
1991.000000	0.007725
1990.000000	0.007743
1989.000000	0.007755
1988.000000	0.007704
1987.000000	0.007576
1986.000000	0.007480
1985.000000	0.007513
1984.000000	0.007628
1983.000000	0.007737
1982.000000	0.007859
1981.000000	0.008021
1980.000000	0.008101
1979.000000	0.007949
1978.000000	0.007636
1977.000000	0.007402
1976.000000	0.007354
1975.000000	0.007402
1974.000000	0.007458
1973.000000	0.007511
1972.000000	0.007553
1971.000000	0.007585
1970.000000	0.007668
1969.000000	0.007821
1968.000000	0.007942
1967.000000	0.007940
1966.000000	0.007886
1965.000000	0.007898
1964.000000	0.007945
1963.000000	0.007913
1962.000000	0.007789
1961.000000	0.007669
1960.000000	0.007630
1959.000000	0.007699
1958.000000	0.007895
1957.000000	0.008170
1956.000000	0.008368
1955.000000	0.008367
1954.000000	0.008224
1953.000000	0.008090
1952.000000	0.008028
1951.000000	0.007989
1950.000000	0.007957
1949.000000	0.007984
1948.000000	0.008067
1947.000000	0.008125
1946.000000	0.008109
1945.000000	0.008057
1944.000000	0.008006
1943.000000	0.007931
1942.000000	0.007819
1941.000000	0.007716
1940.000000	0.007683
1939.000000	0.007740
1938.000000	0.007863
1937.000000	0.008006
1936.000000	0.008111
1935.000000	0.008166
1934.000000	0.008206
1933.000000	0.008255
1932.000000	0.008290
1931.000000	0.008264
1930.000000	0.008188
1929.000000	0.008125
1928.000000	0.008100
1927.000000	0.008099
1926.000000	0.008098
1925.000000	0.008106
1924.000000	0.008108
1923.000000	0.008056
1922.000000	0.007953
1921.000000	0.007877
1920.000000	0.007897
1919.000000	0.007988
1918.000000	0.008040
1917.000000	0.007998
1916.000000	0.007924
1915.000000	0.007916
1914.000000	0.007999
1913.000000	0.008121
1912.000000	0.008227
1911.000000	0.008301
1910.000000	0.008359
1909.000000	0.008391
1908.000000	0.008363
1907.000000	0.008285
1906.000000	0.008188
1905.000000	0.008105
1904.000000	0.008044
1903.000000	0.008012
1902.000000	0.008047
1901.000000	0.008157
1900.000000	0.008271
1899.000000	0.008320
1898.000000	0.008306
1897.000000	0.008282
1896.000000	0.008273
1895.000000	0.008245
1894.000000	0.008171
1893.000000	0.008081
1892.000000	0.008028
1891.000000	0.008035
1890.000000	0.008070
1889.000000	0.008075
1888.000000	0.008037
1887.000000	0.008006
1886.000000	0.008033
1885.000000	0.008104
1884.000000	0.008155
1883.000000	0.008152
1882.000000	0.008127
1881.000000	0.008119
1880.000000	0.008111
1879.000000	0.008087
1878.000000	0.008055
1877.000000	0.008017
1876.000000	0.007969
1875.000000	0.007913
1874.000000	0.007847
1873.000000	0.007769
1872.000000	0.007684
1871.000000	0.007643
1870.000000	0.007695
1869.000000	0.007800
1868.000000	0.007862
1867.000000	0.007859
1866.000000	0.007853
1865.000000	0.007874
1864.000000	0.007895
1863.000000	0.007896
1862.000000	0.007906
1861.000000	0.007946
1860.000000	0.007983
1859.000000	0.007977
1858.000000	0.007933
1857.000000	0.007887
1856.000000	0.007861
1855.000000	0.007875
1854.000000	0.007935
1853.000000	0.008008
1852.000000	0.008004
1851.000000	0.007921
1850.000000	0.007827
1849.000000	0.007725
1848.000000	0.007551
1847.000000	0.007331
1846.000000	0.007235
1845.000000	0.007356
1844.000000	0.007522
1843.000000	0.007542
1842.000000	0.007492
1841.000000	0.007525
1840.000000	0.007638
1839.000000	0.007733
1838.000000	0.007753
1837.000000	0.007744
1836.000000	0.007747
1835.000000	0.007727
1834.000000	0.007656
1833.000000	0.007574
1832.000000	0.007537
1831.000000	0.007568
1830.000000	0.007573
1829.000000	0.007465
1828.000000	0.007326
1827.000000	0.007316
1826.000000	0.007472
1825.000000	0.007644
1824.000000	0.007681
1823.000000	0.007627
1822.000000	0.007613
1821.000000	0.007652
1820.000000	0.007657
1819.000000	0.007601
1818.000000	0.007540
1817.000000	0.007531
1816.000000	0.007540
1815.000000	0.007520
1814.000000	0.007503
1813.000000	0.007518
1812.000000	0.007551
1811.000000	0.007556
1810.000000	0.007525
1809.000000	0.007510
1808.000000	0.007527
1807.000000	0.007546
1806.000000	0.007540
1805.000000	0.007511
1804.000000	0.007467
1803.000000	0.007423
1802.000000	0.007424
1801.000000	0.007446
1800.000000	0.007456
1799.000000	0.007449
1798.000000	0.007440
1797.000000	0.007394
1796.000000	0.007254
1795.000000	0.007053
1794.000000	0.006948
1793.000000	0.006993
1792.000000	0.007050
1791.000000	0.007012
1790.000000	0.006963
1789.000000	0.006989
1788.000000	0.007063
1787.000000	0.007125
1786.000000	0.007157
1785.000000	0.007145
1784.000000	0.007075
1783.000000	0.006983
1782.000000	0.006997
1781.000000	0.007079
1780.000000	0.007097
1779.000000	0.007016
1778.000000	0.006932
1777.000000	0.006870
1776.000000	0.006693
1775.000000	0.006391
1774.000000	0.006183
1773.000000	0.006185
1772.000000	0.006162
1771.000000	0.005957
1770.000000	0.005743
1769.000000	0.005675
1768.000000	0.005638
1767.000000	0.005399
1766.000000	0.004934
1765.000000	0.004365
1764.000000	0.003765
1763.000000	0.003059
1762.000000	0.002136
1761.000000	0.000965
1760.000000	-0.000335
1759.000000	-0.001701
1758.000000	-0.003164
1757.000000	-0.004854
1756.000000	-0.006852
1755.000000	-0.009009
1754.000000	-0.011145
1753.000000	-0.013252
1752.000000	-0.015454
1751.000000	-0.017747
1750.000000	-0.019899
1749.000000	-0.021611
1748.000000	-0.022858
1747.000000	-0.023739
1746.000000	-0.024241
1745.000000	-0.024304
1744.000000	-0.023928
1743.000000	-0.023223
1742.000000	-0.022178
1741.000000	-0.020574
1740.000000	-0.018393
1739.000000	-0.016232
1738.000000	-0.014649
1737.000000	-0.013466
1736.000000	-0.012009
1735.000000	-0.009795
1734.000000	-0.007297
1733.000000	-0.005354
1732.000000	-0.003858
1731.000000	-0.002426
1730.000000	-0.001030
1729.000000	0.000219
1728.000000	0.001248
1727.000000	0.002092
1726.000000	0.002860
1725.000000	0.003624
1724.000000	0.004382
1723.000000	0.004962
1722.000000	0.005229
1721.000000	0.005299
1720.000000	0.005445
1719.000000	0.005866
1718.000000	0.006456
1717.000000	0.007011
1716.000000	0.007583
1715.000000	0.008236
1714.000000	0.008861
1713.000000	0.009405
1712.000000	0.009904
1711.000000	0.010369
1710.000000	0.010786
1709.000000	0.011165
1708.000000	0.011579
1707.000000	0.012172
1706.000000	0.012916
1705.000000	0.013512
1704.000000	0.013692
1703.000000	0.013640
1702.000000	0.013997
1701.000000	0.015299
1700.000000	0.016883
1699.000000	0.017798
1698.000000	0.018483
1697.000000	0.019745
1696.000000	0.021643
1695.000000	0.023418
1694.000000	0.024694
1693.000000	0.025822
1692.000000	0.027077
1691.000000	0.028416
1690.000000	0.029667
1689.000000	0.030645
1688.000000	0.031224
1687.000000	0.031592
1686.000000	0.032323
1685.000000	0.034046
1684.000000	0.036277
1683.000000	0.037977
1682.000000	0.039342
1681.000000	0.040876
1680.000000	0.042486
1679.000000	0.043822
1678.000000	0.044895
1677.000000	0.046193
1676.000000	0.048079
1675.000000	0.050141
1674.000000	0.051761
1673.000000	0.053014
1672.000000	0.054371
1671.000000	0.056078
1670.000000	0.058093
1669.000000	0.060162
1668.000000	0.062002
1667.000000	0.063492
1666.000000	0.064748
1665.000000	0.066081
1664.000000	0.067768
1663.000000	0.069648
1662.000000	0.071349
1661.000000	0.072796
1660.000000	0.074150
1659.000000	0.075413
1658.000000	0.076379
1657.000000	0.076853
1656.000000	0.076939
1655.000000	0.077232
1654.000000	0.078524
1653.000000	0.080520
1652.000000	0.081993
1651.000000	0.082889
1650.000000	0.083622
1649.000000	0.084404
1648.000000	0.085365
1647.000000	0.086355
1646.000000	0.087052
1645.000000	0.087582
1644.000000	0.088187
1643.000000	0.088808
1642.000000	0.089347
1641.000000	0.089757
1640.000000	0.089980
1639.000000	0.089996
1638.000000	0.089936
1637.000000	0.090111
1636.000000	0.090547
1635.000000	0.090881
1634.000000	0.090973
1633.000000	0.091046
1632.000000	0.091147
1631.000000	0.091134
1630.000000	0.090918
1629.000000	0.090507
1628.000000	0.089894
1627.000000	0.089046
1626.000000	0.088047
1625.000000	0.087036
1624.000000	0.086044
1623.000000	0.084908
1622.000000	0.083555
1621.000000	0.082096
1620.000000	0.080605
1619.000000	0.079078
1618.000000	0.077487
1617.000000	0.075798
1616.000000	0.074056
1615.000000	0.072469
1614.000000	0.071099
1613.000000	0.069799
1612.000000	0.068415
1611.000000	0.066903
1610.000000	0.065340
1609.000000	0.063821
1608.000000	0.062388
1607.000000	0.061033
1606.000000	0.059778
1605.000000	0.058612
1604.000000	0.057521
1603.000000	0.056527
1602.000000	0.055628
1601.000000	0.054797
1600.000000	0.054020
1599.000000	0.053328
1598.000000	0.052749
1597.000000	0.052268
1596.000000	0.051867
1595.000000	0.051539
1594.000000	0.051261
1593.000000	0.051001
1592.000000	0.050763
1591.000000	0.050577
1590.000000	0.050442
1589.000000	0.050316
1588.000000	0.050197
1587.000000	0.050144
1586.000000	0.050197
1585.000000	0.050336
1584.000000	0.050507
1583.000000	0.050756
1582.000000	0.051116
1581.000000	0.051468
1580.000000	0.051646
1579.000000	0.051703
1578.000000	0.051918
1577.000000	0.052555
1576.000000	0.053497
1575.000000	0.054353
1574.000000	0.055003
1573.000000	0.055512
1572.000000	0.056027
1571.000000	0.056764
1570.000000	0.057758
1569.000000	0.058750
1568.000000	0.059575
1567.000000	0.060424
1566.000000	0.061457
1565.000000	0.062555
1564.000000	0.063326
1563.000000	0.063540
1562.000000	0.063358
1561.000000	0.063400
1560.000000	0.064482
1559.000000	0.066358
1558.000000	0.067686
1557.000000	0.068594
1556.000000	0.069660
1555.000000	0.070911
1554.000000	0.072129
1553.000000	0.073099
1552.000000	0.073886
1551.000000	0.074680
1550.000000	0.075431
1549.000000	0.075978
1548.000000	0.076286
1547.000000	0.076531
1546.000000	0.076848
1545.000000	0.077155
1544.000000	0.077268
1543.000000	0.077208
1542.000000	0.077191
1541.000000	0.077441
1540.000000	0.077847
1539.000000	0.078113
1538.000000	0.078218
1537.000000	0.078241
1536.000000	0.078203
1535.000000	0.078166
1534.000000	0.078132
1533.000000	0.077881
1532.000000	0.077432
1531.000000	0.077002
1530.000000	0.076625
1529.000000	0.076220
1528.000000	0.075737
1527.000000	0.075179
1526.000000	0.074544
1525.000000	0.073779
1524.000000	0.072938
1523.000000	0.072202
1522.000000	0.071664
1521.000000	0.071176
1520.000000	0.070681
1519.000000	0.070350
1518.000000	0.070231
1517.000000	0.070105
1516.000000	0.069714
1515.000000	0.069054
1514.000000	0.068313
1513.000000	0.067537
1512.000000	0.066639
1511.000000	0.065503
1510.000000	0.064165
1509.000000	0.062826
1508.000000	0.061750
1507.000000	0.060901
1506.000000	0.060076
1505.000000	0.059383
1504.000000	0.058863
1503.000000	0.058304
1502.000000	0.057508
1501.000000	0.056439
1500.000000	0.055150
1499.000000	0.053739
1498.000000	0.052302
1497.000000	0.050939
1496.000000	0.049731
1495.000000	0.048662
1494.000000	0.047684
1493.000000	0.046782
1492.000000	0.045983
1491.000000	0.045263
1490.000000	0.044541
1489.000000	0.043850
1488.000000	0.043348
1487.000000	0.043016
1486.000000	0.042734
1485.000000	0.042494
1484.000000	0.042328
1483.000000	0.042307
1482.000000	0.042420
1481.000000	0.042587
1480.000000	0.042738
1479.000000	0.042885
1478.000000	0.043056
1477.000000	0.043186
1476.000000	0.043156
1475.000000	0.042942
1474.000000	0.042710
1473.000000	0.042492
1472.000000	0.042107
1471.000000	0.041497
1470.000000	0.040804
1469.000000	0.040151
1468.000000	0.039628
1467.000000	0.039349
1466.000000	0.039469
1465.000000	0.039983
1464.000000	0.040634
1463.000000	0.041199
1462.000000	0.041621
1461.000000	0.041923
1460.000000	0.042127
1459.000000	0.042415
1458.000000	0.043132
1457.000000	0.044384
1456.000000	0.045759
1455.000000	0.046995
1454.000000	0.048163
1453.000000	0.049267
1452.000000	0.050197
1451.000000	0.050847
1450.000000	0.051277
1449.000000	0.051642
1448.000000	0.051974
1447.000000	0.052156
1446.000000	0.052224
1445.000000	0.052255
1444.000000	0.052273
1443.000000	0.052245
1442.000000	0.052118
1441.000000	0.051849
1440.000000	0.051417
1439.000000	0.050919
1438.000000	0.050543
1437.000000	0.050405
1436.000000	0.050347
1435.000000	0.050245
1434.000000	0.050136
1433.000000	0.050053
1432.000000	0.049968
1431.000000	0.049862
1430.000000	0.049750
1429.000000	0.049680
1428.000000	0.049649
1427.000000	0.049608
1426.000000	0.049613
1425.000000	0.049680
1424.000000	0.049673
1423.000000	0.049425
1422.000000	0.048972
1421.000000	0.048560
1420.000000	0.048404
1419.000000	0.048464
1418.000000	0.048579
1417.000000	0.048757
1416.000000	0.049024
1415.000000	0.049327
1414.000000	0.049633
1413.000000	0.049956
1412.000000	0.050306
1411.000000	0.050642
1410.000000	0.050908
1409.000000	0.051101
1408.000000	0.051254
1407.000000	0.051373
1406.000000	0.051499
1405.000000	0.051641
1404.000000	0.051726
1403.000000	0.051690
1402.000000	0.051578
1401.000000	0.051510
1400.000000	0.051497
1399.000000	0.051401
1398.000000	0.051142
1397.000000	0.050825
1396.000000	0.050552
1395.000000	0.050291
1394.000000	0.049997
1393.000000	0.049681
1392.000000	0.049344
1391.000000	0.048930
1390.000000	0.048414
1389.000000	0.047858
1388.000000	0.047325
1387.000000	0.046786
1386.000000	0.046203
1385.000000	0.045580
1384.000000	0.044907
1383.000000	0.044152
1382.000000	0.043308
1381.000000	0.042433
1380.000000	0.041595
1379.000000	0.040829
1378.000000	0.040162
1377.000000	0.039631
1376.000000	0.039251
1375.000000	0.038972
1374.000000	0.038707
1373.000000	0.038409
1372.000000	0.038102
1371.000000	0.037810
1370.000000	0.037537
1369.000000	0.037252
1368.000000	0.036910
1367.000000	0.036494
1366.000000	0.036027
1365.000000	0.035558
1364.000000	0.035119
1363.000000	0.034707
1362.000000	0.034314
1361.000000	0.033959
1360.000000	0.033666
1359.000000	0.033420
1358.000000	0.033195
1357.000000	0.032983
1356.000000	0.032799
1355.000000	0.032660
1354.000000	0.032576
1353.000000	0.032556
1352.000000	0.032614
1351.000000	0.032738
1350.000000	0.032916
1349.000000	0.033136
1348.000000	0.033401
1347.000000	0.033714
1346.000000	0.034061
1345.000000	0.034415
1344.000000	0.034749
1343.000000	0.035056
1342.000000	0.035354
1341.000000	0.035669
1340.000000	0.035994
1339.000000	0.036287
1338.000000	0.036511
1337.000000	0.036663
1336.000000	0.036742
1335.000000	0.036733
1334.000000	0.036620
1333.000000	0.036410
1332.000000	0.036120
1331.000000	0.035770
1330.000000	0.035386
1329.000000	0.035004
1328.000000	0.034648
1327.000000	0.034321
1326.000000	0.034027
1325.000000	0.033778
1324.000000	0.033588
1323.000000	0.033458
1322.000000	0.033385
1321.000000	0.033366
1320.000000	0.033393
1319.000000	0.033438
1318.000000	0.033472
1317.000000	0.033490
1316.000000	0.033500
1315.000000	0.033498
1314.000000	0.033463
1313.000000	0.033374
1312.000000	0.033221
1311.000000	0.033008
1310.000000	0.032752
1309.000000	0.032482
1308.000000	0.032222
1307.000000	0.031959
1306.000000	0.031677
1305.000000	0.031377
1304.000000	0.031081
1303.000000	0.030797
1302.000000	0.030524
1301.000000	0.030264
1300.000000	0.030033
1299.000000	0.029843
1298.000000	0.029697
1297.000000	0.029603
1296.000000	0.029572
1295.000000	0.029611
1294.000000	0.029713
1293.000000	0.029875
1292.000000	0.030098
1291.000000	0.030365
1290.000000	0.030646
1289.000000	0.030916
1288.000000	0.031166
1287.000000	0.031399
1286.000000	0.031626
1285.000000	0.031866
1284.000000	0.032123
1283.000000	0.032381
1282.000000	0.032618
1281.000000	0.032828
1280.000000	0.033009
1279.000000	0.033154
1278.000000	0.033251
1277.000000	0.033306
1276.000000	0.033333
1275.000000	0.033343
1274.000000	0.033335
1273.000000	0.033310
1272.000000	0.033273
1271.000000	0.033223
1270.000000	0.033169
1269.000000	0.033134
1268.000000	0.033133
1267.000000	0.033153
1266.000000	0.033166
1265.000000	0.033172
1264.000000	0.033198
1263.000000	0.033271
1262.000000	0.033401
1261.000000	0.033587
1260.000000	0.033833
1259.000000	0.034148
1258.000000	0.034533
1257.000000	0.034977
1256.000000	0.035449
1255.000000	0.035909
1254.000000	0.036329
1253.000000	0.036716
1252.000000	0.037091
1251.000000	0.037470
1250.000000	0.037867
1249.000000	0.038291
1248.000000	0.038731
1247.000000	0.039160
1246.000000	0.039572
1245.000000	0.039997
1244.000000	0.040469
1243.000000	0.040979
1242.000000	0.041492
1241.000000	0.041981
1240.000000	0.042424
1239.000000	0.042799
1238.000000	0.043103
1237.000000	0.043357
1236.000000	0.043567
1235.000000	0.043703
1234.000000	0.043720
1233.000000	0.043608
1232.000000	0.043376
1231.000000	0.043026
1230.000000	0.042551
1229.000000	0.041952
1228.000000	0.041241
1227.000000	0.040427
1226.000000	0.039522
1225.000000	0.038548
1224.000000	0.037533
1223.000000	0.036496
1222.000000	0.035451
1221.000000	0.034421
1220.000000	0.033437
1219.000000	0.032527
1218.000000	0.031709
1217.000000	0.030997
1216.000000	0.030401
1215.000000	0.029920
1214.000000	0.029544
1213.000000	0.029253
1212.000000	0.029026
1211.000000	0.028848
1210.000000	0.028707
1209.000000	0.028598
1208.000000	0.028504
1207.000000	0.028401
1206.000000	0.028273
1205.000000	0.028110
1204.000000	0.027900
1203.000000	0.027611
1202.000000	0.027213
1201.000000	0.026700
1200.000000	0.026093
1199.000000	0.025410
1198.000000	0.024658
1197.000000	0.023852
1196.000000	0.023017
1195.000000	0.022177
1194.000000	0.021342
1193.000000	0.020519
1192.000000	0.019721
1191.000000	0.018965
1190.000000	0.018255
1189.000000	0.017589
1188.000000	0.016961
1187.000000	0.016380
1186.000000	0.015865
1185.000000	0.015436
1184.000000	0.015095
1183.000000	0.014817
1182.000000	0.014564
1181.000000	0.014313
1180.000000	0.014064
1179.000000	0.013820
1178.000000	0.013569
1177.000000	0.013303
1176.000000	0.013026
1175.000000	0.012742
1174.000000	0.012445
1173.000000	0.012137
1172.000000	0.011837
1171.000000	0.011561
1170.000000	0.011299
1169.000000	0.011035
1168.000000	0.010773
1167.000000	0.010536
1166.000000	0.010342
1165.000000	0.010200
1164.000000	0.010109
1163.000000	0.010058
1162.000000	0.010023
1161.000000	0.009976
1160.000000	0.009909
1159.000000	0.009825
1158.000000	0.009729
1157.000000	0.009630
1156.000000	0.009534
1155.000000	0.009430
1154.000000	0.009293
1153.000000	0.009114
1152.000000	0.008916
1151.000000	0.008732
1150.000000	0.008563
1149.000000	0.008391
1148.000000	0.008212
1147.000000	0.008042
1146.000000	0.007890
1145.000000	0.007760
1144.000000	0.007670
1143.000000	0.007659
1142.000000	0.007760
1141.000000	0.007978
1140.000000	0.008299
1139.000000	0.008691
1138.000000	0.009125
1137.000000	0.009595
1136.000000	0.010108
1135.000000	0.010651
1134.000000	0.011186
1133.000000	0.011672
1132.000000	0.012095
1131.000000	0.012451
1130.000000	0.012722
1129.000000	0.012891
1128.000000	0.012962
1127.000000	0.012958
1126.000000	0.012888
1125.000000	0.012744
1124.000000	0.012532
1123.000000	0.012285
1122.000000	0.012056
1121.000000	0.011884
1120.000000	0.011784
1119.000000	0.011747
1118.000000	0.011763
1117.000000	0.011844
1116.000000	0.012006
1115.000000	0.012248
1114.000000	0.012539
1113.000000	0.012848
1112.000000	0.013161
1111.000000	0.013469
1110.000000	0.013753
1109.000000	0.013997
1108.000000	0.014210
1107.000000	0.014409
1106.000000	0.014594
1105.000000	0.014748
1104.000000	0.014865
1103.000000	0.014957
1102.000000	0.015039
1101.000000	0.015119
1100.000000	0.015199
1099.000000	0.015288
1098.000000	0.015400
1097.000000	0.015555
1096.000000	0.015777
1095.000000	0.016085
1094.000000	0.016477
1093.000000	0.016930
1092.000000	0.017424
1091.000000	0.017955
1090.000000	0.018539
1089.000000	0.019191
1088.000000	0.019912
1087.000000	0.020693
1086.000000	0.021517
1085.000000	0.022354
1084.000000	0.023138
1083.000000	0.023791
1082.000000	0.024253
1081.000000	0.024500
1080.000000	0.024534
1079.000000	0.024378
1078.000000	0.024085
1077.000000	0.023716
1076.000000	0.023308
1075.000000	0.022872
1074.000000	0.022427
1073.000000	0.022029
1072.000000	0.021729
1071.000000	0.021534
1070.000000	0.021415
1069.000000	0.021346
1068.000000	0.021317
1067.000000	0.021318
1066.000000	0.021347
1065.000000	0.021414
1064.000000	0.021535
1063.000000	0.021702
1062.000000	0.021883
1061.000000	0.022046
1060.000000	0.022180
1059.000000	0.022289
1058.000000	0.022388
1057.000000	0.022496
1056.000000	0.022628
1055.000000	0.022776
1054.000000	0.022914
1053.000000	0.023020
1052.000000	0.023091
1051.000000	0.023145
1050.000000	0.023206
1049.000000	0.023290
1048.000000	0.023385
1047.000000	0.023473
1046.000000	0.023540
1045.000000	0.023582
1044.000000	0.023593
1043.000000	0.023572
1042.000000	0.023548
1041.000000	0.023575
1040.000000	0.023686
1039.000000	0.023870
1038.000000	0.024111
1037.000000	0.024417
1036.000000	0.024804
1035.000000	0.025246
1034.000000	0.025679
1033.000000	0.026044
1032.000000	0.026316
1031.000000	0.026495
1030.000000	0.026590
1029.000000	0.026618
1028.000000	0.026593
1027.000000	0.026522
1026.000000	0.026409
1025.000000	0.026275
1024.000000	0.026150
1023.000000	0.026063
1022.000000	0.026034
1021.000000	0.026076
1020.000000	0.026186
1019.000000	0.026342
1018.000000	0.026501
1017.000000	0.026611
1016.000000	0.026613
1015.000000	0.026455
1014.000000	0.026106
1013.000000	0.025579
1012.000000	0.024924
1011.000000	0.024195
1010.000000	0.023450
1009.000000	0.022724
1008.000000	0.022033
1007.000000	0.021374
1006.000000	0.020751
1005.000000	0.020177
1004.000000	0.019665
1003.000000	0.019202
1002.000000	0.018757
1001.000000	0.018309
1000.000000	0.017860
999.000000	0.017430
998.000000	0.017032
997.000000	0.016664
996.000000	0.016310
995.000000	0.015960
994.000000	0.015610
993.000000	0.015264
992.000000	0.014918
991.000000	0.014563
990.000000	0.014201
989.000000	0.013846
988.000000	0.013522
987.000000	0.013234
986.000000	0.012977
985.000000	0.012742
984.000000	0.012531
983.000000	0.012348
982.000000	0.012188
981.000000	0.012041
980.000000	0.011907
979.000000	0.011794
978.000000	0.011704
977.000000	0.011623
976.000000	0.011526
975.000000	0.011396
974.000000	0.011229
973.000000	0.011030
972.000000	0.010795
971.000000	0.010526
970.000000	0.010235
969.000000	0.009942
968.000000	0.009660
967.000000	0.009397
966.000000	0.009179
965.000000	0.009035
964.000000	0.008964
963.000000	0.008925
962.000000	0.008874
961.000000	0.008812
960.000000	0.008767
959.000000	0.008754
958.000000	0.008765
957.000000	0.008785
956.000000	0.008808
955.000000	0.008819
954.000000	0.008793
953.000000	0.008726
952.000000	0.008640
951.000000	0.008564
950.000000	0.008506
949.000000	0.008458
948.000000	0.008407
947.000000	0.008351
946.000000	0.008295
945.000000	0.008248
944.000000	0.008215
943.000000	0.008209
942.000000	0.008250
941.000000	0.008347
940.000000	0.008472
939.000000	0.008571
938.000000	0.008611
937.000000	0.008608
936.000000	0.008595
935.000000	0.008575
934.000000	0.008531
933.000000	0.008462
932.000000	0.008391
931.000000	0.008330
930.000000	0.008268
929.000000	0.008195
928.000000	0.008118
927.000000	0.008042
926.000000	0.007951
925.000000	0.007826
924.000000	0.007665
923.000000	0.007486
922.000000	0.007307
921.000000	0.007143
920.000000	0.006993
919.000000	0.006846
918.000000	0.006680
917.000000	0.006492
916.000000	0.006301
915.000000	0.006130
914.000000	0.005979
913.000000	0.005834
912.000000	0.005689
911.000000	0.005559
910.000000	0.005470
909.000000	0.005428
908.000000	0.005408
907.000000	0.005375
906.000000	0.005320
905.000000	0.005271
904.000000	0.005257
903.000000	0.005272
902.000000	0.005282
901.000000	0.005259
900.000000	0.005205
899.000000	0.005133
898.000000	0.005061
897.000000	0.005005
896.000000	0.004970
895.000000	0.004939
894.000000	0.004893
893.000000	0.004841
892.000000	0.004813
891.000000	0.004820
890.000000	0.004838
889.000000	0.004838
888.000000	0.004825
887.000000	0.004831
886.000000	0.004893
885.000000	0.005039
884.000000	0.005298
883.000000	0.005687
882.000000	0.006221
881.000000	0.006906
880.000000	0.007736
879.000000	0.008661
878.000000	0.009570
877.000000	0.010314
876.000000	0.010757
875.000000	0.010826
874.000000	0.010538
873.000000	0.009969
872.000000	0.009211
871.000000	0.008345
870.000000	0.007472
869.000000	0.006705
868.000000	0.006127
867.000000	0.005739
866.000000	0.005483
865.000000	0.005308
864.000000	0.005196
863.000000	0.005146
862.000000	0.005146
861.000000	0.005185
860.000000	0.005264
859.000000	0.005387
858.000000	0.005544
857.000000	0.005698
856.000000	0.005809
855.000000	0.005856
854.000000	0.005854
853.000000	0.005851
852.000000	0.005881
851.000000	0.005940
850.000000	0.005996
849.000000	0.006025
848.000000	0.006024
847.000000	0.006004
846.000000	0.005985
845.000000	0.005997
844.000000	0.006060
843.000000	0.006171
842.000000	0.006317
841.000000	0.006490
840.000000	0.006686
839.000000	0.006880
838.000000	0.007037
837.000000	0.007141
836.000000	0.007205
835.000000	0.007247
834.000000	0.007268
833.000000	0.007257
832.000000	0.007213
831.000000	0.007138
830.000000	0.007036
829.000000	0.006908
828.000000	0.006762
827.000000	0.006605
826.000000	0.006435
825.000000	0.006252
824.000000	0.006071
823.000000	0.005922
822.000000	0.005829
821.000000	0.005781
820.000000	0.005746
819.000000	0.005689
818.000000	0.005603
817.000000	0.005500
816.000000	0.005396
815.000000	0.005302
814.000000	0.005227
813.000000	0.005177
812.000000	0.005139
811.000000	0.005095
810.000000	0.005036
809.000000	0.004966
808.000000	0.004892
807.000000	0.004830
806.000000	0.004807
805.000000	0.004835
804.000000	0.004889
803.000000	0.004923
802.000000	0.004926
801.000000	0.004925
800.000000	0.004939
799.000000	0.004956
798.000000	0.004970
797.000000	0.005002
796.000000	0.005062
795.000000	0.005134
794.000000	0.005206
793.000000	0.005297
792.000000	0.005426
791.000000	0.005580
790.000000	0.005728
789.000000	0.005856
788.000000	0.005952
787.000000	0.005995
786.000000	0.005982
785.000000	0.005957
784.000000	0.005974
783.000000	0.006037
782.000000	0.006104
781.000000	0.006147
780.000000	0.006176
779.000000	0.006213
778.000000	0.006266
777.000000	0.006342
776.000000	0.006438
775.000000	0.006533
774.000000	0.006590
773.000000	0.006586
772.000000	0.006538
771.000000	0.006489
770.000000	0.006477
769.000000	0.006510
768.000000	0.006562
767.000000	0.006603
766.000000	0.006632
765.000000	0.006673
764.000000	0.006745
763.000000	0.006848
762.000000	0.006973
761.000000	0.007110
760.000000	0.007238
759.000000	0.007337
758.000000	0.007420
757.000000	0.007526
756.000000	0.007667
755.000000	0.007815
754.000000	0.007942
753.000000	0.008046
752.000000	0.008135
751.000000	0.008204
750.000000	0.008256
749.000000	0.008308
748.000000	0.008359
747.000000	0.008375
746.000000	0.008331
745.000000	0.008241
744.000000	0.008131
743.000000	0.008001
742.000000	0.007848
741.000000	0.007701
740.000000	0.007598
739.000000	0.007554
738.000000	0.007558
737.000000	0.007597
736.000000	0.007654
735.000000	0.007705
734.000000	0.007739
733.000000	0.007776
732.000000	0.007838
731.000000	0.007915
730.000000	0.007984
729.000000	0.008028
728.000000	0.008040
727.000000	0.008013
726.000000	0.007959
725.000000	0.007915
724.000000	0.007913
723.000000	0.007959
722.000000	0.008067
721.000000	0.008268
720.000000	0.008571
719.000000	0.008935
718.000000	0.009314
717.000000	0.009710
716.000000	0.010153
715.000000	0.010643
714.000000	0.011145
713.000000	0.011614
712.000000	0.012003
711.000000	0.012284
710.000000	0.012481
709.000000	0.012662
708.000000	0.012875
707.000000	0.013101
706.000000	0.013304
705.000000	0.013494
704.000000	0.013707
703.000000	0.013947
702.000000	0.014181
701.000000	0.014383
700.000000	0.014536
699.000000	0.014624
698.000000	0.014651
697.000000	0.014656
696.000000	0.014691
695.000000	0.014758
694.000000	0.014822
693.000000	0.014856
692.000000	0.014873
691.000000	0.014900
690.000000	0.014946
689.000000	0.015000
688.000000	0.015059
687.000000	0.015148
686.000000	0.015296
685.000000	0.015494
684.000000	0.015699
683.000000	0.015887
682.000000	0.016087
681.000000	0.016330
680.000000	0.016593
679.000000	0.016830
678.000000	0.017029
677.000000	0.017223
676.000000	0.017429
675.000000	0.017640
674.000000	0.017867
673.000000	0.018121
672.000000	0.018347
671.000000	0.018462
670.000000	0.018459
669.000000	0.018434
668.000000	0.018539
667.000000	0.018859
666.000000	0.019149
665.000000	0.019319
664.000000	0.019432
663.000000	0.019487
662.000000	0.019487
661.000000	0.019495
660.000000	0.019564
659.000000	0.019660
658.000000	0.019728
657.000000	0.019777
656.000000	0.019829
655.000000	0.019863
654.000000	0.019881
653.000000	0.019939
652.000000	0.020053
651.000000	0.020139
650.000000	0.020122
649.000000	0.020032
648.000000	0.019945
647.000000	0.019903
646.000000	0.019929
645.000000	0.020045
644.000000	0.020210
643.000000	0.020317
642.000000	0.020301
641.000000	0.020197
640.000000	0.020064
639.000000	0.019917
638.000000	0.019784
637.000000	0.019728
636.000000	0.019760
635.000000	0.019807
634.000000	0.019815
633.000000	0.019812
632.000000	0.019827
631.000000	0.019833
630.000000	0.019819
629.000000	0.019832
628.000000	0.019895
627.000000	0.019959
626.000000	0.019978
625.000000	0.019978
624.000000	0.019988
623.000000	0.019990
622.000000	0.019993
621.000000	0.020053
620.000000	0.020177
619.000000	0.020283
618.000000	0.020310
617.000000	0.020293
616.000000	0.020275
615.000000	0.020225
614.000000	0.020123
613.000000	0.020038
612.000000	0.020025
611.000000	0.020036
610.000000	0.020013
609.000000	0.019985
608.000000	0.019993
607.000000	0.019994
606.000000	0.019937
605.000000	0.019852
604.000000	0.019797
603.000000	0.019777
602.000000	0.019793
601.000000	0.019888
600.000000	0.020057
599.000000	0.020202
598.000000	0.020259
597.000000	0.020288
596.000000	0.020347
595.000000	0.020371
594.000000	0.020277
593.000000	0.020117
592.000000	0.019996
591.000000	0.019924
590.000000	0.019858
589.000000	0.019821
588.000000	0.019844
587.000000	0.019856
586.000000	0.019775
585.000000	0.019650
584.000000	0.019613
583.000000	0.019695
582.000000	0.019825
581.000000	0.019954
580.000000	0.020089
579.000000	0.020218
578.000000	0.020330
577.000000	0.020449
576.000000	0.020580
575.000000	0.020664
574.000000	0.020687
573.000000	0.020755
572.000000	0.020953
571.000000	0.021207
570.000000	0.021390
569.000000	0.021520
568.000000	0.021710
567.000000	0.021967
566.000000	0.022185
565.000000	0.022329
564.000000	0.022477
563.000000	0.022694
562.000000	0.022972
561.000000	0.023252
560.000000	0.023449
559.000000	0.023485
558.000000	0.023399
557.000000	0.023342
556.000000	0.023394
555.000000	0.023466
554.000000	0.023437
553.000000	0.023319
552.000000	0.023161
551.000000	0.022919
550.000000	0.022539
549.000000	0.022092
548.000000	0.021706
547.000000	0.021417
546.000000	0.021178
545.000000	0.020971
544.000000	0.020811
543.000000	0.020707
542.000000	0.020690
541.000000	0.020788
540.000000	0.020928
539.000000	0.020968
538.000000	0.020906
537.000000	0.020927
536.000000	0.021146
535.000000	0.021426
534.000000	0.021592
533.000000	0.021681
532.000000	0.021848
531.000000	0.022110
530.000000	0.022333
529.000000	0.022403
528.000000	0.022295
527.000000	0.022041
526.000000	0.021734
525.000000	0.021481
524.000000	0.021251
523.000000	0.020902
522.000000	0.020410
521.000000	0.019934
520.000000	0.019574
519.000000	0.019239
518.000000	0.018839
517.000000	0.018445
516.000000	0.018131
515.000000	0.017834
514.000000	0.017518
513.000000	0.017264
512.000000	0.017086
511.000000	0.016833
510.000000	0.016439
509.000000	0.016087
508.000000	0.015962
507.000000	0.015961
506.000000	0.015857
505.000000	0.015628
504.000000	0.015396
503.000000	0.015190
502.000000	0.014969
501.000000	0.014774
500.000000	0.014635
499.000000	0.014433
498.000000	0.014080
497.000000	0.013724
496.000000	0.013579
495.000000	0.013611
494.000000	0.013583
493.000000	0.013360
492.000000	0.012998
491.000000	0.012586
490.000000	0.012184
489.000000	0.011886
488.000000	0.011764
487.000000	0.011776
486.000000	0.011838
485.000000	0.011923
484.000000	0.011955
483.000000	0.011740
482.000000	0.011207
481.000000	0.010626
480.000000	0.010338
479.000000	0.010354
478.000000	0.010398
477.000000	0.010244
476.000000	0.009844
475.000000	0.009275
474.000000	0.008782
473.000000	0.008765
472.000000	0.009363
471.000000	0.010123
470.000000	0.010461
469.000000	0.010301
468.000000	0.009939
467.000000	0.009573
466.000000	0.009203
465.000000	0.008822
464.000000	0.008450
463.000000	0.008026
462.000000	0.007479
461.000000	0.006913
460.000000	0.006495
459.000000	0.006252
458.000000	0.006148
457.000000	0.006198
456.000000	0.007191
455.000000	0.006748
454.000000	0.006134
453.000000	0.005532
452.000000	0.005172
451.000000	0.005018
450.000000	0.004848
